C:\MassHunter\GCMS\1\data\JTB-E02\BACandBLUE\JTB-E18-022-12.D Thu Jul 11 14:24:18 2019
Start of data points
2.09530,57789
2.10342,57310
2.11155,61814
2.11967,59659
2.12780,60492
2.13592,62394
2.14403,59036
2.15217,56811
2.16028,58314
2.16842,55578
2.17653,57278
2.18465,57490
2.19278,57641
2.20090,56283
2.20903,53596
2.21715,54731
2.22527,54021
2.23340,54918
2.24152,54943
2.24963,55745
2.25777,56284
2.26588,55899
2.27402,140595
2.28213,749813
2.29025,1022122
2.29838,474192
2.30650,276019
2.31463,206893
2.32275,183628
2.33087,175474
2.33900,263360
2.34712,313902
2.35523,182049
2.36337,153789
2.37148,134438
2.37962,123621
2.38773,124051
2.39585,117632
2.40398,113328
2.41210,104792
2.42023,106544
2.42835,110603
2.43647,105199
2.44460,102632
2.45272,106768
2.46085,102866
2.46897,101463
2.47708,99775
2.48522,100978
2.49333,115646
2.50145,160633
2.50958,132896
2.51770,112789
2.52583,105121
2.53395,105720
2.54207,101243
2.55020,97804
2.55832,112295
2.56645,135825
2.57457,129525
2.58268,116065
2.59082,107573
2.59893,103109
2.60707,141254
2.61518,463972
2.62330,709408
2.63143,446256
2.63955,267722
2.64767,200583
2.65580,176127
2.66392,143790
2.67205,134986
2.68017,133316
2.68828,121864
2.69642,111896
2.70453,114634
2.71267,113063
2.72078,108949
2.72890,103339
2.73703,99387
2.74515,97876
2.75327,99112
2.76140,96980
2.76952,98084
2.77765,97911
2.78577,137067
2.79388,233100
2.80202,215683
2.81013,155297
2.81827,145646
2.82638,144994
2.83450,137341
2.84263,132157
2.85075,123734
2.85888,108778
2.86700,106214
2.87512,107671
2.88325,102212
2.89137,97668
2.89948,94936
2.90762,98611
2.91573,92262
2.92387,94927
2.93198,87633
2.94010,91836
2.94823,88328
2.95635,89746
2.96448,96869
2.97260,108089
2.98072,100045
2.98885,95113
2.99697,92989
3.00510,90058
3.01322,95461
3.02133,89925
3.02947,93763
3.03758,89256
3.04570,86999
3.05383,88682
3.06195,93046
3.07008,99786
3.07820,100690
3.08632,210791
3.09445,828633
3.10257,1843336
3.11070,3202925
3.11882,4147039
3.12693,3082974
3.13507,1827672
3.14318,1320170
3.15130,1022460
3.15943,817695
3.16755,689439
3.17568,630374
3.18380,598134
3.19192,803683
3.20005,1351612
3.20817,1388895
3.21630,965217
3.22442,707891
3.23253,589541
3.24067,519755
3.24878,460593
3.25692,413133
3.26503,368461
3.27315,337306
3.28128,324396
3.28940,400770
3.29752,1009074
3.30565,2893809
3.31377,5280315
3.32190,5850133
3.33002,4366268
3.33813,2858215
3.34627,2027067
3.35438,1577093
3.36252,1304524
3.37063,1099698
3.37875,941910
3.38688,869875
3.39500,735718
3.40312,684048
3.41125,624263
3.41937,591912
3.42750,539321
3.43562,523795
3.44373,492964
3.45187,469547
3.45998,455815
3.46812,427422
3.47623,438687
3.48435,430972
3.49248,419779
3.50060,410392
3.50873,382161
3.51685,369563
3.52497,356749
3.53310,352557
3.54122,355086
3.54933,349414
3.55747,344355
3.56558,326844
3.57372,346395
3.58183,371592
3.58995,378558
3.59808,338631
3.60620,325901
3.61433,318198
3.62245,328426
3.63057,323776
3.63870,328863
3.64682,327191
3.65495,312610
3.66307,354712
3.67118,887816
3.67932,2799944
3.68743,4834227
3.69555,4276093
3.70368,2531638
3.71180,1585202
3.71993,1237168
3.72805,1032968
3.73617,898983
3.74430,808897
3.75242,721317
3.76055,672567
3.76867,641735
3.77678,604245
3.78492,572392
3.79303,549400
3.80117,566994
3.80928,809176
3.81740,1458636
3.82553,1909406
3.83365,1589406
3.84177,1115624
3.84990,856343
3.85802,730583
3.86615,656801
3.87427,604288
3.88238,548855
3.89052,528216
3.89863,503904
3.90677,475304
3.91488,480745
3.92300,521568
3.93113,623909
3.93925,680157
3.94737,663521
3.95550,896166
3.96362,1843114
3.97175,3016564
3.97987,3061540
3.98798,2123723
3.99612,1625665
4.00423,3211781
4.01237,8552690
4.02048,1.43144E+07
4.02860,1.420339E+07
4.03673,9154996
4.04485,4883361
4.05298,2934708
4.06110,2118684
4.06922,1670822
4.07735,1378626
4.08547,1180723
4.09358,1030378
4.10172,907900
4.10983,831123
4.11797,762121
4.12608,707433
4.13420,656142
4.14233,690107
4.15045,752449
4.15858,768743
4.16670,709587
4.17482,638723
4.18295,598315
4.19107,546441
4.19918,512617
4.20732,603539
4.21543,1501658
4.22357,5096062
4.23168,1.143788E+07
4.23980,1.629681E+07
4.24793,1.628879E+07
4.25605,1.162711E+07
4.26418,6935422
4.27230,4697856
4.28042,3512698
4.28855,2733967
4.29667,2230636
4.30480,1888636
4.31292,1626006
4.32103,1421703
4.32917,1280501
4.33728,1157026
4.34540,1097874
4.35353,1035895
4.36165,998269
4.36978,961788
4.37790,911731
4.38602,857839
4.39415,798270
4.40227,758783
4.41040,714715
4.41852,672511
4.42663,656916
4.43477,640076
4.44288,619770
4.45102,589971
4.45913,565820
4.46725,546573
4.47538,531109
4.48350,515589
4.49162,512345
4.49975,494090
4.50787,496678
4.51600,474268
4.52412,456565
4.53223,441375
4.54037,438865
4.54848,422127
4.55662,426913
4.56473,412614
4.57285,395896
4.58098,401669
4.58910,381560
4.59722,377402
4.60535,364531
4.61347,372799
4.62160,374821
4.62972,423275
4.63783,538683
4.64597,658056
4.65408,699309
4.66222,598239
4.67033,491852
4.67845,410444
4.68658,383069
4.69470,368080
4.70283,343626
4.71095,333473
4.71907,334125
4.72720,318758
4.73532,315582
4.74343,310923
4.75157,299578
4.75968,294739
4.76782,294005
4.77593,297138
4.78405,280454
4.79218,303411
4.80030,355867
4.80843,439668
4.81655,477184
4.82467,445235
4.83280,385756
4.84092,380272
4.84905,374149
4.85717,382010
4.86528,365699
4.87342,336510
4.88153,321922
4.88965,296985
4.89778,288006
4.90590,283895
4.91403,274652
4.92215,281677
4.93027,338113
4.93840,612063
4.94652,1378098
4.95465,2670972
4.96277,3940367
4.97088,4265343
4.97902,3583438
4.98713,2531157
4.99525,1740795
5.00338,1279358
5.01150,1006137
5.01963,841830
5.02775,828412
5.03587,1001602
5.04400,1258553
5.05212,1325256
5.06025,1171395
5.06837,924876
5.07648,766610
5.08462,686106
5.09273,621687
5.10087,582796
5.10898,557765
5.11710,518382
5.12523,489011
5.13335,476223
5.14147,449784
5.14960,451242
5.15772,455783
5.16585,475279
5.17397,481601
5.18208,486056
5.19022,454681
5.19833,436910
5.20647,445828
5.21458,447990
5.22270,456433
5.23083,428712
5.23895,424361
5.24707,400831
5.25520,393728
5.26332,370833
5.27145,336822
5.27957,332153
5.28768,313630
5.29582,317697
5.30393,304420
5.31207,297631
5.32018,305520
5.32830,310250
5.33643,313005
5.34455,320515
5.35268,333218
5.36080,305372
5.36892,303346
5.37705,287251
5.38517,286048
5.39328,295186
5.40142,285544
5.40953,287291
5.41767,276727
5.42578,277815
5.43390,274153
5.44203,275987
5.45015,288490
5.45828,288308
5.46640,275382
5.47452,267557
5.48265,255604
5.49077,256541
5.49890,248420
5.50702,248212
5.51513,250830
5.52327,249002
5.53138,255859
5.53950,246465
5.54763,241086
5.55575,232920
5.56388,245444
5.57200,251375
5.58012,259843
5.58825,255786
5.59637,255530
5.60450,241413
5.61262,231252
5.62073,232428
5.62887,231975
5.63698,234773
5.64510,240625
5.65323,245532
5.66135,240470
5.66948,232905
5.67760,252739
5.68572,283947
5.69385,330436
5.70197,345202
5.71010,330001
5.71822,281874
5.72633,256712
5.73447,239024
5.74258,229099
5.75072,226218
5.75883,221701
5.76695,210028
5.77508,210901
5.78320,200929
5.79132,207203
5.79945,201462
5.80757,197615
5.81570,206021
5.82382,205371
5.83193,200504
5.84007,208513
5.84818,196731
5.85632,202785
5.86443,197586
5.87255,201327
5.88068,196440
5.88880,192669
5.89693,187357
5.90505,183777
5.91317,162005
5.92130,135280
5.92942,140296
5.93753,143959
5.94567,150658
5.95378,162796
5.96192,193259
5.97003,212718
5.97815,238579
5.98628,283919
5.99440,302926
6.00253,297401
6.01065,254888
6.01877,215313
6.02690,186442
6.03502,169378
6.04313,165678
6.05127,155544
6.05938,150532
6.06752,142775
6.07563,142591
6.08375,136570
6.09188,132959
6.10000,136560
6.10813,136937
6.11625,135202
6.12437,146165
6.13250,197675
6.14062,304299
6.14875,408581
6.15687,453937
6.16498,386182
6.17312,289545
6.18123,233398
6.18935,205579
6.19748,191911
6.20560,184764
6.21373,177990
6.22185,177567
6.22997,177568
6.23810,172704
6.24622,171571
6.25435,172129
6.26247,169110
6.27058,170771
6.27872,169839
6.28683,167859
6.29497,167435
6.30308,170291
6.31120,170493
6.31933,176505
6.32745,183105
6.33557,186838
6.34370,186447
6.35182,193505
6.35995,188436
6.36807,188487
6.37618,188689
6.38432,186099
6.39243,175106
6.40057,184708
6.40868,179321
6.41680,170108
6.42493,177648
6.43305,175755
6.44117,169158
6.44930,174610
6.45742,176342
6.46555,171225
6.47367,181484
6.48178,186866
6.48992,179793
6.49803,177016
6.50617,188984
6.51428,180912
6.52240,183560
6.53053,188914
6.53865,186106
6.54678,184645
6.55490,184741
6.56302,186460
6.57115,189375
6.57927,201199
6.58738,200803
6.59552,208852
6.60363,201131
6.61177,185906
6.61988,194783
6.62800,192661
6.63613,193694
6.64425,196583
6.65238,198810
6.66050,207361
6.66862,244611
6.67675,264468
6.68487,257659
6.69298,244280
6.70112,223621
6.70923,206435
6.71737,201362
6.72548,213614
6.73360,207308
6.74173,206134
6.74985,209370
6.75798,201888
6.76610,214285
6.77422,177023
6.78235,173547
6.79047,160194
6.79860,157794
6.80672,152183
6.81483,146520
6.82297,133715
6.83108,132675
6.83920,131506
6.84733,143324
6.85545,151970
6.86358,162076
6.87170,150845
6.87982,139801
6.88795,119792
6.89607,107567
6.90420,93636
6.91232,90299
6.92043,80219
6.92857,84333
6.93668,83132
6.94482,82548
6.95293,79405
6.96105,88427
6.96918,95837
6.97730,101843
6.98542,114816
6.99355,108692
7.00167,101941
7.00980,92982
7.01792,87298
7.02603,82751
7.03417,88776
7.04228,83896
7.05042,76937
7.05853,75988
7.06665,76216
7.07478,75887
7.08290,80281
7.09102,75561
7.09915,70796
7.10727,66689
7.11540,68255
7.12352,69791
7.13163,70269
7.13977,74306
7.14788,81923
7.15602,101542
7.16413,126109
7.17225,134256
7.18038,121708
7.18850,107048
7.19663,92065
7.20475,89574
7.21287,100762
7.22100,207650
7.22912,489284
7.23723,1008919
7.24537,1511206
7.25348,1565314
7.26162,1200704
7.26973,757153
7.27785,477791
7.28598,352615
7.29410,271678
7.30223,206866
7.31035,154346
7.31847,126669
7.32660,112453
7.33472,105419
7.34285,105261
7.35097,93057
7.35908,86610
7.36722,90923
7.37533,84291
7.38345,88801
7.39158,89768
7.39970,87200
7.40783,89032
7.41595,85306
7.42407,78739
7.43220,75154
7.44032,78940
7.44845,82324
7.45657,89244
7.46468,81353
7.47282,72041
7.48093,72356
7.48905,67998
7.49718,69589
7.50530,67280
7.51343,74157
7.52155,84048
7.52967,102337
7.53780,132690
7.54592,175350
7.55405,203593
7.56217,226694
7.57028,199543
7.57842,167210
7.58653,138444
7.59467,110820
7.60278,88121
7.61090,83843
7.61903,79089
7.62715,74816
7.63527,70790
7.64340,72856
7.65152,65943
7.65965,64745
7.66777,67246
7.67588,63974
7.68402,66675
7.69213,65861
7.70027,63312
7.70838,66665
7.71650,60703
7.72463,64647
7.73275,62482
7.74087,61595
7.74900,70775
7.75712,68917
7.76525,66377
7.77337,67748
7.78148,67977
7.78962,70814
7.79773,67997
7.80587,75196
7.81398,76465
7.82210,72381
7.83023,68834
7.83835,63461
7.84648,64839
7.85460,60352
7.86272,66112
7.87085,70720
7.87897,72596
7.88708,73600
7.89522,74584
7.90333,70202
7.91147,67091
7.91958,68359
7.92770,77281
7.93583,94660
7.94395,112424
7.95208,121892
7.96020,112662
7.96832,100239
7.97645,94367
7.98457,85099
7.99270,73972
8.00082,63957
8.00893,61755
8.01707,58020
8.02518,57833
8.03330,56589
8.04143,60973
8.04955,59812
8.05768,59958
8.06580,55084
8.07392,57503
8.08205,59124
8.09017,55852
8.09830,55756
8.10642,59000
8.11453,53132
8.12267,54405
8.13078,61570
8.13890,72624
8.14703,87692
8.15515,91994
8.16328,94299
8.17140,81082
8.17952,80832
8.18765,65538
8.19577,66388
8.20390,63117
8.21202,60894
8.22013,58389
8.22827,59181
8.23638,59015
8.24452,57858
8.25263,55494
8.26075,54448
8.26888,56856
8.27700,54447
8.28512,57437
8.29325,63292
8.30137,60743
8.30950,60061
8.31762,63178
8.32573,62195
8.33387,61758
8.34198,60082
8.35012,57940
8.35823,56144
8.36635,57165
8.37448,56585
8.38260,60666
8.39073,54621
8.39885,55593
8.40697,52208
8.41510,51050
8.42322,55201
8.43133,53478
8.43947,51240
8.44758,54582
8.45572,55183
8.46383,51284
8.47195,51953
8.48008,54930
8.48820,53492
8.49633,51388
8.50445,52749
8.51257,53309
8.52070,58445
8.52882,77870
8.53693,130220
8.54507,216656
8.55318,313354
8.56132,346084
8.56943,296865
8.57755,221032
8.58568,146183
8.59380,105748
8.60193,92749
8.61005,92295
8.61817,88745
8.62630,80518
8.63442,71825
8.64255,64559
8.65067,65020
8.65878,59257
8.66692,59939
8.67503,63767
8.68315,62601
8.69128,59750
8.69940,60553
8.70753,61793
8.71565,59753
8.72377,63050
8.73190,62753
8.74002,94358
8.74815,186027
8.75627,405904
8.76438,793102
8.77252,1245627
8.78063,1490299
8.78877,1371386
8.79688,1031782
8.80500,655705
8.81313,400461
8.82125,267516
8.82937,209574
8.83750,180197
8.84562,174713
8.85375,189944
8.86187,177646
8.86998,172337
8.87812,162674
8.88623,152265
8.89437,148320
8.90248,140911
8.91060,132540
8.91873,127144
8.92685,128974
8.93497,129997
8.94310,134441
8.95122,143308
8.95935,149145
8.96747,142324
8.97558,133490
8.98372,124459
8.99183,118310
8.99997,114772
9.00808,109662
9.01620,106956
9.02433,100548
9.03245,97979
9.04058,94142
9.04870,95104
9.05682,92064
9.06495,89046
9.07307,92597
9.08118,86840
9.08932,94743
9.09743,88233
9.10557,97513
9.11368,105263
9.12180,109891
9.12993,108977
9.13805,101678
9.14618,94131
9.15430,86173
9.16242,88405
9.17055,89886
9.17867,87376
9.18680,85350
9.19492,78590
9.20303,80442
9.21117,78767
9.21928,75806
9.22740,76634
9.23553,69423
9.24365,78950
9.25178,71783
9.25990,76838
9.26802,73690
9.27615,77460
9.28427,71799
9.29240,68432
9.30052,71882
9.30863,67292
9.31677,74503
9.32488,68926
9.33300,73643
9.34113,65411
9.34925,67923
9.35738,65573
9.36550,65028
9.37362,66062
9.38175,68614
9.38987,67217
9.39800,73760
9.40612,78125
9.41423,82321
9.42237,83556
9.43048,95468
9.43862,97489
9.44673,95880
9.45485,87943
9.46298,83602
9.47110,87297
9.47922,77810
9.48735,73545
9.49547,73208
9.50360,74722
9.51172,74722
9.51983,83527
9.52797,85994
9.53608,81201
9.54422,76965
9.55233,70681
9.56045,70866
9.56858,74717
9.57670,98142
9.58482,140457
9.59295,172676
9.60107,174039
9.60920,149007
9.61732,108333
9.62543,81250
9.63357,63883
9.64168,53656
9.64982,50696
9.65793,45399
9.66605,49604
9.67418,48400
9.68230,44375
9.69043,52143
9.69855,47916
9.70667,45746
9.71480,47148
9.72292,48161
9.73103,45592
9.73917,43891
9.74728,44536
9.75542,42196
9.76353,43643
9.77165,39708
9.77978,40258
9.78790,41503
9.79603,38141
9.80415,39263
9.81227,42071
9.82040,40760
9.82852,45171
9.83665,40190
9.84477,39538
9.85288,40314
9.86102,41428
9.86913,41488
9.87725,44074
9.88538,48505
9.89350,44807
9.90163,42703
9.90975,41315
9.91787,45156
9.92600,51452
9.93412,54153
9.94225,75615
9.95037,90745
9.95848,106704
9.96662,106764
9.97473,98754
9.98285,85926
9.99098,73495
9.99910,59372
10.00723,62324
10.01535,56382
10.02347,53298
10.03160,48814
10.03972,46206
10.04785,46662
10.05597,46350
10.06408,48069
10.07222,45596
10.08033,48665
10.08847,47323
10.09658,48303
10.10470,47611
10.11283,46801
10.12095,49672
10.12907,44776
10.13720,53447
10.14532,46087
10.15345,44845
10.16157,46566
10.16968,44149
10.17782,40210
10.18593,40023
10.19407,42079
10.20218,44617
10.21030,43981
10.21843,46044
10.22655,43351
10.23468,54003
10.24280,50110
10.25092,54676
10.25905,72040
10.26717,134886
10.27528,328117
10.28342,728710
10.29153,1390723
10.29967,2157047
10.30778,3108492
10.31590,4457818
10.32403,6646168
10.33215,9243172
10.34028,1.076989E+07
10.34840,9875493
10.35652,7409190
10.36465,4356470
10.37277,2256302
10.38088,1233670
10.38902,808147
10.39713,594814
10.40527,474277
10.41338,401069
10.42150,325950
10.42963,288762
10.43775,267297
10.44588,245054
10.45400,230965
10.46212,213272
10.47025,208783
10.47837,182750
10.48650,179583
10.49462,165012
10.50273,156234
10.51087,150467
10.51898,151876
10.52710,153519
10.53523,154823
10.54335,148583
10.55148,151735
10.55960,143643
10.56772,137217
10.57585,134848
10.58397,119553
10.59210,123311
10.60022,114500
10.60833,109505
10.61647,105268
10.62458,99504
10.63270,94981
10.64083,98500
10.64895,88256
10.65708,89836
10.66520,86099
10.67332,84861
10.68145,85615
10.68957,85700
10.69770,85633
10.70582,82189
10.71393,78853
10.72207,79293
10.73018,84498
10.73832,80464
10.74643,81675
10.75455,77915
10.76268,82231
10.77080,74731
10.77892,69074
10.78705,68558
10.79517,68548
10.80330,70815
10.81142,64930
10.81953,70948
10.82767,65556
10.83578,65246
10.84392,63433
10.85203,59250
10.86015,54261
10.86828,56694
10.87640,58202
10.88453,54570
10.89265,60759
10.90077,56050
10.90890,58315
10.91702,60848
10.92513,59666
10.93327,55623
10.94138,52483
10.94952,58479
10.95763,54380
10.96575,54457
10.97388,56621
10.98200,53274
10.99013,55999
10.99825,54948
11.00637,51836
11.01450,51859
11.02262,52207
11.03073,47873
11.03887,47956
11.04698,46050
11.05512,51112
11.06323,49537
11.07135,49218
11.07948,51774
11.08760,55688
11.09573,54730
11.10385,50464
11.11197,48803
11.12010,42926
11.12822,42009
11.13635,38730
11.14447,44885
11.15258,39807
11.16072,41770
11.16883,46250
11.17695,44459
11.18508,46487
11.19320,47367
11.20133,47395
11.20945,43346
11.21757,45546
11.22570,42461
11.23382,40335
11.24195,39640
11.25007,37936
11.25818,44471
11.26632,39084
11.27443,35504
11.28257,38567
11.29068,42730
11.29880,47215
11.30693,61391
11.31505,82234
11.32317,118699
11.33130,168432
11.33942,222090
11.34755,244449
11.35567,223926
11.36378,185568
11.37192,144466
11.38003,104711
11.38817,88531
11.39628,70353
11.40440,70545
11.41253,67300
11.42065,63869
11.42877,64177
11.43690,56982
11.44502,59167
11.45315,55496
11.46127,59656
11.46938,59628
11.47752,69361
11.48563,94261
11.49377,109293
11.50188,125211
11.51000,130085
11.51813,117882
11.52625,101106
11.53438,92402
11.54250,82536
11.55062,77738
11.55875,69264
11.56687,71570
11.57498,69684
11.58312,65343
11.59123,67079
11.59937,75858
11.60748,96490
11.61560,118913
11.62373,126784
11.63185,123600
11.63998,110192
11.64810,83419
11.65622,66021
11.66435,58672
11.67247,52453
11.68060,55272
11.68872,53732
11.69683,53245
11.70497,56529
11.71308,53489
11.72120,51889
11.72933,50555
11.73745,48682
11.74558,47364
11.75370,46414
11.76182,44692
11.76995,46500
11.77807,45267
11.78620,45403
11.79432,45794
11.80243,46681
11.81057,45583
11.81868,46621
11.82680,46893
11.83493,44294
11.84305,44265
11.85118,43123
11.85930,42222
11.86742,42119
11.87555,40704
11.88367,39692
11.89180,40429
11.89992,39602
11.90803,39677
11.91617,43118
11.92428,43706
11.93242,47221
11.94053,49691
11.94865,47378
11.95678,40790
11.96490,41290
11.97302,40388
11.98115,47632
11.98927,60336
11.99740,81444
12.00552,113524
12.01363,131477
12.02177,135359
12.02988,121793
12.03802,92841
12.04613,68189
12.05425,63855
12.06238,53548
12.07050,49814
12.07862,53908
12.08675,46018
12.09487,50747
12.10300,48341
12.11112,48740
12.11923,50722
12.12737,49552
12.13548,53344
12.14362,48678
12.15173,50261
12.15985,49394
12.16798,44323
12.17610,42854
12.18423,40622
12.19235,39874
12.20047,41326
12.20860,40894
12.21672,42608
12.22483,41677
12.23297,43639
12.24108,40331
12.24922,42957
12.25733,39134
12.26545,43571
12.27358,36795
12.28170,36878
12.28983,40691
12.29795,37287
12.30607,41111
12.31420,39326
12.32232,40431
12.33045,37177
12.33857,36877
12.34668,38301
12.35482,35502
12.36293,38653
12.37105,39384
12.37918,37832
12.38730,36476
12.39543,40715
12.40355,45819
12.41167,53321
12.41980,62213
12.42792,66195
12.43605,72667
12.44417,69966
12.45228,63323
12.46042,56572
12.46853,51197
12.47665,45826
12.48478,44502
12.49290,42868
12.50103,44376
12.50915,44413
12.51727,46850
12.52540,56733
12.53352,86178
12.54165,169854
12.54977,342395
12.55788,655453
12.56602,916555
12.57413,993683
12.58227,866068
12.59038,608003
12.59850,371140
12.60663,223425
12.61475,151328
12.62287,118145
12.63100,99792
12.63912,89575
12.64725,79202
12.65537,75889
12.66348,70606
12.67162,66123
12.67973,62287
12.68787,64612
12.69598,55911
12.70410,60283
12.71223,54277
12.72035,58391
12.72848,62809
12.73660,65620
12.74472,65023
12.75285,62150
12.76097,58139
12.76908,56189
12.77722,53952
12.78533,46604
12.79347,51796
12.80158,44363
12.80970,44801
12.81783,46700
12.82595,43488
12.83408,43858
12.84220,41976
12.85032,41615
12.85845,38734
12.86657,38534
12.87468,38987
12.88282,41041
12.89093,38434
12.89907,39615
12.90718,35736
12.91530,36206
12.92343,36576
12.93155,40167
12.93968,34911
12.94780,36665
12.95592,38727
12.96405,48354
12.97217,60730
12.98030,72545
12.98842,80313
12.99653,85169
13.00467,70599
13.01278,58037
13.02090,50145
13.02903,47298
13.03715,43669
13.04528,43638
13.05340,43637
13.06152,44599
13.06965,38188
13.07777,41758
13.08590,40114
13.09402,40533
13.10213,40009
13.11027,38946
13.11838,38178
13.12650,34949
13.13463,34801
13.14275,36327
13.15088,36988
13.15900,38161
13.16712,37252
13.17525,39649
13.18337,43675
13.19150,41858
13.19962,41428
13.20773,46868
13.21587,44531
13.22398,47909
13.23212,42838
13.24023,42418
13.24835,43465
13.25648,40364
13.26460,36207
13.27272,34229
13.28085,39044
13.28897,35257
13.29710,35580
13.30522,35123
13.31333,33111
13.32147,32031
13.32958,32483
13.33772,34627
13.34583,36177
13.35395,36500
13.36208,32271
13.37020,32964
13.37833,32467
13.38645,30072
13.39457,32790
13.40270,31089
13.41082,32140
13.41893,30230
13.42707,29981
13.43518,36102
13.44332,34464
13.45143,36727
13.45955,34800
13.46768,31688
13.47580,34372
13.48393,33385
13.49205,35721
13.50017,30455
13.50830,32730
13.51642,32547
13.52453,36867
13.53267,37647
13.54078,32217
13.54892,32461
13.55703,30224
13.56515,31615
13.57328,36124
13.58140,35386
13.58953,39694
13.59765,50756
13.60577,72373
13.61390,105314
13.62202,141700
13.63015,159057
13.63827,144517
13.64638,108307
13.65452,87133
13.66263,62515
13.67075,54434
13.67888,45833
13.68700,43491
13.69513,42794
13.70325,40218
13.71137,38314
13.71950,42770
13.72762,49075
13.73575,66578
13.74387,122289
13.75198,254692
13.76012,519388
13.76823,916373
13.77637,1304947
13.78448,1467722
13.79260,1338551
13.80073,1063963
13.80885,765044
13.81697,534181
13.82510,422341
13.83322,382877
13.84135,350387
13.84947,308267
13.85758,269242
13.86572,235264
13.87383,199632
13.88197,174851
13.89008,151254
13.89820,141904
13.90633,129842
13.91445,126285
13.92257,117785
13.93070,113354
13.93882,112408
13.94695,102911
13.95507,103455
13.96318,104594
13.97132,102192
13.97943,108684
13.98757,105813
13.99568,108647
14.00380,99159
14.01193,93862
14.02005,88225
14.02818,83138
14.03630,87033
14.04442,83605
14.05255,81242
14.06067,80697
14.06878,82325
14.07692,79984
14.08503,73767
14.09317,77325
14.10128,75422
14.10940,75418
14.11753,76708
14.12565,75798
14.13378,76256
14.14190,81687
14.15002,83114
14.15815,91726
14.16627,127416
14.17438,181121
14.18252,259987
14.19063,346280
14.19877,392847
14.20688,360885
14.21500,318388
14.22313,229877
14.23125,190923
14.23938,157758
14.24750,153393
14.25562,145019
14.26375,130268
14.27187,122509
14.28000,109737
14.28812,105513
14.29623,91562
14.30437,84196
14.31248,86115
14.32060,74859
14.32873,73970
14.33685,71124
14.34498,67805
14.35310,63654
14.36122,64311
14.36935,55653
14.37747,56717
14.38560,59946
14.39372,84767
14.40183,140997
14.40997,232329
14.41808,348401
14.42622,438940
14.43433,436887
14.44245,345089
14.45058,246957
14.45870,173637
14.46682,126370
14.47495,97502
14.48307,85403
14.49120,82494
14.49932,74696
14.50743,72687
14.51557,67034
14.52368,70739
14.53182,67707
14.53993,62165
14.54805,59084
14.55618,57089
14.56430,55057
14.57243,52974
14.58055,55048
14.58867,54327
14.59680,50903
14.60492,51411
14.61303,49296
14.62117,48229
14.62928,45905
14.63742,47039
14.64553,45697
14.65365,43543
14.66178,40974
14.66990,39720
14.67803,41583
14.68615,42869
14.69427,41370
14.70240,46228
14.71052,47226
14.71863,43408
14.72677,41342
14.73488,44555
14.74302,47135
14.75113,46036
14.75925,42897
14.76738,46587
14.77550,44983
14.78363,59992
14.79175,85583
14.79987,186025
14.80800,409985
14.81612,874442
14.82425,1479041
14.83237,2004299
14.84048,2111250
14.84862,1842948
14.85673,1311572
14.86485,851617
14.87298,545285
14.88110,364680
14.88923,267384
14.89735,219201
14.90547,186718
14.91360,164185
14.92172,146762
14.92985,135263
14.93797,127268
14.94608,117568
14.95422,112591
14.96233,110784
14.97045,103787
14.97858,106259
14.98670,104795
14.99483,98090
15.00295,91702
15.01107,90110
15.01920,87602
15.02732,85083
15.03545,75241
15.04357,73437
15.05168,71816
15.05982,77084
15.06793,68766
15.07607,66923
15.08418,65651
15.09230,66348
15.10043,66342
15.10855,62474
15.11667,61879
15.12480,65750
15.13292,68315
15.14105,73815
15.14917,76157
15.15728,77636
15.16542,66669
15.17353,62171
15.18167,59565
15.18978,57298
15.19790,52656
15.20603,48623
15.21415,45787
15.22228,45868
15.23040,46195
15.23852,43526
15.24665,42817
15.25477,44452
15.26288,42129
15.27102,45967
15.27913,40596
15.28727,43083
15.29538,39472
15.30350,39211
15.31163,38566
15.31975,36916
15.32788,41551
15.33600,40603
15.34412,39971
15.35225,38588
15.36037,37792
15.36848,39849
15.37662,40576
15.38473,42307
15.39287,41531
15.40098,49174
15.40910,48351
15.41723,50504
15.42535,50546
15.43348,50827
15.44160,46335
15.44972,44497
15.45785,45387
15.46597,44556
15.47410,49143
15.48222,57142
15.49033,67479
15.49847,71857
15.50658,81810
15.51470,80459
15.52283,76199
15.53095,71181
15.53908,63848
15.54720,63217
15.55532,60357
15.56345,64470
15.57157,53972
15.57970,49198
15.58782,44721
15.59593,41657
15.60407,39848
15.61218,39066
15.62032,41373
15.62843,42660
15.63655,39721
15.64468,40420
15.65280,38716
15.66092,37218
15.66905,39066
15.67717,36460
15.68530,37623
15.69342,36747
15.70153,39683
15.70967,38564
15.71778,44986
15.72592,44623
15.73403,46886
15.74215,46873
15.75028,51585
15.75840,66419
15.76652,89602
15.77465,138347
15.78277,212009
15.79090,240234
15.79902,257697
15.80713,212782
15.81527,167717
15.82338,123789
15.83152,86523
15.83963,74939
15.84775,67393
15.85588,61629
15.86400,56811
15.87213,52660
15.88025,58086
15.88837,55037
15.89650,48218
15.90462,48618
15.91273,47958
15.92087,51265
15.92898,43764
15.93712,46595
15.94523,47864
15.95335,55322
15.96148,66133
15.96960,70232
15.97773,83096
15.98585,86762
15.99397,88090
16.00210,81258
16.01022,70402
16.01833,73206
16.02647,74829
16.03458,70881
16.04272,68615
16.05083,67485
16.05895,59113
16.06708,54319
16.07520,46483
16.08333,47902
16.09145,45705
16.09957,44391
16.10770,44278
16.11582,47289
16.12395,44530
16.13207,44459
16.14018,52230
16.14832,49492
16.15643,49645
16.16455,43221
16.17268,48056
16.18080,44857
16.18893,40366
16.19705,44778
16.20517,42547
16.21330,48568
16.22142,46108
16.22955,44489
16.23767,40863
16.24578,41095
16.25392,42379
16.26203,41186
16.27017,41043
16.27828,39558
16.28640,42211
16.29453,40552
16.30265,46466
16.31077,46022
16.31890,44105
16.32702,44891
16.33515,46413
16.34327,44770
16.35138,48492
16.35952,55954
16.36763,64661
16.37577,76433
16.38388,79494
16.39200,78843
16.40013,67662
16.40825,60694
16.41637,53625
16.42450,52186
16.43262,43934
16.44075,48489
16.44887,56491
16.45698,65733
16.46512,86692
16.47323,117488
16.48137,144223
16.48948,157830
16.49760,146188
16.50573,111910
16.51385,89116
16.52198,72552
16.53010,63018
16.53822,53869
16.54635,53068
16.55447,55116
16.56258,46817
16.57072,50335
16.57883,49887
16.58697,56801
16.59508,55419
16.60320,62879
16.61133,69679
16.61945,71882
16.62758,72016
16.63570,64608
16.64382,61008
16.65195,55722
16.66007,49765
16.66820,46120
16.67632,46983
16.68443,46455
16.69257,47012
16.70068,44522
16.70880,43440
16.71693,41715
16.72505,42547
16.73318,39549
16.74130,41261
16.74942,43219
16.75755,45089
16.76567,47270
16.77380,48570
16.78192,41945
16.79003,40152
16.79817,40578
16.80628,37049
16.81440,36404
16.82253,37051
16.83065,36303
16.83878,35971
16.84690,36641
16.85502,36265
16.86315,41114
16.87127,36383
16.87940,36815
16.88752,36894
16.89563,35785
16.90377,34751
16.91188,36152
16.92002,35688
16.92813,36212
16.93625,35802
16.94438,36437
16.95250,35016
16.96062,36805
16.96875,35288
16.97687,36963
16.98500,31832
16.99312,31883
17.00123,36872
17.00937,38219
17.01748,40157
17.02562,37809
17.03373,45076
17.04185,50045
17.04998,55028
17.05810,61977
17.06622,61486
17.07435,54883
17.08247,57809
17.09060,64311
17.09872,70349
17.10683,82430
17.11497,89866
17.12308,91997
17.13122,94863
17.13933,86590
17.14745,81373
17.15558,70251
17.16370,72046
17.17183,69488
17.17995,62913
17.18807,47231
17.19620,47485
17.20432,49405
17.21243,42203
17.22057,41242
17.22868,40272
17.23682,39650
17.24493,43735
17.25305,38851
17.26118,40448
17.26930,38423
17.27743,40984
17.28555,41557
17.29367,41074
17.30180,35435
17.30992,38264
17.31805,42605
17.32617,47214
17.33428,55232
17.34242,55198
17.35053,56470
17.35865,63194
17.36678,51407
17.37490,56247
17.38303,51730
17.39115,50808
17.39927,47227
17.40740,48085
17.41552,48249
17.42365,48548
17.43177,45256
17.43988,45112
17.44802,45554
17.45613,44264
17.46425,41510
17.47238,40991
17.48050,38787
17.48863,38333
17.49675,39911
17.50487,39947
17.51300,38998
17.52112,39760
17.52925,38760
17.53737,36453
17.54548,41396
17.55362,47639
17.56173,63793
17.56987,92247
17.57798,162643
17.58610,282722
17.59423,431187
17.60235,652932
17.61047,817182
17.61860,834036
17.62672,722973
17.63485,551968
17.64297,399851
17.65108,290033
17.65922,223630
17.66733,183020
17.67547,164188
17.68358,145442
17.69170,127093
17.69983,114598
17.70795,100799
17.71608,92456
17.72420,87742
17.73232,80350
17.74045,75047
17.74857,71037
17.75668,67280
17.76482,64321
17.77293,61512
17.78107,65597
17.78918,66431
17.79730,79708
17.80543,103418
17.81355,143247
17.82168,187440
17.82980,219221
17.83792,233442
17.84605,213037
17.85417,179851
17.86228,146838
17.87042,120016
17.87853,100488
17.88667,91024
17.89478,80464
17.90290,74449
17.91103,65923
17.91915,67095
17.92728,62066
17.93540,59823
17.94352,55917
17.95165,55069
17.95977,53980
17.96790,53093
17.97602,55345
17.98413,49265
17.99227,50918
18.00038,51331
18.00850,50908
18.01663,59349
18.02475,59108
18.03288,66660
18.04100,72454
18.04912,86420
18.05725,101426
18.06537,155887
18.07350,256607
18.08162,419400
18.08973,599486
18.09787,700151
18.10598,683191
18.11412,589890
18.12223,462525
18.13035,343513
18.13848,263974
18.14660,213285
18.15472,183310
18.16285,181137
18.17097,166771
18.17910,146765
18.18722,140614
18.19533,129863
18.20347,125897
18.21158,115943
18.21972,114690
18.22783,109046
18.23595,109673
18.24408,97166
18.25220,94225
18.26032,92307
18.26845,85095
18.27657,77665
18.28470,74977
18.29282,64897
18.30093,57992
18.30907,56229
18.31718,56183
18.32532,52041
18.33343,48723
18.34155,47398
18.34968,47698
18.35780,47737
18.36593,48214
18.37405,51752
18.38217,65462
18.39030,98796
18.39842,146377
18.40653,204279
18.41467,247346
18.42278,287435
18.43092,317643
18.43903,329982
18.44715,332617
18.45528,368134
18.46340,412041
18.47153,483159
18.47965,541591
18.48777,569126
18.49590,560524
18.50402,500889
18.51213,447574
18.52027,400607
18.52838,358960
18.53652,333433
18.54463,323990
18.55275,307255
18.56088,298065
18.56900,291319
18.57713,279988
18.58525,286176
18.59337,279177
18.60150,271069
18.60962,266627
18.61775,273414
18.62587,269336
18.63398,261646
18.64212,249852
18.65023,259937
18.65835,258525
18.66648,245637
18.67460,247308
18.68273,242653
18.69085,234193
18.69897,233208
18.70710,234290
18.71522,233804
18.72335,229516
18.73147,220769
18.73958,218418
18.74772,219237
18.75583,214337
18.76397,221479
18.77208,212247
18.78020,214530
18.78833,206132
18.79645,204141
18.80457,200374
18.81270,202563
18.82082,203749
18.82895,196145
18.83707,190961
18.84518,198230
18.85332,192693
18.86143,194317
18.86957,190484
18.87768,188860
18.88580,189905
18.89393,186076
18.90205,186952
18.91017,179298
18.91830,178671
18.92642,177993
18.93455,186183
18.94267,184375
18.95078,181864
18.95892,188023
18.96703,177967
18.97517,175079
18.98328,166686
18.99140,173083
18.99953,173984
19.00765,163447
19.01578,166502
19.02390,170817
19.03202,155588
19.04015,160992
19.04827,159550
19.05638,155951
19.06452,159896
19.07263,176144
19.08077,200856
19.08888,232882
19.09700,268271
19.10513,295904
19.11325,312803
19.12138,290786
19.12950,263379
19.13762,224197
19.14575,198745
19.15387,181508
19.16200,169713
19.17012,160789
19.17823,156456
19.18637,153049
19.19448,151379
19.20260,142398
19.21073,144015
19.21885,139232
19.22698,138036
19.23510,136249
19.24322,133555
19.25135,133214
19.25947,127065
19.26760,138530
19.27572,140164
19.28383,140057
19.29197,146391
19.30008,146793
19.30820,148238
19.31633,147851
19.32445,142306
19.33258,138841
19.34070,144469
19.34882,149263
19.35695,163327
19.36507,184188
19.37320,196138
19.38132,209591
19.38943,198749
19.39757,173803
19.40568,157544
19.41382,141125
19.42193,132480
19.43005,128278
19.43818,122169
19.44630,127980
19.45442,130786
19.46255,131091
19.47067,152467
19.47880,181116
19.48692,230511
19.49503,270634
19.50317,292578
19.51128,278372
19.51942,236117
19.52753,185867
19.53565,151568
19.54378,131869
19.55190,118307
19.56002,113820
19.56815,112664
19.57627,116549
19.58440,107340
19.59252,106738
19.60063,101538
19.60877,103620
19.61688,105699
19.62502,104117
19.63313,113296
19.64125,121388
19.64938,141935
19.65750,164455
19.66563,200943
19.67375,215751
19.68187,228029
19.69000,231864
19.69812,217398
19.70623,202113
19.71437,185528
19.72248,167894
19.73062,152255
19.73873,142019
19.74685,124181
19.75498,117532
19.76310,115144
19.77123,113393
19.77935,114026
19.78747,112909
19.79560,114943
19.80372,116256
19.81185,117260
19.81997,113021
19.82808,109448
19.83622,103783
19.84433,105897
19.85245,126133
19.86058,188774
19.86870,359469
19.87683,683989
19.88495,1194196
19.89307,1811864
19.90120,2295831
19.90932,2481774
19.91745,2259808
19.92557,1810011
19.93368,1382557
19.94182,1017744
19.94993,789486
19.95807,685492
19.96618,616986
19.97430,568620
19.98243,541983
19.99055,493877
19.99867,465868
20.00680,443204
20.01492,424150
20.02305,410021
20.03117,380429
20.03928,352013
20.04742,311825
20.05553,270752
20.06367,219266
20.07178,187792
20.07990,171397
20.08803,159440
20.09615,149797
20.10427,140728
20.11240,132830
20.12052,131593
20.12865,124343
20.13677,118970
20.14488,120333
20.15302,122353
20.16113,121163
20.16927,122993
20.17738,132741
20.18550,131097
20.19363,143157
20.20175,137321
20.20988,142684
20.21800,134211
20.22612,129403
20.23425,125893
20.24237,131595
20.25048,145761
20.25862,156164
20.26673,178797
20.27487,208036
20.28298,218288
20.29110,219452
20.29923,204278
20.30735,185564
20.31548,156851
20.32360,142490
20.33172,126187
20.33985,115415
20.34797,104478
20.35608,102275
20.36422,94555
20.37233,93410
20.38047,82435
20.38858,83356
20.39670,75199
20.40483,81238
20.41295,77632
20.42108,78874
20.42920,77946
20.43732,88921
20.44545,85187
20.45357,93220
20.46170,89735
20.46982,84273
20.47793,78149
20.48607,77995
20.49418,74076
20.50230,69902
20.51043,71916
20.51855,72159
20.52668,70087
20.53480,71765
20.54292,68755
20.55105,69112
20.55917,70255
20.56730,74151
20.57542,69750
20.58353,64826
20.59167,69426
20.59978,64336
20.60792,66549
20.61603,69807
20.62415,67843
20.63228,61808
20.64040,65314
20.64852,70523
20.65665,69702
20.66477,72519
20.67290,66170
20.68102,61638
20.68913,65585
20.69727,63192
20.70538,61901
20.71352,65579
20.72163,63710
20.72975,61670
20.73788,62277
20.74600,65446
20.75412,70687
20.76225,65085
20.77037,70445
20.77850,74391
20.78662,84263
20.79473,112930
20.80287,149933
20.81098,185530
20.81912,217458
20.82723,225231
20.83535,201718
20.84348,171056
20.85160,122283
20.85973,101555
20.86785,92235
20.87597,77016
20.88410,77481
20.89222,76606
20.90033,74075
20.90847,69821
20.91658,71060
20.92472,77539
20.93283,70847
20.94095,68288
20.94908,66946
20.95720,68085
20.96533,68244
20.97345,67746
20.98157,64320
20.98970,64487
20.99782,63112
21.00595,61343
21.01407,65247
21.02218,65428
21.03032,62999
21.03843,63075
21.04655,63285
21.05468,63337
21.06280,62518
21.07093,61314
21.07905,65291
21.08717,58261
21.09530,62181
21.10342,62956
21.11155,59162
21.11967,63055
21.12778,59996
21.13592,65449
21.14403,72316
21.15215,71292
21.16028,81286
21.16840,84189
21.17653,80318
21.18465,78651
21.19277,71862
21.20090,71358
21.20902,65705
21.21715,64674
21.22527,65417
21.23338,61731
21.24152,59024
21.24963,57362
21.25777,55689
21.26588,59420
21.27400,56175
21.28213,54640
21.29025,54909
21.29837,53240
21.30650,56143
21.31462,55747
21.32275,52108
21.33087,52247
21.33898,49183
21.34712,51279
21.35523,49954
21.36337,50358
21.37148,45956
21.37960,51634
21.38773,49665
21.39585,52579
21.40397,59834
21.41210,54594
21.42022,53348
21.42835,60256
21.43647,54058
21.44458,49110
21.45272,49036
21.46083,53095
21.46897,50616
21.47708,50529
21.48520,50675
21.49333,53023
21.50145,45923
21.50958,46112
21.51770,49707
21.52582,44971
21.53395,47643
21.54207,44490
21.55018,43417
21.55832,45258
21.56643,50582
21.57457,54393
21.58268,58154
21.59080,63994
21.59893,70148
21.60705,71762
21.61518,75210
21.62330,73384
21.63142,73829
21.63955,75637
21.64767,72501
21.65580,74412
21.66392,77005
21.67203,79015
21.68017,75485
21.68828,75103
21.69640,73891
21.70453,69320
21.71265,60336
21.72078,63549
21.72890,59797
21.73702,55104
21.74515,57910
21.75327,57788
21.76140,54916
21.76952,55113
21.77763,51412
21.78577,52942
21.79388,54221
21.80200,52363
21.81013,54611
21.81825,59259
21.82638,61432
21.83450,66172
21.84262,63871
21.85075,63940
21.85887,58691
21.86700,54593
21.87512,51679
21.88323,53949
21.89137,51841
21.89948,53918
21.90762,49210
21.91573,54753
21.92385,48789
21.93198,49848
21.94010,47639
21.94822,46424
21.95635,44569
21.96447,42141
21.97260,39865
21.98072,40398
21.98883,41262
21.99697,46075
22.00508,41687
22.01322,46447
22.02133,42996
22.02945,42424
22.03758,40925
22.04570,46765
22.05383,47519
22.06195,42947
22.07007,49168
22.07820,56295
22.08632,55278
22.09443,65917
22.10257,73124
22.11068,66974
22.11882,74763
22.12693,79922
22.13505,76690
22.14318,78546
22.15130,78142
22.15943,77304
22.16755,78247
22.17567,76299
22.18380,77430
22.19192,81869
22.20003,81751
22.20817,81443
22.21628,85077
22.22442,87022
22.23253,85733
22.24065,78604
22.24878,81453
22.25690,78357
22.26503,82707
22.27315,79498
22.28127,82263
22.28940,80439
22.29752,77145
22.30565,71265
22.31377,70272
22.32188,65705
22.33002,63795
22.33813,59371
22.34625,58048
22.35438,57186
22.36250,56762
22.37063,58051
22.37875,55580
22.38687,60467
22.39500,64160
22.40312,77597
22.41125,90581
22.41937,105293
22.42748,106417
22.43562,102553
22.44373,94796
22.45185,80444
22.45998,71676
22.46810,68180
22.47623,71711
22.48435,74323
22.49247,83050
22.50060,90983
22.50872,91294
22.51685,80399
22.52497,80463
22.53308,70650
22.54122,64523
22.54933,59674
22.55747,59515
22.56558,58635
22.57370,55740
22.58183,52565
22.58995,56355
22.59807,62923
22.60620,81858
22.61432,93029
22.62245,101039
22.63057,103406
22.63868,118089
22.64682,116024
22.65493,124742
22.66307,132154
22.67118,133342
22.67930,141001
22.68743,139083
22.69555,149725
22.70368,152987
22.71180,156956
22.71992,161652
22.72805,158448
22.73617,161253
22.74428,162949
22.75242,155818
22.76053,147484
22.76867,144017
22.77678,151826
22.78490,170459
22.79303,171087
22.80115,194504
22.80928,203509
22.81740,211727
22.82552,203814
22.83365,189914
22.84177,173156
22.84988,162626
22.85802,153666
22.86613,157812
22.87427,161542
22.88238,155647
22.89050,165278
22.89863,183659
22.90675,204463
22.91488,248388
22.92300,277117
22.93112,282623
22.93925,273710
22.94737,232421
22.95550,206271
22.96362,184127
22.97173,162258
22.97987,146715
22.98798,143190
22.99610,140287
23.00423,131412
23.01235,124073
23.02048,120147
23.02860,118603
23.03672,121785
23.04485,118302
23.05297,110530
23.06110,119339
23.06922,119148
23.07733,110734
23.08547,110929
23.09358,110596
23.10172,105792
23.10983,105307
23.11795,108286
23.12608,110853
23.13420,107548
23.14232,106877
23.15045,103476
23.15857,102806
23.16670,100370
23.17482,98548
23.18293,106424
23.19107,100962
23.19918,99913
23.20732,98219
23.21543,93602
23.22355,96582
23.23168,92329
23.23980,97365
23.24792,96713
23.25605,95652
23.26417,106561
23.27230,102204
23.28042,99793
23.28853,102257
23.29667,98531
23.30478,95716
23.31292,93220
23.32103,96582
23.32915,101529
23.33728,110034
23.34540,133768
23.35353,162658
23.36165,210067
23.36977,284693
23.37790,362894
23.38602,462125
23.39413,543791
23.40227,625638
23.41038,684917
23.41852,719879
23.42663,704458
23.43475,708132
23.44288,680058
23.45100,657180
23.45913,610704
23.46725,559820
23.47537,536162
23.48350,481038
23.49162,457738
23.49975,419728
23.50787,410592
23.51598,359104
23.52412,331955
23.53223,315816
23.54035,298285
23.54848,282924
23.55660,262485
23.56473,264118
23.57285,264596
23.58097,272095
23.58910,303986
23.59722,317448
23.60535,333625
23.61347,328119
23.62158,302204
23.62972,272748
23.63783,246906
23.64595,235343
23.65408,216548
23.66220,221271
23.67033,209491
23.67845,200259
23.68657,186290
23.69470,171971
23.70282,158994
23.71095,157540
23.71907,145596
23.72718,141843
23.73532,141514
23.74343,155485
23.75157,212331
23.75968,326347
23.76780,565034
23.77593,977722
23.78405,1412513
23.79217,1764779
23.80030,1873219
23.80842,1827094
23.81655,1607836
23.82467,1303135
23.83278,1010325
23.84092,820959
23.84903,659905
23.85717,540587
23.86528,454396
23.87340,383711
23.88153,345963
23.88965,308377
23.89777,283598
23.90590,264759
23.91402,257636
23.92215,239075
23.93027,225335
23.93838,207141
23.94652,193572
23.95463,186970
23.96277,183617
23.97088,170455
23.97900,159831
23.98713,150322
23.99525,165690
24.00338,168128
24.01150,199923
24.01962,255250
24.02775,314751
24.03587,348584
24.04398,345448
24.05212,298532
24.06023,244255
24.06837,185394
24.07648,149462
24.08460,130098
24.09273,118450
24.10085,108285
24.10898,109071
24.11710,110845
24.12522,109781
24.13335,107229
24.14147,102302
24.14960,108820
24.15772,105402
24.16583,107149
24.17397,104771
24.18208,109930
24.19020,101105
24.19833,101551
24.20645,108403
24.21458,96564
24.22270,97919
24.23082,88360
24.23895,87711
24.24707,82171
24.25520,84749
24.26332,81984
24.27143,76076
24.27957,82910
24.28768,78896
24.29580,75776
24.30393,77323
24.31205,75777
24.32018,72150
24.32830,74587
24.33642,72822
24.34455,79300
24.35267,82428
24.36080,103836
24.36892,134045
24.37703,180491
24.38517,237453
24.39328,258958
24.40142,258478
24.40953,265079
24.41765,252443
24.42578,249661
24.43390,252642
24.44202,264831
24.45015,268876
24.45827,279887
24.46640,291406
24.47452,295275
24.48263,306059
24.49077,318697
24.49888,312502
24.50702,316301
24.51513,314701
24.52325,325277
24.53138,327222
24.53950,328233
24.54763,328391
24.55575,340608
24.56387,331630
24.57200,327145
24.58012,320653
24.58823,310799
24.59637,300468
24.60448,297822
24.61262,290477
24.62073,292923
24.62885,278934
24.63698,273204
24.64510,266660
24.65323,268337
24.66135,267637
24.66947,263520
24.67760,256847
24.68572,256170
24.69383,250508
24.70197,242644
24.71008,246850
24.71822,245074
24.72633,238225
24.73445,234586
24.74258,234392
24.75070,233776
24.75883,235396
24.76695,222843
24.77507,227519
24.78320,224648
24.79132,229578
24.79945,221611
24.80757,219090
24.81568,215363
24.82382,219604
24.83193,223418
24.84005,236854
24.84818,258184
24.85630,283036
24.86443,320192
24.87255,385717
24.88067,470475
24.88880,537025
24.89692,564367
24.90505,530979
24.91317,457054
24.92128,346627
24.92942,253911
24.93753,194193
24.94565,149054
24.95378,122305
24.96190,105566
24.97003,95958
24.97815,87314
24.98627,91423
24.99440,83986
25.00252,82002
25.01065,76769
25.01877,78014
25.02688,73922
25.03502,71864
25.04313,72445
25.05127,74220
25.05938,69285
25.06750,73176
25.07563,74482
25.08375,75399
25.09187,85719
25.10000,125962
25.10812,219225
25.11625,424895
25.12437,810487
25.13248,1389545
25.14062,1915349
25.14873,2300922
25.15687,2223498
25.16498,1869224
25.17310,1309207
25.18123,822114
25.18935,496931
25.19748,299039
25.20560,207951
25.21372,157896
25.22185,135654
25.22997,123052
25.23808,125803
25.24622,143610
25.25433,170316
25.26247,206761
25.27058,224416
25.27870,254257
25.28683,268162
25.29495,280739
25.30308,318512
25.31120,335898
25.31932,364212
25.32745,377832
25.33557,384256
25.34370,400822
25.35182,390132
25.35993,389576
25.36807,385274
25.37618,397584
25.38430,390843
25.39243,402762
25.40055,390151
25.40868,380143
25.41680,382269
25.42492,380486
25.43305,393800
25.44117,380455
25.44930,395001
25.45742,378479
25.46553,376248
25.47367,366113
25.48178,377619
25.48990,368771
25.49803,363726
25.50615,366838
25.51428,360448
25.52240,343983
25.53052,348823
25.53865,348299
25.54677,341778
25.55490,334824
25.56302,331153
25.57113,325135
25.57927,323965
25.58738,323310
25.59552,323890
25.60363,317902
25.61175,327367
25.61988,316964
25.62800,320585
25.63612,316110
25.64425,318455
25.65237,308669
25.66050,304031
25.66862,301541
25.67673,291473
25.68487,292610
25.69298,283390
25.70112,280218
25.70923,277664
25.71735,262830
25.72548,269255
25.73360,262189
25.74172,259394
25.74985,254661
25.75797,254925
25.76610,250499
25.77422,252733
25.78233,247184
25.79047,244997
25.79858,244408
25.80672,242537
25.81483,244126
25.82295,236262
25.83108,233412
25.83920,231590
25.84733,230609
25.85545,226896
25.86357,232280
25.87170,231003
25.87982,224409
25.88793,219058
25.89607,213236
25.90418,209942
25.91232,211938
25.92043,205442
25.92855,200337
25.93668,201935
25.94480,201680
25.95293,201630
25.96105,190191
25.96917,189286
25.97730,181998
25.98542,182206
25.99355,177130
26.00167,180592
26.00978,176484
26.01792,176963
26.02603,172627
26.03415,169438
26.04228,167170
26.05040,171996
26.05853,168012
26.06665,167598
26.07477,167337
26.08290,160652
26.09102,157664
26.09915,157541
26.10727,158359
26.11538,154332
26.12352,159527
26.13163,152525
26.13975,156668
26.14788,156074
26.15600,160879
26.16413,156006
26.17225,153803
26.18037,153942
26.18850,146818
26.19662,146347
26.20475,140242
26.21287,136125
26.22098,134343
26.22912,132107
26.23723,139521
26.24537,136325
26.25348,129116
26.26160,132479
26.26973,138054
26.27785,122563
26.28597,130037
26.29410,123691
26.30222,125401
26.31035,121208
26.31847,121822
26.32658,114445
26.33472,111526
26.34283,114249
26.35097,114650
26.35908,112934
26.36720,118707
26.37533,117377
26.38345,122252
26.39158,122440
26.39970,125122
26.40782,133371
26.41595,127061
26.42407,114816
26.43218,115337
26.44032,109994
26.44843,107557
26.45657,102660
26.46468,101678
26.47280,103929
26.48093,102625
26.48905,101434
26.49718,94934
26.50530,99381
26.51342,92969
26.52155,92955
26.52967,92421
26.53778,93205
26.54592,90079
26.55403,83387
26.56217,87161
26.57028,90505
26.57840,84224
26.58653,84913
26.59465,85735
26.60278,88693
26.61090,85173
26.61902,82553
26.62715,80581
26.63527,78473
26.64340,80484
26.65152,81083
26.65963,83981
26.66777,85340
26.67588,84764
26.68400,83937
26.69213,80392
26.70025,78752
26.70838,77949
26.71650,75267
26.72462,72863
26.73275,76286
26.74087,78456
26.74900,75959
26.75712,75003
26.76523,76120
26.77337,70654
26.78148,76890
26.78960,77806
26.79773,76716
26.80585,75927
26.81398,77465
26.82210,76684
26.83022,74301
26.83835,73108
26.84647,72296
26.85460,69391
26.86272,71454
26.87083,66978
26.87897,68243
26.88708,65802
26.89522,62461
26.90333,64828
26.91145,65365
26.91958,64777
26.92770,66172
26.93582,63973
26.94395,61622
26.95207,63544
26.96020,67454
26.96832,74649
26.97643,90784
26.98457,109561
26.99268,158450
27.00082,199165
27.00893,263063
27.01705,323849
27.02518,367560
27.03330,390149
27.04143,385873
27.04955,354943
27.05767,313732
27.06580,276842
27.07392,234545
27.08203,208188
27.09017,185664
27.09828,163370
27.10642,147417
27.11453,140165
27.12265,132379
27.13078,121319
27.13890,116273
27.14703,111345
27.15515,111157
27.16327,100092
27.17140,103852
27.17952,97635
27.18763,99028
27.19577,101404
27.20388,92467
27.21202,92089
27.22013,88876
27.22825,89414
27.23638,82689
27.24450,77933
27.25263,77649
27.26075,78232
27.26887,78016
27.27700,73197
27.28512,77182
27.29325,72821
27.30137,70553
27.30948,67989
27.31762,66167
27.32573,67472
27.33385,66079
27.34198,63408
27.35010,68513
27.35823,67639
27.36635,66539
27.37447,65860
27.38260,68866
27.39072,68192
27.39885,62635
27.40697,59495
27.41508,60162
27.42322,60821
27.43133,57792
27.43947,58449
27.44758,59328
27.45570,60571
27.46383,60492
27.47195,58113
27.48007,57623
27.48820,57404
27.49632,62062
27.50445,57757
27.51257,58902
27.52068,60347
27.52882,60686
27.53693,61300
27.54507,56138
27.55318,58758
27.56130,61173
27.56943,67047
27.57755,66398
27.58567,71907
27.59380,72153
27.60192,78601
27.61005,73434
27.61817,74017
27.62628,64032
27.63442,61760
27.64253,58267
27.65067,56748
27.65878,55540
27.66690,54811
27.67503,57026
27.68315,56662
27.69128,57801
27.69940,52176
27.70752,53946
27.71565,55447
27.72377,49571
27.73188,54779
27.74002,48573
27.74813,48870
27.75627,49906
27.76438,45546
27.77250,50481
27.78063,49065
27.78875,51824
27.79688,53799
27.80500,52228
27.81312,50320
27.82125,52324
27.82937,55711
27.83750,54823
27.84562,47906
27.85373,51035
27.86187,49481
27.86998,49114
27.87810,50305
27.88623,51103
27.89435,49896
27.90248,47415
27.91060,46143
27.91872,45451
27.92685,44210
27.93497,41799
27.94310,45226
27.95122,45584
27.95933,49653
27.96747,44931
27.97558,46046
27.98370,45316
27.99183,44845
27.99995,45259
28.00808,49745
28.01620,49398
28.02432,53256
28.03245,57159
28.04057,55457
28.04870,59232
28.05682,62828
28.06493,56712
28.07307,63746
28.08118,54499
28.08932,51331
28.09743,51505
28.10555,52795
28.11368,47533
28.12180,51687
28.12992,44731
28.13805,44079
28.14617,45408
28.15430,45155
28.16242,48059
28.17053,43914
28.17867,50208
28.18678,53108
28.19492,60966
28.20303,66404
28.21115,69447
28.21928,78531
28.22740,74299
28.23552,73243
28.24365,69749
28.25177,64335
28.25990,56883
28.26802,57343
28.27613,49205
28.28427,46261
28.29238,47567
28.30052,51445
28.30863,61658
28.31675,63539
28.32488,73261
28.33300,80443
28.34113,89635
28.34925,104267
28.35737,115612
28.36550,132540
28.37362,147590
28.38173,150178
28.38987,151110
28.39798,157095
28.40612,153394
28.41423,148754
28.42235,143224
28.43048,140574
28.43860,130935
28.44673,128650
28.45485,119325
28.46297,113403
28.47110,101867
28.47922,101108
28.48735,95782
28.49547,93175
28.50358,86179
28.51172,83644
28.51983,77217
28.52795,78775
28.53608,76871
28.54420,76258
28.55233,71807
28.56045,67416
28.56857,65608
28.57670,64631
28.58482,62066
28.59295,68731
28.60107,65102
28.60918,60356
28.61732,62201
28.62543,68060
28.63355,65752
28.64168,66575
28.64980,65857
28.65793,68653
28.66605,66000
28.67417,60767
28.68230,64717
28.69042,61777
28.69855,61126
28.70667,59134
28.71478,58837
28.72292,59613
28.73103,64223
28.73917,67454
28.74728,76207
28.75540,79679
28.76353,81503
28.77165,76410
28.77977,73478
28.78790,62677
28.79602,61606
28.80415,60817
28.81227,63955
28.82038,67091
28.82852,62332
28.83663,55057
28.84477,59214
28.85288,58575
28.86100,56462
28.86913,55089
28.87725,60008
28.88538,66879
28.89350,68456
28.90162,70256
28.90975,71957
28.91787,65867
28.92598,60918
28.93412,57473
28.94223,59485
28.95037,58041
28.95848,56403
28.96660,54799
28.97473,52883
28.98285,51941
28.99098,50866
28.99910,50370
29.00722,45754
29.01535,45429
29.02347,48304
29.03158,48735
29.03972,48621
29.04783,48477
29.05597,47775
29.06408,51053
29.07220,50962
29.08033,50790
29.08845,51303
29.09658,56493
29.10470,51705
29.11282,52328
29.12095,49640
29.12907,52541
29.13720,46763
29.14532,44761
29.15343,49398
29.16157,47911
29.16968,49579
29.17780,53569
29.18593,61297
29.19405,71780
29.20218,84527
29.21030,93141
29.21842,100563
29.22655,94464
29.23467,81710
29.24280,81916
29.25092,75571
29.25903,70199
29.26717,70550
29.27528,69550
29.28340,63284
29.29153,61689
29.29965,59857
29.30778,53610
29.31590,52826
29.32402,49492
29.33215,48771
29.34027,43246
29.34840,43642
29.35652,46315
29.36463,43759
29.37277,42517
29.38088,45353
29.38902,44820
29.39713,43142
29.40525,44635
29.41338,45127
29.42150,50978
29.42962,46758
29.43775,47788
29.44587,49333
29.45400,47822
29.46212,47017
29.47023,45383
29.47837,44031
29.48648,44130
29.49462,45224
29.50273,48120
29.51085,47965
29.51898,50625
29.52710,44110
29.53523,46484
29.54335,43410
29.55147,43107
29.55960,39731
29.56772,46459
29.57583,42859
29.58397,44175
29.59208,42923
29.60022,43145
29.60833,40296
29.61645,44750
29.62458,39160
29.63270,41663
29.64083,45227
29.64895,41611
29.65707,38857
29.66520,45423
29.67332,42191
29.68143,44089
29.68957,50140
29.69768,47973
29.70582,48241
29.71393,47004
29.72205,45940
29.73018,49196
29.73830,45363
29.74643,41659
29.75455,41120
29.76267,44269
29.77080,39804
29.77892,42045
29.78705,38675
29.79517,40799
29.80328,41841
29.81142,39060
29.81953,41013
29.82765,40478
29.83578,39115
29.84390,40420
29.85203,42945
29.86015,46677
29.86827,58463
29.87640,82191
29.88452,105116
29.89265,137409
29.90077,157463
29.90888,154144
29.91702,140500
29.92513,112487
29.93327,80417
29.94138,69023
29.94950,62780
29.95763,62207
29.96575,63582
29.97387,65591
29.98200,69760
29.99012,73936
29.99825,81688
30.00637,87585
30.01448,89866
30.02262,88341
30.03073,97913
30.03887,93692
30.04698,96007
30.05510,94049
30.06323,96769
30.07135,90145
30.07947,95091
30.08760,90776
30.09572,90196
30.10385,92142
30.11197,89268
30.12008,89488
30.12822,81815
30.13633,80140
30.14447,79605
30.15258,79345
30.16070,72626
30.16883,71357
30.17695,66952
30.18508,65969
30.19320,65137
30.20132,66265
30.20945,65950
30.21757,56923
30.22568,60074
30.23382,55754
30.24193,53581
30.25007,54206
30.25818,55484
30.26630,51793
30.27443,47098
30.28255,50235
30.29068,47926
30.29880,49482
30.30692,50237
30.31505,50853
30.32317,52406
30.33130,46582
30.33942,48698
30.34753,49058
30.35567,44048
30.36378,46428
30.37190,45321
30.38003,46960
30.38815,45832
30.39628,44186
30.40440,43537
30.41252,45226
30.42065,46782
30.42877,45205
30.43690,43418
30.44502,46877
30.45313,46431
30.46127,45465
30.46938,45781
30.47750,43597
30.48563,45259
30.49375,48847
30.50188,46099
30.51000,45084
30.51812,43307
30.52625,40183
30.53437,48535
30.54250,43710
30.55062,42143
30.55873,43696
30.56687,40495
30.57498,42843
30.58312,43203
30.59123,44657
30.59935,42715
30.60748,41404
30.61560,44070
30.62372,42610
30.63185,41950
30.63997,40680
30.64810,40979
30.65622,40571
30.66433,40395
30.67247,41166
30.68058,42489
30.68872,39315
30.69683,41950
30.70495,42649
30.71308,38383
30.72120,41390
30.72933,39354
30.73745,39860
30.74557,42636
30.75370,41656
30.76182,44693
30.76993,47109
30.77807,56813
30.78618,77026
30.79432,96296
30.80243,123470
30.81055,124967
30.81868,130249
30.82680,110120
30.83493,93212
30.84305,75936
30.85117,61188
30.85930,52261
30.86742,51655
30.87553,45317
30.88367,48058
30.89178,45018
30.89992,45095
30.90803,44844
30.91615,40535
30.92428,40442
30.93240,40273
30.94053,42990
30.94865,39013
30.95677,40108
30.96490,38880
30.97302,42359
30.98115,39239
30.98927,40933
30.99738,39971
31.00552,40349
31.01363,42834
31.02175,48336
31.02988,43195
31.03800,46765
31.04613,51675
31.05425,49397
31.06237,56089
31.07050,55717
31.07862,55321
31.08675,66957
31.09487,66980
31.10298,71040
31.11112,70928
31.11923,68721
31.12735,65734
31.13548,65840
31.14360,65761
31.15173,67184
31.15985,67040
31.16797,64818
31.17610,71422
31.18422,77233
31.19235,92101
31.20047,108516
31.20858,134784
31.21672,155844
31.22483,181836
31.23297,169372
31.24108,161065
31.24920,130229
31.25733,105529
31.26545,87582
31.27357,75127
31.28170,66875
31.28982,63583
31.29795,60346
31.30607,62215
31.31418,63209
31.32232,67222
31.33043,63097
31.33857,62549
31.34668,63686
31.35480,61741
31.36293,63884
31.37105,58749
31.37918,62448
31.38730,64019
31.39542,62700
31.40355,64329
31.41167,60023
31.41978,55508
31.42792,54908
31.43603,64247
31.44417,55579
31.45228,55997
31.46040,53329
31.46853,53532
31.47665,56078
31.48478,55229
31.49290,56160
31.50102,54248
31.50915,54091
31.51727,54651
31.52538,58047
31.53352,51428
31.54163,53979
31.54977,52181
31.55788,54535
31.56600,58265
31.57413,52797
31.58225,56830
31.59038,56125
31.59850,57781
31.60662,51569
31.61475,52368
31.62287,57170
31.63100,53204
31.63912,54010
31.64723,52149
31.65537,54675
31.66348,57900
31.67160,56352
31.67973,55240
31.68785,54934
31.69598,52829
31.70410,54119
31.71222,54019
31.72035,51295
31.72847,50556
31.73660,49373
31.74472,50741
31.75283,47726
31.76097,50749
31.76908,58011
31.77722,49915
31.78533,48634
31.79345,47251
31.80158,49708
31.80970,48041
31.81782,47849
31.82595,48964
31.83407,49181
31.84220,52712
31.85032,52181
31.85843,52805
31.86657,53460
31.87468,51149
31.88282,59905
31.89093,57416
31.89905,61711
31.90718,65322
31.91530,69940
31.92342,72966
31.93155,80990
31.93967,79755
31.94780,80026
31.95592,86592
31.96403,83491
31.97217,84073
31.98028,86122
31.98842,90433
31.99653,80986
32.00465,82116
32.01278,81847
32.02090,82647
32.02903,77666
32.03715,83116
32.04527,79584
32.05340,75125
32.06152,73156
32.06963,75468
32.07777,68425
32.08588,69142
32.09402,61267
32.10213,64099
32.11025,62748
32.11838,63939
32.12650,57054
32.13463,58085
32.14275,55078
32.15087,54156
32.15900,52384
32.16712,54190
32.17523,54390
32.18337,55069
32.19148,52122
32.19962,52242
32.20773,52636
32.21585,50880
32.22398,51083
32.23210,53258
32.24023,50129
32.24835,50457
32.25647,53642
32.26460,53073
32.27272,53465
32.28085,53947
32.28897,46018
32.29708,47216
32.30522,44570
32.31333,50439
32.32145,48222
32.32958,47542
32.33770,45831
32.34583,43869
32.35395,50496
32.36207,47230
32.37020,46060
32.37832,45076
32.38645,47967
32.39457,44942
32.40268,45249
32.41082,42667
32.41893,44892
32.42707,45449
32.43518,46959
32.44330,44840
32.45143,44468
32.45955,44976
32.46767,47113
32.47580,44077
32.48392,43794
32.49205,42295
32.50017,42528
32.50828,45233
32.51642,45656
32.52453,44262
32.53267,41674
32.54078,45373
32.54890,44004
32.55703,45168
32.56515,41698
32.57327,41787
32.58140,43285
32.58952,39547
32.59765,41742
32.60577,42647
32.61388,45291
32.62202,43318
32.63013,50581
32.63827,52149
32.64638,54612
32.65450,58882
32.66263,61503
32.67075,51195
32.67888,47772
32.68700,46999
32.69512,45661
32.70325,42650
32.71137,45397
32.71948,43471
32.72762,44106
32.73573,43795
32.74387,45343
32.75198,41323
32.76010,38818
32.76823,44478
32.77635,44183
32.78448,41368
32.79260,39166
32.80072,43756
32.80885,41187
32.81697,38295
32.82510,39960
32.83322,40942
32.84133,39245
32.84947,38691
32.85758,38087
32.86570,41278
32.87383,41328
32.88195,39968
32.89008,42564
32.89820,43147
32.90632,43879
32.91445,44661
32.92257,49283
32.93070,43606
32.93882,40400
32.94693,43183
32.95507,41522
32.96318,40531
32.97130,44536
32.97943,47507
32.98755,54798
32.99568,59625
33.00380,58677
33.01192,57088
33.02005,60905
33.02817,54966
33.03630,48554
33.04442,49415
33.05253,47858
33.06067,45452
33.06878,51487
33.07692,51594
33.08503,52785
33.09315,55869
33.10128,56774
33.10940,54128
33.11752,60722
33.12565,57452
33.13377,52829
33.14190,54017
33.15002,50408
33.15813,46664
33.16627,46978
33.17438,46346
33.18252,45385
33.19063,45743
33.19875,42379
33.20688,42488
33.21500,42182
33.22313,40602
33.23125,43055
33.23937,39819
33.24750,41667
33.25562,43767
33.26373,39259
33.27187,40110
33.27998,36985
33.28812,37155
33.29623,38534
33.30435,38282
33.31248,38584
33.32060,41590
33.32873,44402
33.33685,37540
33.34497,44611
33.35310,43263
33.36122,42847
33.36933,46557
33.37747,47216
33.38558,42393
33.39372,41903
33.40183,40530
33.40995,41525
33.41808,41574
33.42620,40651
33.43433,40758
33.44245,39862
33.45057,37263
33.45870,38862
33.46682,38575
33.47495,38817
33.48307,37900
33.49118,42111
33.49932,38993
33.50743,38993
33.51555,41550
33.52368,44269
33.53180,43274
33.53993,44809
33.54805,44156
33.55617,45000
33.56430,47269
33.57242,48479
33.58055,45497
33.58867,45528
33.59678,40248
33.60492,38983
33.61303,41934
33.62115,42077
33.62928,40463
33.63740,38880
33.64553,44003
33.65365,44434
33.66177,44199
33.66990,46643
33.67802,40665
33.68615,41635
33.69427,40414
33.70238,39420
33.71052,38528
33.71863,39016
33.72677,41590
33.73488,40892
33.74300,40442
33.75113,42319
33.75925,38844
33.76737,38299
33.77550,39151
33.78362,40941
33.79175,41187
33.79987,42229
33.80798,41705
33.81612,39503
33.82423,41733
33.83237,44618
33.84048,40584
33.84860,37789
33.85673,36058
33.86485,39227
33.87298,39245
33.88110,40879
33.88922,41131
33.89735,45217
33.90547,44336
33.91358,42009
33.92172,43065
33.92983,42696
33.93797,46833
33.94608,43203
33.95420,42245
33.96233,39639
33.97045,40526
33.97858,40347
33.98670,40145
33.99482,38532
34.00295,36347
34.01107,39269
34.01918,44116
34.02732,38700
34.03543,42410
34.04357,40870
34.05168,42051
34.05980,42609
34.06793,42411
34.07605,40164
34.08418,41905
34.09230,42008
34.10042,44281
34.10855,46967
34.11667,44837
34.12480,46935
34.13292,42389
34.14103,41389
34.14917,46149
34.15728,44678
34.16540,43856
34.17353,42798
34.18165,44491
34.18978,43149
34.19790,44061
34.20602,44504
34.21415,43759
34.22227,43337
34.23040,42490
34.23852,43028
34.24663,40620
34.25477,41845
34.26288,40183
34.27102,38273
34.27913,41711
34.28725,41914
34.29538,41176
34.30350,41261
34.31162,40525
34.31975,39586
34.32787,42256
34.33600,42300
34.34412,44757
34.35223,40490
34.36037,43313
34.36848,40070
34.37662,42414
34.38473,43454
34.39285,36980
34.40098,41308
34.40910,40272
34.41722,41640
34.42535,43826
34.43347,38681
34.44160,39572
34.44972,38763
34.45783,42565
34.46597,40281
34.47408,39084
34.48222,38953
34.49033,45213
34.49845,44679
34.50658,52347
34.51470,52813
34.52283,63231
34.53095,72556
34.53907,71874
34.54720,76281
34.55532,75190
34.56343,72535
34.57157,71057
34.57968,68016
34.58782,68791
34.59593,68253
34.60405,61396
34.61218,56352
34.62030,59116
34.62843,55956
34.63655,53220
34.64467,53465
34.65280,50134
34.66092,53072
34.66903,48560
34.67717,51465
34.68528,49242
34.69342,48575
34.70153,47949
34.70965,43392
34.71778,47284
34.72590,46091
34.73403,47117
34.74215,46105
34.75027,44556
34.75840,47211
34.76652,45916
34.77465,49075
34.78277,48348
34.79088,47756
34.79902,46944
34.80713,47823
34.81525,44787
34.82338,44844
34.83150,47997
34.83963,47304
34.84775,47156
34.85587,46148
34.86400,47581
34.87212,50597
34.88025,47456
34.88837,44995
34.89648,46504
34.90462,50246
34.91273,47787
34.92087,43240
34.92898,49566
34.93710,48625
34.94523,48616
34.95335,49842
34.96147,50975
34.96960,56060
34.97772,54157
34.98585,51437
34.99397,50301
35.00208,48479
35.01022,46934
35.01833,46629
35.02647,47109
35.03458,45597
35.04270,42738
35.05083,45558
35.05895,44868
35.06708,40866
35.07520,43530
35.08332,44931
35.09145,42877
35.09957,42616
35.10768,41683
35.11582,43739
35.12393,41975
35.13207,44548
35.14018,43298
35.14830,44954
35.15643,45140
35.16455,45111
35.17268,41470
35.18080,45169
35.18892,41260
35.19705,44697
35.20517,38875
35.21328,42375
35.22142,41269
35.22953,39703
35.23767,41750
35.24578,44156
35.25390,42286
35.26203,42016
35.27015,40228
35.27828,42722
35.28640,40149
35.29452,40706
35.30265,43254
35.31077,42878
35.31890,42332
35.32702,43531
35.33513,44909
35.34327,40744
35.35138,39033
35.35950,46813
35.36763,44863
35.37575,42854
35.38388,39284
35.39200,45166
35.40012,40569
35.40825,45943
35.41637,45128
35.42450,46911
35.43262,44932
35.44073,44175
35.44887,45569
35.45698,43463
35.46510,47091
35.47323,43897
35.48135,48249
35.48948,48608
35.49760,41494
35.50572,46649
35.51385,43858
35.52197,42447
35.53010,44017
35.53822,40804
35.54633,43932
35.55447,43093
35.56258,43097
35.57072,43617
35.57883,45912
35.58695,42287
35.59508,39943
35.60320,44412
35.61132,40755
35.61945,44689
35.62757,43969
35.63570,44243
35.64382,43238
35.65193,41879
35.66007,51554
35.66818,44350
35.67632,43196
35.68443,43430
35.69255,42418
35.70068,46725
35.70880,42684
35.71693,44499
35.72505,41235
35.73317,43129
35.74130,42008
35.74942,47029
35.75753,45831
35.76567,49178
35.77378,45111
35.78192,49985
35.79003,45669
35.79815,47156
35.80628,44929
35.81440,43462
35.82253,45359
35.83065,41745
35.83877,46261
35.84690,43534
35.85502,46039
35.86313,41712
35.87127,46077
35.87938,41716
35.88752,47144
35.89563,44716
35.90375,44560
35.91188,45578
35.92000,44437
35.92813,47773
35.93625,46822
35.94437,43402
35.95250,40588
35.96062,41927
35.96875,41635
35.97687,43841
35.98498,44791
35.99312,40878
36.00123,42807
36.00935,46230
36.01748,47249
36.02560,47559
36.03373,48156
36.04185,45996
36.04997,48969
36.05810,47533
36.06622,44779
36.07435,48000
36.08247,42950
36.09058,44612
36.09872,47979
36.10683,48098
36.11497,44257
36.12308,46562
36.13120,46067
36.13933,43774
36.14745,45517
36.15557,46218
36.16370,49779
36.17182,45446
36.17995,45075
36.18807,52403
36.19618,46514
36.20432,43695
36.21243,43597
36.22057,42861
36.22868,41653
36.23680,41556
36.24493,45008
36.25305,45969
36.26117,45207
36.26930,50747
36.27742,51397
36.28555,57162
36.29367,59950
36.30178,57833
36.30992,58289
36.31803,56844
36.32617,52758
36.33428,46419
36.34240,49083
36.35053,46680
36.35865,43336
36.36678,42618
36.37490,43840
36.38302,48583
36.39115,46325
36.39927,46943
36.40738,49666
36.41552,46009
36.42363,44446
36.43177,47726
36.43988,44657
36.44800,43333
36.45613,42814
36.46425,46639
36.47238,45723
36.48050,45408
36.48862,43283
36.49675,42342
36.50487,44427
36.51298,47541
36.52112,48087
36.52923,48853
36.53737,45112
36.54548,45626
36.55360,45218
36.56173,49320
36.56985,48729
36.57798,42310
36.58610,44722
36.59422,43926
36.60235,45219
36.61047,48558
36.61860,45489
36.62672,45209
36.63483,48129
36.64297,49112
36.65108,49422
36.65920,50569
36.66733,50310
36.67545,49200
36.68358,49098
36.69170,49589
36.69982,47604
36.70795,49449
36.71607,49168
36.72420,53789
36.73232,50548
36.74043,47701
36.74857,47566
36.75668,52103
36.76482,49909
36.77293,49781
36.78105,48125
36.78918,49998
36.79730,49703
36.80542,49022
36.81355,45709
36.82167,48844
36.82980,50114
36.83792,48525
36.84603,49303
36.85417,51873
36.86228,47718
36.87042,45999
36.87853,54502
36.88665,52431
36.89478,49087
36.90290,48880
36.91102,49704
36.91915,50782
36.92727,52604
36.93540,53515
36.94352,55891
36.95163,65426
36.95977,66074
36.96788,63382
36.97602,72007
36.98413,61706
36.99225,58561
37.00038,52613
37.00850,49757
37.01663,49558
37.02475,52479
37.03287,50571
37.04100,53232
37.04912,51439
37.05723,49779
37.06537,51915
37.07348,48483
37.08162,53427
37.08973,48021
37.09785,50620
37.10598,47733
37.11410,51117
37.12223,56537
37.13035,50608
37.13847,51436
37.14660,50740
37.15472,54617
37.16285,50980
37.17097,50244
37.17908,51238
37.18722,50684
37.19533,51661
37.20345,48708
37.21158,52097
37.21970,50927
37.22783,49178
37.23595,52435
37.24407,49151
37.25220,50643
37.26032,51537
37.26845,49528
37.27657,54361
37.28468,51592
37.29282,53390
37.30093,55093
37.30905,58464
37.31718,65321
37.32530,70766
37.33343,75681
37.34155,78425
37.34967,72870
37.35780,72660
37.36592,73431
37.37405,70655
37.38217,64569
37.39028,67499
37.39842,62545
37.40653,62036
37.41467,62718
37.42278,57598
37.43090,58224
37.43903,60910
37.44715,62216
37.45527,60805
37.46340,59945
37.47152,58481
37.47965,57204
37.48777,52784
