C:\MassHunter\GCMS\1\data\JTB-E18\JTB-E18-032-06.D Fri Oct 11 13:27:16 2019
Start of data points
2.09527,206276
2.10340,204532
2.11152,196517
2.11965,198522
2.12777,187069
2.13588,179828
2.14402,179074
2.15213,172331
2.16025,169981
2.16838,170726
2.17650,162176
2.18463,158139
2.19275,158329
2.20087,148153
2.20900,149250
2.21712,150869
2.22525,145328
2.23337,143934
2.24148,142509
2.24962,137805
2.25773,134633
2.26585,153917
2.27398,493160
2.28210,1775002
2.29023,1814202
2.29835,869619
2.30647,490412
2.31460,385277
2.32272,334633
2.33085,301482
2.33897,313125
2.34708,307738
2.35522,264753
2.36333,242655
2.37147,224388
2.37958,223713
2.38770,220677
2.39583,218912
2.40395,203599
2.41207,205919
2.42020,198833
2.42832,197338
2.43645,193642
2.44457,191163
2.45268,207938
2.46082,187556
2.46893,188292
2.47707,179498
2.48518,174102
2.49330,180128
2.50143,182325
2.50955,179779
2.51768,174528
2.52580,170427
2.53392,161851
2.54205,162733
2.55017,157862
2.55828,168104
2.56642,160192
2.57453,156514
2.58267,147027
2.59078,147918
2.59890,152103
2.60703,156307
2.61515,214156
2.62328,249340
2.63140,224360
2.63952,192594
2.64765,185049
2.65577,180519
2.66388,165201
2.67202,161326
2.68013,158155
2.68827,157026
2.69638,150952
2.70450,147298
2.71263,142482
2.72075,141726
2.72888,144994
2.73700,142048
2.74512,138893
2.75325,137393
2.76137,137394
2.76950,138953
2.77762,141269
2.78573,135096
2.79387,136286
2.80198,135878
2.81010,134586
2.81823,133821
2.82635,143451
2.83448,170935
2.84260,175520
2.85072,154316
2.85885,140361
2.86697,139779
2.87510,138130
2.88322,128460
2.89133,129082
2.89947,130388
2.90758,129600
2.91570,122899
2.92383,122045
2.93195,119318
2.94008,122343
2.94820,118915
2.95632,117262
2.96445,116366
2.97257,116633
2.98070,113337
2.98882,113810
2.99693,120336
3.00507,119955
3.01318,124681
3.02132,115261
3.02943,130769
3.03755,158581
3.04568,192749
3.05380,306106
3.06192,670476
3.07005,881270
3.07817,625945
3.08630,355020
3.09442,247533
3.10253,198956
3.11067,196918
3.11878,199147
3.12692,171908
3.13503,150595
3.14315,144814
3.15128,132413
3.15940,128907
3.16753,123739
3.17565,128824
3.18377,124634
3.19190,119189
3.20002,119956
3.20813,118869
3.21627,116892
3.22438,112663
3.23252,113301
3.24063,115310
3.24875,110038
3.25688,109122
3.26500,110936
3.27313,116690
3.28125,162917
3.28937,554336
3.29750,1903173
3.30562,4401379
3.31373,5814463
3.32187,4952065
3.32998,3221114
3.33812,2054936
3.34623,1439349
3.35435,1110793
3.36248,886878
3.37060,733571
3.37873,657512
3.38685,614593
3.39497,535137
3.40310,504838
3.41122,567756
3.41935,691300
3.42747,680985
3.43558,547975
3.44372,427484
3.45183,376971
3.45995,341489
3.46808,326126
3.47620,305684
3.48433,296619
3.49245,288333
3.50057,267183
3.50870,266097
3.51682,246528
3.52495,248554
3.53307,235422
3.54118,228403
3.54932,224207
3.55743,221547
3.56557,216757
3.57368,209841
3.58180,210289
3.58993,211022
3.59805,201943
3.60617,206067
3.61430,205202
3.62242,227845
3.63055,279686
3.63867,341479
3.64678,332828
3.65492,277855
3.66303,237589
3.67117,200929
3.67928,204648
3.68740,200566
3.69553,191831
3.70365,181496
3.71177,175796
3.71990,181736
3.72802,173389
3.73615,177224
3.74427,173351
3.75238,177336
3.76052,169099
3.76863,180173
3.77677,187111
3.78488,204767
3.79300,201507
3.80113,199192
3.80925,195840
3.81738,190086
3.82550,180474
3.83362,186053
3.84175,178505
3.84987,177310
3.85798,165694
3.86612,161715
3.87423,159355
3.88237,156629
3.89048,163525
3.89860,154784
3.90673,146956
3.91485,152492
3.92298,145279
3.93110,148849
3.93922,148168
3.94735,148956
3.95547,146402
3.96358,145442
3.97172,145006
3.97983,145484
3.98797,142949
3.99608,143705
4.00420,142308
4.01233,136891
4.02045,143060
4.02858,142324
4.03670,142640
4.04482,140899
4.05295,136985
4.06107,135609
4.06920,137826
4.07732,140607
4.08543,137978
4.09357,138524
4.10168,136750
4.10980,134668
4.11793,141409
4.12605,210915
4.13418,845586
4.14230,3330282
4.15042,7749347
4.15855,1.050292E+07
4.16667,9358986
4.17480,6003378
4.18292,3292290
4.19103,1914117
4.19917,1301352
4.20728,1098135
4.21542,1940944
4.22353,5872412
4.23165,1.329127E+07
4.23978,2.117508E+07
4.24790,2.670759E+07
4.25602,2.771093E+07
4.26415,2.155791E+07
4.27227,1.115366E+07
4.28040,6594909
4.28852,4699492
4.29663,3585919
4.30477,2875017
4.31288,2343371
4.32102,2023949
4.32913,1745511
4.33725,1525480
4.34538,1348818
4.35350,1228068
4.36162,1122948
4.36975,1049968
4.37787,968959
4.38600,908598
4.39412,841958
4.40223,788072
4.41037,724203
4.41848,685939
4.42662,646546
4.43473,611595
4.44285,597168
4.45098,563697
4.45910,543579
4.46723,518144
4.47535,499047
4.48347,492385
4.49160,469211
4.49972,445627
4.50783,433721
4.51597,414264
4.52408,409124
4.53222,394846
4.54033,383952
4.54845,371306
4.55658,354234
4.56470,363909
4.57283,350017
4.58095,336144
4.58907,328019
4.59720,316465
4.60532,312983
4.61345,308690
4.62157,303173
4.62968,289336
4.63782,285467
4.64593,281535
4.65405,272272
4.66218,270552
4.67030,266554
4.67843,270946
4.68655,262724
4.69467,255770
4.70280,260301
4.71092,248326
4.71905,249227
4.72717,243814
4.73528,238893
4.74342,240653
4.75153,234152
4.75965,224414
4.76778,220487
4.77590,227397
4.78403,224727
4.79215,214322
4.80027,221268
4.80840,213166
4.81652,208841
4.82465,212864
4.83277,206661
4.84088,213071
4.84902,201602
4.85713,210408
4.86527,207677
4.87338,209950
4.88150,206761
4.88963,203487
4.89775,194742
4.90587,200609
4.91400,234114
4.92212,360697
4.93025,694527
4.93837,1276717
4.94648,1829594
4.95462,2007174
4.96273,1722752
4.97087,1303045
4.97898,943250
4.98710,729823
4.99523,582153
5.00335,495700
5.01147,431473
5.01960,395137
5.02772,366981
5.03585,348241
5.04397,330908
5.05208,304879
5.06022,303370
5.06833,279974
5.07647,274455
5.08458,265213
5.09270,270069
5.10083,262201
5.10895,263993
5.11708,263177
5.12520,258054
5.13332,250468
5.14145,249354
5.14957,231476
5.15768,234798
5.16582,229544
5.17393,230926
5.18207,229092
5.19018,244698
5.19830,233303
5.20643,229970
5.21455,221353
5.22268,209831
5.23080,209080
5.23892,211138
5.24705,214831
5.25517,207905
5.26330,206531
5.27142,191945
5.27953,188080
5.28767,190913
5.29578,186692
5.30390,180830
5.31203,182733
5.32015,184103
5.32828,178549
5.33640,178939
5.34452,175301
5.35265,173391
5.36077,172920
5.36890,170192
5.37702,169936
5.38513,166931
5.39327,165390
5.40138,160636
5.40952,166439
5.41763,161730
5.42575,164542
5.43388,154657
5.44200,156858
5.45012,159959
5.45825,157649
5.46637,154124
5.47450,159931
5.48262,153972
5.49073,152211
5.49887,154511
5.50698,152309
5.51512,143883
5.52323,154670
5.53135,148938
5.53948,150005
5.54760,149269
5.55572,152430
5.56385,149546
5.57197,143008
5.58010,150221
5.58822,159290
5.59633,157053
5.60447,148335
5.61258,150987
5.62072,155551
5.62883,154499
5.63695,156172
5.64508,153897
5.65320,152508
5.66133,152643
5.66945,154059
5.67757,150502
5.68570,159383
5.69382,152536
5.70193,154358
5.71007,155652
5.71818,154666
5.72632,157801
5.73443,156227
5.74255,146468
5.75068,148769
5.75880,150984
5.76693,158561
5.77505,156918
5.78317,150363
5.79130,149810
5.79942,152864
5.80753,167477
5.81567,204822
5.82378,257132
5.83192,305027
5.84003,322518
5.84815,290524
5.85628,243112
5.86440,208135
5.87253,186860
5.88065,163461
5.88877,155547
5.89690,147802
5.90502,146804
5.91315,150462
5.92127,158779
5.92938,185018
5.93752,191864
5.94563,176761
5.95375,160468
5.96188,149433
5.97000,149199
5.97813,166519
5.98625,173485
5.99437,176649
6.00250,144083
6.01062,130639
6.01875,122090
6.02687,112064
6.03498,110625
6.04312,108005
6.05123,103457
6.05937,101517
6.06748,107642
6.07560,100295
6.08373,105422
6.09185,100695
6.09997,98218
6.10810,93933
6.11622,99803
6.12435,95157
6.13247,96476
6.14058,100297
6.14872,105182
6.15683,103788
6.16497,104998
6.17308,108271
6.18120,109673
6.18933,116039
6.19745,123242
6.20557,119794
6.21370,125086
6.22182,124830
6.22995,122723
6.23807,120069
6.24618,121762
6.25432,127842
6.26243,130298
6.27057,132526
6.27868,133178
6.28680,140229
6.29493,132411
6.30305,134755
6.31118,142409
6.31930,143930
6.32742,138465
6.33555,144364
6.34367,155139
6.35178,152280
6.35992,151987
6.36803,165456
6.37617,159285
6.38428,163084
6.39240,163414
6.40053,162103
6.40865,163107
6.41678,170127
6.42490,172967
6.43302,177235
6.44115,179712
6.44927,180440
6.45740,188794
6.46552,182424
6.47363,190156
6.48177,191786
6.48988,193919
6.49800,195448
6.50613,191554
6.51425,196683
6.52238,146996
6.53050,134947
6.53862,122652
6.54675,114148
6.55487,102445
6.56300,103082
6.57112,95179
6.57923,97296
6.58737,93770
6.59548,93958
6.60360,90307
6.61173,89532
6.61985,93948
6.62798,89242
6.63610,89346
6.64422,86895
6.65235,85693
6.66047,86263
6.66860,79928
6.67672,82134
6.68483,82468
6.69297,81798
6.70108,77983
6.70922,82310
6.71733,82684
6.72545,86171
6.73358,95287
6.74170,93878
6.74982,100019
6.75795,95451
6.76607,91644
6.77420,90214
6.78232,86940
6.79043,78387
6.79857,78899
6.80668,78563
6.81482,74951
6.82293,82575
6.83105,76919
6.83918,73818
6.84730,74617
6.85542,73856
6.86355,86126
6.87167,116945
6.87980,155944
6.88792,180463
6.89603,201477
6.90417,195284
6.91228,150254
6.92042,121471
6.92853,94768
6.93665,79099
6.94478,68771
6.95290,63093
6.96103,61450
6.96915,61386
6.97727,56494
6.98540,60923
6.99352,56790
7.00163,58802
7.00977,61748
7.01788,61232
7.02602,70443
7.03413,89983
7.04225,100091
7.05038,108293
7.05850,114307
7.06663,96697
7.07475,90614
7.08287,76370
7.09100,71118
7.09912,65688
7.10725,62196
7.11537,62016
7.12348,60187
7.13162,59542
7.13973,60610
7.14785,62413
7.15598,57110
7.16410,59666
7.17223,59388
7.18035,59059
7.18847,57982
7.19660,55022
7.20472,54216
7.21285,55675
7.22097,56675
7.22908,59450
7.23722,58291
7.24533,54958
7.25345,60065
7.26158,59788
7.26970,59366
7.27783,60964
7.28595,65875
7.29407,72154
7.30220,64991
7.31032,64069
7.31845,62808
7.32657,60756
7.33468,61227
7.34282,59890
7.35093,59807
7.35907,62081
7.36718,59963
7.37530,62813
7.38343,56457
7.39155,65035
7.39967,69203
7.40780,77659
7.41592,82835
7.42405,82798
7.43217,81990
7.44028,72611
7.44842,64568
7.45653,60010
7.46467,58406
7.47278,61411
7.48090,56418
7.48903,56464
7.49715,55243
7.50528,62217
7.51340,63633
7.52152,69419
7.52965,71576
7.53777,69193
7.54588,62260
7.55402,58535
7.56213,53147
7.57027,52291
7.57838,51742
7.58650,50315
7.59463,49913
7.60275,50430
7.61088,53073
7.61900,49873
7.62712,48721
7.63525,50156
7.64337,47846
7.65148,53020
7.65962,49616
7.66773,54441
7.67587,47802
7.68398,47870
7.69210,48497
7.70023,47646
7.70835,48544
7.71648,50337
7.72460,46911
7.73272,47675
7.74085,49790
7.74897,51475
7.75710,44113
7.76522,45831
7.77333,44995
7.78147,47411
7.78958,43308
7.79770,47482
7.80583,48679
7.81395,48412
7.82208,43347
7.83020,45000
7.83832,43864
7.84645,43493
7.85457,44060
7.86270,47770
7.87082,47249
7.87893,45539
7.88707,43027
7.89518,47093
7.90330,43989
7.91143,43193
7.91955,39256
7.92768,44324
7.93580,45345
7.94392,47673
7.95205,47098
7.96017,49022
7.96830,55593
7.97642,57781
7.98453,67313
7.99267,62137
8.00078,62346
8.00892,50568
8.01703,46472
8.02515,45405
8.03328,49536
8.04140,45286
8.04952,45968
8.05765,46939
8.06577,47494
8.07390,47626
8.08202,47169
8.09013,45644
8.09827,44041
8.10638,44548
8.11452,46213
8.12263,48143
8.13075,46774
8.13888,47554
8.14700,48048
8.15513,49195
8.16325,52557
8.17137,58912
8.17950,63406
8.18762,65812
8.19573,60178
8.20387,52021
8.21198,50692
8.22012,48736
8.22823,47832
8.23635,46608
8.24448,42925
8.25260,44730
8.26073,46387
8.26885,44242
8.27697,46275
8.28510,44681
8.29322,45627
8.30133,45301
8.30947,44466
8.31758,44776
8.32572,50554
8.33383,59230
8.34195,69171
8.35008,83739
8.35820,90023
8.36633,80262
8.37445,77019
8.38257,61187
8.39070,54579
8.39882,47971
8.40695,46014
8.41507,47999
8.42318,47938
8.43132,46492
8.43943,49096
8.44755,47497
8.45568,44564
8.46380,42010
8.47193,42547
8.48005,44127
8.48817,43340
8.49630,44264
8.50442,51081
8.51255,49751
8.52067,47175
8.52878,49877
8.53692,47416
8.54503,48580
8.55317,45962
8.56128,49373
8.56940,48664
8.57753,49843
8.58565,48716
8.59377,47887
8.60190,47646
8.61002,43806
8.61815,44832
8.62627,44172
8.63438,46686
8.64252,43694
8.65063,40976
8.65877,44765
8.66688,45456
8.67500,46140
8.68313,42523
8.69125,42387
8.69937,44736
8.70750,44577
8.71562,50971
8.72375,75212
8.73187,136007
8.73998,262810
8.74812,407546
8.75623,522362
8.76437,513817
8.77248,414983
8.78060,292464
8.78873,208525
8.79685,170983
8.80498,132395
8.81310,119695
8.82122,108701
8.82935,102580
8.83747,94559
8.84558,90115
8.85372,84399
8.86183,82665
8.86997,78265
8.87808,72409
8.88620,70535
8.89433,72145
8.90245,67004
8.91058,67390
8.91870,66376
8.92682,60385
8.93495,65901
8.94307,65502
8.95120,59894
8.95932,57246
8.96743,61812
8.97557,57724
8.98368,59579
8.99180,60090
8.99993,60072
9.00805,60242
9.01618,56893
9.02430,53009
9.03242,54456
9.04055,59142
9.04867,56083
9.05680,54756
9.06492,52349
9.07303,52699
9.08117,54121
9.08928,53762
9.09740,50817
9.10553,55260
9.11365,53728
9.12178,56310
9.12990,52915
9.13802,57743
9.14615,52376
9.15427,52539
9.16240,54743
9.17052,51018
9.17863,52756
9.18677,53367
9.19488,49372
9.20302,53446
9.21113,48879
9.21925,47711
9.22738,50126
9.23550,53423
9.24362,46193
9.25175,47546
9.25987,47567
9.26800,47155
9.27612,45683
9.28423,45809
9.29237,46826
9.30048,47759
9.30862,46548
9.31673,42721
9.32485,43860
9.33298,43248
9.34110,43923
9.34922,47390
9.35735,46047
9.36547,46478
9.37360,43738
9.38172,41056
9.38983,43465
9.39797,44525
9.40608,45957
9.41422,41867
9.42233,42378
9.43045,42016
9.43858,44571
9.44670,45400
9.45483,44660
9.46295,41437
9.47107,41427
9.47920,44424
9.48732,45432
9.49543,44864
9.50357,43906
9.51168,44808
9.51982,42919
9.52793,39847
9.53605,48473
9.54418,48104
9.55230,53940
9.56043,52226
9.56855,47777
9.57667,42969
9.58480,41693
9.59292,38907
9.60105,38550
9.60917,34444
9.61728,36951
9.62542,35871
9.63353,33742
9.64165,36140
9.64978,31241
9.65790,31934
9.66603,35425
9.67415,34024
9.68227,33950
9.69040,32401
9.69852,31663
9.70665,33046
9.71477,29516
9.72288,33660
9.73102,31309
9.73913,29857
9.74725,31707
9.75538,34560
9.76350,29159
9.77163,30067
9.77975,32453
9.78787,32703
9.79600,29684
9.80412,30936
9.81225,29518
9.82037,31868
9.82848,30551
9.83662,31772
9.84473,31059
9.85287,31393
9.86098,33188
9.86910,31685
9.87723,35828
9.88535,34083
9.89347,34221
9.90160,34611
9.90972,29580
9.91785,30892
9.92597,31257
9.93408,34879
9.94222,30492
9.95033,29302
9.95847,31151
9.96658,34163
9.97470,42064
9.98283,44365
9.99095,45026
9.99908,44594
10.00720,42436
10.01532,36089
10.02345,33867
10.03157,35234
10.03968,31100
10.04782,33804
10.05593,35013
10.06407,35817
10.07218,32620
10.08030,32076
10.08843,31936
10.09655,28995
10.10468,30839
10.11280,32311
10.12092,30602
10.12905,29924
10.13717,30968
10.14528,28292
10.15342,30726
10.16153,29874
10.16967,28815
10.17778,26650
10.18590,28813
10.19403,29972
10.20215,33855
10.21028,27021
10.21840,29836
10.22652,31242
10.23465,33472
10.24277,30051
10.25090,30813
10.25902,30100
10.26713,30285
10.27527,30720
10.28338,33060
10.29150,32002
10.29963,34659
10.30775,32360
10.31588,31303
10.32400,29695
10.33212,30098
10.34025,33908
10.34837,29889
10.35650,30649
10.36462,30049
10.37273,36910
10.38087,28148
10.38898,28890
10.39710,31767
10.40523,30396
10.41335,29266
10.42148,28530
10.42960,28266
10.43772,30060
10.44585,27858
10.45397,30670
10.46210,25784
10.47022,29376
10.47833,28213
10.48647,28406
10.49458,29018
10.50272,31352
10.51083,26663
10.51895,28205
10.52708,26964
10.53520,28763
10.54332,31174
10.55145,29364
10.55957,30434
10.56770,31301
10.57582,29441
10.58393,29421
10.59207,35415
10.60018,34616
10.60832,33364
10.61643,30790
10.62455,27902
10.63268,27721
10.64080,25896
10.64893,28821
10.65705,28030
10.66517,26701
10.67330,25437
10.68142,28229
10.68953,30742
10.69767,32900
10.70578,27244
10.71392,31142
10.72203,31843
10.73015,31898
10.73828,30317
10.74640,32914
10.75453,31256
10.76265,31925
10.77077,28243
10.77890,32590
10.78702,31231
10.79515,27934
10.80327,26508
10.81138,29320
10.81952,26509
10.82763,27436
10.83575,29779
10.84388,28873
10.85200,27627
10.86013,27630
10.86825,29785
10.87637,27231
10.88450,28338
10.89262,27728
10.90075,26154
10.90887,30067
10.91698,31205
10.92512,28984
10.93323,28097
10.94135,25666
10.94948,25668
10.95760,31581
10.96573,29033
10.97385,27829
10.98197,27640
10.99010,25127
10.99822,26369
11.00635,28645
11.01447,26117
11.02258,24216
11.03072,25620
11.03883,27444
11.04697,28175
11.05508,26293
11.06320,26615
11.07133,27246
11.07945,25860
11.08757,28213
11.09570,26839
11.10382,26729
11.11195,28155
11.12007,26710
11.12818,29391
11.13632,29933
11.14443,27635
11.15257,28371
11.16068,30136
11.16880,31395
11.17693,29320
11.18505,31992
11.19317,28853
11.20130,28775
11.20942,31385
11.21755,30749
11.22567,29827
11.23378,28342
11.24192,28559
11.25003,30935
11.25817,29521
11.26628,28303
11.27440,32162
11.28253,36898
11.29065,38279
11.29878,44940
11.30690,51835
11.31502,51749
11.32315,54342
11.33127,53846
11.33938,51571
11.34752,54130
11.35563,47945
11.36377,44085
11.37188,43688
11.38000,37773
11.38813,37780
11.39625,35577
11.40438,31566
11.41250,31966
11.42062,33684
11.42875,32555
11.43687,26857
11.44500,29400
11.45312,28620
11.46123,25850
11.46937,29361
11.47748,26872
11.48560,26417
11.49373,27050
11.50185,25946
11.50998,28136
11.51810,25932
11.52622,27654
11.53435,29570
11.54247,31751
11.55060,31407
11.55872,30526
11.56683,30456
11.57497,33336
11.58308,30570
11.59120,33659
11.59933,32589
11.60745,28830
11.61558,27004
11.62370,30311
11.63182,31618
11.63995,26086
11.64807,29463
11.65620,28524
11.66432,23692
11.67243,28703
11.68057,29934
11.68868,29227
11.69682,34098
11.70493,34405
11.71305,39190
11.72118,40863
11.72930,37855
11.73742,35451
11.74555,37097
11.75367,39698
11.76180,37761
11.76992,37110
11.77803,34942
11.78617,34857
11.79428,35430
11.80242,34026
11.81053,33829
11.81865,30056
11.82678,30137
11.83490,28431
11.84303,26616
11.85115,28165
11.85927,29214
11.86740,28126
11.87552,24829
11.88363,27699
11.89177,28169
11.89988,26486
11.90802,26872
11.91613,27973
11.92425,27270
11.93238,30550
11.94050,30272
11.94863,31617
11.95675,32457
11.96487,34134
11.97300,34459
11.98112,34808
11.98923,31759
11.99737,33214
12.00548,33467
12.01362,30765
12.02173,29283
12.02985,30045
12.03798,29722
12.04610,30256
12.05423,30555
12.06235,29855
12.07047,37934
12.07860,36563
12.08672,36763
12.09485,33404
12.10297,31842
12.11108,32587
12.11922,29802
12.12733,26127
12.13545,27243
12.14358,28235
12.15170,24904
12.15983,24510
12.16795,23936
12.17607,29365
12.18420,29504
12.19232,24657
12.20045,25695
12.20857,25836
12.21668,30928
12.22482,26210
12.23293,24592
12.24105,27087
12.24918,25393
12.25730,28074
12.26543,25484
12.27355,24927
12.28167,26478
12.28980,25356
12.29792,25933
12.30605,26158
12.31417,27712
12.32228,28752
12.33042,24019
12.33853,24330
12.34667,25333
12.35478,26478
12.36290,27228
12.37103,33542
12.37915,45100
12.38727,77135
12.39540,144282
12.40352,233420
12.41165,305170
12.41977,359637
12.42788,309587
12.43602,226015
12.44413,160235
12.45227,107086
12.46038,76868
12.46850,61358
12.47663,57384
12.48475,52750
12.49288,41495
12.50100,45965
12.50912,40551
12.51725,37843
12.52537,35399
12.53348,32356
12.54162,36336
12.54973,34371
12.55787,33779
12.56598,32953
12.57410,33500
12.58223,32044
12.59035,33432
12.59848,31100
12.60660,32037
12.61472,28070
12.62285,28649
12.63097,29335
12.63908,29169
12.64722,28964
12.65533,25287
12.66347,28828
12.67158,29252
12.67970,28319
12.68783,24427
12.69595,25695
12.70408,24535
12.71220,29277
12.72032,31366
12.72845,27955
12.73657,28843
12.74470,28868
12.75282,25682
12.76093,28953
12.76907,24454
12.77718,26519
12.78530,28117
12.79343,27068
12.80155,29943
12.80968,30846
12.81780,29990
12.82592,32060
12.83405,29969
12.84217,29066
12.85030,31487
12.85842,29784
12.86653,29538
12.87467,27772
12.88278,30034
12.89092,26124
12.89903,27546
12.90715,27723
12.91528,26061
12.92340,25587
12.93152,26716
12.93965,26379
12.94777,27121
12.95590,36002
12.96402,40311
12.97213,41965
12.98027,49930
12.98838,52784
12.99652,56499
13.00463,56298
13.01275,53299
13.02088,47567
13.02900,44932
13.03712,45000
13.04525,36440
13.05337,36681
13.06150,32535
13.06962,29700
13.07773,29567
13.08587,30793
13.09398,26771
13.10212,29198
13.11023,27770
13.11835,28219
13.12648,27312
13.13460,25093
13.14273,26706
13.15085,26508
13.15897,24131
13.16710,28992
13.17522,30893
13.18333,27685
13.19147,27168
13.19958,24808
13.20772,27265
13.21583,26078
13.22395,27963
13.23208,28152
13.24020,24971
13.24833,26308
13.25645,24982
13.26457,29664
13.27270,30614
13.28082,32819
13.28893,32005
13.29707,33764
13.30518,33665
13.31332,36035
13.32143,33951
13.32955,35078
13.33768,32865
13.34580,30396
13.35393,36602
13.36205,31548
13.37017,31686
13.37830,30612
13.38642,31735
13.39455,29431
13.40267,28895
13.41078,25973
13.41892,25907
13.42703,27725
13.43515,26976
13.44328,28622
13.45140,24475
13.45953,26733
13.46765,27223
13.47577,24547
13.48390,29069
13.49202,26801
13.50015,25389
13.50827,25402
13.51638,23030
13.52452,26410
13.53263,26005
13.54077,26076
13.54888,28936
13.55700,26321
13.56513,31174
13.57325,29090
13.58137,30725
13.58950,31785
13.59762,32848
13.60575,29858
13.61387,35321
13.62198,30330
13.63012,33868
13.63823,34308
13.64637,37383
13.65448,39748
13.66260,38555
13.67073,36435
13.67885,33848
13.68697,33103
13.69510,32244
13.70322,27988
13.71135,28440
13.71947,27341
13.72758,27709
13.73572,26956
13.74383,29671
13.75197,25710
13.76008,28139
13.76820,25948
13.77633,28503
13.78445,29378
13.79258,27619
13.80070,25695
13.80882,24893
13.81695,25941
13.82507,25050
13.83318,25925
13.84132,24786
13.84943,25058
13.85757,27739
13.86568,27395
13.87380,30494
13.88193,25664
13.89005,27071
13.89818,30202
13.90630,29670
13.91442,29149
13.92255,31197
13.93067,36161
13.93880,34838
13.94692,33095
13.95503,32009
13.96317,33361
13.97128,31107
13.97940,29424
13.98753,28934
13.99565,30933
14.00378,27149
14.01190,26495
14.02002,28153
14.02815,31361
14.03627,29950
14.04440,31404
14.05252,29956
14.06063,32719
14.06877,31064
14.07688,30393
14.08500,30398
14.09313,29766
14.10125,30645
14.10938,34994
14.11750,41622
14.12562,61910
14.13375,93818
14.14187,143706
14.15000,176713
14.15812,184803
14.16623,174820
14.17437,138345
14.18248,101587
14.19062,82061
14.19873,69078
14.20685,57376
14.21498,55924
14.22310,52265
14.23122,47460
14.23935,46509
14.24747,44493
14.25560,44786
14.26372,45565
14.27183,42988
14.27997,42065
14.28808,38133
14.29622,38071
14.30433,36627
14.31245,31319
14.32058,30596
14.32870,27641
14.33683,27639
14.34495,29282
14.35307,26030
14.36120,25835
14.36932,24242
14.37743,24613
14.38557,24475
14.39368,24545
14.40182,26042
14.40993,27356
14.41805,25515
14.42618,26234
14.43430,25473
14.44243,24461
14.45055,24368
14.45867,24675
14.46680,23782
14.47492,26684
14.48303,24771
14.49117,23693
14.49928,25801
14.50742,22933
14.51553,24231
14.52365,24560
14.53178,26737
14.53990,25301
14.54803,26420
14.55615,20540
14.56427,24920
14.57240,24882
14.58052,25495
14.58865,25945
14.59677,22731
14.60488,25997
14.61302,22480
14.62113,26341
14.62925,23845
14.63738,23332
14.64550,24717
14.65363,25575
14.66175,24583
14.66987,25095
14.67800,22881
14.68612,23072
14.69425,25066
14.70237,26657
14.71048,25604
14.71862,27392
14.72673,25540
14.73485,22683
14.74298,24755
14.75110,25780
14.75923,21843
14.76735,21954
14.77547,22971
14.78360,22963
14.79172,24926
14.79985,21600
14.80797,20623
14.81608,23111
14.82422,25633
14.83233,26241
14.84047,24714
14.84858,27982
14.85670,27182
14.86483,24790
14.87295,23784
14.88107,23828
14.88920,26533
14.89732,31650
14.90545,27291
14.91357,26799
14.92168,25896
14.92982,22916
14.93793,28391
14.94607,27684
14.95418,22480
14.96230,24063
14.97043,21073
14.97855,25211
14.98668,26964
14.99480,26496
15.00292,29067
15.01105,23010
15.01917,25361
15.02728,24708
15.03542,24869
15.04353,23611
15.05167,25945
15.05978,23905
15.06790,24410
15.07603,27812
15.08415,23038
15.09228,22076
15.10040,21014
15.10852,21877
15.11665,23753
15.12477,23869
15.13288,23072
15.14102,23083
15.14913,24040
15.15727,24449
15.16538,22434
15.17350,25842
15.18163,24746
15.18975,22803
15.19788,26724
15.20600,23106
15.21412,25564
15.22225,25146
15.23037,22751
15.23850,23950
15.24662,25269
15.25473,21891
15.26287,24726
15.27098,24343
15.27910,26123
15.28723,24870
15.29535,25647
15.30348,24878
15.31160,23807
15.31972,21773
15.32785,24063
15.33597,23745
15.34410,21660
15.35222,23812
15.36033,22579
15.36847,24139
15.37658,23098
15.38472,22561
15.39283,23721
15.40095,21770
15.40908,21864
15.41720,23257
15.42532,23680
15.43345,22701
15.44157,22013
15.44970,20598
15.45782,23180
15.46593,22499
15.47407,23459
15.48218,25184
15.49032,21218
15.49843,22863
15.50655,22753
15.51468,22865
15.52280,22315
15.53092,25902
15.53905,23818
15.54717,22883
15.55530,22623
15.56342,23261
15.57153,22764
15.57967,21575
15.58778,23564
15.59592,24236
15.60403,23140
15.61215,20950
15.62028,24091
15.62840,21784
15.63653,23872
15.64465,23985
15.65277,24337
15.66090,25079
15.66902,23036
15.67713,21524
15.68527,24542
15.69338,20603
15.70152,21989
15.70963,25365
15.71775,23861
15.72588,21270
15.73400,22674
15.74213,24416
15.75025,23219
15.75837,21026
15.76650,22567
15.77462,23848
15.78273,22048
15.79087,25824
15.79898,24790
15.80712,24935
15.81523,23355
15.82335,24199
15.83148,23372
15.83960,20817
15.84773,20995
15.85585,23960
15.86397,24025
15.87210,23721
15.88022,22968
15.88835,21604
15.89647,24290
15.90458,25730
15.91272,20427
15.92083,22607
15.92895,22012
15.93708,20658
15.94520,22079
15.95333,24398
15.96145,24459
15.96957,26739
15.97770,26157
15.98582,30884
15.99395,34032
16.00207,38758
16.01018,36821
16.01832,38022
16.02643,34485
16.03457,31786
16.04268,35638
16.05080,26500
16.05893,25773
16.06705,26911
16.07517,22362
16.08330,24474
16.09142,26345
16.09955,24092
16.10767,22426
16.11578,28129
16.12392,24096
16.13203,25420
16.14017,23514
16.14828,25260
16.15640,25470
16.16453,28030
16.17265,24876
16.18078,22877
16.18890,24201
16.19702,22603
16.20515,22981
16.21327,25854
16.22138,23694
16.22952,22598
16.23763,25429
16.24577,22491
16.25388,22221
16.26200,24294
16.27013,23745
16.27825,24168
16.28638,26027
16.29450,24171
16.30262,26681
16.31075,24881
16.31887,26530
16.32698,29067
16.33512,27490
16.34323,27969
16.35137,28282
16.35948,27323
16.36760,30872
16.37573,27206
16.38385,24846
16.39198,28321
16.40010,27104
16.40822,23678
16.41635,23354
16.42447,26366
16.43260,24287
16.44072,23833
16.44883,22939
16.45697,23153
16.46508,22610
16.47320,23864
16.48133,23795
16.48945,23537
16.49758,22763
16.50570,25834
16.51382,23661
16.52195,24760
16.53007,23241
16.53820,24576
16.54632,24789
16.55443,22794
16.56257,25366
16.57068,28327
16.57880,27162
16.58693,23455
16.59505,27187
16.60318,28584
16.61130,24941
16.61942,25829
16.62755,24003
16.63567,23044
16.64380,25807
16.65192,24422
16.66003,24173
16.66817,25115
16.67628,21187
16.68442,23062
16.69253,24554
16.70065,23298
16.70878,22579
16.71690,24147
16.72502,22908
16.73315,25186
16.74127,28194
16.74940,23804
16.75752,22396
16.76563,27157
16.77377,21846
16.78188,22992
16.79002,22787
16.79813,26466
16.80625,23832
16.81438,24313
16.82250,23467
16.83063,22992
16.83875,23470
16.84687,24944
16.85500,22500
16.86312,24379
16.87123,23632
16.87937,25459
16.88748,23338
16.89562,23369
16.90373,23465
16.91185,26475
16.91998,24349
16.92810,24586
16.93623,26310
16.94435,24687
16.95247,23925
16.96060,26018
16.96872,22567
16.97683,27446
16.98497,21756
16.99308,27048
17.00122,24621
17.00933,25586
17.01745,23326
17.02558,24668
17.03370,24798
17.04183,24101
17.04995,25798
17.05807,23794
17.06620,25211
17.07432,24695
17.08245,26928
17.09057,29029
17.09868,23646
17.10682,25642
17.11493,25308
17.12305,25448
17.13118,24276
17.13930,25150
17.14743,24333
17.15555,23969
17.16367,24770
17.17180,26128
17.17992,24247
17.18805,24324
17.19617,25149
17.20428,25756
17.21242,23851
17.22053,24849
17.22867,24574
17.23678,22119
17.24490,22838
17.25303,25561
17.26115,24958
17.26927,26287
17.27740,26150
17.28552,24135
17.29365,25360
17.30177,24585
17.30988,26364
17.31802,24392
17.32613,24927
17.33427,24429
17.34238,26526
17.35050,27486
17.35863,28038
17.36675,30048
17.37487,28191
17.38300,30420
17.39112,27485
17.39925,27217
17.40737,25012
17.41548,29154
17.42362,28217
17.43173,26134
17.43987,26693
17.44798,27084
17.45610,26786
17.46423,27241
17.47235,27519
17.48048,26117
17.48860,27879
17.49672,24802
17.50485,26282
17.51297,27948
17.52108,27372
17.52922,28038
17.53733,28389
17.54547,35376
17.55358,32791
17.56170,31528
17.56983,34680
17.57795,31243
17.58608,27675
17.59420,24230
17.60232,26449
17.61045,26482
17.61857,27477
17.62668,25682
17.63482,23242
17.64293,30009
17.65107,25834
17.65918,27307
17.66730,26986
17.67543,29421
17.68355,26829
17.69168,27245
17.69980,28765
17.70792,25486
17.71605,29862
17.72417,27150
17.73230,27166
17.74042,29129
17.74853,25166
17.75667,25825
17.76478,27111
17.77290,24012
17.78103,26990
17.78915,29599
17.79728,26817
17.80540,20920
17.81352,28582
17.82165,26852
17.82977,24813
17.83790,26915
17.84602,30122
17.85413,27774
17.86227,26174
17.87038,27549
17.87852,26096
17.88663,25368
17.89475,25038
17.90288,27932
17.91100,26307
17.91912,24741
17.92725,23973
17.93537,27449
17.94350,26261
17.95162,26754
17.95973,23553
17.96787,26488
17.97598,24502
17.98412,23964
17.99223,26228
18.00035,28189
18.00848,27793
18.01660,28291
18.02472,27962
18.03285,29718
18.04097,25100
18.04910,26782
18.05722,30331
18.06533,27548
18.07347,24869
18.08158,31768
18.08972,31741
18.09783,28974
18.10595,28316
18.11408,26834
18.12220,29333
18.13033,27180
18.13845,28739
18.14657,28203
18.15470,27464
18.16282,27681
18.17093,28871
18.17907,28143
18.18718,29385
18.19532,27808
18.20343,27412
18.21155,27406
18.21968,29604
18.22780,32258
18.23593,27978
18.24405,26985
18.25217,28914
18.26030,27636
18.26842,29590
18.27655,32197
18.28467,29012
18.29278,26795
18.30092,26990
18.30903,24473
18.31715,28342
18.32528,27320
18.33340,26467
18.34153,26815
18.34965,25593
18.35777,25857
18.36590,27251
18.37402,26542
18.38215,24150
18.39027,26862
18.39838,26022
18.40652,23323
18.41463,23496
18.42275,27758
18.43088,24143
18.43900,26191
18.44713,29177
18.45525,26313
18.46337,26089
18.47150,25248
18.47962,27425
18.48775,24390
18.49587,24635
18.50398,24430
18.51212,28403
18.52023,25437
18.52837,23138
18.53648,23696
18.54460,26196
18.55273,23803
18.56085,24820
18.56897,24213
18.57710,26031
18.58522,26620
18.59335,23173
18.60147,24689
18.60958,25788
18.61772,26832
18.62583,25302
18.63397,27604
18.64208,23285
18.65020,22013
18.65833,22848
18.66645,24209
18.67457,25373
18.68270,26555
18.69082,26209
18.69895,26647
18.70707,26445
18.71518,29768
18.72332,27495
18.73143,29054
18.73957,29058
18.74768,30560
18.75580,27579
18.76393,30584
18.77205,32783
18.78018,34638
18.78830,30491
18.79642,31420
18.80455,30114
18.81267,29964
18.82078,32271
18.82892,31733
18.83703,31587
18.84517,32321
18.85328,31041
18.86140,29305
18.86953,30809
18.87765,34429
18.88578,35353
18.89390,32891
18.90202,31593
18.91015,33907
18.91827,31049
18.92640,30948
18.93452,28885
18.94263,32493
18.95077,29444
18.95888,28209
18.96700,31053
18.97513,31761
18.98325,29692
18.99138,29731
18.99950,29534
19.00762,32170
19.01575,28648
19.02387,33121
19.03200,33397
19.04012,31991
19.04823,30607
19.05637,28900
19.06448,31034
19.07260,32050
19.08073,34863
19.08885,33276
19.09698,36709
19.10510,31054
19.11322,31817
19.12135,37166
19.12947,33576
19.13760,32126
19.14572,31454
19.15383,33292
19.16197,40435
19.17008,31034
19.17822,33094
19.18633,36829
19.19445,33378
19.20258,33164
19.21070,28730
19.21882,27627
19.22695,29208
19.23507,34241
19.24320,30126
19.25132,32152
19.25943,30288
19.26757,32502
19.27568,33773
19.28382,31509
19.29193,32089
19.30005,30781
19.30818,31335
19.31630,29758
19.32443,28194
19.33255,32261
19.34067,31500
19.34880,28225
19.35692,33153
19.36503,27157
19.37317,30052
19.38128,25592
19.38942,32185
19.39753,29316
19.40565,31819
19.41378,37901
19.42190,48629
19.43003,73374
19.43815,100777
19.44627,117718
19.45440,120802
19.46252,105009
19.47063,81938
19.47877,59701
19.48688,43368
19.49502,36523
19.50313,31445
19.51125,32793
19.51938,29904
19.52750,31212
19.53563,28610
19.54375,32044
19.55187,28107
19.56000,27084
19.56812,27834
19.57625,27884
19.58437,30660
19.59248,28828
19.60062,29055
19.60873,28215
19.61685,31685
19.62498,34727
19.63310,41914
19.64123,51938
19.64935,60420
19.65747,68221
19.66560,60216
19.67372,61341
19.68185,52918
19.68997,47397
19.69808,42047
19.70622,41490
19.71433,36327
19.72247,35490
19.73058,32275
19.73870,31517
19.74683,29299
19.75495,27263
19.76307,31118
19.77120,30290
19.77932,28685
19.78745,28166
19.79557,28865
19.80368,27683
19.81182,31313
19.81993,28018
19.82807,30738
19.83618,29320
19.84430,28587
19.85243,29505
19.86055,29209
19.86867,31865
19.87680,33160
19.88492,34221
19.89305,40168
19.90117,46477
19.90928,49474
19.91742,51576
19.92553,53427
19.93367,55917
19.94178,50576
19.94990,52368
19.95803,52260
19.96615,45236
19.97428,47166
19.98240,45186
19.99052,46210
19.99865,46423
20.00677,42821
20.01488,43883
20.02302,45586
20.03113,40718
20.03927,41142
20.04738,36698
20.05550,37494
20.06363,32777
20.07175,31509
20.07988,32037
20.08800,29613
20.09612,29054
20.10425,29993
20.11237,30172
20.12048,27600
20.12862,30172
20.13673,28231
20.14487,29069
20.15298,28853
20.16110,28095
20.16923,28914
20.17735,30146
20.18548,32448
20.19360,33949
20.20172,33041
20.20985,30459
20.21797,31391
20.22610,38338
20.23422,42946
20.24233,47205
20.25047,56234
20.25858,53584
20.26670,51712
20.27483,47236
20.28295,51912
20.29108,39486
20.29920,40809
20.30732,38489
20.31545,36867
20.32357,33514
20.33170,30949
20.33982,27287
20.34793,28753
20.35607,29804
20.36418,28585
20.37232,28095
20.38043,29411
20.38855,29096
20.39668,29234
20.40480,32291
20.41292,33283
20.42105,31749
20.42917,33691
20.43730,32284
20.44542,31173
20.45353,28752
20.46167,30198
20.46978,31375
20.47792,31176
20.48603,29630
20.49415,29930
20.50228,28169
20.51040,33394
20.51852,29786
20.52665,27018
20.53477,25764
20.54290,25227
20.55102,25035
20.55913,25646
20.56727,26338
20.57538,25066
20.58352,26510
20.59163,26815
20.59975,25486
20.60788,25961
20.61600,25604
20.62413,24646
20.63225,28012
20.64037,25270
20.64850,25853
20.65662,26690
20.66473,26356
20.67287,26750
20.68098,24053
20.68912,25581
20.69723,26127
20.70535,24979
20.71348,27742
20.72160,25586
20.72973,26212
20.73785,27587
20.74597,25829
20.75410,24605
20.76222,25527
20.77035,25158
20.77847,26149
20.78658,26087
20.79472,25718
20.80283,26092
20.81095,27455
20.81908,25372
20.82720,26123
20.83533,26282
20.84345,26436
20.85157,27121
20.85970,24485
20.86782,26947
20.87595,27754
20.88407,26292
20.89218,25421
20.90032,25120
20.90843,25588
20.91655,25090
20.92468,26794
20.93280,25772
20.94093,27207
20.94905,27135
20.95717,28289
20.96530,24471
20.97342,23197
20.98155,26231
20.98967,27659
20.99778,25381
21.00592,27607
21.01403,26390
21.02217,29527
21.03028,25223
21.03840,26738
21.04653,27148
21.05465,26692
21.06277,26469
21.07090,25921
21.07902,26313
21.08715,23813
21.09527,25057
21.10338,26241
21.11152,26586
21.11963,27356
21.12777,31023
21.13588,24605
21.14400,28131
21.15213,26811
21.16025,26860
21.16837,25240
21.17650,30992
21.18462,24991
21.19275,26161
21.20087,25210
21.20898,24973
21.21712,29488
21.22523,27494
21.23337,26505
21.24148,28732
21.24960,29145
21.25773,30198
21.26585,34029
21.27398,28587
21.28210,29313
21.29022,27063
21.29835,26424
21.30647,30843
21.31458,28571
21.32272,25358
21.33083,24743
21.33897,26469
21.34708,26387
21.35520,26738
21.36333,26452
21.37145,27588
21.37958,25497
21.38770,27149
21.39582,25459
21.40395,26395
21.41207,25271
21.42020,26686
21.42832,26259
21.43643,24047
21.44457,26015
21.45268,28722
21.46080,24262
21.46893,29384
21.47705,25568
21.48518,28523
21.49330,26076
21.50142,31740
21.50955,27916
21.51767,26810
21.52580,26890
21.53392,28285
21.54203,28811
21.55017,28996
21.55828,26609
21.56642,29220
21.57453,33188
21.58265,32326
21.59078,33434
21.59890,40128
21.60702,37587
21.61515,36417
21.62327,37387
21.63140,32462
21.63952,33356
21.64763,28977
21.65577,27949
21.66388,32852
21.67202,30640
21.68013,28161
21.68825,27255
21.69638,26298
21.70450,25124
21.71262,28896
21.72075,30990
21.72887,28689
21.73700,27640
21.74512,25513
21.75323,28788
21.76137,29476
21.76948,31325
21.77762,34040
21.78573,34946
21.79385,33303
21.80198,33419
21.81010,32459
21.81823,33210
21.82635,27400
21.83447,30388
21.84260,29015
21.85072,30108
21.85883,25983
21.86697,27566
21.87508,24902
21.88322,27824
21.89133,26262
21.89945,27504
21.90758,25724
21.91570,24587
21.92383,27466
21.93195,26755
21.94007,27076
21.94820,24599
21.95632,27494
21.96443,28549
21.97257,23900
21.98068,26476
21.98882,26031
21.99693,23576
22.00505,26726
22.01318,27570
22.02130,27157
22.02943,25995
22.03755,25591
22.04567,24461
22.05380,27350
22.06192,25153
22.07005,28777
22.07817,25325
22.08628,28579
22.09442,27001
22.10253,27335
22.11065,28668
22.11878,30459
22.12690,27051
22.13503,28274
22.14315,30099
22.15127,26478
22.15940,26675
22.16752,29733
22.17565,25344
22.18377,29377
22.19188,24504
22.20002,25807
22.20813,26242
22.21625,27512
22.22438,24754
22.23250,25549
22.24063,23858
22.24875,26246
22.25687,26074
22.26500,25656
22.27312,26509
22.28125,24463
22.28937,24903
22.29748,25017
22.30562,27734
22.31373,27418
22.32187,25170
22.32998,26085
22.33810,24428
22.34623,24286
22.35435,26743
22.36247,27798
22.37060,27822
22.37872,29129
22.38685,24324
22.39497,27371
22.40308,25914
22.41122,27200
22.41933,27348
22.42747,27856
22.43558,25859
22.44370,27218
22.45183,26754
22.45995,25873
22.46808,26414
22.47620,22281
22.48432,23323
22.49245,24153
22.50057,26228
22.50868,24512
22.51682,25858
22.52493,25279
22.53307,26353
22.54118,24032
22.54930,25906
22.55743,24547
22.56555,22421
22.57368,26785
22.58180,23266
22.58992,21970
22.59805,22270
22.60617,25028
22.61430,24341
22.62242,27221
22.63053,22205
22.63867,26516
22.64678,25168
22.65490,23837
22.66303,29059
22.67115,26820
22.67928,24897
22.68740,21251
22.69552,25023
22.70365,24340
22.71177,24363
22.71990,24862
22.72802,25146
22.73613,24388
22.74427,25055
22.75238,25531
22.76050,25070
22.76863,23195
22.77675,23271
22.78488,28074
22.79300,24236
22.80112,23422
22.80925,24601
22.81737,23464
22.82550,26333
22.83362,27261
22.84173,25166
22.84987,27139
22.85798,24627
22.86612,25847
22.87423,24753
22.88235,29658
22.89048,32527
22.89860,33110
22.90672,36255
22.91485,38641
22.92297,36499
22.93110,43020
22.93922,42326
22.94733,44060
22.95547,40386
22.96358,47541
22.97172,40564
22.97983,40900
22.98795,38300
22.99608,36632
23.00420,38770
23.01232,36495
23.02045,33270
23.02857,31013
23.03670,30115
23.04482,31103
23.05293,32612
23.06107,30052
23.06918,32441
23.07732,26508
23.08543,28756
23.09355,29866
23.10168,28547
23.10980,29116
23.11793,29630
23.12605,30983
23.13417,27338
23.14230,25915
23.15042,26960
23.15853,25745
23.16667,26785
23.17478,27677
23.18292,27371
23.19103,24459
23.19915,27588
23.20728,27280
23.21540,28258
23.22353,26034
23.23165,26070
23.23977,29331
23.24790,24724
23.25602,29861
23.26415,32008
23.27227,27679
23.28038,25110
23.28852,24013
23.29663,28132
23.30475,27299
23.31288,28332
23.32100,26734
23.32913,28187
23.33725,28169
23.34537,26653
23.35350,25704
23.36162,27661
23.36975,27827
23.37787,26731
23.38598,27375
23.39412,26250
23.40223,28353
23.41035,30351
23.41848,27493
23.42660,27774
23.43473,26453
23.44285,26256
23.45097,26597
23.45910,24047
23.46722,28099
23.47535,26176
23.48347,27297
23.49158,27770
23.49972,23724
23.50783,25021
23.51597,25794
23.52408,25008
23.53220,25544
23.54033,25728
23.54845,25787
23.55657,26453
23.56470,28127
23.57282,28840
23.58095,28084
23.58907,27092
23.59718,26724
23.60532,24662
23.61343,27932
23.62157,29965
23.62968,26291
23.63780,30257
23.64593,31721
23.65405,30220
23.66218,28489
23.67030,28377
23.67842,31299
23.68655,32872
23.69467,30628
23.70278,30231
23.71092,30208
23.71903,32911
23.72717,42640
23.73528,69823
23.74340,139105
23.75153,292056
23.75965,624912
23.76778,1145493
23.77590,1739935
23.78402,2095463
23.79215,2115209
23.80027,1829237
23.80838,1436003
23.81652,1077909
23.82463,810281
23.83277,595951
23.84088,456094
23.84900,369984
23.85713,308447
23.86525,261161
23.87338,229448
23.88150,199263
23.88962,179171
23.89775,160554
23.90587,146786
23.91400,138825
23.92212,126920
23.93023,117585
23.93837,113267
23.94648,104193
23.95460,99243
23.96273,100185
23.97085,84464
23.97898,82294
23.98710,83186
23.99522,79031
24.00335,79279
24.01147,73708
24.01960,67543
24.02772,70462
24.03583,70314
24.04397,73168
24.05208,67730
24.06020,67439
24.06833,62000
24.07645,64311
24.08458,64295
24.09270,58719
24.10082,57473
24.10895,58474
24.11707,56574
24.12520,58788
24.13332,54657
24.14143,53132
24.14957,58185
24.15768,56262
24.16582,59900
24.17393,56203
24.18205,56528
24.19018,53321
24.19830,50820
24.20642,50277
24.21455,53071
24.22267,49189
24.23080,45836
24.23892,52908
24.24703,46953
24.25517,46754
24.26328,44736
24.27142,42533
24.27953,45678
24.28765,45301
24.29578,47236
24.30390,50670
24.31203,63843
24.32015,84702
24.32827,91874
24.33640,100493
24.34452,93250
24.35263,73317
24.36077,61468
24.36888,52967
24.37702,47703
24.38513,41137
24.39325,43300
24.40138,37867
24.40950,41757
24.41763,43833
24.42575,42332
24.43387,44147
24.44200,42661
24.45012,45502
24.45823,40637
24.46637,40870
24.47448,44257
24.48262,43067
24.49073,44199
24.49885,40727
24.50698,41669
24.51510,37009
24.52323,37842
24.53135,39004
24.53947,34729
24.54760,39977
24.55572,35072
24.56385,36076
24.57197,38785
24.58008,36223
24.58822,36597
24.59633,37465
24.60445,38584
24.61258,34985
24.62070,34757
24.62883,35601
24.63695,36781
24.64507,35898
24.65320,34238
24.66132,36750
24.66945,38250
24.67757,34534
24.68568,37569
24.69382,34304
24.70193,33386
24.71007,34221
24.71818,32788
24.72630,32501
24.73443,34128
24.74255,33598
24.75067,32002
24.75880,35072
24.76692,32376
24.77505,31115
24.78317,34870
24.79128,35102
24.79942,31251
24.80753,31543
24.81567,35102
24.82378,31287
24.83190,32969
24.84003,32653
24.84815,36282
24.85627,31635
24.86440,35009
24.87252,32058
24.88065,32791
24.88877,32380
24.89688,29845
24.90502,29546
24.91313,32952
24.92127,34921
24.92938,29750
24.93750,29773
24.94563,31208
24.95375,31070
24.96188,32476
24.97000,32561
24.97812,29561
24.98625,27297
24.99437,27331
25.00248,27740
25.01062,27635
25.01873,33795
25.02687,30120
25.03498,31800
25.04310,30489
25.05123,28639
25.05935,29653
25.06748,30317
25.07560,30311
25.08372,28793
25.09185,30483
25.09997,29891
25.10810,28384
25.11622,29777
25.12433,33752
25.13247,32534
25.14058,29754
25.14870,34647
25.15683,32400
25.16495,31600
25.17308,32716
25.18120,31353
25.18932,30760
25.19745,29668
25.20557,30883
25.21370,29497
25.22182,31643
25.22993,31973
25.23807,31552
25.24618,29460
25.25430,27117
25.26243,26533
25.27055,29768
25.27868,28695
25.28680,31898
25.29492,31463
25.30305,35942
25.31117,35301
25.31930,36992
25.32742,35120
25.33553,31708
25.34367,31646
25.35178,33036
25.35992,31475
25.36803,28003
25.37615,31353
25.38428,29072
25.39240,30169
25.40052,28421
25.40865,33688
25.41677,32704
25.42490,29098
25.43302,28600
25.44113,27977
25.44927,29638
25.45738,26877
25.46552,30819
25.47363,29660
25.48175,29104
25.48988,29490
25.49800,27837
25.50612,28187
25.51425,29773
25.52237,26629
25.53050,30094
25.53862,31094
25.54673,26444
25.55487,28279
25.56298,25995
25.57112,27360
25.57923,28524
25.58735,26880
25.59548,28664
25.60360,28403
25.61173,24296
25.61985,27650
25.62797,27227
25.63610,28283
25.64422,23747
25.65233,29320
25.66047,26658
25.66858,26184
25.67672,27630
25.68483,25007
25.69295,25848
25.70108,29934
25.70920,25628
25.71733,24404
25.72545,25650
25.73357,24884
25.74170,30228
25.74982,27703
25.75795,26572
25.76607,25528
25.77418,27467
25.78232,24755
25.79043,24127
25.79855,26764
25.80668,25141
25.81480,25249
25.82293,24590
25.83105,25528
25.83917,24429
25.84730,26538
25.85542,23706
25.86355,25839
25.87167,25281
25.87978,26652
25.88792,24325
25.89603,25244
25.90415,25545
25.91228,23960
25.92040,24033
25.92853,27750
25.93665,25173
25.94477,25945
25.95290,27865
25.96102,25505
25.96915,25563
25.97727,24966
25.98538,22368
25.99352,23601
26.00163,25503
26.00977,26683
26.01788,25776
26.02600,26608
26.03413,25003
26.04225,27450
26.05037,25820
26.05850,26945
26.06662,23960
26.07475,25741
26.08287,27792
26.09098,26305
26.09912,23571
26.10723,25299
26.11537,27869
26.12348,29945
26.13160,28937
26.13973,28386
26.14785,31944
26.15598,33118
26.16410,32597
26.17222,29316
26.18035,27892
26.18847,29181
26.19658,28666
26.20472,27194
26.21283,24294
26.22097,27566
26.22908,25466
26.23720,25251
26.24533,25814
26.25345,25174
26.26158,25298
26.26970,25434
26.27782,22906
26.28595,27656
26.29407,30285
26.30218,27258
26.31032,25816
26.31843,25427
26.32657,26716
26.33468,26637
26.34280,25522
26.35093,28771
26.35905,23907
26.36718,27141
26.37530,25656
26.38342,27789
26.39155,26228
26.39967,26189
26.40780,24250
26.41592,22681
26.42403,25823
26.43217,22742
26.44028,26561
26.44840,23127
26.45653,24056
26.46465,27639
26.47278,22899
26.48090,26368
26.48902,26452
26.49715,24698
26.50527,26910
26.51340,28128
26.52152,27814
26.52963,29229
26.53777,24544
26.54588,21565
26.55400,23780
26.56213,24243
26.57025,24095
26.57838,26353
26.58650,25132
26.59462,25087
26.60275,27099
26.61087,22455
26.61900,26891
26.62712,28320
26.63523,23884
26.64337,26305
26.65148,22910
26.65962,28877
26.66773,25969
26.67585,26170
26.68398,29139
26.69210,24998
26.70022,28745
26.70835,27829
26.71647,23456
26.72460,24114
26.73272,25269
26.74083,25799
26.74897,26889
26.75708,23696
26.76522,27313
26.77333,27290
26.78145,27833
26.78958,25356
26.79770,28448
26.80583,28839
26.81395,30005
26.82207,29357
26.83020,25076
26.83832,27510
26.84643,26925
26.85457,24273
26.86268,24683
26.87082,23392
26.87893,25989
26.88705,24338
26.89518,25815
26.90330,25948
26.91143,29376
26.91955,24552
26.92767,29929
26.93580,31814
26.94392,40971
26.95205,57815
26.96017,93307
26.96828,149472
26.97642,208851
26.98453,285605
26.99265,354900
27.00078,389670
27.00890,385865
27.01703,354045
27.02515,287089
27.03327,234371
27.04140,186298
27.04952,157285
27.05765,128773
27.06577,100290
27.07388,89760
27.08202,81240
27.09013,68883
27.09825,65677
27.10638,61887
27.11450,59082
27.12263,55535
27.13075,54307
27.13887,52922
27.14700,48868
27.15512,47800
27.16325,44508
27.17137,45202
27.17948,43609
27.18762,41845
27.19573,41187
27.20387,40419
27.21198,41896
27.22010,35230
27.22823,39620
27.23635,38674
27.24447,37846
27.25260,43274
27.26072,35347
27.26885,33015
27.27697,35813
27.28508,37082
27.29322,32920
27.30133,34891
27.30947,33027
27.31758,33303
27.32570,32746
27.33383,33812
27.34195,34325
27.35007,33157
27.35820,32703
27.36632,28894
27.37445,32218
27.38257,30907
27.39068,32531
27.39882,33682
27.40693,34491
27.41507,34391
27.42318,31504
27.43130,31075
27.43943,31757
27.44755,28568
27.45568,30391
27.46380,30250
27.47192,30907
27.48005,32559
27.48817,28985
27.49628,29303
27.50442,30996
27.51253,29951
27.52067,27263
27.52878,33103
27.53690,30871
27.54503,29842
27.55315,28135
27.56128,27321
27.56940,27393
27.57752,28017
27.58565,27933
27.59377,28922
27.60190,27032
27.61002,28315
27.61813,27723
27.62627,29814
27.63438,31807
27.64250,28777
27.65063,27275
27.65875,28269
27.66688,28207
27.67500,26758
27.68312,24719
27.69125,28077
27.69937,29087
27.70750,30978
27.71562,29099
27.72373,25074
27.73187,25781
27.73998,25179
27.74810,30524
27.75623,30979
27.76435,27615
27.77248,28619
27.78060,30533
27.78872,28190
27.79685,28681
27.80497,27873
27.81310,27247
27.82122,26858
27.82933,27933
27.83747,26036
27.84558,27262
27.85372,27481
27.86183,28524
27.86995,27067
27.87808,28780
27.88620,25521
27.89432,26234
27.90245,28209
27.91057,25821
27.91870,29731
27.92682,29216
27.93493,25175
27.94307,27849
27.95118,26765
27.95932,31091
27.96743,27730
27.97555,27297
27.98368,27015
27.99180,27786
27.99993,26482
28.00805,23613
28.01617,28691
28.02430,29456
28.03242,27086
28.04053,27441
28.04867,27816
28.05678,24277
28.06492,30267
28.07303,27423
28.08115,25788
28.08928,30466
28.09740,31298
28.10553,33548
28.11365,31512
28.12177,28702
28.12990,33811
28.13802,30971
28.14613,32712
28.15427,26372
28.16238,23344
28.17052,28643
28.17863,27190
28.18675,24730
28.19488,27674
28.20300,25949
28.21113,27247
28.21925,24350
28.22737,25082
28.23550,29078
28.24362,30530
28.25175,35523
28.25987,48721
28.26798,60968
28.27612,76176
28.28423,95492
28.29235,104467
28.30048,126600
28.30860,137566
28.31673,145686
28.32485,144591
28.33297,141940
28.34110,125813
28.34922,113943
28.35735,109391
28.36547,102672
28.37358,89201
28.38172,85575
28.38983,77360
28.39795,66328
28.40608,62869
28.41420,57937
28.42233,53001
28.43045,51177
28.43857,49152
28.44670,47097
28.45482,43545
28.46295,44886
28.47107,42541
28.47918,40656
28.48732,40730
28.49543,36771
28.50357,39227
28.51168,36821
28.51980,37881
28.52793,39565
28.53605,37550
28.54417,35267
28.55230,37622
28.56042,34439
28.56855,35071
28.57667,32228
28.58478,34707
28.59292,33955
28.60103,36181
28.60917,32756
28.61728,38927
28.62540,35144
28.63353,33159
28.64165,33763
28.64978,36615
28.65790,37091
28.66602,39581
28.67415,46385
28.68227,46364
28.69038,55859
28.69852,60621
28.70663,56344
28.71477,49880
28.72288,42855
28.73100,37183
28.73913,30401
28.74725,30033
28.75538,30866
28.76350,30664
28.77162,29572
28.77975,28861
28.78787,27946
28.79598,31607
28.80412,30925
28.81223,32712
28.82037,31251
28.82848,31205
28.83660,30839
28.84473,29062
28.85285,29239
28.86098,29436
28.86910,29391
28.87722,31528
28.88535,28849
28.89347,29304
28.90160,29451
28.90972,29305
28.91783,32041
28.92597,29959
28.93408,30018
28.94220,30014
28.95033,30674
28.95845,30790
28.96658,35402
28.97470,29169
28.98282,27920
28.99095,29955
28.99907,30313
29.00720,28534
29.01532,28964
29.02343,31089
29.03157,31982
29.03968,29754
29.04782,31220
29.05593,27734
29.06405,29291
29.07218,28980
29.08030,29462
29.08842,27356
29.09655,29060
29.10467,27393
29.11280,28198
29.12092,30142
29.12903,27690
29.13717,27227
29.14528,28057
29.15342,29929
29.16153,30241
29.16965,28034
29.17778,26819
29.18590,27757
29.19402,27382
29.20215,30011
29.21027,27253
29.21840,28638
29.22652,28589
29.23463,34349
29.24277,29403
29.25088,30565
29.25902,28725
29.26713,28052
29.27525,27439
29.28338,30181
29.29150,28320
29.29963,29424
29.30775,29661
29.31587,29144
29.32400,29840
29.33212,29261
29.34023,26716
29.34837,24975
29.35648,25447
29.36462,26829
29.37273,28221
29.38085,26685
29.38898,29127
29.39710,28869
29.40523,29097
29.41335,28116
29.42147,29734
29.42960,26221
29.43772,29024
29.44583,30327
29.45397,28799
29.46208,31360
29.47022,31514
29.47833,28852
29.48645,31386
29.49458,31869
29.50270,31642
29.51083,31245
29.51895,30908
29.52707,29855
29.53520,29622
29.54332,27671
29.55145,27314
29.55957,27813
29.56768,27338
29.57582,25662
29.58393,29668
29.59205,27912
29.60018,33924
29.60830,28204
29.61643,30942
29.62455,28223
29.63267,27157
29.64080,27950
29.64892,25788
29.65705,28861
29.66517,26727
29.67328,28873
29.68142,25345
29.68953,25924
29.69767,27076
29.70578,30314
29.71390,25943
29.72203,26122
29.73015,25599
29.73827,24198
29.74640,28514
29.75452,26438
29.76265,27209
29.77077,29239
29.77888,28115
29.78702,25382
29.79513,26555
29.80327,25542
29.81138,26064
29.81950,28145
29.82763,29874
29.83575,26164
29.84387,31031
29.85200,28289
29.86012,30285
29.86825,30117
29.87637,33026
29.88448,37719
29.89262,45399
29.90073,50857
29.90887,59399
29.91698,63317
29.92510,62971
29.93323,70990
29.94135,72256
29.94948,77656
29.95760,77347
29.96572,75466
29.97385,73091
29.98197,70365
29.99008,63631
29.99822,62898
30.00633,63102
30.01447,55877
30.02258,51362
30.03070,50518
30.03883,50145
30.04695,44826
30.05508,47002
30.06320,45447
30.07132,44876
30.07945,40951
30.08757,38986
30.09570,37732
30.10382,38086
30.11193,39952
30.12007,37196
30.12818,32887
30.13630,37698
30.14443,35128
30.15255,36303
30.16068,37071
30.16880,34798
30.17692,35192
30.18505,35583
30.19317,30144
30.20130,29893
30.20942,29885
30.21753,31496
30.22567,29090
30.23378,36075
30.24190,30408
30.25003,30499
30.25815,35982
30.26628,32295
30.27440,32613
30.28252,32595
30.29065,31168
30.29877,33169
30.30690,33639
30.31502,29763
30.32313,30898
30.33127,30298
30.33938,31341
30.34752,29060
30.35563,30012
30.36375,29324
30.37188,28320
30.38000,29444
30.38812,29013
30.39625,29071
30.40437,26399
30.41250,27721
30.42062,27492
30.42873,27904
30.43687,33922
30.44498,26747
30.45312,28607
30.46123,27114
30.46935,29190
30.47748,32612
30.48560,30179
30.49373,29434
30.50185,29946
30.50997,30800
30.51810,29227
30.52622,27047
30.53433,27369
30.54247,28610
30.55058,29426
30.55872,29349
30.56683,28770
30.57495,24558
30.58308,28334
30.59120,30302
30.59933,30271
30.60745,27393
30.61557,27810
30.62370,27350
30.63182,26522
30.63993,27181
30.64807,32688
30.65618,26741
30.66432,25499
30.67243,28693
30.68055,28290
30.68868,26062
30.69680,27150
30.70493,25585
30.71305,28672
30.72117,31694
30.72930,29303
30.73742,26625
30.74555,27235
30.75367,28872
30.76178,30458
30.76992,26691
30.77803,28809
30.78615,30675
30.79428,29199
30.80240,31867
30.81053,28150
30.81865,27341
30.82677,29172
30.83490,32199
30.84302,30259
30.85115,28931
30.85927,32198
30.86738,30206
30.87552,26690
30.88363,27693
30.89175,30767
30.89988,29767
30.90800,27563
30.91613,27109
30.92425,30271
30.93237,26931
30.94050,25929
30.94862,29099
30.95675,27180
30.96487,29788
30.97298,25982
30.98112,28268
30.98923,27904
30.99737,27974
31.00548,28911
31.01360,30010
31.02173,27148
31.02985,27924
31.03797,28410
31.04610,31385
31.05422,30560
31.06235,29320
31.07047,29969
31.07858,29239
31.08672,34315
31.09483,34467
31.10297,35420
31.11108,34575
31.11920,29765
31.12733,35355
31.13545,33400
31.14358,31486
31.15170,32831
31.15982,37093
31.16795,43778
31.17607,53603
31.18418,69425
31.19232,99714
31.20043,109282
31.20857,122185
31.21668,115134
31.22480,108757
31.23293,83490
31.24105,64703
31.24918,50930
31.25730,44250
31.26542,35719
31.27355,33748
31.28167,32421
31.28978,32885
31.29792,31326
31.30603,30171
31.31417,30422
31.32228,34432
31.33040,34665
31.33853,30651
31.34665,31981
31.35478,34083
31.36290,32424
31.37102,29947
31.37915,32036
31.38727,29803
31.39540,30707
31.40352,33481
31.41163,32365
31.41977,30415
31.42788,26443
31.43600,30576
31.44413,31083
31.45225,30330
31.46038,28617
31.46850,29846
31.47662,30209
31.48475,35559
31.49287,26008
31.50100,29609
31.50912,31327
31.51723,30903
31.52537,28087
31.53348,25733
31.54162,28788
31.54973,27936
31.55785,30632
31.56598,29276
31.57410,24566
31.58222,27558
31.59035,27533
31.59847,28654
31.60660,31827
31.61472,31229
31.62283,31504
31.63097,29507
31.63908,30955
31.64722,31950
31.65533,29003
31.66345,26053
31.67158,30098
31.67970,30674
31.68782,31140
31.69595,35443
31.70407,30731
31.71220,34045
31.72032,31094
31.72843,32324
31.73657,33053
31.74468,30864
31.75282,29883
31.76093,27928
31.76905,32373
31.77718,30260
31.78530,30595
31.79343,27415
31.80155,29193
31.80967,34330
31.81780,35900
31.82592,37694
31.83403,43212
31.84217,48046
31.85028,50577
31.85842,53397
31.86653,59413
31.87465,58547
31.88278,61058
31.89090,61383
31.89903,60220
31.90715,61926
31.91527,56834
31.92340,52868
31.93152,52600
31.93963,49272
31.94777,51166
31.95588,50784
31.96402,45128
31.97213,46847
31.98025,42254
31.98838,45909
31.99650,44891
32.00463,45471
32.01275,39454
32.02087,38714
32.02900,38169
32.03712,40065
32.04525,35429
32.05337,35638
32.06148,36554
32.06962,34940
32.07773,36644
32.08585,35540
32.09398,33441
32.10210,32628
32.11023,36244
32.11835,35342
32.12647,36577
32.13460,31495
32.14272,29680
32.15085,32245
32.15897,36766
32.16708,31714
32.17522,32061
32.18333,34111
32.19147,32153
32.19958,32564
32.20770,30664
32.21583,33732
32.22395,31559
32.23207,30564
32.24020,31355
32.24832,31306
32.25645,32717
32.26457,33079
32.27268,32592
32.28082,36805
32.28893,30859
32.29707,30308
32.30518,31043
32.31330,30102
32.32143,32881
32.32955,31199
32.33768,31223
32.34580,33634
32.35392,33156
32.36205,30877
32.37017,32532
32.37828,34971
32.38642,28406
32.39453,34630
32.40267,31989
32.41078,35715
32.41890,32041
32.42703,31193
32.43515,28656
32.44328,31632
32.45140,30877
32.45952,29053
32.46765,30045
32.47577,31576
32.48388,30017
32.49202,34299
32.50013,30874
32.50827,33976
32.51638,32269
32.52450,34668
32.53263,32796
32.54075,33251
32.54888,32253
32.55700,36388
32.56512,37418
32.57325,45250
32.58137,47542
32.58950,53897
32.59762,48386
32.60573,44155
32.61387,38401
32.62198,38427
32.63010,34414
32.63823,32252
32.64635,32384
32.65448,32863
32.66260,32856
32.67072,35386
32.67885,35196
32.68697,34596
32.69510,33659
32.70322,34193
32.71133,34782
32.71947,31967
32.72758,33636
32.73570,32975
32.74383,29653
32.75195,29864
32.76008,31770
32.76820,30889
32.77632,32435
32.78445,31962
32.79257,31702
32.80070,33039
32.80882,30794
32.81693,34877
32.82507,27619
32.83318,29851
32.84132,32200
32.84943,34506
32.85755,30915
32.86568,32107
32.87380,31641
32.88192,31207
32.89005,32201
32.89817,29738
32.90630,31388
32.91442,30291
32.92253,32908
32.93067,31822
32.93878,32087
32.94692,27464
32.95503,33217
32.96315,32752
32.97128,33360
32.97940,29248
32.98753,33916
32.99565,29259
33.00377,33027
33.01190,33160
33.02002,32994
33.02813,35251
33.03627,32803
33.04438,34265
33.05252,31965
33.06063,31844
33.06875,31352
33.07688,31959
33.08500,33071
33.09313,34871
33.10125,38072
33.10937,42472
33.11750,42300
33.12562,36890
33.13373,40187
33.14187,37184
33.14998,35066
33.15812,32740
33.16623,34300
33.17435,34029
33.18248,34224
33.19060,31759
33.19873,31366
33.20685,34388
33.21497,33459
33.22310,32075
33.23122,34414
33.23935,30568
33.24747,34718
33.25558,31123
33.26372,34798
33.27183,32393
33.27995,33716
33.28808,30905
33.29620,32728
33.30433,33695
33.31245,34325
33.32057,32756
33.32870,30287
33.33682,32490
33.34495,34778
33.35307,36724
33.36118,34988
33.36932,32368
33.37743,34382
33.38557,33458
33.39368,32318
33.40180,31850
33.40993,32748
33.41805,32910
33.42617,33076
33.43430,32032
33.44242,30712
33.45055,33006
33.45867,32446
33.46678,36782
33.47492,32208
33.48303,33272
33.49117,34651
33.49928,32840
33.50740,35457
33.51553,32469
33.52365,32667
33.53177,32986
33.53990,34949
33.54802,36883
33.55615,34218
33.56427,34484
33.57238,31369
33.58052,35624
33.58863,38212
33.59677,37113
33.60488,37933
33.61300,32882
33.62113,35389
33.62925,33212
33.63738,33706
33.64550,37054
33.65362,33414
33.66175,35046
33.66987,36958
33.67798,34660
33.68612,35344
33.69423,38104
33.70237,36219
33.71048,37102
33.71860,39600
33.72673,38614
33.73485,38666
33.74298,38650
33.75110,36507
33.75922,38876
33.76735,39838
33.77547,40340
33.78358,37877
33.79172,41792
33.79983,37021
33.80797,39426
33.81608,38698
33.82420,39044
33.83233,39424
33.84045,43604
33.84858,38983
33.85670,39962
33.86482,38040
33.87295,38174
33.88107,40786
33.88920,37157
33.89732,37951
33.90543,39941
33.91357,40735
33.92168,35572
33.92980,38575
33.93793,32970
33.94605,39733
33.95418,36560
33.96230,34948
33.97042,35249
33.97855,39108
33.98667,37371
33.99480,36694
34.00292,38024
34.01103,38203
34.01917,36000
34.02728,34964
34.03542,35184
34.04353,35480
34.05165,35033
34.05978,36995
34.06790,37218
34.07602,35220
34.08415,39914
34.09227,32389
34.10040,36464
34.10852,38124
34.11663,36683
34.12477,36758
34.13288,36029
34.14102,37531
34.14913,34147
34.15725,34136
34.16538,38714
34.17350,40562
34.18162,35041
34.18975,36116
34.19787,36306
34.20600,33946
34.21412,37848
34.22223,32768
34.23037,36916
34.23848,38504
34.24662,36086
34.25473,38643
34.26285,37623
34.27098,36835
34.27910,34781
34.28723,38171
34.29535,33524
34.30347,35088
34.31160,36834
34.31972,34493
34.32783,36438
34.33597,36203
34.34408,42026
34.35222,37777
34.36033,40571
34.36845,39521
34.37658,38481
34.38470,38424
34.39283,38736
34.40095,43705
34.40907,37160
34.41720,42599
34.42532,44143
34.43345,45290
34.44157,53497
34.44968,56102
34.45782,67483
34.46593,69908
34.47405,72964
34.48218,77445
34.49030,76407
34.49843,71412
34.50655,70837
34.51467,68240
34.52280,62259
34.53092,59886
34.53905,56742
34.54717,56274
34.55528,54613
34.56342,51696
34.57153,54269
34.57965,51448
34.58778,47948
34.59590,50342
34.60403,50053
34.61215,44289
34.62027,49418
34.62840,49179
34.63652,48916
34.64465,47350
34.65277,48810
34.66088,45417
34.66902,45330
34.67713,45532
34.68527,42708
34.69338,47361
34.70150,46037
34.70963,40001
34.71775,38794
34.72587,41386
34.73400,42416
34.74212,43240
34.75025,44403
34.75837,43551
34.76648,43459
34.77462,39634
34.78273,39133
34.79087,45235
34.79898,41101
34.80710,41848
34.81523,38625
34.82335,38169
34.83148,37749
34.83960,37182
34.84772,42132
34.85585,40453
34.86397,39074
34.87208,39696
34.88022,41365
34.88833,38562
34.89647,40662
34.90458,38276
34.91270,39502
34.92083,42478
34.92895,39353
34.93708,39977
34.94520,45302
34.95332,40648
34.96145,38328
34.96957,40939
34.97768,41309
34.98582,39913
34.99393,40618
35.00207,46178
35.01018,41505
35.01830,39095
35.02643,38233
35.03455,41480
35.04268,41047
35.05080,41204
35.05892,40449
35.06705,39480
35.07517,39753
35.08330,43075
35.09142,39124
35.09953,40843
35.10767,38799
35.11578,41462
35.12390,41927
35.13203,39850
35.14015,42551
35.14828,39711
35.15640,42672
35.16452,41432
35.17265,41041
35.18077,40785
35.18890,40957
35.19702,42317
35.20513,39809
35.21327,38387
35.22138,37287
35.22950,41475
35.23763,41958
35.24575,39431
35.25388,43808
35.26200,42080
35.27012,46007
35.27825,42191
35.28637,39766
35.29450,44308
35.30262,42593
35.31073,42817
35.31887,40794
35.32698,44888
35.33512,43433
35.34323,38551
35.35135,41410
35.35948,42939
35.36760,45043
35.37572,41440
35.38385,41169
35.39197,42653
35.40010,40676
35.40822,42703
35.41633,40000
35.42447,41430
35.43258,42587
35.44072,43169
35.44883,47022
35.45695,45532
35.46508,44617
35.47320,45348
35.48133,43539
35.48945,42628
35.49757,42498
35.50570,44992
35.51382,42907
35.52193,42609
35.53007,45725
35.53818,42212
35.54632,41510
35.55443,42189
35.56255,47673
35.57068,45842
35.57880,43384
35.58693,47372
35.59505,49619
35.60317,47162
35.61130,47006
35.61942,45256
35.62753,43347
35.63567,41966
35.64378,43814
35.65192,40651
35.66003,45236
35.66815,49566
35.67628,44095
35.68440,42644
35.69253,44945
35.70065,46777
35.70877,43169
35.71690,46425
35.72502,47631
35.73315,43635
35.74127,44666
35.74938,42354
35.75752,47567
35.76563,46086
35.77375,47513
35.78188,46164
35.79000,45776
35.79813,49860
35.80625,45058
35.81437,42231
35.82250,47530
35.83062,46364
35.83875,44158
35.84687,43905
35.85498,45906
35.86312,45989
35.87123,46131
35.87937,45903
35.88748,50492
35.89560,46583
35.90373,48342
35.91185,46071
35.91997,47089
35.92810,47251
35.93622,48118
35.94435,52600
35.95247,47977
35.96058,51110
35.96872,48316
35.97683,46870
35.98497,47121
35.99308,48401
36.00120,50136
36.00933,50993
36.01745,48114
36.02557,49230
36.03370,50721
36.04182,51676
36.04995,47755
36.05807,48226
36.06618,46355
36.07432,50983
36.08243,49764
36.09057,49608
36.09868,45367
36.10680,48092
36.11493,49864
36.12305,50110
36.13118,45747
36.13930,43968
36.14742,48253
36.15555,46219
36.16367,46911
36.17178,49072
36.17992,51839
36.18803,46578
36.19617,49301
36.20428,55385
36.21240,57605
36.22053,65048
36.22865,71102
36.23678,69788
36.24490,61431
36.25302,60548
36.26115,53977
36.26927,54613
36.27738,48310
36.28552,48215
36.29363,52368
36.30177,48784
36.30988,51207
36.31800,49045
36.32613,45691
36.33425,47974
36.34238,50708
36.35050,51053
36.35862,47750
36.36675,49919
36.37487,48443
36.38300,51850
36.39112,56780
36.39923,50311
36.40737,50563
36.41548,52967
36.42360,47685
36.43173,53379
36.43985,52023
36.44798,50088
36.45610,45983
36.46422,50811
36.47235,44199
36.48047,51826
36.48860,44256
36.49672,48569
36.50483,48285
36.51297,49378
36.52108,49236
36.52922,49083
36.53733,47626
36.54545,48613
36.55358,50296
36.56170,47625
36.56982,51601
36.57795,48830
36.58607,54086
36.59420,51597
36.60232,51547
36.61043,52389
36.61857,47342
36.62668,47457
36.63482,46509
36.64293,52472
36.65105,51047
36.65918,47463
36.66730,46864
36.67542,46505
36.68355,52815
36.69167,52217
36.69980,55714
36.70792,50279
36.71603,48979
36.72417,50158
36.73228,47577
36.74042,52086
36.74853,48180
36.75665,52439
36.76478,50904
36.77290,51646
36.78103,48106
36.78915,48885
36.79727,48086
36.80540,50726
36.81352,50352
36.82163,52895
36.82977,55136
36.83788,53450
36.84602,52485
36.85413,49892
36.86225,48934
36.87038,54385
36.87850,49388
36.88663,50976
36.89475,53784
36.90287,56546
36.91100,49603
36.91912,52991
36.92725,54782
36.93537,49893
36.94348,51935
36.95162,46296
36.95973,54506
36.96785,50240
36.97598,55849
36.98410,49348
36.99223,52701
37.00035,52866
37.00847,56089
37.01660,52974
37.02472,58863
37.03285,55054
37.04097,55694
37.04908,54209
37.05722,51121
37.06533,57598
37.07345,54307
37.08158,54782
37.08970,52533
37.09783,51168
37.10595,57012
37.11407,54217
37.12220,56172
37.13032,56535
37.13845,53661
37.14657,56805
37.15468,57120
37.16282,56629
37.17093,51866
37.17907,54011
37.18718,51799
37.19530,48260
37.20343,55250
37.21155,55019
37.21967,55970
37.22780,60589
37.23592,65353
37.24405,69387
37.25217,71900
37.26028,78346
37.26842,84182
37.27653,89002
37.28467,84052
37.29278,83553
37.30090,82367
37.30903,73948
37.31715,73022
37.32527,68250
37.33340,70083
37.34152,61175
37.34965,61678
37.35777,65031
37.36588,63255
37.37402,59993
37.38213,59345
37.39027,60717
37.39838,56324
37.40650,60260
37.41463,57911
37.42275,62962
37.43088,63781
37.43900,63243
37.44712,59055
37.45525,55046
37.46337,57735
37.47148,59965
37.47962,61272
37.48773,60586
