C:\MassHunter\GCMS\1\data\JTB-E02\BACandBLUE\JTB-E18-018-09.D Thu Jul 04 11:31:17 2019
Start of data points
2.09535	69098
2.10347	64892
2.11160	65568
2.11972	66073
2.12785	66906
2.13597	68123
2.14408	61493
2.15222	68759
2.16033	68334
2.16847	65103
2.17658	67247
2.18470	64233
2.19283	60586
2.20095	58828
2.20907	66051
2.21720	61067
2.22532	59152
2.23345	58230
2.24157	57892
2.24968	56433
2.25782	58368
2.26593	65753
2.27407	265555
2.28218	1379756
2.29030	1415801
2.29843	513535
2.30655	301088
2.31468	246426
2.32280	213531
2.33092	194255
2.33905	181210
2.34717	174537
2.35528	146711
2.36342	134617
2.37153	134683
2.37967	124966
2.38778	121665
2.39590	119927
2.40403	116315
2.41215	108950
2.42028	111533
2.42840	114370
2.43652	110963
2.44465	110359
2.45277	107746
2.46090	106495
2.46902	107417
2.47713	107044
2.48527	100701
2.49338	112849
2.50150	134148
2.50963	119608
2.51775	98908
2.52588	103711
2.53400	102218
2.54212	101184
2.55025	101420
2.55837	138780
2.56650	231406
2.57462	213675
2.58273	152745
2.59087	132048
2.59898	129033
2.60710	269801
2.61523	1129810
2.62335	1421607
2.63148	717837
2.63960	420238
2.64772	315150
2.65585	246869
2.66397	204210
2.67210	177430
2.68022	158691
2.68833	153901
2.69647	144027
2.70458	133492
2.71272	127999
2.72083	123715
2.72895	121393
2.73708	120215
2.74520	107671
2.75332	110792
2.76145	111793
2.76957	107977
2.77770	113329
2.78582	175243
2.79393	264170
2.80207	220890
2.81018	157502
2.81832	158280
2.82643	176200
2.83455	150951
2.84268	134806
2.85080	127450
2.85893	115923
2.86705	119603
2.87517	115222
2.88330	107205
2.89142	103583
2.89953	106018
2.90767	104174
2.91578	103850
2.92392	96038
2.93203	96196
2.94015	93024
2.94828	98083
2.95640	92743
2.96453	105927
2.97265	126383
2.98077	124912
2.98890	106235
2.99702	110615
3.00513	109698
3.01327	103826
3.02138	99522
3.02952	95201
3.03763	98022
3.04575	94475
3.05388	92016
3.06200	94891
3.07013	89530
3.07825	133402
3.08637	663230
3.09450	2943442
3.10262	5345271
3.11075	6548213
3.11887	6740822
3.12698	4468082
3.13512	2654669
3.14323	2003076
3.15135	1574392
3.15948	1281518
3.16760	1062830
3.17573	971805
3.18385	919248
3.19197	1281458
3.20010	1964255
3.20822	1815843
3.21635	1254181
3.22447	983327
3.23258	826652
3.24072	700913
3.24883	624575
3.25695	546554
3.26508	493839
3.27320	456350
3.28133	440189
3.28945	484268
3.29757	933346
3.30570	2304921
3.31382	4034312
3.32195	4393821
3.33007	3445533
3.33818	2482000
3.34632	1916226
3.35443	1573454
3.36257	1353668
3.37068	1179635
3.37880	1049876
3.38693	933084
3.39505	861739
3.40317	791349
3.41130	732145
3.41942	685444
3.42755	644950
3.43567	617745
3.44378	597363
3.45192	574802
3.46003	545305
3.46817	539675
3.47628	557021
3.48440	562821
3.49253	514704
3.50065	494212
3.50878	458821
3.51690	443740
3.52502	432194
3.53315	439628
3.54127	451265
3.54938	430357
3.55752	420490
3.56563	426435
3.57377	461248
3.58188	540158
3.59000	521785
3.59813	455624
3.60625	423228
3.61438	405798
3.62250	409814
3.63062	404336
3.63875	389470
3.64687	378193
3.65498	367714
3.66312	469019
3.67123	1445065
3.67937	4449564
3.68748	6885072
3.69560	5649764
3.70373	3303593
3.71185	2148343
3.71998	1687987
3.72810	1456048
3.73622	1266090
3.74435	1137566
3.75247	1019844
3.76060	946701
3.76872	892119
3.77683	831127
3.78497	793336
3.79308	754847
3.80120	791376
3.80933	1135504
3.81745	1978705
3.82558	2404125
3.83370	1914945
3.84182	1356535
3.84995	1090153
3.85807	941522
3.86620	850625
3.87432	782404
3.88243	746247
3.89057	703664
3.89868	659236
3.90682	621788
3.91493	625777
3.92305	706894
3.93118	866120
3.93930	924790
3.94742	1091866
3.95555	2521722
3.96367	6724912
3.97180	1.119581E+07
3.97992	1.107829E+07
3.98803	7404946
3.99617	5190338
4.00428	1.005911E+07
4.01242	2.47939E+07
4.02053	3.87818E+07
4.02865	3.927834E+07
4.03678	2.662239E+07
4.04490	1.375904E+07
4.05302	8040963
4.06115	5531613
4.06927	4192753
4.07740	3353122
4.08552	2800710
4.09363	2401772
4.10177	2081929
4.10988	1845688
4.11802	1667287
4.12613	1517827
4.13425	1404637
4.14238	1362730
4.15050	1402017
4.15863	1405543
4.16675	1320349
4.17487	1221928
4.18300	1133772
4.19112	1062989
4.19923	994435
4.20737	1066091
4.21548	2115731
4.22362	6151065
4.23173	1.299171E+07
4.23985	1.782377E+07
4.24798	1.723961E+07
4.25610	1.182874E+07
4.26423	7173778
4.27235	4979982
4.28047	3778807
4.28860	2962094
4.29672	2432108
4.30483	2101455
4.31297	1831921
4.32108	1626531
4.32922	1468423
4.33733	1361111
4.34545	1279840
4.35358	1229971
4.36170	1208760
4.36983	1174300
4.37795	1099679
4.38607	1016530
4.39420	958319
4.40232	900639
4.41045	875403
4.41857	833177
4.42668	813180
4.43482	774425
4.44293	750267
4.45105	734501
4.45918	720977
4.46730	688568
4.47543	673219
4.48355	654303
4.49167	641964
4.49980	630299
4.50792	613791
4.51605	591392
4.52417	577643
4.53228	567900
4.54042	552170
4.54853	549852
4.55667	548474
4.56478	537683
4.57290	525932
4.58103	506114
4.58915	500293
4.59727	486041
4.60540	480768
4.61352	468156
4.62165	490016
4.62977	587897
4.63788	786482
4.64602	1009726
4.65413	1038429
4.66227	859776
4.67038	680639
4.67850	573421
4.68663	535407
4.69475	499563
4.70288	480736
4.71100	460267
4.71912	436044
4.72725	425356
4.73537	414664
4.74348	405711
4.75162	401068
4.75973	394005
4.76787	393194
4.77598	372053
4.78410	377508
4.79223	422118
4.80035	551492
4.80848	713939
4.81660	772876
4.82472	663994
4.83285	555852
4.84097	521725
4.84908	500415
4.85722	500239
4.86533	485433
4.87347	461543
4.88158	436557
4.88970	415684
4.89783	400075
4.90595	380882
4.91408	369594
4.92220	358076
4.93032	397455
4.93845	508159
4.94657	865373
4.95470	1493006
4.96282	2219516
4.97093	2479302
4.97907	2239518
4.98718	1776925
4.99530	1394379
5.00343	1109762
5.01155	941369
5.01968	871994
5.02780	910663
5.03592	1172868
5.04405	1517395
5.05217	1607585
5.06030	1369215
5.06842	1110115
5.07653	947674
5.08467	840265
5.09278	782262
5.10090	728791
5.10903	692276
5.11715	646960
5.12528	616332
5.13340	599905
5.14152	563312
5.14965	574267
5.15777	576356
5.16590	615808
5.17402	652987
5.18213	632106
5.19027	594157
5.19838	580050
5.20652	601000
5.21463	606703
5.22275	618162
5.23088	579586
5.23900	546716
5.24712	523874
5.25525	492030
5.26337	456284
5.27150	433953
5.27962	421918
5.28773	405075
5.29587	396593
5.30398	393859
5.31212	391111
5.32023	388206
5.32835	406189
5.33648	420565
5.34460	446530
5.35273	451225
5.36085	422254
5.36897	396291
5.37710	384597
5.38522	376162
5.39333	388253
5.40147	386334
5.40958	388595
5.41772	366665
5.42583	357311
5.43395	346864
5.44208	348484
5.45020	354900
5.45833	360915
5.46645	348745
5.47457	340856
5.48270	335537
5.49082	318477
5.49893	323799
5.50707	327851
5.51518	319001
5.52332	306282
5.53143	317168
5.53955	322764
5.54768	310360
5.55580	313734
5.56393	339276
5.57205	359977
5.58017	392738
5.58830	379078
5.59642	346353
5.60455	333586
5.61267	311051
5.62078	310665
5.62892	307530
5.63703	324243
5.64515	330818
5.65328	329740
5.66140	323494
5.66953	316361
5.67765	322678
5.68577	340867
5.69390	381388
5.70202	378843
5.71015	354583
5.71827	327622
5.72638	308432
5.73452	296698
5.74263	287211
5.75077	280915
5.75888	283058
5.76700	273835
5.77513	268636
5.78325	268245
5.79137	268471
5.79950	254562
5.80762	254264
5.81575	260217
5.82387	260609
5.83198	255948
5.84012	266788
5.84823	261108
5.85637	256835
5.86448	249190
5.87260	251904
5.88073	244619
5.88885	254827
5.89697	245158
5.90510	230642
5.91322	204184
5.92135	180405
5.92947	170035
5.93758	189016
5.94572	197167
5.95383	212695
5.96197	236387
5.97008	266618
5.97820	312418
5.98633	346390
5.99445	359555
6.00258	346466
6.01070	308548
6.01882	262035
6.02695	242278
6.03507	226981
6.04318	212256
6.05132	197125
6.05943	192101
6.06757	180891
6.07568	173724
6.08380	180488
6.09193	178023
6.10005	174789
6.10818	176591
6.11630	173220
6.12442	195039
6.13255	268650
6.14067	414616
6.14878	557100
6.15692	597825
6.16503	519762
6.17317	396517
6.18128	317597
6.18940	273118
6.19753	252183
6.20565	235176
6.21378	225580
6.22190	230390
6.23002	218816
6.23815	211540
6.24627	215933
6.25440	216337
6.26252	225886
6.27063	229429
6.27877	229825
6.28688	221605
6.29500	215872
6.30313	211772
6.31125	214596
6.31938	206253
6.32750	222515
6.33562	228255
6.34375	245573
6.35187	248298
6.36000	238071
6.36812	224210
6.37623	219173
6.38437	216096
6.39248	215092
6.40062	213403
6.40873	212862
6.41685	214660
6.42498	205020
6.43310	207903
6.44122	208250
6.44935	211593
6.45747	204539
6.46560	205961
6.47372	206911
6.48183	202385
6.48997	203449
6.49808	216739
6.50622	207599
6.51433	209072
6.52245	221111
6.53058	218190
6.53870	218266
6.54682	217771
6.55495	215841
6.56307	218572
6.57120	230978
6.57932	249310
6.58743	271648
6.59557	269249
6.60368	258549
6.61182	232377
6.61993	230420
6.62805	227018
6.63618	221913
6.64430	229067
6.65243	261471
6.66055	346942
6.66867	528219
6.67680	651086
6.68492	643901
6.69303	507249
6.70117	384857
6.70928	310752
6.71742	287121
6.72553	269387
6.73365	259323
6.74178	253147
6.74990	245290
6.75803	255411
6.76615	243523
6.77427	252047
6.78240	247305
6.79052	243135
6.79865	213817
6.80677	198733
6.81488	186409
6.82302	185428
6.83113	177597
6.83925	191948
6.84738	209497
6.85550	255419
6.86363	300048
6.87175	304053
6.87987	253020
6.88800	188377
6.89612	157443
6.90425	129092
6.91237	117652
6.92048	116841
6.92862	107604
6.93673	104557
6.94485	103281
6.95298	100840
6.96110	107325
6.96923	130315
6.97735	138220
6.98547	151318
6.99360	149104
7.00172	135314
7.00985	122511
7.01797	112786
7.02608	102722
7.03422	97426
7.04233	103110
7.05047	96562
7.05858	97300
7.06670	92069
7.07483	97165
7.08295	96898
7.09107	94339
7.09920	88648
7.10732	91217
7.11545	92391
7.12357	89050
7.13168	90517
7.13982	107660
7.14793	153681
7.15607	240157
7.16418	329622
7.17230	356505
7.18043	326591
7.18855	263389
7.19667	193475
7.20480	148227
7.21292	131969
7.22105	148271
7.22917	244028
7.23728	547806
7.24542	1060261
7.25353	1506468
7.26167	1568890
7.26978	1193055
7.27790	750312
7.28603	452413
7.29415	336482
7.30228	286508
7.31040	252199
7.31852	207891
7.32665	161492
7.33477	132642
7.34288	121566
7.35102	114332
7.35913	112263
7.36727	107270
7.37538	119161
7.38350	116547
7.39163	116793
7.39975	105091
7.40788	113095
7.41600	104181
7.42412	94878
7.43225	91689
7.44037	92676
7.44850	93888
7.45662	94366
7.46473	98509
7.47287	91422
7.48098	88685
7.48910	92981
7.49723	89273
7.50535	95752
7.51348	116695
7.52160	161380
7.52972	228515
7.53785	327244
7.54597	405444
7.55410	441612
7.56222	428031
7.57033	345901
7.57847	263897
7.58658	197986
7.59470	153682
7.60283	132353
7.61095	115578
7.61908	105264
7.62720	99132
7.63532	96237
7.64345	88379
7.65157	86131
7.65970	84697
7.66782	80559
7.67593	83640
7.68407	78776
7.69218	79315
7.70032	79384
7.70843	83470
7.71655	81150
7.72468	82857
7.73280	79155
7.74092	82055
7.74905	78792
7.75717	85345
7.76530	79352
7.77342	77412
7.78153	85015
7.78967	89298
7.79778	96183
7.80592	101439
7.81403	108629
7.82215	98289
7.83028	94909
7.83840	87805
7.84653	89044
7.85465	81364
7.86277	83833
7.87090	93532
7.87902	98887
7.88713	98277
7.89527	100795
7.90338	89124
7.91152	82076
7.91963	84500
7.92775	94015
7.93588	114734
7.94400	140033
7.95213	153213
7.96025	139547
7.96837	124967
7.97650	106383
7.98462	104444
7.99273	92988
8.00087	78741
8.00898	76968
8.01712	76441
8.02523	76046
8.03335	81942
8.04148	73236
8.04960	76614
8.05773	74143
8.06585	73204
8.07397	71260
8.08210	72072
8.09022	70573
8.09835	68218
8.10647	70118
8.11458	69857
8.12272	70435
8.13083	76761
8.13895	94319
8.14708	101672
8.15520	115152
8.16333	115419
8.17145	108582
8.17957	92281
8.18770	80054
8.19582	79546
8.20395	72051
8.21207	72266
8.22018	70705
8.22832	75915
8.23643	72958
8.24457	72313
8.25268	71099
8.26080	74525
8.26893	68758
8.27705	69919
8.28517	70934
8.29330	72822
8.30142	74605
8.30955	82802
8.31767	81571
8.32578	84730
8.33392	77025
8.34203	74545
8.35017	69885
8.35828	68746
8.36640	75082
8.37453	72510
8.38265	84816
8.39077	83537
8.39890	74189
8.40702	68871
8.41515	67652
8.42327	67018
8.43138	63837
8.43952	67013
8.44763	67319
8.45577	64328
8.46388	69499
8.47200	70530
8.48013	69933
8.48825	67333
8.49638	66325
8.50450	64669
8.51262	61774
8.52075	69547
8.52887	75990
8.53698	110406
8.54512	193844
8.55323	322158
8.56137	415123
8.56948	433538
8.57760	368131
8.58573	255772
8.59385	174986
8.60198	140000
8.61010	125305
8.61822	108436
8.62635	103630
8.63447	93071
8.64258	88253
8.65072	85733
8.65883	81687
8.66697	76879
8.67508	80975
8.68320	82334
8.69133	84465
8.69945	83066
8.70758	89149
8.71570	82850
8.72382	78669
8.73195	77636
8.74007	84425
8.74820	121616
8.75632	205733
8.76443	369561
8.77257	582733
8.78068	727394
8.78880	739958
8.79693	612669
8.80505	450590
8.81318	319486
8.82130	242107
8.82942	193790
8.83755	177664
8.84567	175378
8.85380	193139
8.86192	190577
8.87003	186954
8.87817	183469
8.88628	179355
8.89442	171195
8.90253	159255
8.91065	158408
8.91878	152512
8.92690	155889
8.93502	155887
8.94315	162421
8.95127	180168
8.95940	189184
8.96752	183299
8.97563	183252
8.98377	168427
8.99188	163529
9.00002	160120
9.00813	150772
9.01625	140617
9.02438	130255
9.03250	135115
9.04062	126344
9.04875	122632
9.05687	119653
9.06500	122274
9.07312	118429
9.08123	125431
9.08937	127772
9.09748	129082
9.10562	143429
9.11373	159278
9.12185	162178
9.12998	161615
9.13810	147842
9.14623	135272
9.15435	125648
9.16247	117058
9.17060	116878
9.17872	110273
9.18683	107885
9.19497	106003
9.20308	105346
9.21122	101967
9.21933	105454
9.22745	105983
9.23558	105818
9.24370	105384
9.25183	108132
9.25995	102638
9.26807	99778
9.27620	102096
9.28432	94519
9.29245	97004
9.30057	94638
9.30868	91115
9.31682	92747
9.32493	95305
9.33305	98234
9.34118	93889
9.34930	89797
9.35743	95607
9.36555	91926
9.37367	94153
9.38180	92236
9.38992	98354
9.39805	98521
9.40617	102584
9.41428	122659
9.42242	134955
9.43053	151734
9.43865	162650
9.44678	158021
9.45490	144252
9.46303	124736
9.47115	113551
9.47927	100731
9.48740	97319
9.49552	91890
9.50365	99748
9.51177	107941
9.51988	120088
9.52802	121953
9.53613	121501
9.54427	116182
9.55238	101267
9.56050	88830
9.56863	81650
9.57675	84046
9.58487	96312
9.59300	96314
9.60112	93690
9.60925	82665
9.61737	75047
9.62548	63272
9.63362	62148
9.64173	59968
9.64987	56381
9.65798	53506
9.66610	55115
9.67423	58477
9.68235	56894
9.69047	52379
9.69860	55726
9.70672	56788
9.71485	52376
9.72297	50508
9.73108	53086
9.73922	53925
9.74733	54490
9.75547	56646
9.76358	50711
9.77170	50453
9.77983	51190
9.78795	52504
9.79608	54921
9.80420	55388
9.81232	52954
9.82045	52730
9.82857	51441
9.83668	54643
9.84482	54484
9.85293	50736
9.86107	54371
9.86918	54790
9.87730	57648
9.88543	57809
9.89355	59049
9.90168	61827
9.90980	62423
9.91792	69628
9.92605	78986
9.93417	105782
9.94230	144055
9.95042	201439
9.95853	233683
9.96667	251484
9.97478	218499
9.98290	186751
9.99103	142809
9.99915	117516
10.00728	97195
10.01540	89600
10.02352	79659
10.03165	77066
10.03977	70429
10.04790	70657
10.05602	67355
10.06413	62794
10.07227	67653
10.08038	70551
10.08852	67254
10.09663	67930
10.10475	69580
10.11288	75073
10.12100	72733
10.12912	74486
10.13725	73302
10.14537	71156
10.15350	65338
10.16162	68835
10.16973	63179
10.17787	63306
10.18598	58787
10.19412	62403
10.20223	57984
10.21035	59427
10.21848	57626
10.22660	62942
10.23472	64706
10.24285	66572
10.25097	70201
10.25910	88906
10.26722	137627
10.27533	279299
10.28347	608437
10.29158	1187200
10.29972	1893941
10.30783	2609824
10.31595	3659675
10.32408	5158422
10.33220	7405491
10.34033	9059865
10.34845	9372089
10.35657	7772026
10.36470	5699037
10.37282	4003171
10.38093	2843105
10.38907	2031423
10.39718	1454364
10.40532	1011606
10.41343	739819
10.42155	569902
10.42968	464150
10.43780	427297
10.44593	375789
10.45405	375799
10.46217	350728
10.47030	337512
10.47842	307181
10.48653	297233
10.49467	273382
10.50278	256174
10.51092	242645
10.51903	231882
10.52715	224944
10.53528	216933
10.54340	211024
10.55153	207846
10.55965	204680
10.56777	194914
10.57590	200114
10.58402	196597
10.59215	183590
10.60027	172955
10.60838	164608
10.61652	150309
10.62463	154978
10.63275	147676
10.64088	145935
10.64900	139412
10.65713	140535
10.66525	142971
10.67337	134316
10.68150	140109
10.68962	144359
10.69775	133591
10.70587	135122
10.71398	128080
10.72212	126510
10.73023	124842
10.73837	122930
10.74648	119939
10.75460	127659
10.76273	119555
10.77085	117754
10.77897	110522
10.78710	104135
10.79522	104809
10.80335	108882
10.81147	110132
10.81958	102318
10.82772	104357
10.83583	99877
10.84397	94922
10.85208	95865
10.86020	94341
10.86833	88026
10.87645	93322
10.88457	91123
10.89270	94971
10.90082	91356
10.90895	84812
10.91707	88627
10.92518	85792
10.93332	88483
10.94143	85348
10.94957	85120
10.95768	80860
10.96580	86619
10.97393	88150
10.98205	87121
10.99018	86170
10.99830	84576
11.00642	87371
11.01455	81379
11.02267	77487
11.03078	74665
11.03892	74827
11.04703	72552
11.05517	72543
11.06328	78093
11.07140	78571
11.07953	77452
11.08765	84763
11.09578	81588
11.10390	82526
11.11202	76039
11.12015	73561
11.12827	67985
11.13640	62995
11.14452	63246
11.15263	64898
11.16077	72778
11.16888	71852
11.17700	73590
11.18513	78647
11.19325	74685
11.20138	75574
11.20950	75083
11.21762	73694
11.22575	74636
11.23387	73265
11.24200	68639
11.25012	63365
11.25823	57689
11.26637	63203
11.27448	61233
11.28260	59633
11.29073	65864
11.29885	87493
11.30698	120420
11.31510	207603
11.32322	348879
11.33135	490364
11.33947	619010
11.34760	664219
11.35572	592319
11.36383	444518
11.37197	324550
11.38008	213358
11.38822	157467
11.39633	131834
11.40445	119024
11.41258	115756
11.42070	127168
11.42882	124170
11.43695	131949
11.44507	116217
11.45320	111426
11.46132	105508
11.46943	97551
11.47757	106108
11.48568	117621
11.49382	139736
11.50193	153013
11.51005	155520
11.51818	147243
11.52630	132762
11.53442	118541
11.54255	104033
11.55067	104713
11.55880	105843
11.56692	93909
11.57503	94712
11.58317	94123
11.59128	94119
11.59942	108990
11.60753	126833
11.61565	153778
11.62378	169114
11.63190	165936
11.64003	147789
11.64815	125761
11.65627	107890
11.66440	103251
11.67252	96992
11.68063	93731
11.68877	98580
11.69688	94864
11.70502	113985
11.71313	107786
11.72125	109451
11.72938	96465
11.73750	87893
11.74563	77643
11.75375	75159
11.76187	70747
11.77000	72723
11.77812	76039
11.78625	78771
11.79437	74320
11.80248	73580
11.81062	74149
11.81873	75218
11.82685	73845
11.83498	74522
11.84310	76606
11.85123	75562
11.85935	73815
11.86747	73398
11.87560	70500
11.88372	70717
11.89185	65604
11.89997	64012
11.90808	65309
11.91622	67173
11.92433	72258
11.93245	82223
11.94058	83887
11.94870	78370
11.95683	76730
11.96495	76150
11.97307	84421
11.98120	138438
11.98932	245979
11.99745	465206
12.00557	732156
12.01368	954213
12.02182	1021510
12.02993	867840
12.03807	640901
12.04618	435105
12.05430	287069
12.06243	210614
12.07055	178672
12.07867	160605
12.08680	151965
12.09492	140345
12.10305	139277
12.11117	125306
12.11928	132918
12.12742	128307
12.13553	123941
12.14367	122159
12.15178	113258
12.15990	106912
12.16803	109170
12.17615	102348
12.18428	99953
12.19240	96564
12.20052	97301
12.20865	98830
12.21677	92037
12.22488	99670
12.23302	90446
12.24113	91897
12.24927	89053
12.25738	89361
12.26550	84408
12.27363	86476
12.28175	80455
12.28988	78369
12.29800	79057
12.30612	78604
12.31425	78915
12.32237	78650
12.33048	85039
12.33862	79637
12.34673	72424
12.35487	75534
12.36298	79049
12.37110	72563
12.37923	68760
12.38735	76832
12.39548	80548
12.40360	86540
12.41172	91616
12.41985	112366
12.42797	117853
12.43610	122373
12.44422	120760
12.45233	113116
12.46047	102428
12.46858	91992
12.47670	85954
12.48483	82932
12.49295	80123
12.50108	74420
12.50920	77726
12.51732	74869
12.52545	76133
12.53357	77518
12.54170	85272
12.54982	107650
12.55793	128990
12.56607	161743
12.57418	173522
12.58232	164840
12.59043	149377
12.59855	125916
12.60668	104592
12.61480	99295
12.62292	92668
12.63105	84495
12.63917	83858
12.64730	84174
12.65542	80221
12.66353	77285
12.67167	73380
12.67978	72031
12.68792	65917
12.69603	66535
12.70415	65601
12.71228	64802
12.72040	73579
12.72852	79802
12.73665	85988
12.74477	86093
12.75290	87948
12.76102	77375
12.76913	73350
12.77727	72109
12.78538	65111
12.79352	63991
12.80163	62003
12.80975	54998
12.81788	58882
12.82600	56555
12.83413	53811
12.84225	55941
12.85037	57731
12.85850	53020
12.86662	60364
12.87473	60283
12.88287	62927
12.89098	57134
12.89912	55739
12.90723	58624
12.91535	57858
12.92348	57548
12.93160	55787
12.93973	54041
12.94785	67528
12.95597	76971
12.96410	112670
12.97222	179417
12.98033	286621
12.98847	355850
12.99658	376566
13.00472	312970
13.01283	227948
13.02095	166579
13.02908	126953
13.03720	115122
13.04533	115443
13.05345	125545
13.06157	127397
13.06970	140045
13.07782	134746
13.08595	124999
13.09407	110894
13.10218	87045
13.11032	80036
13.11843	79493
13.12655	75495
13.13468	75631
13.14280	76645
13.15093	70507
13.15905	75622
13.16717	76391
13.17530	73076
13.18342	74801
13.19155	69538
13.19967	74059
13.20778	71926
13.21592	74901
13.22403	72114
13.23217	71652
13.24028	72629
13.24840	68956
13.25653	66253
13.26465	65947
13.27277	62929
13.28090	61919
13.28902	63789
13.29715	55589
13.30527	55143
13.31338	56461
13.32152	55463
13.32963	58068
13.33777	54751
13.34588	55410
13.35400	57948
13.36213	59895
13.37025	60146
13.37837	56221
13.38650	52492
13.39462	52248
13.40275	55065
13.41087	51243
13.41898	48394
13.42712	49660
13.43523	51382
13.44337	49192
13.45148	52359
13.45960	50728
13.46773	54633
13.47585	56034
13.48398	56550
13.49210	54975
13.50022	56219
13.50835	58541
13.51647	60324
13.52458	57862
13.53272	60994
13.54083	60141
13.54897	60486
13.55708	60974
13.56520	60578
13.57333	55993
13.58145	57722
13.58958	57178
13.59770	66535
13.60582	87665
13.61395	122608
13.62207	153433
13.63020	182505
13.63832	174150
13.64643	141468
13.65457	108627
13.66268	88412
13.67080	69905
13.67893	66362
13.68705	68785
13.69518	62532
13.70330	63278
13.71142	58991
13.71955	61711
13.72767	76123
13.73580	122459
13.74392	288093
13.75203	713045
13.76017	1637613
13.76828	2848652
13.77640	4023370
13.78453	4650928
13.79265	4378189
13.80078	3403378
13.80890	2310322
13.81702	1490415
13.82515	1079515
13.83327	899965
13.84140	793742
13.84952	719310
13.85763	607337
13.86577	518510
13.87388	455522
13.88202	399102
13.89013	355068
13.89825	320287
13.90638	301612
13.91450	275910
13.92262	261802
13.93075	253976
13.93887	239719
13.94700	234450
13.95512	236065
13.96323	275389
13.97137	314386
13.97948	348471
13.98762	387498
13.99573	366659
14.00385	335693
14.01198	285722
14.02010	240228
14.02822	210812
14.03635	202003
14.04447	186323
14.05260	188540
14.06072	183514
14.06883	174907
14.07697	179495
14.08508	183057
14.09322	169573
14.10133	164864
14.10945	166411
14.11758	158918
14.12570	173970
14.13383	185492
14.14195	211243
14.15007	237549
14.15820	250776
14.16632	261661
14.17443	267262
14.18257	276982
14.19068	307431
14.19882	343302
14.20693	374986
14.21505	364021
14.22318	331732
14.23130	292477
14.23943	269160
14.24755	257081
14.25567	236836
14.26380	212909
14.27192	197197
14.28005	176485
14.28817	163508
14.29628	153673
14.30442	142871
14.31253	135541
14.32065	143142
14.32878	130966
14.33690	122158
14.34503	119959
14.35315	112945
14.36127	102278
14.36940	84369
14.37752	84828
14.38565	91137
14.39377	113907
14.40188	161203
14.41002	250386
14.41813	383973
14.42625	470531
14.43438	483749
14.44250	397134
14.45063	300062
14.45875	214364
14.46687	154229
14.47500	130847
14.48312	116744
14.49125	110549
14.49937	107086
14.50748	115239
14.51562	114244
14.52373	118170
14.53187	127680
14.53998	117560
14.54810	113424
14.55623	100099
14.56435	94697
14.57247	85544
14.58060	82055
14.58872	81824
14.59685	75454
14.60497	77523
14.61308	74442
14.62122	71634
14.62933	72977
14.63747	76589
14.64558	75730
14.65370	66504
14.66183	73219
14.66995	67540
14.67808	66768
14.68620	68157
14.69432	64409
14.70245	69423
14.71057	68836
14.71868	70796
14.72682	71960
14.73493	71164
14.74307	73696
14.75118	73869
14.75930	76401
14.76743	79210
14.77555	75445
14.78368	85007
14.79180	118173
14.79992	233180
14.80805	513666
14.81617	1104189
14.82428	1875535
14.83242	2545590
14.84053	2862131
14.84867	2549513
14.85678	1820873
14.86490	1175338
14.87303	740590
14.88115	478703
14.88928	365200
14.89740	278249
14.90552	236309
14.91365	211670
14.92177	193813
14.92990	175906
14.93802	166451
14.94613	156845
14.95427	145059
14.96238	136704
14.97050	129720
14.97863	126099
14.98675	122363
14.99488	119318
15.00300	120931
15.01112	110730
15.01925	115224
15.02737	111018
15.03550	105045
15.04362	101591
15.05173	97792
15.05987	98936
15.06798	93711
15.07610	90858
15.08423	92610
15.09235	80554
15.10048	88420
15.10860	88375
15.11672	83597
15.12485	83814
15.13297	93278
15.14110	98604
15.14922	99242
15.15733	97454
15.16547	91944
15.17358	83504
15.18172	82809
15.18983	79669
15.19795	71276
15.20608	73309
15.21420	71014
15.22232	69722
15.23045	61426
15.23857	60171
15.24670	60947
15.25482	59140
15.26293	66377
15.27107	62181
15.27918	56852
15.28732	57387
15.29543	59178
15.30355	54010
15.31168	55583
15.31980	55117
15.32793	53298
15.33605	52497
15.34417	52792
15.35230	52730
15.36042	52771
15.36853	55779
15.37667	57323
15.38478	55143
15.39292	56791
15.40103	54354
15.40915	57240
15.41728	55158
15.42540	56178
15.43353	51070
15.44165	54717
15.44977	54885
15.45790	58945
15.46602	62302
15.47415	75820
15.48227	99507
15.49038	123157
15.49852	149009
15.50663	153465
15.51475	148197
15.52288	137380
15.53100	127740
15.53913	115957
15.54725	108629
15.55537	107785
15.56350	91500
15.57162	85113
15.57975	76525
15.58787	64529
15.59598	60546
15.60412	62909
15.61223	57526
15.62035	55492
15.62848	52896
15.63660	56646
15.64473	58765
15.65285	54153
15.66097	58448
15.66910	51618
15.67722	49961
15.68535	51568
15.69347	52584
15.70158	50821
15.70972	48651
15.71783	51579
15.72597	53126
15.73408	53715
15.74220	62603
15.75033	64694
15.75845	83114
15.76657	113307
15.77470	167970
15.78282	243440
15.79095	295762
15.79907	316482
15.80718	279457
15.81532	224478
15.82343	162875
15.83157	119450
15.83968	95487
15.84780	81584
15.85593	87146
15.86405	82497
15.87217	72399
15.88030	73467
15.88842	70719
15.89655	66787
15.90467	65319
15.91278	66831
15.92092	66004
15.92903	68713
15.93717	73612
15.94528	77755
15.95340	112859
15.96153	154095
15.96965	210814
15.97778	266981
15.98590	275358
15.99402	263368
16.00215	220224
16.01027	184051
16.01838	162253
16.02652	142575
16.03463	133068
16.04277	120300
16.05088	103938
16.05900	98010
16.06713	85737
16.07525	84060
16.08338	76826
16.09150	76800
16.09962	71130
16.10775	72170
16.11587	71114
16.12400	69500
16.13212	71303
16.14023	76636
16.14837	81016
16.15648	80722
16.16460	74097
16.17273	72521
16.18085	70039
16.18898	66273
16.19710	62936
16.20522	62987
16.21335	67329
16.22147	67703
16.22960	65443
16.23772	67103
16.24583	65915
16.25397	69873
16.26208	61022
16.27020	65883
16.27833	65795
16.28645	67408
16.29458	66406
16.30270	72250
16.31082	70034
16.31895	67846
16.32707	65861
16.33520	70119
16.34332	83638
16.35143	100081
16.35957	134938
16.36768	184429
16.37582	236465
16.38393	266839
16.39205	250374
16.40018	212639
16.40830	161241
16.41642	122057
16.42455	98457
16.43267	87896
16.44080	91038
16.44892	103477
16.45703	133317
16.46517	197692
16.47328	305346
16.48142	397868
16.48953	437585
16.49765	409769
16.50578	321357
16.51390	221438
16.52203	163518
16.53015	124102
16.53827	100783
16.54640	94726
16.55452	84267
16.56263	82771
16.57077	83685
16.57888	87087
16.58702	95945
16.59513	104056
16.60325	124235
16.61138	138395
16.61950	144485
16.62763	150074
16.63575	132983
16.64387	117177
16.65200	100615
16.66012	85337
16.66823	83184
16.67637	72414
16.68448	71494
16.69262	70732
16.70073	68465
16.70885	64262
16.71698	67642
16.72510	62490
16.73323	63745
16.74135	59887
16.74947	61494
16.75760	63499
16.76572	62033
16.77385	61453
16.78197	58844
16.79008	59963
16.79822	59280
16.80633	60022
16.81445	52065
16.82258	56318
16.83070	53600
16.83883	53332
16.84695	53070
16.85507	49943
16.86320	51709
16.87132	55030
16.87945	49954
16.88757	47392
16.89568	47415
16.90382	49379
16.91193	47755
16.92005	45624
16.92818	50503
16.93630	52402
16.94443	50449
16.95255	48555
16.96067	49465
16.96880	47631
16.97692	48372
16.98505	47609
16.99317	48667
17.00128	57859
17.00942	53996
17.01753	49146
17.02567	53279
17.03378	55685
17.04190	55198
17.05003	61583
17.05815	66675
17.06627	62445
17.07440	62603
17.08252	59044
17.09065	57885
17.09877	54100
17.10688	58130
17.11502	54652
17.12313	57077
17.13127	56695
17.13938	55004
17.14750	56410
17.15563	57291
17.16375	54514
17.17188	52979
17.18000	53511
17.18812	52788
17.19625	49072
17.20437	52163
17.21248	50057
17.22062	48470
17.22873	50500
17.23687	50222
17.24498	49868
17.25310	50924
17.26123	48168
17.26935	48059
17.27748	50320
17.28560	48882
17.29372	48366
17.30185	46108
17.30997	50466
17.31808	60968
17.32622	61725
17.33433	71928
17.34247	73382
17.35058	76205
17.35870	78742
17.36683	72788
17.37495	71325
17.38308	68532
17.39120	67173
17.39932	65561
17.40745	64413
17.41557	65598
17.42370	66026
17.43182	66620
17.43993	63457
17.44807	59495
17.45618	57306
17.46430	57720
17.47243	57724
17.48055	54671
17.48868	52615
17.49680	53034
17.50492	55079
17.51305	51256
17.52117	53378
17.52930	55778
17.53742	53458
17.54553	54774
17.55367	60713
17.56178	82292
17.56992	122197
17.57803	199729
17.58615	335805
17.59428	554042
17.60240	800199
17.61052	1002858
17.61865	1043082
17.62677	873936
17.63490	688433
17.64302	519862
17.65113	416166
17.65927	372812
17.66738	353872
17.67552	324159
17.68363	305658
17.69175	242319
17.69988	199545
17.70800	169235
17.71612	140768
17.72425	131493
17.73237	116518
17.74050	109079
17.74862	100905
17.75673	95597
17.76487	90239
17.77298	91546
17.78112	91613
17.78923	103154
17.79735	146647
17.80548	229682
17.81360	390848
17.82173	571402
17.82985	704056
17.83797	735898
17.84610	654641
17.85422	509349
17.86233	356744
17.87047	278350
17.87858	218426
17.88672	172057
17.89483	145847
17.90295	135814
17.91108	116012
17.91920	113922
17.92733	105007
17.93545	98740
17.94357	90937
17.95170	91085
17.95982	84459
17.96795	85294
17.97607	83925
17.98418	85440
17.99232	76296
18.00043	80652
18.00855	81975
18.01668	84127
18.02480	93094
18.03293	103956
18.04105	112902
18.04917	145064
18.05730	218906
18.06542	401861
18.07355	790954
18.08167	1377761
18.08978	2003915
18.09792	2409559
18.10603	2416676
18.11415	1998429
18.12228	1444723
18.13040	1021530
18.13853	728340
18.14665	589713
18.15477	506280
18.16290	442342
18.17102	380933
18.17915	340537
18.18727	311437
18.19538	295613
18.20352	303912
18.21163	349125
18.21977	413899
18.22788	486673
18.23600	539061
18.24413	563629
18.25225	565758
18.26037	566334
18.26850	541627
18.27662	529349
18.28475	521595
18.29287	490831
18.30098	475537
18.30912	463768
18.31723	475140
18.32537	456931
18.33348	445691
18.34160	432242
18.34973	422707
18.35785	425799
18.36597	438904
18.37410	423445
18.38222	424081
18.39035	404207
18.39847	392596
18.40658	405615
18.41472	394874
18.42283	395268
18.43097	400657
18.43908	400615
18.44720	430347
18.45533	463736
18.46345	510371
18.47158	589286
18.47970	649050
18.48782	679460
18.49595	667861
18.50407	605143
18.51218	542661
18.52032	480653
18.52843	424019
18.53657	402839
18.54468	377237
18.55280	367595
18.56093	354383
18.56905	330649
18.57718	326369
18.58530	329503
18.59342	322123
18.60155	325611
18.60967	325917
18.61780	317761
18.62592	319250
18.63403	315018
18.64217	304899
18.65028	304931
18.65840	298086
18.66653	292932
18.67465	285670
18.68278	288297
18.69090	262147
18.69902	267267
18.70715	261872
18.71527	261622
18.72340	253194
18.73152	254280
18.73963	254515
18.74777	239907
18.75588	245058
18.76400	243808
18.77213	236448
18.78025	243665
18.78838	238572
18.79650	240316
18.80462	234785
18.81275	229390
18.82087	225300
18.82900	226447
18.83712	223277
18.84523	221210
18.85337	228470
18.86148	218040
18.86962	222133
18.87773	210370
18.88585	216526
18.89398	210581
18.90210	209650
18.91022	201056
18.91835	202246
18.92647	208796
18.93460	215559
18.94272	210720
18.95083	219744
18.95897	218758
18.96708	214544
18.97522	211229
18.98333	203546
18.99145	205367
18.99958	199011
19.00770	192795
19.01583	192243
19.02395	186317
19.03207	173946
19.04020	179704
19.04832	180243
19.05643	185018
19.06457	182256
19.07268	197388
19.08082	216787
19.08893	252495
19.09705	300916
19.10518	333018
19.11330	346385
19.12143	324546
19.12955	290158
19.13767	258763
19.14580	235889
19.15392	212355
19.16203	201285
19.17017	201471
19.17828	184132
19.18642	180503
19.19453	178352
19.20265	172099
19.21078	172225
19.21890	162429
19.22703	159014
19.23515	160365
19.24327	159705
19.25140	149352
19.25952	148098
19.26765	149645
19.27577	153809
19.28388	159273
19.29202	159027
19.30013	156576
19.30825	160789
19.31638	153620
19.32450	152418
19.33263	153858
19.34075	150019
19.34887	163551
19.35700	185876
19.36512	218700
19.37325	245837
19.38137	258077
19.38948	245562
19.39762	212903
19.40573	197592
19.41385	172613
19.42198	153727
19.43010	146544
19.43823	143034
19.44635	144136
19.45447	137523
19.46260	140686
19.47072	141790
19.47885	162736
19.48697	198810
19.49508	233005
19.50322	267128
19.51133	280677
19.51947	275423
19.52758	228686
19.53570	201492
19.54383	168017
19.55195	149121
19.56007	141234
19.56820	143441
19.57632	136347
19.58445	128503
19.59257	123530
19.60068	119624
19.60882	117837
19.61693	116491
19.62507	120881
19.63318	124845
19.64130	145562
19.64943	171888
19.65755	215605
19.66568	262153
19.67380	304811
19.68192	335762
19.69005	325188
19.69817	309506
19.70628	285759
19.71442	253105
19.72253	230789
19.73067	202834
19.73878	185019
19.74690	170367
19.75503	159073
19.76315	153405
19.77128	142483
19.77940	156213
19.78752	158116
19.79565	165571
19.80377	171550
19.81188	172979
19.82002	159190
19.82813	155106
19.83627	145760
19.84438	154595
19.85250	230604
19.86063	451049
19.86875	1036636
19.87688	2278595
19.88500	4063162
19.89312	6064806
19.90125	7754777
19.90937	8109446
19.91750	7158347
19.92562	5463998
19.93373	3729323
19.94187	2450530
19.94998	1698154
19.95810	1297572
19.96623	1099205
19.97435	947116
19.98248	853325
19.99060	790700
19.99872	718788
20.00685	690687
20.01497	631982
20.02310	590801
20.03122	571758
20.03933	522250
20.04747	453020
20.05558	390416
20.06372	337394
20.07183	281517
20.07995	251101
20.08808	233394
20.09620	218346
20.10432	194811
20.11245	189807
20.12057	173365
20.12870	168999
20.13682	158226
20.14493	150775
20.15307	151946
20.16118	167446
20.16932	170042
20.17743	173748
20.18555	194457
20.19368	197751
20.20180	196801
20.20992	188685
20.21805	183087
20.22617	173625
20.23430	167464
20.24242	172829
20.25053	182857
20.25867	206414
20.26678	238245
20.27492	268080
20.28303	290460
20.29115	299694
20.29928	284053
20.30740	253528
20.31553	226941
20.32365	195934
20.33177	166464
20.33990	149485
20.34802	134442
20.35613	124111
20.36427	115186
20.37238	104600
20.38052	95508
20.38863	93812
20.39675	94075
20.40488	90419
20.41300	96518
20.42113	92701
20.42925	107473
20.43737	110265
20.44550	119028
20.45362	125012
20.46173	131467
20.46987	133825
20.47798	133882
20.48612	130233
20.49423	120121
20.50235	103678
20.51048	96203
20.51860	89569
20.52673	89706
20.53485	84303
20.54297	83044
20.55110	88919
20.55922	87848
20.56735	86403
20.57547	78972
20.58358	79649
20.59172	77862
20.59983	79920
20.60795	75421
20.61608	77121
20.62420	73592
20.63233	82403
20.64045	78361
20.64857	83191
20.65670	82340
20.66482	85017
20.67295	81793
20.68107	75755
20.68918	73708
20.69732	75148
20.70543	79462
20.71357	73857
20.72168	70390
20.72980	72047
20.73793	75674
20.74605	69534
20.75417	75342
20.76230	77990
20.77042	87708
20.77855	98992
20.78667	117711
20.79478	171773
20.80292	245407
20.81103	340018
20.81917	400592
20.82728	440416
20.83540	390773
20.84353	313230
20.85165	223955
20.85978	161838
20.86790	126075
20.87602	102083
20.88415	103315
20.89227	90753
20.90038	91066
20.90852	87478
20.91663	83631
20.92477	82331
20.93288	81101
20.94100	84030
20.94913	78996
20.95725	76443
20.96538	76223
20.97350	74517
20.98162	70567
20.98975	73006
20.99787	68979
21.00598	71660
21.01412	70955
21.02223	72101
21.03037	74022
21.03848	77488
21.04660	73568
21.05473	73927
21.06285	76490
21.07098	71049
21.07910	71115
21.08722	74561
21.09535	69163
21.10347	66872
21.11160	67413
21.11972	70664
21.12783	72598
21.13597	81567
21.14408	90097
21.15220	100295
21.16033	115443
21.16845	116171
21.17658	117976
21.18470	106642
21.19282	96718
21.20095	87310
21.20907	83125
21.21720	76764
21.22532	71802
21.23343	71152
21.24157	75493
21.24968	74235
21.25780	69795
21.26593	66706
21.27405	65167
21.28218	68404
21.29030	67926
21.29842	63181
21.30655	63131
21.31467	59348
21.32280	64926
21.33092	64922
21.33903	65436
21.34717	62004
21.35528	64739
21.36342	68078
21.37153	63535
21.37965	66820
21.38778	80535
21.39590	88306
21.40402	102665
21.41215	108203
21.42027	111259
21.42840	108939
21.43652	100260
21.44463	92881
21.45277	82723
21.46088	75451
21.46902	71393
21.47713	74965
21.48525	70700
21.49338	68676
21.50150	66023
21.50963	60640
21.51775	66630
21.52587	66543
21.53400	63550
21.54212	62464
21.55023	60502
21.55837	64088
21.56648	66966
21.57462	69258
21.58273	73086
21.59085	78187
21.59898	82948
21.60710	85922
21.61523	99278
21.62335	99264
21.63147	102429
21.63960	105418
21.64772	109440
21.65583	114254
21.66397	117219
21.67208	115848
21.68022	118769
21.68833	106568
21.69645	109143
21.70458	97694
21.71270	89500
21.72083	92486
21.72895	80530
21.73707	79938
21.74520	72429
21.75332	75535
21.76145	73196
21.76957	74031
21.77768	74832
21.78582	74807
21.79393	77596
21.80205	80387
21.81018	86758
21.81830	89185
21.82643	93298
21.83455	98248
21.84267	102766
21.85080	93290
21.85892	80936
21.86705	83583
21.87517	74162
21.88328	72177
21.89142	80437
21.89953	66355
21.90767	70712
21.91578	65705
21.92390	68482
21.93203	67045
21.94015	63343
21.94827	63995
21.95640	54982
21.96452	56086
21.97265	52764
21.98077	52239
21.98888	54019
21.99702	55289
22.00513	59168
22.01327	57579
22.02138	61412
22.02950	58357
22.03763	56333
22.04575	61171
22.05387	56362
22.06200	55306
22.07012	55832
22.07825	51366
22.08637	52658
22.09448	53904
22.10262	54051
22.11073	54602
22.11887	53280
22.12698	58593
22.13510	58997
22.14323	55265
22.15135	61050
22.15948	53077
22.16760	55864
22.17572	54882
22.18385	53191
22.19197	56804
22.20008	53565
22.20822	52826
22.21633	55179
22.22447	56088
22.23258	53727
22.24070	54953
22.24883	52142
22.25695	54750
22.26508	55676
22.27320	62126
22.28132	59587
22.28945	64485
22.29757	66923
22.30568	68956
22.31382	66050
22.32193	66510
22.33007	67444
22.33818	64926
22.34630	63961
22.35443	64236
22.36255	62318
22.37068	61714
22.37880	62503
22.38692	67577
22.39505	86155
22.40317	103900
22.41130	125134
22.41942	140772
22.42753	154192
22.43567	148791
22.44378	128384
22.45190	119139
22.46003	100420
22.46815	89791
22.47628	86094
22.48440	99344
22.49252	109526
22.50065	124154
22.50877	126068
22.51690	121987
22.52502	109109
22.53313	104309
22.54127	97865
22.54938	84885
22.55752	80796
22.56563	76231
22.57375	72064
22.58188	71380
22.59000	67390
22.59812	64525
22.60625	65152
22.61437	57184
22.62250	60226
22.63062	63044
22.63873	60430
22.64687	61501
22.65498	61468
22.66312	69953
22.67123	61783
22.67935	67104
22.68748	69350
22.69560	72003
22.70372	79621
22.71185	84789
22.71997	89168
22.72810	86026
22.73622	85766
22.74433	77363
22.75247	73180
22.76058	69826
22.76872	68369
22.77683	73589
22.78495	73547
22.79308	79658
22.80120	103900
22.80933	106078
22.81745	111759
22.82557	106832
22.83370	98499
22.84182	87201
22.84993	80894
22.85807	78398
22.86618	74836
22.87432	78995
22.88243	89797
22.89055	95759
22.89868	115785
22.90680	136840
22.91493	178109
22.92305	191262
22.93117	211843
22.93930	200784
22.94742	176020
22.95555	140543
22.96367	120418
22.97178	100593
22.97992	88439
22.98803	84967
22.99615	77617
23.00428	75084
23.01240	70254
23.02053	69876
23.02865	67473
23.03677	62054
23.04490	63676
23.05302	63261
23.06115	73219
23.06927	71555
23.07738	74022
23.08552	77586
23.09363	75560
23.10175	75230
23.10988	76882
23.11800	72796
23.12613	71256
23.13425	74298
23.14237	75039
23.15050	73330
23.15862	73040
23.16675	77982
23.17487	73658
23.18298	73866
23.19112	75383
23.19923	75069
23.20737	75318
23.21548	76568
23.22360	75552
23.23173	73826
23.23985	77349
23.24797	74758
23.25610	83390
23.26422	90633
23.27235	89644
23.28047	88698
23.28858	82337
23.29672	79431
23.30483	82628
23.31297	78787
23.32108	81464
23.32920	87314
23.33733	106483
23.34545	132925
23.35358	183054
23.36170	247848
23.36982	329017
23.37795	440368
23.38607	557700
23.39418	657732
23.40232	736484
23.41043	813481
23.41857	853304
23.42668	840400
23.43480	846965
23.44293	804561
23.45105	770006
23.45918	717087
23.46730	676688
23.47542	627344
23.48355	568007
23.49167	526030
23.49978	477491
23.50792	458613
23.51603	416231
23.52417	377801
23.53228	352110
23.54040	323818
23.54853	307831
23.55665	298988
23.56478	285066
23.57290	295990
23.58102	299853
23.58915	310159
23.59727	322333
23.60540	331455
23.61352	322122
23.62163	299546
23.62977	276350
23.63788	247292
23.64600	246312
23.65413	250531
23.66225	270455
23.67038	276671
23.67850	263630
23.68662	231376
23.69475	205792
23.70287	182582
23.71100	158622
23.71912	149308
23.72723	144151
23.73537	149971
23.74348	172297
23.75160	242661
23.75973	447472
23.76785	878422
23.77598	1529544
23.78410	2402566
23.79222	3037516
23.80035	3243242
23.80847	3049871
23.81660	2577334
23.82472	2064360
23.83283	1559105
23.84097	1198196
23.84908	923134
23.85722	753379
23.86533	634405
23.87345	515297
23.88158	469915
23.88970	415859
23.89782	389988
23.90595	364265
23.91407	341045
23.92220	317249
23.93032	300840
23.93843	286722
23.94657	264564
23.95468	247221
23.96282	220302
23.97093	215101
23.97905	205995
23.98718	203438
23.99530	220094
24.00343	258903
24.01155	377573
24.01967	575608
24.02780	827574
24.03592	1013015
24.04403	1039835
24.05217	899542
24.06028	698944
24.06842	488551
24.07653	320101
24.08465	239420
24.09278	197700
24.10090	169352
24.10903	151090
24.11715	151517
24.12527	151784
24.13340	153158
24.14152	147981
24.14963	145576
24.15777	140051
24.16588	143930
24.17402	141847
24.18213	141807
24.19025	140123
24.19838	135317
24.20650	134735
24.21463	141833
24.22275	129975
24.23087	117070
24.23900	115066
24.24712	108888
24.25525	108494
24.26337	106907
24.27148	103144
24.27962	99164
24.28773	96636
24.29585	95583
24.30398	96008
24.31210	97462
24.32023	95294
24.32835	92364
24.33647	94134
24.34460	91697
24.35272	95006
24.36085	97056
24.36897	101190
24.37708	117281
24.38522	142160
24.39333	156670
24.40147	167507
24.40958	149277
24.41770	128430
24.42583	110194
24.43395	97604
24.44207	95639
24.45020	92991
24.45832	105900
24.46645	123436
24.47457	161068
24.48268	170880
24.49082	190825
24.49893	203554
24.50707	205723
24.51518	216160
24.52330	220403
24.53143	230321
24.53955	245782
24.54767	258976
24.55580	278221
24.56392	286268
24.57205	268427
24.58017	240426
24.58828	230925
24.59642	213980
24.60453	193248
24.61267	188597
24.62078	191520
24.62890	177486
24.63703	174760
24.64515	180575
24.65328	172361
24.66140	173327
24.66952	174324
24.67765	175139
24.68577	164342
24.69388	171485
24.70202	172956
24.71013	161904
24.71827	169799
24.72638	162544
24.73450	168408
24.74263	161139
24.75075	170280
24.75888	167381
24.76700	178299
24.77512	169993
24.78325	177232
24.79137	182499
24.79948	181752
24.80762	186217
24.81573	185104
24.82387	192052
24.83198	199058
24.84010	239219
24.84823	270249
24.85635	333412
24.86448	417027
24.87260	529678
24.88072	645557
24.88885	768107
24.89697	810177
24.90510	757670
24.91322	649577
24.92133	508165
24.92947	386872
24.93758	300109
24.94570	242715
24.95383	209097
24.96195	192566
24.97008	183635
24.97820	173527
24.98632	163206
24.99445	161122
25.00257	162926
25.01070	162160
25.01882	153574
25.02693	149862
25.03507	155136
25.04318	149585
25.05132	140813
25.05943	141366
25.06755	145339
25.07568	150102
25.08380	148669
25.09192	155207
25.10005	221242
25.10817	371968
25.11630	675241
25.12442	1263346
25.13253	2061944
25.14067	2885449
25.14878	3356579
25.15692	3244885
25.16503	2715074
25.17315	1957234
25.18128	1257704
25.18940	767007
25.19752	449387
25.20565	282529
25.21377	212737
25.22190	175550
25.23002	167708
25.23813	165073
25.24627	191043
25.25438	235224
25.26252	281941
25.27063	337765
25.27875	348365
25.28688	318075
25.29500	280275
25.30313	222701
25.31125	180045
25.31937	143835
25.32750	121258
25.33562	108836
25.34373	100083
25.35187	92392
25.35998	88321
25.36812	88594
25.37623	83099
25.38435	78274
25.39248	76602
25.40060	77778
25.40873	79422
25.41685	77662
25.42497	75100
25.43310	77029
25.44122	69941
25.44935	78930
25.45747	72479
25.46558	74447
25.47372	77343
25.48183	77385
25.48995	74633
25.49808	75183
25.50620	72517
25.51433	71613
25.52245	70463
25.53057	66777
25.53870	62306
25.54682	66681
25.55495	67882
25.56307	69369
25.57118	75951
25.57932	85232
25.58743	107412
25.59555	129619
25.60368	158857
25.61180	170141
25.61993	183302
25.62805	186021
25.63617	184244
25.64430	190459
25.65242	200198
25.66055	204320
25.66867	193141
25.67678	210789
25.68492	203722
25.69303	210488
25.70117	208511
25.70928	205304
25.71740	210580
25.72553	205638
25.73365	205620
25.74177	208544
25.74990	198120
25.75802	200622
25.76615	200241
25.77427	211423
25.78238	205263
25.79052	213272
25.79863	206816
25.80677	210790
25.81488	209845
25.82300	214725
25.83113	220644
25.83925	241547
25.84737	249118
25.85550	248777
25.86362	239989
25.87175	226462
25.87987	214467
25.88798	199820
25.89612	189585
25.90423	177967
25.91237	176741
25.92048	175582
25.92860	174146
25.93673	166429
25.94485	171980
25.95298	166371
25.96110	163274
25.96922	158249
25.97735	168321
25.98547	154205
25.99358	152221
26.00172	154524
26.00983	152075
26.01797	148386
26.02608	143911
26.03420	148365
26.04233	151997
26.05045	147984
26.05858	145109
26.06670	146195
26.07482	148664
26.08295	139821
26.09107	137711
26.09920	143604
26.10732	141055
26.11543	140904
26.12357	140890
26.13168	140634
26.13980	140560
26.14793	136513
26.15605	147994
26.16418	143282
26.17230	140646
26.18042	135851
26.18855	132769
26.19667	124997
26.20480	123448
26.21292	121946
26.22103	121037
26.22917	120228
26.23728	124428
26.24542	115227
26.25353	114957
26.26165	114421
26.26978	111072
26.27790	109272
26.28602	107186
26.29415	110612
26.30227	108323
26.31040	105422
26.31852	104053
26.32663	99163
26.33477	99647
26.34288	102647
26.35102	95054
26.35913	96767
26.36725	98002
26.37538	103572
26.38350	101546
26.39162	104157
26.39975	107609
26.40787	107434
26.41600	115265
26.42412	111678
26.43223	103443
26.44037	94296
26.44848	97536
26.45662	98928
26.46473	96583
26.47285	94711
26.48098	100675
26.48910	94912
26.49723	90031
26.50535	89507
26.51347	88403
26.52160	83201
26.52972	82769
26.53783	80111
26.54597	76108
26.55408	80278
26.56222	83289
26.57033	85321
26.57845	79324
26.58658	76553
26.59470	77573
26.60283	73476
26.61095	74823
26.61907	78471
26.62720	74880
26.63532	74080
26.64343	75190
26.65157	79243
26.65968	81489
26.66782	85175
26.67593	84957
26.68405	91071
26.69218	81898
26.70030	73600
26.70843	75387
26.71655	75054
26.72467	73614
26.73280	69731
26.74092	70835
26.74905	71791
26.75717	65799
26.76528	70203
26.77342	71342
26.78153	72994
26.78965	73332
26.79778	75693
26.80590	79044
26.81403	84204
26.82215	78113
26.83027	73843
26.83840	75634
26.84652	74566
26.85465	69352
26.86277	71132
26.87088	68520
26.87902	65957
26.88713	63579
26.89527	64739
26.90338	61838
26.91150	62233
26.91963	63967
26.92775	65311
26.93587	66147
26.94400	64310
26.95212	65688
26.96025	73943
26.96837	77303
26.97648	102589
26.98462	134775
26.99273	200876
27.00087	284432
27.00898	397323
27.01710	515369
27.02523	614551
27.03335	670696
27.04147	641944
27.04960	598517
27.05772	518872
27.06585	436444
27.07397	369713
27.08208	307414
27.09022	255347
27.09833	228000
27.10647	210027
27.11458	197842
27.12270	175958
27.13083	170876
27.13895	164497
27.14708	150728
27.15520	144153
27.16332	137789
27.17145	138197
27.17957	143782
27.18768	136821
27.19582	136055
27.20393	131128
27.21207	123254
27.22018	121474
27.22830	113596
27.23643	110206
27.24455	103604
27.25268	103329
27.26080	98839
27.26892	100939
27.27705	92631
27.28517	86927
27.29330	85418
27.30142	87555
27.30953	94077
27.31767	81559
27.32578	83546
27.33390	78453
27.34203	82402
27.35015	80061
27.35828	78665
27.36640	82537
27.37452	79613
27.38265	84010
27.39077	77734
27.39890	77380
27.40702	71484
27.41513	68074
27.42327	70951
27.43138	69078
27.43950	68550
27.44763	66904
27.45575	65687
27.46388	68811
27.47200	70496
27.48012	68975
27.48825	64024
27.49637	67802
27.50450	67380
27.51262	72573
27.52073	71156
27.52887	82709
27.53698	70854
27.54512	71079
27.55323	68745
27.56135	68999
27.56948	74749
27.57760	79347
27.58572	87342
27.59385	93191
27.60197	98625
27.61010	92000
27.61822	89746
27.62633	87255
27.63447	80347
27.64258	72607
27.65072	71232
27.65883	64163
27.66695	73202
27.67508	71533
27.68320	74961
27.69132	73830
27.69945	70571
27.70757	74925
27.71570	69895
27.72382	66484
27.73193	63205
27.74007	62260
27.74818	59445
27.75632	62991
27.76443	58635
27.77255	60730
27.78068	62505
27.78880	62715
27.79693	63101
27.80505	59702
27.81317	63635
27.82130	61058
27.82942	61293
27.83753	58073
27.84567	56054
27.85378	66858
27.86192	58744
27.87003	55165
27.87815	55291
27.88628	56800
27.89440	56881
27.90253	52682
27.91065	56344
27.91877	51447
27.92690	51057
27.93502	50786
27.94315	52358
27.95127	51856
27.95938	52154
27.96752	51747
27.97563	52312
27.98375	56180
27.99188	57671
28.00000	55487
28.00813	60816
28.01625	63996
28.02437	72399
28.03250	86271
28.04062	97578
28.04875	105099
28.05687	101842
28.06498	98752
28.07312	98833
28.08123	86318
28.08935	77208
28.09748	71465
28.10560	66537
28.11373	65426
28.12185	61809
28.12997	58905
28.13810	55847
28.14622	54023
28.15435	53021
28.16247	54944
28.17058	55715
28.17872	59850
28.18683	68326
28.19497	74187
28.20308	84249
28.21120	93408
28.21933	96662
28.22745	98322
28.23557	92048
28.24370	84560
28.25182	77536
28.25995	67213
28.26807	63483
28.27618	58796
28.28432	56590
28.29243	61519
28.30057	62143
28.30868	72706
28.31680	85128
28.32493	90459
28.33305	104350
28.34118	118583
28.34930	145846
28.35742	157249
28.36555	169946
28.37367	179428
28.38178	202226
28.38992	209889
28.39803	206526
28.40617	212239
28.41428	200843
28.42240	205320
28.43053	186020
28.43865	172381
28.44678	158919
28.45490	145155
28.46302	153509
28.47115	132813
28.47927	123860
28.48738	117139
28.49552	109885
28.50363	115166
28.51177	101339
28.51988	104278
28.52800	97608
28.53613	92426
28.54425	90953
28.55238	83662
28.56050	84202
28.56862	81095
28.57675	78792
28.58487	72846
28.59300	76796
28.60112	75182
28.60923	72656
28.61737	77284
28.62548	70140
28.63360	80368
28.64173	75883
28.64985	79824
28.65798	76576
28.66610	82136
28.67422	79791
28.68235	75894
28.69047	79008
28.69860	69789
28.70672	74812
28.71483	65445
28.72297	66995
28.73108	62791
28.73920	74204
28.74733	76573
28.75545	86463
28.76358	90363
28.77170	85791
28.77982	90517
28.78795	84529
28.79607	77529
28.80420	71092
28.81232	78014
28.82043	73507
28.82857	73956
28.83668	71211
28.84482	67582
28.85293	70800
28.86105	66463
28.86918	68916
28.87730	75816
28.88542	89740
28.89355	80128
28.90167	82805
28.90980	82762
28.91792	80681
28.92603	76159
28.93417	72577
28.94228	63856
28.95042	70210
28.95853	63317
28.96665	68054
28.97478	64170
28.98290	60729
28.99103	61626
28.99915	57158
29.00727	56844
29.01540	58896
29.02352	54705
29.03163	51410
29.03977	54743
29.04788	56554
29.05602	56866
29.06413	54342
29.07225	57265
29.08038	63743
29.08850	60276
29.09663	57859
29.10475	60648
29.11287	55860
29.12100	56000
29.12912	53154
29.13723	52125
29.14537	51710
29.15348	55430
29.16162	54947
29.16973	54751
29.17785	57560
29.18598	66934
29.19410	80060
29.20223	92846
29.21035	106727
29.21847	116279
29.22660	117036
29.23472	115916
29.24285	123414
29.25097	129571
29.25908	146743
29.26722	157472
29.27533	163079
29.28345	149543
29.29158	128404
29.29970	106233
29.30783	80102
29.31595	67664
29.32407	61913
29.33220	58474
29.34032	52444
29.34845	54030
29.35657	53830
29.36468	55439
29.37282	53621
29.38093	53133
29.38907	56603
29.39718	52149
29.40530	51861
29.41343	54642
29.42155	58137
29.42967	49290
29.43780	54818
29.44592	55183
29.45405	55463
29.46217	50518
29.47028	50852
29.47842	54103
29.48653	51943
29.49467	53719
29.50278	55280
29.51090	54829
29.51903	54777
29.52715	53776
29.53527	52934
29.54340	50597
29.55152	49646
29.55965	46053
29.56777	47056
29.57588	49912
29.58402	48219
29.59213	47965
29.60027	44486
29.60838	47203
29.61650	47545
29.62463	49025
29.63275	52391
29.64088	47160
29.64900	48181
29.65712	46312
29.66525	47881
29.67337	51775
29.68148	53557
29.68962	60752
29.69773	57154
29.70587	55300
29.71398	55285
29.72210	57349
29.73023	55181
29.73835	57303
29.74648	55934
29.75460	55896
29.76272	49581
29.77085	50260
29.77897	47227
29.78710	44393
29.79522	43034
29.80333	48191
29.81147	48229
29.81958	45370
29.82770	44001
29.83583	45161
29.84395	47459
29.85208	45469
29.86020	44217
29.86832	51337
29.87645	57568
29.88457	69556
29.89270	84975
29.90082	88968
29.90893	91329
29.91707	82674
29.92518	73383
29.93330	66529
29.94143	63049
29.94955	62377
29.95768	60694
29.96580	74739
29.97392	77116
29.98205	80358
29.99017	88139
29.99830	98050
30.00642	99974
30.01453	109119
30.02267	109861
30.03078	113379
30.03892	116870
30.04703	116590
30.05515	122688
30.06328	109387
30.07140	115705
30.07952	114794
30.08765	115872
30.09577	110496
30.10390	113604
30.11202	111572
30.12013	104303
30.12827	99418
30.13638	98830
30.14452	97232
30.15263	92459
30.16075	94189
30.16888	86376
30.17700	83435
30.18512	89853
30.19325	85641
30.20137	84846
30.20950	80653
30.21762	79054
30.22573	74425
30.23387	75557
30.24198	72394
30.25012	69752
30.25823	64595
30.26635	69593
30.27448	66251
30.28260	57224
30.29073	61144
30.29885	60886
30.30697	59141
30.31510	63725
30.32322	61675
30.33133	63118
30.33947	58620
30.34758	56019
30.35572	59990
30.36383	57384
30.37195	60163
30.38008	53982
30.38820	51546
30.39633	50230
30.40445	54809
30.41257	50328
30.42070	51118
30.42882	52436
30.43695	46870
30.44507	49580
30.45318	49095
30.46132	52564
30.46943	49859
30.47755	52650
30.48568	45988
30.49380	51529
30.50193	50536
30.51005	48889
30.51817	49083
30.52630	50523
30.53442	48462
30.54255	49419
30.55067	51460
30.55878	52526
30.56692	51745
30.57503	47988
30.58315	48691
30.59128	46571
30.59940	47969
30.60753	52272
30.61565	51187
30.62377	48349
30.63190	49795
30.64002	48159
30.64815	47240
30.65627	44583
30.66438	46911
30.67252	43024
30.68063	43399
30.68877	44908
30.69688	46256
30.70500	51040
30.71313	57229
30.72125	64795
30.72937	74451
30.73750	74609
30.74562	81173
30.75375	78290
30.76187	80892
30.76998	87838
30.77812	101167
30.78623	116861
30.79437	128748
30.80248	149650
30.81060	150569
30.81873	150396
30.82685	150762
30.83498	135962
30.84310	122424
30.85122	117535
30.85935	104214
30.86747	101392
30.87558	97768
30.88372	101475
30.89183	101340
30.89997	102914
30.90808	99047
30.91620	97813
30.92433	98392
30.93245	99933
30.94058	97181
30.94870	100660
30.95682	96913
30.96495	99242
30.97307	98404
30.98118	95104
30.98932	97011
30.99743	94564
31.00557	96126
31.01368	93990
31.02180	95819
31.02993	96257
31.03805	102002
31.04618	101015
31.05430	98263
31.06242	106355
31.07055	103914
31.07867	102595
31.08680	104678
31.09492	115568
31.10303	120634
31.11117	122447
31.11928	122411
31.12740	113026
31.13553	108044
31.14365	103339
31.15178	104855
31.15990	100249
31.16802	98703
31.17615	104671
31.18427	109033
31.19240	125960
31.20052	160144
31.20863	193010
31.21677	223035
31.22488	234846
31.23300	245042
31.24113	219801
31.24925	185104
31.25738	158134
31.26550	125776
31.27362	104881
31.28175	92488
31.28987	87226
31.29800	87416
31.30612	83607
31.31423	80571
31.32237	87330
31.33048	83722
31.33862	87850
31.34673	81691
31.35485	85671
31.36298	82587
31.37110	83264
31.37922	82820
31.38735	90547
31.39547	82820
31.40360	84381
31.41172	80773
31.41983	80759
31.42797	74752
31.43608	71848
31.44422	69390
31.45233	73239
31.46045	71547
31.46858	71881
31.47670	69933
31.48483	70613
31.49295	76764
31.50107	76860
31.50920	72985
31.51732	73556
31.52543	70774
31.53357	77287
31.54168	76858
31.54982	72646
31.55793	72162
31.56605	72255
31.57418	79278
31.58230	66131
31.59043	68102
31.59855	69731
31.60667	68406
31.61480	66452
31.62292	66719
31.63105	68941
31.63917	66572
31.64728	68498
31.65542	67181
31.66353	71465
31.67165	70701
31.67978	75158
31.68790	78904
31.69603	69104
31.70415	65574
31.71227	67032
31.72040	65904
31.72852	60241
31.73665	59111
31.74477	57565
31.75288	62381
31.76102	68586
31.76913	57998
31.77725	58746
31.78538	58588
31.79350	59467
31.80163	60079
31.80975	62233
31.81787	59633
31.82600	61516
31.83412	59537
31.84225	61325
31.85037	65019
31.85848	62711
31.86662	68867
31.87473	70228
31.88287	68377
31.89098	71631
31.89910	74842
31.90723	81643
31.91535	86751
31.92347	91946
31.93160	96511
31.93972	103450
31.94785	103174
31.95597	110995
31.96408	114035
31.97222	115625
31.98033	116254
31.98847	114695
31.99658	113681
32.00470	114177
32.01283	116679
32.02095	110617
32.02907	106986
32.03720	96536
32.04532	99288
32.05345	99050
32.06157	98535
32.06968	96146
32.07782	92871
32.08593	84169
32.09407	84990
32.10218	81435
32.11030	76165
32.11843	73747
32.12655	70945
32.13468	71424
32.14280	66868
32.15092	63933
32.15905	67085
32.16717	65206
32.17528	65251
32.18342	66849
32.19153	62766
32.19967	63881
32.20778	63927
32.21590	61650
32.22403	63291
32.23215	61312
32.24028	62669
32.24840	64666
32.25652	64095
32.26465	66475
32.27277	65679
32.28090	65982
32.28902	61739
32.29713	62748
32.30527	60058
32.31338	57844
32.32150	60065
32.32963	57444
32.33775	52154
32.34588	58001
32.35400	62896
32.36212	55903
32.37025	58235
32.37837	64104
32.38650	51133
32.39462	52052
32.40273	53854
32.41087	56929
32.41898	51195
32.42710	53472
32.43523	50698
32.44335	53047
32.45148	53172
32.45960	57160
32.46772	59783
32.47585	58756
32.48397	55654
32.49210	53530
32.50022	54870
32.50833	55071
32.51647	54173
32.52458	51525
32.53272	55534
32.54083	53151
32.54895	51529
32.55708	54568
32.56520	51525
32.57332	49613
32.58145	52692
32.58957	53360
32.59770	53499
32.60582	49678
32.61393	52535
32.62207	51947
32.63018	55314
32.63832	58678
32.64643	64972
32.65455	69129
32.66268	70200
32.67080	70105
32.67893	64030
32.68705	61808
32.69517	58250
32.70330	58270
32.71142	58272
32.71953	55282
32.72767	57564
32.73578	54255
32.74392	53124
32.75203	51623
32.76015	51771
32.76828	53142
32.77640	54769
32.78453	50991
32.79265	50591
32.80077	48249
32.80890	49285
32.81702	52986
32.82513	49760
32.83327	47495
32.84138	49108
32.84952	47258
32.85763	49905
32.86575	53947
32.87388	49714
32.88200	48671
32.89013	52027
32.89825	53474
32.90637	53083
32.91450	54540
32.92262	52224
32.93075	56531
32.93887	48714
32.94698	55346
32.95512	52557
32.96323	56380
32.97135	52810
32.97948	62852
32.98760	63682
32.99573	67576
33.00385	76896
33.01197	79511
33.02010	76068
33.02822	65114
33.03635	63616
33.04447	63053
33.05258	63546
33.06072	60106
33.06883	61487
33.07695	66142
33.08508	72536
33.09320	75638
33.10133	74568
33.10945	79703
33.11757	80095
33.12570	79721
33.13382	74352
33.14195	67955
33.15007	61514
33.15818	57189
33.16632	57251
33.17443	56008
33.18257	53948
33.19068	52885
33.19880	55425
33.20693	53227
33.21505	53243
33.22317	54118
33.23130	52660
33.23942	52041
33.24755	52776
33.25567	52334
33.26378	51152
33.27192	55097
33.28003	47229
33.28817	49780
33.29628	47762
33.30440	49606
33.31253	47413
33.32065	50160
33.32878	52905
33.33690	52177
33.34502	54638
33.35315	53582
33.36127	52735
33.36938	57305
33.37752	51753
33.38563	56641
33.39377	49820
33.40188	51783
33.41000	48130
33.41813	49063
33.42625	47186
33.43438	52145
33.44250	50785
33.45062	47667
33.45875	48435
33.46687	49311
33.47498	48258
33.48312	47018
33.49123	49970
33.49937	47277
33.50748	49366
33.51560	49220
33.52373	50713
33.53185	53299
33.53998	54707
33.54810	53009
33.55622	62478
33.56435	64991
33.57247	58527
33.58060	55937
33.58872	54708
33.59683	52318
33.60497	49288
33.61308	50742
33.62120	50027
33.62933	55664
33.63745	50182
33.64558	53674
33.65370	52895
33.66182	54556
33.66995	53969
33.67807	52940
33.68620	52001
33.69432	53708
33.70243	53014
33.71057	53149
33.71868	51006
33.72682	51983
33.73493	49706
33.74305	44499
33.75118	44866
33.75930	49246
33.76742	48019
33.77555	44213
33.78367	46373
33.79180	45683
33.79992	46870
33.80803	45256
33.81617	47780
33.82428	48330
33.83242	49541
33.84053	49116
33.84865	52170
33.85678	48760
33.86490	51878
33.87302	50719
33.88115	50459
33.88927	46975
33.89740	51564
33.90552	50767
33.91363	47976
33.92177	50132
33.92988	54637
33.93802	48685
33.94613	47677
33.95425	50796
33.96238	47433
33.97050	48118
33.97863	47500
33.98675	47640
33.99487	46152
34.00300	47236
34.01112	46773
34.01923	45390
34.02737	48878
34.03548	46419
34.04362	46276
34.05173	50578
34.05985	47256
34.06798	49568
34.07610	45635
34.08423	49729
34.09235	52098
34.10047	45689
34.10860	44680
34.11672	46499
34.12485	50685
34.13297	49276
34.14108	51232
34.14922	50505
34.15733	50679
34.16545	49572
34.17358	47686
34.18170	52236
34.18983	51108
34.19795	49172
34.20607	47362
34.21420	47235
34.22232	49338
34.23045	48410
34.23857	48953
34.24668	46618
34.25482	49481
34.26293	46129
34.27105	52211
34.27918	46495
34.28730	49739
34.29543	44297
34.30355	46621
34.31167	48396
34.31980	51911
34.32792	47865
34.33605	46938
34.34417	46729
34.35228	49191
34.36042	47480
34.36853	49380
34.37667	45638
34.38478	50235
34.39290	48176
34.40103	49500
34.40915	51162
34.41727	47100
34.42540	43781
34.43352	47931
34.44165	47028
34.44977	47750
34.45788	46881
34.46602	49088
34.47413	48202
34.48227	46275
34.49038	51668
34.49850	54181
34.50663	58345
34.51475	69071
34.52287	75468
34.53100	87327
34.53912	96848
34.54725	103678
34.55537	104813
34.56348	104443
34.57162	99193
34.57973	90959
34.58787	92414
34.59598	85449
34.60410	76578
34.61223	76492
34.62035	69955
34.62848	68539
34.63660	71632
34.64472	65645
34.65285	69100
34.66097	64489
34.66908	61838
34.67722	60274
34.68533	55188
34.69347	59448
34.70158	57640
34.70970	56041
34.71783	58635
34.72595	54690
34.73408	59374
34.74220	55443
34.75032	53967
34.75845	54274
34.76657	55801
34.77470	58973
34.78282	57540
34.79093	52533
34.79907	57362
34.80718	61593
34.81530	55746
34.82343	53905
34.83155	57258
34.83968	57841
34.84780	57717
34.85592	61012
34.86405	52916
34.87217	53848
34.88030	52389
34.88842	53948
34.89653	51930
34.90467	54756
34.91278	55312
34.92090	56863
34.92903	59931
34.93715	62108
34.94528	62520
34.95340	59011
34.96152	60566
34.96965	63717
34.97777	70991
34.98590	66509
34.99402	63242
35.00213	57588
35.01027	57803
35.01838	55527
35.02652	51251
35.03463	53845
35.04275	50079
35.05088	50758
35.05900	48468
35.06712	51010
35.07525	51635
35.08337	54172
35.09150	52192
35.09962	52113
35.10773	52890
35.11587	51521
35.12398	53735
35.13212	53733
35.14023	55045
35.14835	55898
35.15648	55136
35.16460	59037
35.17273	55460
35.18085	55390
35.18897	52685
35.19710	54000
35.20522	50384
35.21333	49670
35.22147	49105
35.22958	48456
35.23772	49377
35.24583	56213
35.25395	49558
35.26208	47640
35.27020	52305
35.27833	54376
35.28645	52474
35.29457	53426
35.30270	52071
35.31082	53337
35.31893	49949
35.32707	49816
35.33518	48873
35.34332	49352
35.35143	52081
35.35955	46736
35.36768	49101
35.37580	53532
35.38393	49117
35.39205	51369
35.40017	57734
35.40830	59254
35.41642	61138
35.42455	62074
35.43267	64003
35.44078	68206
35.44892	67920
35.45703	60256
35.46515	61279
35.47328	55770
35.48140	53993
35.48953	49026
35.49765	53353
35.50577	56100
35.51390	53599
35.52202	52566
35.53015	46576
35.53827	50218
35.54638	52499
35.55452	51478
35.56263	47657
35.57075	53371
35.57888	50253
35.58700	50190
35.59513	51239
35.60325	57141
35.61137	55709
35.61950	53593
35.62762	52137
35.63575	51987
35.64387	54134
35.65198	52214
35.66012	59380
35.66823	53223
35.67637	54715
35.68448	55539
35.69260	57165
35.70073	53151
35.70885	49806
35.71697	56196
35.72510	52031
35.73322	51144
35.74135	56723
35.74947	53191
35.75758	58332
35.76572	62034
35.77383	59806
35.78197	61439
35.79008	54290
35.79820	58195
35.80633	53901
35.81445	51763
35.82258	48406
35.83070	52524
35.83882	53453
35.84695	48776
35.85507	47925
35.86318	49035
35.87132	52295
35.87943	49633
35.88757	50292
35.89568	50438
35.90380	57714
35.91193	56456
35.92005	50938
35.92818	49463
35.93630	54512
35.94442	50347
35.95255	48762
35.96067	54824
35.96880	49728
35.97692	50239
35.98503	51462
35.99317	55145
36.00128	51221
36.00940	55636
36.01753	54028
36.02565	56921
36.03378	57158
36.04190	55232
36.05002	51675
36.05815	55862
36.06627	50062
36.07440	55839
36.08252	55406
36.09063	55112
36.09877	53560
36.10688	53588
36.11500	54027
36.12313	51333
36.13125	53774
36.13938	52290
36.14750	57673
36.15562	57847
36.16375	53836
36.17187	52987
36.18000	55286
36.18812	49466
36.19623	53956
36.20437	48510
36.21248	47489
36.22062	51525
36.22873	48234
36.23685	52210
36.24498	51781
36.25310	51288
36.26122	56893
36.26935	59130
36.27747	67600
36.28560	73578
36.29372	85395
36.30183	84570
36.30997	87745
36.31808	88816
36.32622	84977
36.33433	84013
36.34245	78891
36.35058	79431
36.35870	79341
36.36682	75053
36.37495	84615
36.38307	80004
36.39120	84760
36.39932	85515
36.40743	80712
36.41557	82454
36.42368	82721
36.43182	81089
36.43993	79341
36.44805	83432
36.45618	80889
36.46430	76406
36.47243	78315
36.48055	78364
36.48867	80049
36.49680	74138
36.50492	86814
36.51303	80497
36.52117	80262
36.52928	84724
36.53742	79606
36.54553	76305
36.55365	79317
36.56178	75150
36.56990	77283
36.57803	76160
36.58615	75082
36.59427	76301
36.60240	73579
36.61052	75156
36.61863	79428
36.62677	75928
36.63488	78478
36.64302	78352
36.65113	80404
36.65925	77515
36.66738	75268
36.67550	73556
36.68363	72843
36.69175	72598
36.69987	72827
36.70800	74047
36.71612	74240
36.72425	78075
36.73237	71478
36.74048	71785
36.74862	71380
36.75673	74213
36.76485	72921
36.77298	73222
36.78110	73145
36.78923	73441
36.79735	71474
36.80547	70451
36.81360	70826
36.82172	74332
36.82985	71045
36.83797	68268
36.84608	70158
36.85422	67102
36.86233	65183
36.87047	69662
36.87858	67147
36.88670	64865
36.89483	70223
36.90295	71625
36.91107	65279
36.91920	67769
36.92732	70756
36.93545	71032
36.94357	80664
36.95168	81267
36.95982	88676
36.96793	94862
36.97607	91537
36.98418	86192
36.99230	81562
37.00043	81380
37.00855	73668
37.01668	71119
37.02480	70335
37.03292	66485
37.04105	64818
37.04917	67945
37.05728	69443
37.06542	64868
37.07353	68552
37.08167	69155
37.08978	70259
37.09790	68286
37.10603	69060
37.11415	66474
37.12228	69890
37.13040	67714
37.13852	70066
37.14665	67262
37.15477	70388
37.16288	65916
37.17102	64551
37.17913	68597
37.18727	69629
37.19538	64461
37.20350	67029
37.21163	65804
37.21975	68949
37.22788	68418
37.23600	67619
37.24412	62815
37.25225	59693
37.26037	66435
37.26850	66672
37.27662	66022
37.28473	67948
37.29287	62862
37.30098	63420
37.30910	77409
37.31723	76475
37.32535	89513
37.33348	94088
37.34160	102122
37.34972	97849
37.35785	103070
37.36597	105187
37.37410	104000
37.38222	96231
37.39033	91488
37.39847	90549
37.40658	82323
37.41470	81588
37.42283	84973
37.43095	79017
37.43908	75871
37.44720	82425
37.45532	78011
37.46345	79179
37.47157	77801
37.47970	74702
37.48782	75886
