C:\MassHunter\GCMS\1\data\JTB-E18\JTB-E18-025-10.D Thu Sep 12 15:12:42 2019
Start of data points
2.09523,118269
2.10337,118203
2.11148,119673
2.11960,113200
2.12773,120380
2.13585,117846
2.14398,110241
2.15210,115532
2.16022,115715
2.16835,112723
2.17647,109562
2.18460,106060
2.19272,103805
2.20083,99201
2.20897,101216
2.21708,99851
2.22520,96797
2.23333,99950
2.24145,99791
2.24958,96458
2.25770,98201
2.26582,106663
2.27395,379287
2.28207,1541568
2.29020,1740756
2.29832,856549
2.30643,448810
2.31457,333261
2.32268,291788
2.33080,255490
2.33893,243841
2.34705,226271
2.35518,200150
2.36330,191498
2.37142,172680
2.37955,178016
2.38767,263459
2.39580,279617
2.40392,205172
2.41203,177347
2.42017,170108
2.42828,187019
2.43642,185561
2.44453,168712
2.45265,174449
2.46078,165361
2.46890,153421
2.47702,141648
2.48515,143918
2.49327,156759
2.50140,190732
2.50952,175425
2.51763,151101
2.52577,147226
2.53388,139127
2.54202,141286
2.55013,142277
2.55825,146963
2.56638,143061
2.57450,137201
2.58263,134681
2.59075,132942
2.59887,136819
2.60700,130846
2.61512,146296
2.62323,157507
2.63137,156881
2.63948,142022
2.64762,132461
2.65573,136521
2.66385,136482
2.67198,140396
2.68010,164194
2.68823,176428
2.69635,161246
2.70447,140407
2.71260,122654
2.72072,124473
2.72883,128386
2.73697,124714
2.74508,127270
2.75322,123905
2.76133,131369
2.76945,119479
2.77758,121954
2.78570,123355
2.79383,118049
2.80195,126568
2.81007,126120
2.81820,138197
2.82632,208407
2.83445,481005
2.84257,637344
2.85068,421562
2.85882,262210
2.86693,232621
2.87505,210952
2.88318,179234
2.89130,151692
2.89943,143126
2.90755,141722
2.91567,132376
2.92380,128164
2.93192,124056
2.94005,126093
2.94817,121034
2.95628,121535
2.96442,120465
2.97253,117086
2.98067,118567
2.98878,118685
2.99690,131737
3.00503,137465
3.01315,156648
3.02127,173611
3.02940,256551
3.03752,489202
3.04565,722131
3.05377,1553224
3.06188,4402272
3.07002,6544549
3.07813,4798155
3.08627,2374449
3.09438,1270425
3.10250,813833
3.11063,609884
3.11875,468070
3.12687,384263
3.13500,313562
3.14312,265860
3.15125,236905
3.15937,225682
3.16748,207363
3.17562,199668
3.18373,194102
3.19187,177857
3.19998,172090
3.20810,156481
3.21623,157434
3.22435,162155
3.23248,169886
3.24060,165448
3.24872,156717
3.25685,145512
3.26497,139756
3.27308,142098
3.28122,189934
3.28933,517067
3.29747,1730755
3.30558,4104909
3.31370,5961210
3.32183,5591439
3.32995,3989063
3.33808,2642046
3.34620,1864165
3.35432,1408216
3.36245,1123153
3.37057,985076
3.37868,1013886
3.38682,1103747
3.39493,992215
3.40307,937703
3.41118,1564325
3.41930,2757848
3.42743,2984054
3.43555,2019408
3.44368,1142879
3.45180,747390
3.45992,596253
3.46805,534965
3.47617,466717
3.48430,413774
3.49242,382389
3.50053,348580
3.50867,328177
3.51678,314800
3.52490,294739
3.53303,289937
3.54115,275199
3.54928,264718
3.55740,260163
3.56552,250100
3.57365,250801
3.58177,242995
3.58990,245096
3.59802,240700
3.60613,234762
3.61427,258509
3.62238,444416
3.63052,984305
3.63863,1658364
3.64675,1755797
3.65488,1210613
3.66300,721167
3.67112,479921
3.67925,373009
3.68737,313718
3.69550,305060
3.70362,273796
3.71173,248101
3.71987,238770
3.72798,237857
3.73612,239384
3.74423,233338
3.75235,234795
3.76048,231389
3.76860,226899
3.77673,219343
3.78485,213807
3.79297,206097
3.80110,208417
3.80922,197271
3.81733,212101
3.82547,205817
3.83358,207455
3.84172,210242
3.84983,199342
3.85795,191289
3.86608,182502
3.87420,179522
3.88233,181014
3.89045,174704
3.89857,188192
3.90670,181655
3.91482,185775
3.92293,175727
3.93107,172027
3.93918,176972
3.94732,172451
3.95543,164836
3.96355,175028
3.97168,176632
3.97980,170192
3.98793,166287
3.99605,167896
4.00417,164262
4.01230,168816
4.02042,163238
4.02855,172087
4.03667,162486
4.04478,165258
4.05292,171529
4.06103,168228
4.06915,176233
4.07728,179130
4.08540,169880
4.09353,170690
4.10165,163451
4.10977,157944
4.11790,161952
4.12602,162984
4.13415,170824
4.14227,174609
4.15038,194070
4.15852,195044
4.16663,199362
4.17475,179899
4.18288,170634
4.19100,172244
4.19913,157105
4.20725,161086
4.21537,160415
4.22350,171970
4.23162,203989
4.23975,236477
4.24787,234932
4.25598,209706
4.26412,191426
4.27223,170556
4.28037,171352
4.28848,154147
4.29660,155224
4.30473,164189
4.31285,150400
4.32097,158125
4.32910,162196
4.33722,160355
4.34535,154376
4.35347,154092
4.36158,150405
4.36972,159630
4.37783,152249
4.38597,159261
4.39408,151222
4.40220,151002
4.41033,145029
4.41845,150442
4.42658,146945
4.43470,157551
4.44282,159641
4.45095,159009
4.45907,166499
4.46718,174805
4.47532,177593
4.48343,160427
4.49157,153275
4.49968,148443
4.50780,154943
4.51593,155148
4.52405,148574
4.53218,149663
4.54030,145750
4.54842,146564
4.55655,151495
4.56467,144791
4.57278,149171
4.58092,152146
4.58903,141784
4.59717,140721
4.60528,140771
4.61340,140007
4.62153,134883
4.62965,139552
4.63778,143551
4.64590,141230
4.65402,138976
4.66215,139783
4.67027,134550
4.67840,138033
4.68652,144411
4.69463,141853
4.70277,142600
4.71088,138291
4.71900,140385
4.72713,136155
4.73525,139727
4.74338,142074
4.75150,139176
4.75962,134694
4.76775,145697
4.77587,139210
4.78400,138020
4.79212,132967
4.80023,137221
4.80837,137922
4.81648,149333
4.82462,138308
4.83273,139180
4.84085,139553
4.84898,143218
4.85710,138980
4.86522,150650
4.87335,157473
4.88147,152522
4.88960,148499
4.89772,141830
4.90583,146690
4.91397,155493
4.92208,203864
4.93022,446543
4.93833,1018709
4.94645,2003904
4.95458,2865662
4.96270,3089837
4.97082,2612078
4.97895,1860352
4.98707,1299877
4.99520,916881
5.00332,695966
5.01143,572302
5.01957,475748
5.02768,403394
5.03582,366793
5.04393,334822
5.05205,301069
5.06018,289861
5.06830,264092
5.07643,253148
5.08455,248763
5.09267,255195
5.10080,258503
5.10892,289845
5.11703,329395
5.12517,342130
5.13328,317232
5.14142,281030
5.14953,252629
5.15765,238817
5.16578,230751
5.17390,259005
5.18203,286215
5.19015,323152
5.19827,321276
5.20640,281723
5.21452,252716
5.22263,226513
5.23077,212587
5.23888,206215
5.24702,210188
5.25513,205164
5.26325,192136
5.27138,184886
5.27950,185515
5.28763,187574
5.29575,187916
5.30387,192187
5.31200,175947
5.32012,178667
5.32825,174225
5.33637,186626
5.34448,185082
5.35262,184157
5.36073,178381
5.36885,174577
5.37698,161193
5.38510,163616
5.39323,160725
5.40135,157725
5.40947,162708
5.41760,160228
5.42572,162408
5.43385,162747
5.44197,161962
5.45008,161538
5.45822,158757
5.46633,161210
5.47447,153037
5.48258,162084
5.49070,154250
5.49883,157426
5.50695,153408
5.51507,147573
5.52320,154474
5.53132,155819
5.53945,151425
5.54757,158574
5.55568,148749
5.56382,149024
5.57193,151928
5.58007,158993
5.58818,163032
5.59630,163789
5.60443,162056
5.61255,163925
5.62067,171310
5.62880,187028
5.63692,193344
5.64505,191590
5.65317,189790
5.66128,178915
5.66942,174045
5.67753,168329
5.68567,170650
5.69378,179022
5.70190,186726
5.71003,192028
5.71815,193461
5.72628,202272
5.73440,210797
5.74252,199766
5.75065,195748
5.75877,193472
5.76688,202432
5.77502,210943
5.78313,210157
5.79127,204683
5.79938,193573
5.80750,243759
5.81563,366224
5.82375,598309
5.83188,842800
5.84000,948395
5.84812,857034
5.85625,648951
5.86437,463501
5.87250,320758
5.88062,261125
5.88873,214225
5.89687,201365
5.90498,201647
5.91310,231976
5.92123,297012
5.92935,401394
5.93748,453859
5.94560,430802
5.95372,353663
5.96185,263565
5.96997,203756
5.97810,182784
5.98622,175058
5.99433,161010
6.00247,146518
6.01058,129726
6.01870,127081
6.02683,124935
6.03495,123451
6.04308,113347
6.05120,116751
6.05932,117906
6.06745,115194
6.07557,114205
6.08370,108099
6.09182,111377
6.09993,104634
6.10807,107514
6.11618,102998
6.12432,99691
6.13243,104920
6.14055,105671
6.14868,100954
6.15680,107714
6.16492,103490
6.17305,116773
6.18117,124496
6.18930,138958
6.19742,148926
6.20553,156172
6.21367,164552
6.22178,159805
6.22992,146609
6.23803,137236
6.24615,135512
6.25428,138593
6.26240,142720
6.27053,137511
6.27865,147443
6.28677,141228
6.29490,146704
6.30302,140320
6.31113,157840
6.31927,156233
6.32738,157573
6.33552,162225
6.34363,154423
6.35175,162719
6.35988,168435
6.36800,178726
6.37613,175957
6.38425,182331
6.39237,172901
6.40050,180404
6.40862,181887
6.41673,181589
6.42487,181121
6.43298,183959
6.44112,191233
6.44923,192351
6.45735,200661
6.46548,204656
6.47360,196235
6.48173,201469
6.48985,206412
6.49797,205530
6.50610,205410
6.51422,210186
6.52235,173158
6.53047,148895
6.53858,142864
6.54672,134834
6.55483,137095
6.56295,132125
6.57108,125611
6.57920,124273
6.58733,122404
6.59545,113281
6.60357,118467
6.61170,120027
6.61982,113534
6.62795,118643
6.63607,106464
6.64418,112633
6.65232,102319
6.66043,107034
6.66855,107871
6.67668,107232
6.68480,105024
6.69293,105707
6.70105,101890
6.70917,105167
6.71730,112262
6.72542,125670
6.73355,142538
6.74167,167909
6.74978,179370
6.75792,179577
6.76603,157483
6.77417,140685
6.78228,118310
6.79040,110743
6.79853,102893
6.80665,102806
6.81477,97350
6.82290,101896
6.83102,97003
6.83915,98087
6.84727,99493
6.85538,124705
6.86352,183741
6.87163,287144
6.87977,442813
6.88788,565084
6.89600,615561
6.90413,550657
6.91225,417914
6.92038,294692
6.92850,195029
6.93662,135822
6.94475,107815
6.95287,96625
6.96098,89266
6.96912,81307
6.97723,76296
6.98537,82264
6.99348,75258
7.00160,77469
7.00973,81884
7.01785,102393
7.02598,127919
7.03410,174202
7.04222,226750
7.05035,252224
7.05847,266120
7.06658,221998
7.07472,186062
7.08283,149599
7.09097,122796
7.09908,109065
7.10720,103695
7.11533,94375
7.12345,93095
7.13158,91119
7.13970,87073
7.14782,87512
7.15595,80443
7.16407,81231
7.17220,80051
7.18032,71066
7.18843,73363
7.19657,76157
7.20468,76942
7.21280,79161
7.22093,88103
7.22905,86550
7.23718,86321
7.24530,84647
7.25342,87698
7.26155,92819
7.26967,103374
7.27780,103441
7.28592,112731
7.29403,123753
7.30217,117930
7.31028,110415
7.31842,95968
7.32653,90031
7.33465,93694
7.34278,89153
7.35090,99388
7.35902,99334
7.36715,100659
7.37527,94525
7.38340,102189
7.39152,112098
7.39963,143500
7.40777,180465
7.41588,203588
7.42402,200349
7.43213,183906
7.44025,152460
7.44838,127249
7.45650,115382
7.46462,97915
7.47275,94757
7.48087,86798
7.48900,89936
7.49712,98014
7.50523,115775
7.51337,140941
7.52148,146959
7.52962,150171
7.53773,140676
7.54585,118793
7.55398,103075
7.56210,94595
7.57023,83073
7.57835,77704
7.58647,69529
7.59460,74359
7.60272,72024
7.61083,70358
7.61897,68486
7.62708,68628
7.63522,66361
7.64333,65926
7.65145,72101
7.65958,70161
7.66770,69972
7.67583,68465
7.68395,70785
7.69207,63552
7.70020,66879
7.70832,66037
7.71643,63406
7.72457,64656
7.73268,64022
7.74082,62130
7.74893,62581
7.75705,62151
7.76518,64331
7.77330,62516
7.78143,65126
7.78955,61227
7.79767,61998
7.80580,61639
7.81392,66610
7.82205,61863
7.83017,60348
7.83828,58201
7.84642,57715
7.85453,56163
7.86265,55845
7.87078,65197
7.87890,60291
7.88703,64552
7.89515,64011
7.90327,62084
7.91140,59559
7.91952,61031
7.92765,64210
7.93577,61084
7.94388,55641
7.95202,57845
7.96013,59047
7.96827,62465
7.97638,65803
7.98450,72561
7.99263,64436
8.00075,60388
8.00887,58675
8.01700,60663
8.02512,58033
8.03325,57086
8.04137,60324
8.04948,60680
8.05762,58719
8.06573,56713
8.07387,57765
8.08198,58739
8.09010,57243
8.09823,61123
8.10635,61444
8.11447,60294
8.12260,58246
8.13072,56578
8.13885,61342
8.14697,58870
8.15508,62655
8.16322,65003
8.17133,65622
8.17947,66393
8.18758,61984
8.19570,63325
8.20383,64017
8.21195,61237
8.22008,62826
8.22820,58691
8.23632,62030
8.24445,60792
8.25257,61721
8.26068,61544
8.26882,57459
8.27693,58831
8.28507,60651
8.29318,61279
8.30130,58527
8.30943,60461
8.31755,55484
8.32568,62704
8.33380,63589
8.34192,65371
8.35005,71952
8.35817,71085
8.36630,75296
8.37442,68589
8.38253,65732
8.39067,64679
8.39878,60337
8.40690,64120
8.41503,62238
8.42315,55376
8.43128,62123
8.43940,58852
8.44752,56345
8.45565,58811
8.46377,57466
8.47190,58198
8.48002,56397
8.48813,60128
8.49627,61093
8.50438,74142
8.51250,78364
8.52063,86973
8.52875,84696
8.53688,78171
8.54500,73604
8.55312,67636
8.56125,70009
8.56937,70012
8.57750,69423
8.58562,66840
8.59373,66314
8.60187,63123
8.60998,59365
8.61812,58080
8.62623,61387
8.63435,65832
8.64248,65936
8.65060,64377
8.65872,60850
8.66685,64129
8.67497,58628
8.68310,60136
8.69122,60643
8.69933,65607
8.70747,65803
8.71558,68600
8.72372,71595
8.73183,80519
8.73995,112015
8.74808,222225
8.75620,436829
8.76432,763117
8.77245,994710
8.78057,1031461
8.78870,877599
8.79682,618067
8.80493,409234
8.81307,277754
8.82118,213638
8.82932,178142
8.83743,152666
8.84555,136952
8.85368,128456
8.86180,122262
8.86993,111117
8.87805,106394
8.88617,102906
8.89430,95982
8.90242,97804
8.91053,94342
8.91867,92195
8.92678,94822
8.93492,93336
8.94303,87003
8.95115,87233
8.95928,81284
8.96740,84958
8.97553,81570
8.98365,81708
8.99177,81686
8.99990,80408
9.00802,79851
9.01615,83259
9.02427,84851
9.03238,86021
9.04052,80250
9.04863,78327
9.05675,74265
9.06488,76026
9.07300,80832
9.08113,70475
9.08925,73757
9.09737,72607
9.10550,77694
9.11362,77350
9.12175,77785
9.12987,74565
9.13798,77406
9.14612,69768
9.15423,74402
9.16237,73634
9.17048,76970
9.17860,74068
9.18673,70943
9.19485,73272
9.20297,70412
9.21110,68692
9.21922,73468
9.22735,69404
9.23547,69411
9.24358,66680
9.25172,69027
9.25983,73647
9.26797,71870
9.27608,71949
9.28420,83644
9.29233,85842
9.30045,94573
9.30857,89372
9.31670,85119
9.32482,81875
9.33295,75252
9.34107,73028
9.34918,70430
9.35732,73935
9.36543,74397
9.37357,72403
9.38168,70551
9.38980,66787
9.39793,64867
9.40605,62822
9.41418,66581
9.42230,63796
9.43042,64640
9.43855,62759
9.44667,59994
9.45478,61890
9.46292,60119
9.47103,60484
9.47917,58232
9.48728,56636
9.49540,63752
9.50353,59785
9.51165,56894
9.51978,62004
9.52790,62839
9.53602,61074
9.54415,56697
9.55227,56182
9.56038,56649
9.56852,51762
9.57663,49212
9.58477,55752
9.59288,59677
9.60100,62744
9.60913,61040
9.61725,60566
9.62538,55611
9.63350,52475
9.64162,56112
9.64975,58119
9.65787,60605
9.66600,56526
9.67412,56401
9.68223,52219
9.69037,50868
9.69848,48596
9.70660,47422
9.71473,45879
9.72285,43131
9.73098,43096
9.73910,46168
9.74722,42527
9.75535,41682
9.76347,43466
9.77160,44967
9.77972,42050
9.78783,42618
9.79597,38633
9.80408,40906
9.81222,41963
9.82033,42523
9.82845,42631
9.83658,39110
9.84470,43013
9.85282,46147
9.86095,43805
9.86907,41481
9.87720,44794
9.88532,44161
9.89343,40060
9.90157,43398
9.90968,41198
9.91782,42240
9.92593,44333
9.93405,40952
9.94218,41469
9.95030,44002
9.95842,46243
9.96655,52925
9.97467,70057
9.98280,82868
9.99092,88603
9.99903,85436
10.00717,76124
10.01528,66089
10.02342,60068
10.03153,51652
10.03965,56323
10.04778,54058
10.05590,53387
10.06403,47106
10.07215,48793
10.08027,49680
10.08840,48159
10.09652,50825
10.10463,44726
10.11277,46975
10.12088,46138
10.12902,44085
10.13713,41147
10.14525,41854
10.15338,43254
10.16150,44094
10.16963,43445
10.17775,39807
10.18587,39271
10.19400,43819
10.20212,40710
10.21025,39828
10.21837,42698
10.22648,44248
10.23462,47597
10.24273,48111
10.25085,51756
10.25898,46784
10.26710,46835
10.27523,46149
10.28335,48259
10.29147,44495
10.29960,46848
10.30772,48832
10.31585,45878
10.32397,45534
10.33208,41231
10.34022,43127
10.34833,43723
10.35645,38017
10.36458,44688
10.37270,43901
10.38083,44766
10.38895,46303
10.39707,47197
10.40520,46260
10.41332,47523
10.42145,50590
10.42957,47696
10.43768,43098
10.44582,43772
10.45393,42398
10.46207,40433
10.47018,40613
10.47830,40646
10.48643,43330
10.49455,41086
10.50267,39935
10.51080,42401
10.51892,45141
10.52705,43807
10.53517,42735
10.54328,41665
10.55142,46105
10.55953,42573
10.56767,42231
10.57578,41339
10.58390,43716
10.59203,42533
10.60015,43306
10.60827,42229
10.61640,41695
10.62452,41136
10.63265,40312
10.64077,39364
10.64888,39900
10.65702,43395
10.66513,41278
10.67327,40855
10.68138,43736
10.68950,41289
10.69763,43044
10.70575,40173
10.71388,45046
10.72200,43172
10.73012,46626
10.73825,46134
10.74637,48613
10.75448,43894
10.76262,47446
10.77073,49720
10.77887,53853
10.78698,48304
10.79510,44025
10.80323,41162
10.81135,41205
10.81948,38978
10.82760,42517
10.83572,40004
10.84385,41345
10.85197,40597
10.86010,41056
10.86822,38505
10.87633,35647
10.88447,39717
10.89258,35436
10.90070,39944
10.90883,40055
10.91695,36863
10.92508,38763
10.93320,39207
10.94132,34350
10.94945,37521
10.95757,36053
10.96570,39670
10.97382,41643
10.98193,42515
10.99007,45196
10.99818,43865
11.00630,45678
11.01443,43165
11.02255,39638
11.03068,39010
11.03880,39679
11.04692,36935
11.05505,40148
11.06317,35563
11.07130,36667
11.07942,39602
11.08753,37700
11.09567,35504
11.10378,37332
11.11192,38523
11.12003,38267
11.12815,40051
11.13628,38717
11.14440,39403
11.15252,40167
11.16065,43696
11.16877,41353
11.17690,46770
11.18502,43154
11.19313,43622
11.20127,40936
11.20938,43194
11.21752,43015
11.22563,39835
11.23375,38859
11.24188,43762
11.25000,39865
11.25813,38599
11.26625,39360
11.27437,43616
11.28250,45239
11.29062,50616
11.29873,55426
11.30687,68903
11.31498,78892
11.32312,83264
11.33123,84299
11.33935,83211
11.34748,81412
11.35560,78100
11.36373,73812
11.37185,71580
11.37997,62373
11.38810,58083
11.39622,55776
11.40433,47931
11.41247,43609
11.42058,42118
11.42872,44888
11.43683,44069
11.44495,39588
11.45308,38552
11.46120,37715
11.46933,37962
11.47745,35552
11.48557,34687
11.49370,34139
11.50182,38044
11.50995,37367
11.51807,39112
11.52618,43299
11.53432,43654
11.54243,44922
11.55055,47201
11.55868,48902
11.56680,47186
11.57493,48785
11.58305,45626
11.59117,48353
11.59930,45255
11.60742,48708
11.61555,46893
11.62367,46851
11.63178,43073
11.63992,37779
11.64803,37101
11.65617,36122
11.66428,37119
11.67240,39677
11.68053,42861
11.68865,46537
11.69677,51065
11.70490,58689
11.71302,63118
11.72115,68652
11.72927,62095
11.73738,60825
11.74552,55878
11.75363,56816
11.76177,52178
11.76988,50541
11.77800,53929
11.78613,47601
11.79425,48952
11.80237,47249
11.81050,46726
11.81862,42106
11.82675,46943
11.83487,44892
11.84298,41962
11.85112,43691
11.85923,45530
11.86737,42485
11.87548,45187
11.88360,40039
11.89173,38485
11.89985,37464
11.90798,37911
11.91610,39374
11.92422,39231
11.93235,46297
11.94047,41775
11.94858,45445
11.95672,48468
11.96483,50177
11.97297,52204
11.98108,50253
11.98920,50393
11.99733,49472
12.00545,49003
12.01358,46608
12.02170,46260
12.02982,44704
12.03795,41754
12.04607,40701
12.05418,40176
12.06232,38908
12.07043,40389
12.07857,38811
12.08668,36367
12.09480,37379
12.10293,36270
12.11105,39567
12.11918,38473
12.12730,37598
12.13542,39968
12.14355,38918
12.15167,38506
12.15980,36537
12.16792,41171
12.17603,39070
12.18417,36647
12.19228,39664
12.20040,36159
12.20853,37307
12.21665,36113
12.22478,39617
12.23290,37324
12.24102,41280
12.24915,37174
12.25727,38777
12.26540,33269
12.27352,35134
12.28163,34689
12.28977,33363
12.29788,34991
12.30602,35397
12.31413,35667
12.32225,33410
12.33038,34423
12.33850,37570
12.34662,34860
12.35475,40685
12.36287,35418
12.37100,31726
12.37912,36113
12.38723,35886
12.39537,36078
12.40348,34854
12.41162,35517
12.41973,37544
12.42785,39726
12.43598,41875
12.44410,41244
12.45222,40508
12.46035,41779
12.46847,44509
12.47660,38266
12.48472,40858
12.49283,37548
12.50097,38217
12.50908,33446
12.51722,35245
12.52533,36892
12.53345,34762
12.54158,35453
12.54970,35443
12.55783,34160
12.56595,35209
12.57407,35010
12.58220,34916
12.59032,34137
12.59843,33218
12.60657,32576
12.61468,36777
12.62282,34305
12.63093,35344
12.63905,32760
12.64718,36538
12.65530,32618
12.66343,35181
12.67155,35629
12.67967,34479
12.68780,34236
12.69592,32491
12.70405,33128
12.71217,36870
12.72028,41557
12.72842,44540
12.73653,47215
12.74465,55633
12.75278,56057
12.76090,49686
12.76903,47895
12.77715,44306
12.78527,41951
12.79340,38875
12.80152,39899
12.80965,38966
12.81777,40746
12.82588,40468
12.83402,39378
12.84213,37696
12.85025,44032
12.85838,40340
12.86650,42274
12.87463,38493
12.88275,36536
12.89087,34630
12.89900,33595
12.90712,36224
12.91525,39161
12.92337,34189
12.93148,34564
12.93962,35231
12.94773,37326
12.95587,39171
12.96398,49421
12.97210,55406
12.98023,61314
12.98835,68704
12.99647,77955
13.00460,79724
13.01272,72401
13.02085,78266
13.02897,67174
13.03708,58417
13.04522,55703
13.05333,54045
13.06147,47437
13.06958,48145
13.07770,46401
13.08583,42498
13.09395,40665
13.10207,42056
13.11020,37990
13.11832,41161
13.12645,39042
13.13457,41373
13.14268,40145
13.15082,37762
13.15893,39394
13.16707,36495
13.17518,39052
13.18330,37099
13.19143,40109
13.19955,37194
13.20768,41506
13.21580,36677
13.22392,40065
13.23205,43234
13.24017,39771
13.24828,36925
13.25642,38366
13.26453,40221
13.27267,42702
13.28078,44887
13.28890,45883
13.29703,45547
13.30515,50300
13.31328,46195
13.32140,48774
13.32952,49409
13.33765,50642
13.34577,50234
13.35390,50408
13.36202,44255
13.37013,49350
13.37827,47056
13.38638,44840
13.39450,43443
13.40263,39083
13.41075,40766
13.41888,36611
13.42700,36770
13.43512,38823
13.44325,36912
13.45137,34789
13.45950,37494
13.46762,35000
13.47573,36788
13.48387,34934
13.49198,35736
13.50012,32304
13.50823,35444
13.51635,34420
13.52448,35009
13.53260,32526
13.54072,35225
13.54885,39274
13.55697,33881
13.56510,37996
13.57322,39621
13.58133,46797
13.58947,43473
13.59758,46243
13.60572,52022
13.61383,48112
13.62195,48300
13.63008,46843
13.63820,48491
13.64632,51242
13.65445,55718
13.66257,50523
13.67070,50798
13.67882,50116
13.68693,50767
13.69507,47972
13.70318,42690
13.71132,40343
13.71943,41743
13.72755,39626
13.73568,41215
13.74380,35053
13.75193,38456
13.76005,36430
13.76817,37775
13.77630,43914
13.78442,36270
13.79253,39188
13.80067,40948
13.80878,38569
13.81692,39374
13.82503,36228
13.83315,38776
13.84128,36575
13.84940,38818
13.85753,43550
13.86565,40194
13.87377,37110
13.88190,39130
13.89002,36522
13.89813,38876
13.90627,39422
13.91438,43387
13.92252,44762
13.93063,45118
13.93875,47536
13.94688,45381
13.95500,45046
13.96313,45162
13.97125,45198
13.97937,43479
13.98750,41732
13.99562,40647
14.00375,42610
14.01187,43569
14.01998,41008
14.02812,42896
14.03623,42798
14.04435,42752
14.05248,44448
14.06060,43033
14.06873,42210
14.07685,44892
14.08497,41448
14.09310,43334
14.10122,41358
14.10935,44661
14.11747,45270
14.12558,43520
14.13372,47283
14.14183,56434
14.14995,90362
14.15808,146904
14.16620,229601
14.17433,294632
14.18245,325763
14.19057,290407
14.19870,226301
14.20682,167981
14.21495,129614
14.22307,107644
14.23118,95370
14.23932,91754
14.24743,85844
14.25557,83406
14.26368,81799
14.27180,78274
14.27993,73177
14.28805,69168
14.29617,65663
14.30430,59940
14.31242,62633
14.32055,58967
14.32867,54430
14.33678,48824
14.34492,44397
14.35303,40431
14.36117,37866
14.36928,37370
14.37740,38692
14.38553,38266
14.39365,38811
14.40178,39733
14.40990,40992
14.41802,40239
14.42615,37524
14.43427,36550
14.44238,36523
14.45052,37464
14.45863,34971
14.46677,40826
14.47488,37315
14.48300,37107
14.49113,33482
14.49925,39036
14.50738,40964
14.51550,37496
14.52362,34568
14.53175,36415
14.53987,34223
14.54800,35717
14.55612,35390
14.56423,34721
14.57237,36786
14.58048,37141
14.58860,37990
14.59673,37211
14.60485,33738
14.61298,31297
14.62110,38339
14.62922,34995
14.63735,31805
14.64547,34741
14.65360,36413
14.66172,36849
14.66983,34242
14.67797,34974
14.68608,31709
14.69420,32622
14.70233,35074
14.71045,34091
14.71858,35858
14.72670,34244
14.73482,38016
14.74295,33612
14.75107,37180
14.75920,38479
14.76732,36447
14.77543,37583
14.78357,32466
14.79168,38000
14.79982,36564
14.80793,37256
14.81605,35238
14.82418,36440
14.83230,38609
14.84042,33468
14.84855,35933
14.85667,36695
14.86480,39269
14.87292,37191
14.88103,39736
14.88917,36174
14.89728,39581
14.90542,40950
14.91353,38938
14.92165,35853
14.92978,37007
14.93790,36198
14.94602,36303
14.95415,39715
14.96227,35613
14.97040,34935
14.97852,35419
14.98663,36219
14.99477,33630
15.00288,34820
15.01102,32889
15.01913,33447
15.02725,33130
15.03538,31807
15.04350,31964
15.05163,34874
15.05975,33498
15.06787,33378
15.07600,35396
15.08412,35649
15.09223,34675
15.10037,31279
15.10848,32322
15.11662,34822
15.12473,33171
15.13285,33796
15.14098,29866
15.14910,32866
15.15723,35177
15.16535,32401
15.17347,34429
15.18160,33139
15.18972,36308
15.19785,33016
15.20597,32150
15.21408,34623
15.22222,34406
15.23033,34995
15.23845,32354
15.24658,32485
15.25470,31947
15.26283,36577
15.27095,31412
15.27907,32703
15.28720,35225
15.29532,33092
15.30345,34881
15.31157,32742
15.31968,34288
15.32782,29793
15.33593,29330
15.34405,29704
15.35218,31287
15.36030,32323
15.36843,29745
15.37655,29744
15.38467,28106
15.39280,34694
15.40092,31293
15.40905,32207
15.41717,30919
15.42528,32344
15.43342,32156
15.44153,36221
15.44967,33145
15.45778,32354
15.46590,33117
15.47403,30503
15.48215,32612
15.49027,31882
15.49840,30718
15.50652,31974
15.51465,32486
15.52277,30774
15.53088,30383
15.53902,35298
15.54713,30436
15.55527,31411
15.56338,30844
15.57150,31326
15.57963,31450
15.58775,35134
15.59588,35104
15.60400,36082
15.61212,33146
15.62025,31749
15.62837,28137
15.63648,33079
15.64462,32579
15.65273,30207
15.66087,32630
15.66898,31150
15.67710,34941
15.68523,29505
15.69335,31470
15.70148,31586
15.70960,32827
15.71772,33358
15.72585,34774
15.73397,32763
15.74208,32457
15.75022,37228
15.75833,42478
15.76647,41582
15.77458,46364
15.78270,46715
15.79083,41670
15.79895,36554
15.80708,39072
15.81520,39959
15.82332,31172
15.83145,36560
15.83957,34304
15.84770,33629
15.85582,32700
15.86393,33485
15.87207,33347
15.88018,32719
15.88830,33585
15.89643,32321
15.90455,32229
15.91268,30371
15.92080,35048
15.92892,33405
15.93705,33406
15.94517,33038
15.95330,34350
15.96142,33595
15.96953,39717
15.97767,35448
15.98578,38368
15.99390,36132
16.00203,40965
16.01015,41617
16.01828,52499
16.02640,58893
16.03452,61572
16.04265,58660
16.05077,58721
16.05890,47134
16.06702,47006
16.07513,42058
16.08327,39469
16.09138,37535
16.09952,40561
16.10763,36246
16.11575,35614
16.12388,37274
16.13200,34126
16.14012,35491
16.14825,32408
16.15637,35652
16.16450,34679
16.17262,33461
16.18073,36948
16.18887,34865
16.19698,35805
16.20512,34475
16.21323,33420
16.22135,36446
16.22948,34380
16.23760,37179
16.24573,35347
16.25385,35921
16.26197,39397
16.27010,38102
16.27822,32559
16.28633,35024
16.29447,39249
16.30258,34288
16.31072,38218
16.31883,33816
16.32695,38116
16.33508,37329
16.34320,35673
16.35133,38765
16.35945,37433
16.36757,33906
16.37570,32218
16.38382,34997
16.39193,35851
16.40007,34821
16.40818,34737
16.41632,39159
16.42443,34363
16.43255,36270
16.44068,32778
16.44880,34345
16.45693,35337
16.46505,34941
16.47317,35449
16.48130,34147
16.48942,37171
16.49755,37659
16.50567,34832
16.51378,33455
16.52192,32166
16.53003,31999
16.53815,34585
16.54628,33995
16.55440,35153
16.56253,34931
16.57065,33075
16.57877,34223
16.58690,35590
16.59502,37274
16.60315,35742
16.61127,37085
16.61938,31344
16.62752,31853
16.63563,38023
16.64377,34891
16.65188,33985
16.66000,37095
16.66813,34727
16.67625,32868
16.68437,36238
16.69250,32521
16.70062,35576
16.70875,35872
16.71687,34746
16.72498,33579
16.73312,36990
16.74123,35077
16.74937,36731
16.75748,33453
16.76560,34661
16.77373,36434
16.78185,34207
16.78997,36274
16.79810,34389
16.80622,37289
16.81435,35552
16.82247,38016
16.83058,35141
16.83872,34764
16.84683,31536
16.85497,33764
16.86308,34989
16.87120,36080
16.87933,38655
16.88745,40018
16.89558,34873
16.90370,36550
16.91182,32494
16.91995,32339
16.92807,36129
16.93618,36197
16.94432,38479
16.95243,36357
16.96057,35751
16.96868,36344
16.97680,37841
16.98493,35579
16.99305,35148
17.00118,42400
17.00930,32537
17.01742,33796
17.02555,37774
17.03367,35236
17.04180,35114
17.04992,36916
17.05803,38771
17.06617,34186
17.07428,37388
17.08240,35584
17.09053,34781
17.09865,35812
17.10678,32565
17.11490,38463
17.12302,36749
17.13115,34904
17.13927,36825
17.14740,36010
17.15552,36328
17.16363,34352
17.17177,33948
17.17988,35748
17.18800,33616
17.19613,33385
17.20425,33675
17.21238,32659
17.22050,35378
17.22862,39307
17.23675,37560
17.24487,38628
17.25300,36062
17.26112,33835
17.26923,34786
17.27737,38886
17.28548,35511
17.29362,35847
17.30173,34582
17.30985,37051
17.31798,35285
17.32610,38685
17.33422,39302
17.34235,36046
17.35047,38092
17.35860,38411
17.36672,37288
17.37483,43309
17.38297,44114
17.39108,41890
17.39922,41938
17.40733,43116
17.41545,43848
17.42358,42786
17.43170,42188
17.43982,41365
17.44795,40628
17.45607,39735
17.46420,38280
17.47232,38462
17.48043,36469
17.48857,39299
17.49668,41967
17.50482,38152
17.51293,41574
17.52105,39867
17.52918,46855
17.53730,46622
17.54543,48543
17.55355,54124
17.56167,54276
17.56980,57951
17.57792,52470
17.58603,51592
17.59417,45660
17.60228,40146
17.61042,41198
17.61853,38963
17.62665,34915
17.63478,37508
17.64290,39276
17.65103,38941
17.65915,35675
17.66727,36574
17.67540,39398
17.68352,42426
17.69165,41287
17.69977,44298
17.70788,40337
17.71602,40220
17.72413,42134
17.73225,37966
17.74038,35858
17.74850,38440
17.75663,39123
17.76475,40499
17.77287,36889
17.78100,38654
17.78912,39515
17.79725,38190
17.80537,40348
17.81348,39702
17.82162,42677
17.82973,44508
17.83785,37133
17.84598,40805
17.85410,41133
17.86223,46751
17.87035,44521
17.87847,43871
17.88660,38171
17.89472,39667
17.90285,40508
17.91097,35340
17.91908,35518
17.92722,34300
17.93533,37445
17.94347,36562
17.95158,38106
17.95970,37786
17.96783,36100
17.97595,36810
17.98407,34916
17.99220,36922
18.00032,36619
18.00845,36352
18.01657,38533
18.02468,39739
18.03282,37486
18.04093,39605
18.04907,41890
18.05718,43033
18.06530,41052
18.07343,39163
18.08155,38621
18.08968,40478
18.09780,41528
18.10592,40447
18.11405,42749
18.12217,41526
18.13028,42473
18.13842,40328
18.14653,40209
18.15467,36493
18.16278,38667
18.17090,40424
18.17903,38766
18.18715,41809
18.19528,42782
18.20340,40348
18.21152,36174
18.21965,35851
18.22777,38256
18.23588,37620
18.24402,37769
18.25213,41617
18.26027,42581
18.26838,43350
18.27650,38993
18.28463,41647
18.29275,39805
18.30088,32786
18.30900,37597
18.31712,36934
18.32525,36961
18.33337,35336
18.34150,33599
18.34962,39706
18.35773,40131
18.36587,37504
18.37398,42697
18.38210,42783
18.39023,41269
18.39835,43254
18.40648,47568
18.41460,45327
18.42272,46976
18.43085,45557
18.43897,45468
18.44710,44503
18.45522,45209
18.46333,45904
18.47147,47088
18.47958,50800
18.48770,44896
18.49583,46469
18.50395,45160
18.51208,49978
18.52020,45643
18.52832,42490
18.53645,42379
18.54457,44017
18.55270,43598
18.56082,42505
18.56893,43272
18.57707,46051
18.58518,42751
18.59332,42252
18.60143,47998
18.60955,46231
18.61768,45092
18.62580,46323
18.63392,46193
18.64205,47079
18.65017,45017
18.65830,42720
18.66642,41248
18.67453,38017
18.68267,41931
18.69078,39410
18.69892,38589
18.70703,40814
18.71515,41224
18.72328,40904
18.73140,40818
18.73953,40561
18.74765,39929
18.75577,37543
18.76390,41526
18.77202,41636
18.78013,38671
18.78827,38040
18.79638,39263
18.80452,39657
18.81263,37350
18.82075,37990
18.82888,36310
18.83700,38281
18.84513,37216
18.85325,35181
18.86137,35971
18.86950,41302
18.87762,38514
18.88573,40928
18.89387,44098
18.90198,42861
18.91012,43816
18.91823,41835
18.92635,40643
18.93448,36820
18.94260,34813
18.95073,38938
18.95885,38792
18.96697,37182
18.97510,39511
18.98322,39841
18.99135,38452
18.99947,37682
19.00758,38271
19.01572,38848
19.02383,39219
19.03195,41691
19.04008,42378
19.04820,42703
19.05633,39138
19.06445,40534
19.07257,42898
19.08070,51074
19.08882,56904
19.09695,66060
19.10507,66726
19.11318,70126
19.12132,60063
19.12943,59175
19.13757,57602
19.14568,55867
19.15380,50800
19.16193,56597
19.17005,58744
19.17817,54195
19.18630,51492
19.19442,49743
19.20255,50774
19.21067,44697
19.21878,46250
19.22692,41046
19.23503,41925
19.24317,40153
19.25128,39913
19.25940,41577
19.26753,46550
19.27565,45077
19.28377,48291
19.29190,52501
19.30002,52789
19.30815,51919
19.31627,47166
19.32438,46864
19.33252,47831
19.34063,43329
19.34877,44011
19.35688,39223
19.36500,41652
19.37313,42841
19.38125,41525
19.38938,42839
19.39750,40105
19.40562,38524
19.41375,37862
19.42187,39029
19.42998,41788
19.43812,44946
19.44623,56721
19.45437,80693
19.46248,113368
19.47060,146219
19.47873,169653
19.48685,168264
19.49498,144348
19.50310,106976
19.51122,74195
19.51935,62563
19.52747,51489
19.53558,43587
19.54372,42367
19.55183,43108
19.55997,44796
19.56808,41769
19.57620,39808
19.58433,39959
19.59245,39437
19.60058,38637
19.60870,36365
19.61682,41377
19.62495,43605
19.63307,46126
19.64120,57269
19.64932,67062
19.65743,76194
19.66557,86168
19.67368,88331
19.68180,78859
19.68993,80628
19.69805,65688
19.70618,61979
19.71430,55986
19.72242,51724
19.73055,51024
19.73867,43163
19.74680,44345
19.75492,44077
19.76303,45391
19.77117,44544
19.77928,42943
19.78742,40210
19.79553,40171
19.80365,40590
19.81178,39689
19.81990,40586
19.82802,37994
19.83615,39640
19.84427,44645
19.85240,42302
19.86052,39719
19.86863,48396
19.87677,50503
19.88488,61450
19.89302,75427
19.90113,82709
19.90925,96656
19.91738,97037
19.92550,92233
19.93363,93151
19.94175,92270
19.94987,89895
19.95800,86843
19.96612,80770
19.97423,84425
19.98237,82488
19.99048,77010
19.99862,81121
20.00673,72408
20.01485,72983
20.02298,73219
20.03110,70110
20.03923,65408
20.04735,64380
20.05547,56004
20.06360,53479
20.07172,47653
20.07983,51226
20.08797,50201
20.09608,48857
20.10422,45483
20.11233,44395
20.12045,45258
20.12858,45751
20.13670,44576
20.14483,44360
20.15295,46659
20.16107,49650
20.16920,45016
20.17732,46411
20.18545,45993
20.19357,42789
20.20168,48268
20.20982,46967
20.21793,49211
20.22605,50028
20.23418,52641
20.24230,60480
20.25043,69595
20.25855,78735
20.26667,83246
20.27480,87859
20.28292,81049
20.29105,76054
20.29917,67444
20.30728,61782
20.31542,58325
20.32353,52103
20.33165,50979
20.33978,52108
20.34790,46019
20.35603,43285
20.36415,39747
20.37227,43776
20.38040,41290
20.38852,41977
20.39665,41295
20.40477,48767
20.41288,44025
20.42102,50867
20.42913,49564
20.43727,46577
20.44538,49564
20.45350,50671
20.46163,47811
20.46975,42371
20.47787,43938
20.48600,40697
20.49412,42838
20.50225,41236
20.51037,40658
20.51848,43357
20.52662,38852
20.53473,37963
20.54287,39130
20.55098,39659
20.55910,40932
20.56723,36602
20.57535,37914
20.58348,37672
20.59160,43739
20.59972,40440
20.60785,38664
20.61597,39044
20.62408,38877
20.63222,41286
20.64033,41231
20.64847,36349
20.65658,36241
20.66470,37419
20.67283,37652
20.68095,38214
20.68908,44297
20.69720,39830
20.70532,39949
20.71345,39568
20.72157,40104
20.72968,38623
20.73782,34779
20.74593,43003
20.75407,38637
20.76218,36203
20.77030,39448
20.77843,39254
20.78655,38194
20.79468,42275
20.80280,41054
20.81092,39915
20.81905,37425
20.82717,39431
20.83530,38607
20.84342,39755
20.85153,38496
20.85967,38573
20.86778,38160
20.87590,38181
20.88403,37109
20.89215,38403
20.90028,36637
20.90840,38481
20.91652,37981
20.92465,40840
20.93277,38743
20.94090,38261
20.94902,42783
20.95713,37445
20.96527,39564
20.97338,40573
20.98152,36552
20.98963,40038
20.99775,41944
21.00588,41026
21.01400,39109
21.02212,40303
21.03025,36367
21.03837,43574
21.04650,40757
21.05462,40497
21.06273,40683
21.07087,40396
21.07898,40421
21.08712,40087
21.09523,38691
21.10335,39189
21.11148,43751
21.11960,38879
21.12772,38295
21.13585,38279
21.14397,39149
21.15210,40784
21.16022,41693
21.16833,40402
21.17647,41204
21.18458,43116
21.19272,42314
21.20083,39303
21.20895,44366
21.21708,39340
21.22520,41702
21.23333,37331
21.24145,39816
21.24957,43772
21.25770,46150
21.26582,39737
21.27393,44353
21.28207,43711
21.29018,40852
21.29832,42558
21.30643,40178
21.31455,40841
21.32268,40703
21.33080,39590
21.33893,41553
21.34705,40723
21.35517,44823
21.36330,39144
21.37142,37959
21.37953,42306
21.38767,38096
21.39578,41834
21.40392,45733
21.41203,41722
21.42015,42257
21.42828,36143
21.43640,38357
21.44453,40075
21.45265,38337
21.46077,38986
21.46890,39250
21.47702,43049
21.48515,37963
21.49327,37151
21.50138,40472
21.50952,37345
21.51763,40756
21.52575,40082
21.53388,40718
21.54200,42905
21.55013,38177
21.55825,38830
21.56637,40523
21.57450,37649
21.58262,41970
21.59075,42858
21.59887,45587
21.60698,48908
21.61512,58443
21.62323,55793
21.63137,51515
21.63948,47964
21.64760,47083
21.65573,47505
21.66385,42220
21.67197,40471
21.68010,42899
21.68822,41683
21.69635,40691
21.70447,40702
21.71258,39752
21.72072,38645
21.72883,41335
21.73697,37910
21.74508,37680
21.75320,41912
21.76133,42703
21.76945,44706
21.77757,40603
21.78570,44387
21.79382,45900
21.80195,48662
21.81007,54821
21.81818,51013
21.82632,49626
21.83443,44340
21.84257,44630
21.85068,46976
21.85880,40906
21.86693,39171
21.87505,38788
21.88318,36777
21.89130,36653
21.89942,39624
21.90755,37235
21.91567,38858
21.92378,37778
21.93192,34843
21.94003,37677
21.94817,38807
21.95628,38907
21.96440,38402
21.97253,38668
21.98065,40599
21.98878,39982
21.99690,37183
22.00502,37058
22.01315,35421
22.02127,39736
22.02940,37708
22.03752,38437
22.04563,36831
22.05377,37169
22.06188,36391
22.07000,39079
22.07813,40521
22.08625,37616
22.09438,36445
22.10250,38147
22.11062,36805
22.11875,38903
22.12687,37254
22.13500,37686
22.14312,37868
22.15123,35729
22.15937,40204
22.16748,36312
22.17560,38823
22.18373,38744
22.19185,38805
22.19998,36238
22.20810,37946
22.21622,39052
22.22435,39830
22.23247,38492
22.24060,37381
22.24872,32407
22.25683,36479
22.26497,35156
22.27308,35403
22.28122,40635
22.28933,38431
22.29745,38841
22.30558,35958
22.31370,36216
22.32182,36491
22.32995,37421
22.33807,35803
22.34620,40012
22.35432,36268
22.36243,38508
22.37057,40755
22.37868,37973
22.38682,34305
22.39493,34750
22.40305,40922
22.41118,37841
22.41930,36277
22.42743,37801
22.43555,35247
22.44367,37927
22.45180,39281
22.45992,37467
22.46803,35615
22.47617,34387
22.48428,35232
22.49242,37241
22.50053,33766
22.50865,34627
22.51678,35759
22.52490,35491
22.53303,39293
22.54115,36571
22.54927,36149
22.55740,35531
22.56552,35719
22.57363,31828
22.58177,36107
22.58988,34773
22.59802,39388
22.60613,35648
22.61425,33073
22.62238,32032
22.63050,32873
22.63863,32022
22.64675,32271
22.65487,34080
22.66300,33966
22.67112,35792
22.67925,35083
22.68737,34183
22.69548,38965
22.70362,41998
22.71173,36889
22.71985,32703
22.72798,34788
22.73610,34621
22.74423,32168
22.75235,33744
22.76047,35925
22.76860,34648
22.77672,35468
22.78485,33760
22.79297,35791
22.80108,37694
22.80922,33443
22.81733,33899
22.82545,34464
22.83358,34545
22.84170,36836
22.84983,35566
22.85795,36984
22.86607,35436
22.87420,38665
22.88232,39608
22.89045,41342
22.89857,40551
22.90668,43121
22.91482,49213
22.92293,51082
22.93107,55708
22.93918,56999
22.94730,60519
22.95543,58637
22.96355,57792
22.97167,53245
22.97980,53673
22.98792,54412
22.99605,54085
23.00417,46874
23.01228,48150
23.02042,45709
23.02853,44421
23.03667,39906
23.04478,41361
23.05290,39041
23.06103,40992
23.06915,36426
23.07728,39716
23.08540,41164
23.09352,36541
23.10165,39053
23.10977,38323
23.11788,36601
23.12602,39022
23.13413,36543
23.14227,33551
23.15038,36808
23.15850,33063
23.16663,37433
23.17475,38532
23.18288,38948
23.19100,33034
23.19912,35515
23.20725,36440
23.21537,37572
23.22348,36321
23.23162,34600
23.23973,34445
23.24787,36706
23.25598,33807
23.26410,33635
23.27223,35763
23.28035,39167
23.28848,39920
23.29660,36153
23.30472,37101
23.31285,35361
23.32097,39659
23.32910,38060
23.33722,38120
23.34533,36420
23.35347,35997
23.36158,37539
23.36970,41014
23.37783,39697
23.38595,42343
23.39408,42755
23.40220,45011
23.41032,43850
23.41845,42613
23.42657,39879
23.43470,38494
23.44282,37744
23.45093,36574
23.45907,38140
23.46718,36673
23.47532,37214
23.48343,36733
23.49155,34881
23.49968,36967
23.50780,37416
23.51592,35162
23.52405,37000
23.53217,37569
23.54030,37917
23.54842,39126
23.55653,41828
23.56467,39073
23.57278,36892
23.58092,40259
23.58903,39791
23.59715,39199
23.60528,41208
23.61340,39590
23.62152,38390
23.62965,40016
23.63777,40294
23.64590,43237
23.65402,42968
23.66213,47267
23.67027,49325
23.67838,49397
23.68652,50240
23.69463,48695
23.70275,46488
23.71088,49609
23.71900,44751
23.72713,53258
23.73525,63459
23.74337,109037
23.75150,211922
23.75962,431128
23.76773,844076
23.77587,1431077
23.78398,1900783
23.79212,1999647
23.80023,1913768
23.80835,1622877
23.81648,1248954
23.82460,933521
23.83273,695680
23.84085,527636
23.84897,420027
23.85710,347482
23.86522,291992
23.87333,261423
23.88147,230175
23.88958,200751
23.89772,182781
23.90583,170623
23.91395,165544
23.92208,145762
23.93020,138606
23.93833,127368
23.94645,124634
23.95457,120480
23.96270,115603
23.97082,109658
23.97895,102967
23.98707,96368
23.99518,99053
24.00332,95809
24.01143,91329
24.01955,90000
24.02768,88905
24.03580,85128
24.04393,82500
24.05205,80204
24.06017,79604
24.06830,79167
24.07642,78942
24.08455,77427
24.09267,76992
24.10078,77108
24.10892,77582
24.11703,73672
24.12517,74246
24.13328,70533
24.14140,69324
24.14953,67377
24.15765,72014
24.16577,67233
24.17390,68796
24.18202,65897
24.19015,72484
24.19827,71466
24.20638,73681
24.21452,69668
24.22263,68306
24.23077,64063
24.23888,60502
24.24700,61327
24.25513,59889
24.26325,57624
24.27138,56901
24.27950,57548
24.28762,54635
24.29575,56220
24.30387,56033
24.31198,51560
24.32012,54522
24.32823,61687
24.33637,66832
24.34448,80351
24.35260,102870
24.36073,116138
24.36885,127682
24.37698,117033
24.38510,97252
24.39322,79340
24.40135,64388
24.40947,56111
24.41758,53737
24.42572,55521
24.43383,49660
24.44197,51014
24.45008,51388
24.45820,55308
24.46633,54370
24.47445,58419
24.48258,54632
24.49070,56809
24.49882,55213
24.50695,52986
24.51507,50143
24.52320,53489
24.53132,49395
24.53943,50398
24.54757,49546
24.55568,49236
24.56380,45846
24.57193,44430
24.58005,44676
24.58818,45489
24.59630,46650
24.60442,44474
24.61255,46369
24.62067,43757
24.62880,44124
24.63692,48739
24.64503,41798
24.65317,47244
24.66128,41299
24.66940,47844
24.67753,46455
24.68565,43162
24.69378,47496
24.70190,42962
24.71002,44126
24.71815,46411
24.72627,44680
24.73440,40988
24.74252,42256
24.75063,47900
24.75877,43860
24.76688,44405
24.77502,44327
24.78313,41155
24.79125,44827
24.79938,46244
24.80750,44187
24.81562,42372
24.82375,41277
24.83187,40705
24.84000,45413
24.84812,40305
24.85623,41507
24.86437,42246
24.87248,39964
24.88062,41702
24.88873,39491
24.89685,47550
24.90498,42118
24.91310,40125
24.92122,44886
24.92935,40902
24.93747,43099
24.94560,39587
24.95372,39609
24.96183,37969
24.96997,36161
24.97808,37889
24.98622,35999
24.99433,36722
25.00245,37257
25.01058,37003
25.01870,41760
25.02683,41077
25.03495,40861
25.04307,42446
25.05120,39473
25.05932,38135
25.06743,40411
25.07557,38566
25.08368,38933
25.09182,41540
25.09993,37027
25.10805,38273
25.11618,36425
25.12430,38821
25.13243,41395
25.14055,42365
25.14867,39838
25.15680,39029
25.16492,37631
25.17305,40969
25.18117,40266
25.18928,37812
25.19742,38269
25.20553,37001
25.21365,37108
25.22178,40581
25.22990,37398
25.23803,34196
25.24615,38272
25.25427,41781
25.26240,40307
25.27052,38481
25.27865,42135
25.28677,40392
25.29488,43647
25.30302,42316
25.31113,50275
25.31927,52216
25.32738,51643
25.33550,45340
25.34363,45022
25.35175,43943
25.35987,40236
25.36800,40561
25.37612,38412
25.38425,38861
25.39237,34992
25.40048,34167
25.40862,37950
25.41673,36154
25.42487,37653
25.43298,41967
25.44110,37476
25.44923,37702
25.45735,38921
25.46547,37218
25.47360,35441
25.48172,35642
25.48985,37829
25.49797,34958
25.50608,32493
25.51422,37739
25.52233,39791
25.53047,36860
25.53858,37839
25.54670,36469
25.55483,36120
25.56295,35635
25.57108,36451
25.57920,32221
25.58732,34602
25.59545,34434
25.60357,32964
25.61168,30923
25.61982,34993
25.62793,30561
25.63607,34958
25.64418,34159
25.65230,33357
25.66043,32192
25.66855,34981
25.67668,33684
25.68480,34154
25.69292,36797
25.70105,33083
25.70917,33365
25.71728,30524
25.72542,35087
25.73353,34593
25.74167,36557
25.74978,37423
25.75790,31283
25.76603,35856
25.77415,35459
25.78228,32695
25.79040,35941
25.79852,36743
25.80665,33390
25.81477,34237
25.82290,34434
25.83102,30119
25.83913,34615
25.84727,34147
25.85538,34815
25.86350,33722
25.87163,33526
25.87975,33750
25.88788,31261
25.89600,29208
25.90412,31875
25.91225,34149
25.92037,36856
25.92850,31873
25.93662,30396
25.94473,31482
25.95287,33168
25.96098,32865
25.96912,31494
25.97723,30978
25.98535,32303
25.99348,32975
26.00160,31684
26.00972,29752
26.01785,35723
26.02597,33176
26.03410,31780
26.04222,32002
26.05033,26777
26.05847,30106
26.06658,34425
26.07472,33508
26.08283,30509
26.09095,31226
26.09908,33841
26.10720,34911
26.11532,37069
26.12345,37655
26.13157,46333
26.13970,47168
26.14782,46857
26.15593,45610
26.16407,44028
26.17218,40301
26.18032,38890
26.18843,39180
26.19655,36937
26.20468,35960
26.21280,36579
26.22093,35714
26.22905,30535
26.23717,32013
26.24530,32885
26.25342,33576
26.26153,34284
26.26967,33492
26.27778,31886
26.28592,29290
26.29403,33406
26.30215,30711
26.31028,30127
26.31840,33435
26.32653,31789
26.33465,33498
26.34277,32206
26.35090,30376
26.35902,33554
26.36715,31593
26.37527,29576
26.38338,31736
26.39152,28766
26.39963,31031
26.40775,33947
26.41588,29203
26.42400,28982
26.43213,31382
26.44025,30413
26.44837,33874
26.45650,31568
26.46462,33647
26.47275,32897
26.48087,34931
26.48898,31387
26.49712,34642
26.50523,31501
26.51335,33753
26.52148,31982
26.52960,29220
26.53773,32891
26.54585,37586
26.55397,31788
26.56210,30242
26.57022,31322
26.57835,33404
26.58647,32102
26.59458,29536
26.60272,33671
26.61083,30989
26.61897,33470
26.62708,30977
26.63520,33305
26.64333,33761
26.65145,32164
26.65957,31977
26.66770,35417
26.67582,28412
26.68395,35281
26.69207,32679
26.70018,33503
26.70832,35252
26.71643,36785
26.72457,34147
26.73268,32571
26.74080,31285
26.74893,34198
26.75705,37207
26.76517,34176
26.77330,33284
26.78142,34248
26.78955,37392
26.79767,35182
26.80578,33863
26.81392,35269
26.82203,31897
26.83017,35720
26.83828,34037
26.84640,34560
26.85453,33513
26.86265,35285
26.87078,32136
26.87890,30107
26.88702,30980
26.89515,32661
26.90327,34200
26.91138,35346
26.91952,35587
26.92763,37150
26.93577,38055
26.94388,40197
26.95200,53520
26.96013,68730
26.96825,104576
26.97638,169045
26.98450,243560
26.99262,326164
27.00075,397974
27.00887,431019
27.01700,446184
27.02512,410769
27.03323,334861
27.04137,269041
27.04948,219639
27.05760,177164
27.06573,151682
27.07385,130093
27.08198,111055
27.09010,98673
27.09822,88420
27.10635,82405
27.11447,79810
27.12260,78671
27.13072,72013
27.13883,69970
27.14697,59581
27.15508,65403
27.16320,61264
27.17133,61177
27.17945,55377
27.18758,56608
27.19570,58056
27.20382,50931
27.21195,51945
27.22007,49523
27.22820,52258
27.23632,48684
27.24443,48484
27.25257,52552
27.26068,45886
27.26882,46089
27.27693,43830
27.28505,44623
27.29318,44950
27.30130,45832
27.30942,42511
27.31755,38369
27.32567,48921
27.33380,40587
27.34192,39687
27.35003,38869
27.35817,39924
27.36628,37546
27.37442,40077
27.38253,41343
27.39065,45553
27.39878,39204
27.40690,38980
27.41503,41636
27.42315,39796
27.43127,38360
27.43940,34683
27.44752,38357
27.45563,39711
27.46377,39078
27.47188,41920
27.48002,40901
27.48813,40371
27.49625,41678
27.50438,41705
27.51250,40053
27.52063,40452
27.52875,38640
27.53687,39808
27.54500,35595
27.55312,35559
27.56123,39061
27.56937,37428
27.57748,40580
27.58562,36899
27.59373,40555
27.60185,39771
27.60998,39927
27.61810,33098
27.62623,33816
27.63435,36066
27.64247,32605
27.65060,36050
27.65872,39300
27.66685,37504
27.67497,34297
27.68308,39332
27.69122,34431
27.69933,33041
27.70745,36702
27.71558,36467
27.72370,37051
27.73183,35854
27.73995,35008
27.74807,41030
27.75620,35097
27.76432,41058
27.77245,36154
27.78057,40407
27.78868,39872
27.79682,35949
27.80493,37727
27.81307,34960
27.82118,40146
27.82930,36378
27.83743,37212
27.84555,38212
27.85367,35752
27.86180,37844
27.86992,35741
27.87805,33842
27.88617,37721
27.89428,33414
27.90242,35454
27.91053,33652
27.91867,35235
27.92678,34273
27.93490,34507
27.94303,34298
27.95115,35086
27.95927,35096
27.96740,35274
27.97552,35388
27.98365,38382
27.99177,35817
27.99988,34960
28.00802,35540
28.01613,34866
28.02427,33485
28.03238,33718
28.04050,32396
28.04863,32846
28.05675,33675
28.06488,34930
28.07300,38630
28.08112,41949
28.08925,44073
28.09737,46784
28.10548,51607
28.11362,54751
28.12173,52607
28.12987,53362
28.13798,49301
28.14610,43487
28.15423,42872
28.16235,43783
28.17048,39410
28.17860,38774
28.18672,35964
28.19485,35838
28.20297,36041
28.21108,33552
28.21922,34311
28.22733,34661
28.23547,38669
28.24358,34410
28.25170,41004
28.25983,49412
28.26795,58820
28.27608,77816
28.28420,108089
28.29232,138038
28.30045,172494
28.30857,210529
28.31670,211614
28.32482,247031
28.33293,247413
28.34107,243970
28.34918,219667
28.35730,216236
28.36543,189728
28.37355,179614
28.38168,160582
28.38980,139446
28.39792,124057
28.40605,115769
28.41417,104570
28.42230,97941
28.43042,89556
28.43853,84346
28.44667,76894
28.45478,74147
28.46292,68876
28.47103,64986
28.47915,63753
28.48728,65862
28.49540,64821
28.50352,64214
28.51165,53423
28.51977,61896
28.52790,58323
28.53602,53806
28.54413,52308
28.55227,48505
28.56038,51330
28.56852,56073
28.57663,51972
28.58475,49944
28.59288,48387
28.60100,49761
28.60912,46399
28.61725,46277
28.62537,48441
28.63350,53198
28.64162,49072
28.64973,55578
28.65787,57310
28.66598,55392
28.67412,51796
28.68223,53278
28.69035,53322
28.69848,52181
28.70660,57685
28.71473,59648
28.72285,65458
28.73097,72521
28.73910,73340
28.74722,69874
28.75533,62893
28.76347,53763
28.77158,47364
28.77972,45564
28.78783,44248
28.79595,43362
28.80408,44288
28.81220,41048
28.82033,46718
28.82845,42826
28.83657,42537
28.84470,39848
28.85282,41738
28.86095,39672
28.86907,40366
28.87718,42954
28.88532,43157
28.89343,44409
28.90155,41561
28.90968,42882
28.91780,38970
28.92593,40143
28.93405,40547
28.94217,42563
28.95030,44848
28.95842,40836
28.96655,43472
28.97467,44820
28.98278,39337
28.99092,40866
28.99903,40994
29.00715,39478
29.01528,39932
29.02340,38449
29.03153,37699
29.03965,37242
29.04777,39438
29.05590,41898
29.06402,43738
29.07215,39714
29.08027,37187
29.08838,39533
29.09652,40397
29.10463,40707
29.11277,35991
29.12088,40233
29.12900,41561
29.13713,39313
29.14525,42257
29.15337,40743
29.16150,38524
29.16962,41798
29.17775,39761
29.18587,41406
29.19398,43256
29.20212,37198
29.21023,41934
29.21837,40015
29.22648,40409
29.23460,40081
29.24273,40779
29.25085,44746
29.25897,43489
29.26710,42303
29.27522,45590
29.28335,43627
29.29147,42451
29.29958,41102
29.30772,37542
29.31583,40976
29.32397,37283
29.33208,38940
29.34020,38993
29.34833,41971
29.35645,38275
29.36458,36852
29.37270,35409
29.38082,38177
29.38895,39962
29.39707,36027
29.40518,38163
29.41332,42295
29.42143,38588
29.42957,34857
29.43768,38824
29.44580,38662
29.45393,39526
29.46205,38114
29.47018,39735
29.47830,37134
29.48642,41487
29.49455,39444
29.50267,43332
29.51080,41701
29.51892,44208
29.52703,45025
29.53517,39805
29.54328,39559
29.55140,38729
29.55953,38565
29.56765,40149
29.57578,41466
29.58390,44587
29.59202,47374
29.60015,47471
29.60827,44276
29.61640,42152
29.62452,46075
29.63263,42784
29.64077,38511
29.64888,38621
29.65702,36950
29.66513,37901
29.67325,37114
29.68138,37882
29.68950,38088
29.69762,38500
29.70575,38880
29.71387,41073
29.72200,36865
29.73012,37897
29.73823,35858
29.74637,36721
29.75448,33192
29.76262,37603
29.77073,38463
29.77885,36012
29.78698,41865
29.79510,34953
29.80322,34448
29.81135,35514
29.81947,34562
29.82760,32763
29.83572,35410
29.84383,36289
29.85197,37386
29.86008,38864
29.86822,37550
29.87633,39568
29.88445,48815
29.89258,51458
29.90070,62892
29.90883,68010
29.91695,82492
29.92507,89539
29.93320,98096
29.94132,112555
29.94943,117011
29.95757,126102
29.96568,135077
29.97382,133209
29.98193,130162
29.99005,131752
29.99818,124402
30.00630,119851
30.01443,103587
30.02255,105741
30.03067,102005
30.03880,88282
30.04692,84951
30.05503,78819
30.06317,79273
30.07128,76057
30.07942,72089
30.08753,74707
30.09565,67399
30.10378,66322
30.11190,64748
30.12003,60051
30.12815,55431
30.13627,59442
30.14440,53844
30.15252,50632
30.16065,54745
30.16877,53685
30.17688,53851
30.18502,49443
30.19313,48278
30.20125,49614
30.20938,47787
30.21750,44902
30.22563,44523
30.23375,46150
30.24187,46293
30.25000,44432
30.25812,44850
30.26625,46519
30.27437,45380
30.28248,44351
30.29062,43931
30.29873,41490
30.30687,43778
30.31498,44284
30.32310,42772
30.33123,43327
30.33935,45914
30.34747,42698
30.35560,40942
30.36372,46631
30.37185,41929
30.37997,39553
30.38808,44094
30.39622,43847
30.40433,43223
30.41247,42653
30.42058,42721
30.42870,43448
30.43683,43129
30.44495,41974
30.45307,43307
30.46120,43919
30.46932,39825
30.47745,38725
30.48557,45236
30.49368,43706
30.50182,43645
30.50993,41928
30.51807,40929
30.52618,40715
30.53430,37769
30.54243,40001
30.55055,42219
30.55868,43857
30.56680,39272
30.57492,36274
30.58305,38354
30.59117,39688
30.59928,37483
30.60742,37369
30.61553,37638
30.62367,41999
30.63178,42063
30.63990,39170
30.64803,36791
30.65615,39721
30.66428,38319
30.67240,37577
30.68052,39923
30.68865,42212
30.69677,35441
30.70490,42202
30.71302,37571
30.72113,37697
30.72927,38063
30.73738,39759
30.74550,39301
30.75363,40478
30.76175,37457
30.76988,42056
30.77800,40990
30.78612,41957
30.79425,40278
30.80237,38091
30.81050,39118
30.81862,40361
30.82673,40062
30.83487,39330
30.84298,37778
30.85110,39362
30.85923,39416
30.86735,40777
30.87548,39503
30.88360,40076
30.89172,37033
30.89985,38379
30.90797,38423
30.91610,37653
30.92422,37895
30.93233,37198
30.94047,39577
30.94858,37325
30.95672,37447
30.96483,35221
30.97295,37930
30.98108,38350
30.98920,37746
30.99732,36325
31.00545,41083
31.01357,39557
31.02170,38426
31.02982,38502
31.03793,37969
31.04607,35318
31.05418,36968
31.06232,36975
31.07043,39568
31.07855,42248
31.08668,45066
31.09480,45696
31.10292,44683
31.11105,42746
31.11917,46646
31.12730,41002
31.13542,35900
31.14353,40784
31.15167,43067
31.15978,41861
31.16792,42706
31.17603,48037
31.18415,63569
31.19228,71128
31.20040,91565
31.20853,102984
31.21665,105120
31.22477,99747
31.23290,90668
31.24102,70258
31.24913,58093
31.25727,54187
31.26538,44695
31.27352,40942
31.28163,42116
31.28975,41730
31.29788,38556
31.30600,41115
31.31413,38650
31.32225,38528
31.33037,40514
31.33850,38535
31.34662,39978
31.35475,42622
31.36287,40557
31.37098,43874
31.37912,41001
31.38723,40606
31.39535,41157
31.40348,41030
31.41160,40359
31.41973,39835
31.42785,39390
31.43597,40293
31.44410,38395
31.45222,36518
31.46035,38345
31.46847,38036
31.47658,40227
31.48472,39283
31.49283,39171
31.50095,37475
31.50908,38930
31.51720,38213
31.52533,36614
31.53345,41329
31.54157,40649
31.54970,39061
31.55782,39142
31.56595,42237
31.57407,42099
31.58218,41890
31.59032,38318
31.59843,39503
31.60657,37902
31.61468,39535
31.62280,39325
31.63093,40265
31.63905,42247
31.64717,41439
31.65530,38516
31.66342,40387
31.67155,45924
31.67967,45664
31.68778,42828
31.69592,48061
31.70403,46847
31.71217,45181
31.72028,42949
31.72840,42345
31.73653,39509
31.74465,41363
31.75278,38931
31.76090,41972
31.76902,40534
31.77715,41636
31.78527,43852
31.79338,44846
31.80152,40380
31.80963,42995
31.81777,40537
31.82588,41010
31.83400,46460
31.84213,45441
31.85025,52953
31.85838,62320
31.86650,70225
31.87462,76203
31.88275,83234
31.89087,91772
31.89898,91838
31.90712,91764
31.91523,92013
31.92337,96316
31.93148,95204
31.93960,92201
31.94773,83235
31.95585,79431
31.96398,77613
31.97210,75087
31.98022,70255
31.98835,65894
31.99647,65028
32.00460,63256
32.01272,66072
32.02083,61291
32.02897,62131
32.03708,60103
32.04520,58809
32.05333,60531
32.06145,55084
32.06958,53557
32.07770,54067
32.08582,50670
32.09395,52874
32.10207,53919
32.11020,48258
32.11832,50091
32.12643,53051
32.13457,53250
32.14268,46507
32.15080,51507
32.15893,44234
32.16705,48958
32.17518,47718
32.18330,46067
32.19142,47458
32.19955,48540
32.20767,45959
32.21580,43737
32.22392,45496
32.23203,43387
32.24017,46184
32.24828,46576
32.25642,46467
32.26453,43299
32.27265,41552
32.28078,43099
32.28890,43674
32.29702,40883
32.30515,45230
32.31327,48032
32.32140,44665
32.32952,45497
32.33763,42301
32.34577,45834
32.35388,46088
32.36202,49057
32.37013,50793
32.37825,49245
32.38638,45173
32.39450,45323
32.40263,44652
32.41075,45598
32.41887,45766
32.42700,43269
32.43512,43803
32.44323,43003
32.45137,43917
32.45948,43111
32.46762,43042
32.47573,40645
32.48385,43506
32.49198,41078
32.50010,43386
32.50823,41522
32.51635,44189
32.52447,42329
32.53260,41614
32.54072,41399
32.54883,46343
32.55697,43771
32.56508,46255
32.57322,45843
32.58133,47025
32.58945,44246
32.59758,51548
32.60570,51142
32.61383,55335
32.62195,62424
32.63007,61712
32.63820,62512
32.64632,58634
32.65445,53378
32.66257,46676
32.67068,47892
32.67882,43990
32.68693,47025
32.69505,46843
32.70318,47575
32.71130,46192
32.71943,47060
32.72755,46755
32.73567,44370
32.74380,46193
32.75192,46383
32.76005,42247
32.76817,43155
32.77628,45649
32.78442,40097
32.79253,41490
32.80067,42833
32.80878,42484
32.81690,40932
32.82503,45876
32.83315,46515
32.84127,44452
32.84940,43083
32.85752,38737
32.86565,38739
32.87377,41764
32.88188,43975
32.89002,42305
32.89813,43225
32.90627,44014
32.91438,42305
32.92250,45031
32.93063,41291
32.93875,42828
32.94687,45162
32.95500,44921
32.96312,42198
32.97125,44823
32.97937,41492
32.98748,43943
32.99562,46082
33.00373,42808
33.01187,41784
33.01998,43348
33.02810,42446
33.03623,43038
33.04435,41439
33.05248,44153
33.06060,42620
33.06872,43261
33.07685,48216
33.08497,47834
33.09308,50495
33.10122,53465
33.10933,60912
33.11747,65504
33.12558,67076
33.13370,64137
33.14183,57875
33.14995,54670
33.15808,50604
33.16620,44976
33.17432,45712
33.18245,46029
33.19057,46307
33.19870,45419
33.20682,45225
33.21493,45739
33.22307,47155
33.23118,42104
33.23930,46383
33.24743,45176
33.25555,44368
33.26368,44704
33.27180,41775
33.27992,43075
33.28805,45760
33.29617,43573
33.30430,44816
33.31242,45584
33.32053,40085
33.32867,41671
33.33678,41747
33.34490,43259
33.35303,44553
33.36115,42108
33.36928,44433
33.37740,42665
33.38552,43515
33.39365,40725
33.40177,41817
33.40990,42086
33.41802,44389
33.42613,39972
33.43427,43375
33.44238,42673
33.45052,43311
33.45863,43268
33.46675,43675
33.47488,44697
33.48300,44790
33.49112,46572
33.49925,41911
33.50737,42565
33.51550,42808
33.52362,43447
33.53173,41358
33.53987,44406
33.54798,46329
33.55612,45634
33.56423,43635
33.57235,46962
33.58048,41196
33.58860,42836
33.59672,43638
33.60485,42047
33.61297,44693
33.62110,42006
33.62922,43368
33.63733,43975
33.64547,45130
33.65358,47053
33.66172,44811
33.66983,47563
33.67795,47964
33.68608,50790
33.69420,45575
33.70233,44492
33.71045,43096
33.71857,44731
33.72670,46573
33.73482,43899
33.74293,47375
33.75107,45132
33.75918,43442
33.76732,49082
33.77543,44116
33.78355,46883
33.79168,44090
33.79980,47370
33.80793,50127
33.81605,47100
33.82417,47852
33.83230,47329
33.84042,46139
33.84855,46916
33.85667,50950
33.86478,51057
33.87292,51769
33.88103,47664
33.88915,53060
33.89728,53259
33.90540,54896
33.91353,51291
33.92165,53151
33.92977,51215
33.93790,54824
33.94602,54347
33.95415,53669
33.96227,52708
33.97038,50811
33.97852,56793
33.98663,53739
33.99475,58154
34.00288,53411
34.01100,51244
34.01913,55227
34.02725,55738
34.03537,57054
34.04350,57497
34.05162,53779
34.05975,50961
34.06787,53004
34.07598,52640
34.08412,54383
34.09223,50233
34.10037,48630
34.10848,51070
34.11660,54747
34.12473,50505
34.13285,49551
34.14097,51427
34.14910,52978
34.15722,48815
34.16535,47704
34.17347,47353
34.18158,51279
34.18972,50079
34.19783,48351
34.20597,48728
34.21408,48290
34.22220,52563
34.23033,48522
34.23845,49264
34.24658,47027
34.25470,48406
34.26282,47269
34.27095,47008
34.27907,49641
34.28718,48055
34.29532,46299
34.30343,47069
34.31157,49397
34.31968,49650
34.32780,52795
34.33593,54259
34.34405,50371
34.35218,47894
34.36030,53134
34.36842,51233
34.37655,52087
34.38467,51049
34.39278,50252
34.40092,52376
34.40903,52501
34.41717,47768
34.42528,46202
34.43340,49763
34.44153,49420
34.44965,51123
34.45778,55429
34.46590,62049
34.47402,72905
34.48215,84078
34.49027,91817
34.49840,96527
34.50652,104618
34.51463,96163
34.52277,97398
34.53088,91074
34.53900,90538
34.54713,82974
34.55525,79384
34.56338,76231
34.57150,74560
34.57962,68789
34.58775,68600
34.59587,61900
34.60400,64387
34.61212,63000
34.62023,63813
34.62837,64267
34.63648,64318
34.64460,59462
34.65273,61311
34.66085,64900
34.66898,63965
34.67710,63651
34.68522,58208
34.69335,60526
34.70147,58046
34.70960,60530
34.71772,60144
34.72583,57761
34.73397,55601
34.74208,58937
34.75022,63527
34.75833,62912
34.76645,58725
34.77458,61184
34.78270,60574
34.79082,58849
34.79895,62417
34.80707,59856
34.81520,57855
34.82332,58318
34.83143,55796
34.83957,57693
34.84768,59796
34.85582,56111
34.86393,58242
34.87205,65984
34.88018,56608
34.88830,50991
34.89643,55864
34.90455,60116
34.91267,60657
34.92080,60121
34.92892,56255
34.93703,57596
34.94517,62363
34.95328,59675
34.96142,59408
34.96953,56131
34.97765,56924
34.98578,58080
34.99390,57364
35.00203,59575
35.01015,55043
35.01827,57546
35.02640,54207
35.03452,55777
35.04265,56320
35.05077,56096
35.05888,54483
35.06702,54405
35.07513,55664
35.08325,54267
35.09138,56435
35.09950,54966
35.10763,57466
35.11575,57643
35.12387,54073
35.13200,52330
35.14012,55365
35.14825,58953
35.15637,56613
35.16448,56671
35.17262,51833
35.18073,57791
35.18885,56989
35.19698,56296
35.20510,55379
35.21323,60607
35.22135,55997
35.22947,52566
35.23760,57172
35.24572,57011
35.25385,57004
35.26197,58177
35.27008,56218
35.27822,62199
35.28633,59981
35.29447,61055
35.30258,57740
35.31070,56901
35.31883,53362
35.32695,57613
35.33507,55808
35.34320,56198
35.35132,52404
35.35945,57607
35.36757,56869
35.37568,57613
35.38382,59664
35.39193,56083
35.40007,57252
35.40818,54840
35.41630,54503
35.42443,65098
35.43255,58614
35.44067,64096
35.44880,65740
35.45692,63853
35.46505,62298
35.47317,63540
35.48128,65422
35.48942,61822
35.49753,60325
35.50567,62463
35.51378,56359
35.52190,60260
35.53003,58967
35.53815,61350
35.54628,62535
35.55440,60452
35.56252,58530
35.57065,63354
35.57877,59608
35.58688,62024
35.59502,58917
35.60313,57647
35.61127,61637
35.61938,64514
35.62750,63953
35.63563,68400
35.64375,62071
35.65188,59566
35.66000,61072
35.66812,54389
35.67625,57750
35.68437,60860
35.69250,59404
35.70062,58452
35.70873,60373
35.71687,61635
35.72498,62309
35.73310,58821
35.74123,58634
35.74935,59304
35.75748,59569
35.76560,61745
35.77372,64548
35.78185,61633
35.78997,60642
35.79810,61889
35.80622,62942
35.81433,61463
35.82247,59658
35.83058,60073
35.83870,57141
35.84683,55981
35.85495,55699
35.86308,63166
35.87120,59411
35.87932,57933
35.88745,59187
35.89557,64501
35.90370,60536
35.91182,64813
35.91993,58447
35.92807,59797
35.93618,64897
35.94432,65246
35.95243,62553
35.96055,65517
35.96868,60102
35.97680,63526
35.98492,63607
35.99305,63004
36.00117,62957
36.00930,67306
36.01742,69618
36.02553,72600
36.03367,66885
36.04178,68533
36.04992,65576
36.05803,62620
36.06615,66922
36.07428,61619
36.08240,70620
36.09053,65113
36.09865,65014
36.10677,62717
36.11490,65301
36.12302,61276
36.13113,63772
36.13927,65109
36.14738,62874
36.15552,64247
36.16363,59422
36.17175,58008
36.17988,65701
36.18800,65961
36.19613,61308
36.20425,66046
36.21237,62415
36.22050,66022
36.22862,65385
36.23673,66133
36.24487,73160
36.25298,78169
36.26112,84499
36.26923,93341
36.27735,85381
36.28548,84434
36.29360,73012
36.30173,69183
36.30985,66084
36.31797,63082
36.32610,64375
36.33422,64379
36.34235,64371
36.35047,67443
36.35858,66677
36.36672,62915
36.37483,65876
36.38295,70045
36.39108,65938
36.39920,70626
36.40733,68151
36.41545,65454
36.42357,62806
36.43170,64812
36.43982,64246
36.44795,64766
36.45607,67630
36.46418,63590
36.47232,69632
36.48043,65530
36.48855,63590
36.49668,64722
36.50480,70248
36.51293,66529
36.52105,65651
36.52917,65737
36.53730,66640
36.54542,70910
36.55355,64881
36.56167,66035
36.56978,66654
36.57792,69123
36.58603,70623
36.59417,67234
36.60228,69366
36.61040,70398
36.61853,69329
36.62665,67225
36.63477,68642
36.64290,71960
36.65102,68479
36.65915,64706
36.66727,67587
36.67538,69627
36.68352,67141
36.69163,68353
36.69977,66585
36.70788,66303
36.71600,67547
36.72413,69741
36.73225,65055
36.74038,68890
36.74850,72282
36.75662,73806
36.76475,67601
36.77287,68046
36.78098,65048
36.78912,67771
36.79723,68309
36.80537,68585
36.81348,68130
36.82160,68998
36.82973,68325
36.83785,71089
36.84598,68554
36.85410,68565
36.86222,69311
36.87035,69783
36.87847,71418
36.88658,70742
36.89472,70976
36.90283,67977
36.91097,73029
36.91908,66777
36.92720,75048
36.93533,71743
36.94345,68508
36.95158,73362
36.95970,71652
36.96782,76453
36.97595,76353
36.98407,73701
36.99220,84912
37.00032,101204
37.00843,113964
37.01657,134484
37.02468,151031
37.03280,151737
37.04093,153990
37.04905,136045
37.05718,120875
37.06530,106782
37.07342,85678
37.08155,84482
37.08967,82967
37.09780,78818
37.10592,79470
37.11403,73470
37.12217,78316
37.13028,75780
37.13842,74814
37.14653,78437
37.15465,76744
37.16278,76533
37.17090,79831
37.17902,79270
37.18715,75221
37.19527,77131
37.20340,82668
37.21152,77323
37.21963,70073
37.22777,77366
37.23588,78838
37.24402,72583
37.25213,74537
37.26025,80532
37.26838,88782
37.27650,94072
37.28462,99403
37.29275,108749
37.30087,119461
37.30900,120843
37.31712,118817
37.32523,124864
37.33337,110035
37.34148,108746
37.34962,102650
37.35773,101440
37.36585,94299
37.37398,92859
37.38210,88404
37.39023,92466
37.39835,90374
37.40647,89385
37.41460,89617
37.42272,89144
37.43083,88151
37.43897,87698
37.44708,90901
37.45522,83589
37.46333,87031
37.47145,84129
37.47958,81351
37.48770,81522
