C:\MassHunter\GCMS\1\data\JTB-E18\JTB-E18-027-07.D Wed Sep 18 11:30:02 2019
Start of data points
2.09528,117404
2.10342,121075
2.11153,114175
2.11965,118232
2.12778,119393
2.13590,106851
2.14402,105547
2.15215,112958
2.16027,107933
2.16840,104484
2.17652,106488
2.18463,102320
2.19277,99161
2.20088,100835
2.20902,104835
2.21713,95147
2.22525,97731
2.23338,98746
2.24150,96204
2.24962,95819
2.25775,110874
2.26587,446814
2.27400,1366669
2.28212,1393919
2.29023,711275
2.29837,417966
2.30648,325871
2.31462,279467
2.32273,260085
2.33085,234736
2.33898,220109
2.34710,194069
2.35523,186660
2.36335,170682
2.37147,180951
2.37960,267696
2.38772,244192
2.39583,188715
2.40397,166938
2.41208,167051
2.42022,182539
2.42833,170040
2.43645,164323
2.44458,177393
2.45270,158362
2.46083,146380
2.46895,138769
2.47707,133039
2.48520,155547
2.49332,170943
2.50145,154712
2.50957,141833
2.51768,149531
2.52582,142359
2.53393,138781
2.54205,148018
2.55018,148531
2.55830,140299
2.56643,132750
2.57455,125533
2.58267,134951
2.59080,135569
2.59892,129016
2.60705,139386
2.61517,152425
2.62328,152204
2.63142,140379
2.63953,133254
2.64765,130013
2.65578,134403
2.66390,142241
2.67203,182412
2.68015,196041
2.68827,163855
2.69640,142977
2.70452,129597
2.71265,123236
2.72077,124900
2.72888,122050
2.73702,130293
2.74513,126602
2.75327,124606
2.76138,126710
2.76950,119358
2.77763,115291
2.78575,118464
2.79387,132070
2.80200,135447
2.81012,143538
2.81825,263848
2.82637,669518
2.83448,841940
2.84262,514847
2.85073,294755
2.85887,270061
2.86698,250766
2.87510,195883
2.88323,170971
2.89135,151889
2.89948,151078
2.90760,140715
2.91572,137311
2.92385,131054
2.93197,137083
2.94008,125894
2.94822,124101
2.95633,124684
2.96447,123571
2.97258,124976
2.98070,129670
2.98883,134744
2.99695,145032
3.00508,162345
3.01320,185006
3.02132,329165
3.02945,708128
3.03757,1061023
3.04568,2405235
3.05382,6992420
3.06193,1.006752E+07
3.07007,7110122
3.07818,3377933
3.08630,1777697
3.09443,1160189
3.10255,878075
3.11068,724514
3.11880,593005
3.12692,499486
3.13505,438554
3.14317,399703
3.15130,367019
3.15942,340494
3.16753,339024
3.17567,319061
3.18378,288485
3.19190,264819
3.20003,250232
3.20815,238334
3.21628,242260
3.22440,245544
3.23252,248056
3.24065,234642
3.24877,216410
3.25690,202828
3.26502,201555
3.27313,225144
3.28127,538118
3.28938,1767042
3.29750,4259068
3.30563,6083357
3.31375,5344477
3.32188,3459745
3.33000,2064058
3.33812,1395879
3.34625,1060199
3.35437,880364
3.36250,824258
3.37062,1006324
3.37873,1232538
3.38687,1177666
3.39498,1100840
3.40312,2015122
3.41123,3986187
3.41935,4550887
3.42748,3033657
3.43560,1613545
3.44372,974575
3.45185,748432
3.45997,642320
3.46810,572052
3.47622,503849
3.48433,449715
3.49247,423742
3.50058,384574
3.50872,368865
3.51683,358230
3.52495,332981
3.53308,319239
3.54120,315681
3.54933,303273
3.55745,280590
3.56557,286845
3.57370,288100
3.58182,276616
3.58993,256757
3.59807,264680
3.60618,291535
3.61432,524920
3.62243,1260958
3.63055,2346768
3.63868,2611889
3.64680,1830800
3.65493,1012008
3.66305,623836
3.67117,479488
3.67930,410900
3.68742,366408
3.69553,334980
3.70367,305619
3.71178,302131
3.71992,281771
3.72803,292688
3.73615,291185
3.74428,292996
3.75240,297903
3.76053,286735
3.76865,259577
3.77677,250140
3.78490,235284
3.79302,237228
3.80115,237033
3.80927,237022
3.81738,226933
3.82552,235110
3.83363,236362
3.84175,233133
3.84988,214302
3.85800,211445
3.86613,198407
3.87425,199653
3.88237,199333
3.89050,215145
3.89862,201427
3.90675,202659
3.91487,200199
3.92298,207500
3.93112,193251
3.93923,192458
3.94737,190383
3.95548,188453
3.96360,193252
3.97173,174267
3.97985,179033
3.98797,178592
3.99610,175428
4.00422,176115
4.01235,174520
4.02047,172398
4.02858,175815
4.03672,164902
4.04483,175391
4.05297,185224
4.06108,193441
4.06920,185977
4.07733,188797
4.08545,172997
4.09357,171380
4.10170,167217
4.10982,170760
4.11795,176808
4.12607,181100
4.13418,199192
4.14232,239940
4.15043,283123
4.15857,285422
4.16668,241615
4.17480,214276
4.18293,194660
4.19105,182022
4.19918,180494
4.20730,169501
4.21542,178894
4.22355,203371
4.23167,222652
4.23978,239981
4.24792,217224
4.25603,195136
4.26417,184102
4.27228,177979
4.28040,166130
4.28853,156896
4.29665,163182
4.30478,161573
4.31290,159784
4.32102,163118
4.32915,164984
4.33727,166462
4.34540,156904
4.35352,153299
4.36163,158408
4.36977,151659
4.37788,155466
4.38600,152742
4.39413,143127
4.40225,144977
4.41038,147575
4.41850,150645
4.42662,147428
4.43475,149469
4.44287,157349
4.45100,173044
4.45912,186972
4.46723,182453
4.47537,168482
4.48348,162246
4.49160,151269
4.49973,150761
4.50785,150004
4.51598,152946
4.52410,155333
4.53222,144764
4.54035,146557
4.54847,146709
4.55660,142280
4.56472,146128
4.57283,139710
4.58097,147261
4.58908,142582
4.59722,141776
4.60533,136163
4.61345,141268
4.62158,135929
4.62970,138363
4.63782,143014
4.64595,141970
4.65407,136653
4.66220,142503
4.67032,139381
4.67843,140608
4.68657,146733
4.69468,135048
4.70282,143646
4.71093,129432
4.71905,138009
4.72718,136285
4.73530,140312
4.74342,133839
4.75155,134053
4.75967,133948
4.76780,127654
4.77592,130673
4.78403,134105
4.79217,129490
4.80028,134668
4.80842,143218
4.81653,141536
4.82465,139461
4.83278,136942
4.84090,135342
4.84903,134666
4.85715,141769
4.86527,139883
4.87340,141021
4.88152,134038
4.88963,134799
4.89777,144764
4.90588,141631
4.91402,151537
4.92213,198223
4.93025,348763
4.93838,624696
4.94650,980325
4.95463,1121577
4.96275,1026442
4.97087,828634
4.97900,619882
4.98712,484242
4.99525,401874
5.00337,343058
5.01148,317267
5.01962,285845
5.02773,269967
5.03585,253820
5.04398,242434
5.05210,231795
5.06023,232571
5.06835,217001
5.07647,218108
5.08460,212971
5.09272,224383
5.10085,263393
5.10897,318672
5.11708,360322
5.12522,359155
5.13333,300271
5.14145,268439
5.14958,232142
5.15770,222087
5.16583,236058
5.17395,284860
5.18207,332512
5.19020,360603
5.19832,333920
5.20645,272133
5.21457,242339
5.22268,225888
5.23082,255376
5.23893,308820
5.24707,339271
5.25518,304983
5.26330,274103
5.27143,236379
5.27955,210003
5.28767,200087
5.29580,197863
5.30392,194607
5.31205,183261
5.32017,177819
5.32828,176021
5.33642,182389
5.34453,177443
5.35267,182369
5.36078,173147
5.36890,166324
5.37703,161178
5.38515,166333
5.39328,152053
5.40140,147239
5.40952,147202
5.41765,155360
5.42577,150366
5.43388,155221
5.44202,151132
5.45013,152954
5.45827,153994
5.46638,154566
5.47450,147502
5.48263,148975
5.49075,144275
5.49888,146338
5.50700,150747
5.51512,147789
5.52325,147010
5.53137,144868
5.53948,148449
5.54762,148494
5.55573,144833
5.56387,145743
5.57198,145770
5.58010,142806
5.58823,150421
5.59635,151016
5.60448,151200
5.61260,149640
5.62072,161988
5.62885,176775
5.63697,186577
5.64510,189630
5.65322,176868
5.66133,170482
5.66947,162269
5.67758,165707
5.68570,164674
5.69383,165818
5.70195,169290
5.71008,178730
5.71820,195258
5.72632,215125
5.73445,218726
5.74257,208564
5.75070,198562
5.75882,212637
5.76693,222527
5.77507,224145
5.78318,211944
5.79130,206797
5.79943,225511
5.80755,336495
5.81568,593812
5.82380,928979
5.83192,1247187
5.84005,1282336
5.84817,1040377
5.85630,710672
5.86442,474175
5.87253,340647
5.88067,272947
5.88878,243234
5.89692,228224
5.90503,245658
5.91315,324205
5.92128,438994
5.92940,578102
5.93752,607264
5.94565,526080
5.95377,398950
5.96190,294296
5.97002,241208
5.97813,219247
5.98627,211638
5.99438,191970
6.00252,171550
6.01063,160582
6.01875,144363
6.02688,142892
6.03500,132210
6.04313,133914
6.05125,123618
6.05937,123222
6.06750,126871
6.07562,118391
6.08373,122791
6.09187,119969
6.09998,117402
6.10812,118832
6.11623,114177
6.12435,111551
6.13248,116642
6.14060,114145
6.14873,116020
6.15685,119397
6.16497,117748
6.17310,129115
6.18122,140790
6.18933,156850
6.19747,171418
6.20558,186184
6.21372,179259
6.22183,161303
6.22995,154331
6.23808,136970
6.24620,145774
6.25433,146830
6.26245,144060
6.27057,144680
6.27870,141900
6.28682,139693
6.29495,144228
6.30307,150105
6.31118,153033
6.31932,155376
6.32743,162842
6.33555,159437
6.34368,165252
6.35180,166584
6.35993,172453
6.36805,180447
6.37617,176833
6.38430,175941
6.39242,172832
6.40055,172934
6.40867,181326
6.41678,179218
6.42492,187189
6.43303,179381
6.44117,190187
6.44928,196600
6.45740,190050
6.46553,194802
6.47365,199602
6.48177,205854
6.48990,199602
6.49802,208134
6.50615,203334
6.51427,199488
6.52238,151528
6.53052,143239
6.53863,131143
6.54677,131845
6.55488,127376
6.56300,132127
6.57113,123583
6.57925,122767
6.58737,123578
6.59550,115551
6.60362,118833
6.61175,117634
6.61987,113574
6.62798,113372
6.63612,110950
6.64423,110715
6.65237,103931
6.66048,103136
6.66860,102583
6.67673,103353
6.68485,103912
6.69298,106247
6.70110,104747
6.70922,102561
6.71735,112634
6.72547,131220
6.73358,157434
6.74172,186098
6.74983,207863
6.75797,199211
6.76608,178945
6.77420,148055
6.78233,126254
6.79045,106668
6.79858,101009
6.80670,97742
6.81482,95699
6.82295,95958
6.83107,98777
6.83918,98432
6.84732,105480
6.85543,134692
6.86357,209587
6.87168,338652
6.87980,521106
6.88793,694296
6.89605,751295
6.90418,673948
6.91230,521129
6.92042,342097
6.92855,220439
6.93667,157499
6.94480,114504
6.95292,101766
6.96103,93682
6.96917,84283
6.97728,81921
6.98540,78158
6.99353,75606
7.00165,73124
7.00978,84789
7.01790,110076
7.02602,147642
7.03415,215521
7.04227,268223
7.05040,330741
7.05852,327645
7.06663,286445
7.07477,220891
7.08288,181096
7.09102,142715
7.09913,122082
7.10725,108210
7.11538,102777
7.12350,102231
7.13162,100535
7.13975,101773
7.14787,96614
7.15600,93560
7.16412,87796
7.17223,87328
7.18037,82797
7.18848,83831
7.19662,79718
7.20473,81549
7.21285,93156
7.22098,96367
7.22910,91992
7.23723,90276
7.24535,97575
7.25347,92352
7.26160,100471
7.26972,108726
7.27783,121315
7.28597,131348
7.29408,145340
7.30222,139755
7.31033,130885
7.31845,119993
7.32658,109501
7.33470,107991
7.34283,111949
7.35095,115610
7.35907,110086
7.36720,105550
7.37532,106651
7.38343,107580
7.39157,137454
7.39968,175170
7.40782,230694
7.41593,245052
7.42405,258073
7.43218,231898
7.44030,186030
7.44843,147980
7.45655,123327
7.46467,108753
7.47280,102960
7.48092,93780
7.48905,100944
7.49717,110448
7.50528,133838
7.51342,165140
7.52153,192843
7.52965,188712
7.53778,170740
7.54590,144784
7.55403,119175
7.56215,103893
7.57027,94143
7.57840,85082
7.58652,91629
7.59465,81642
7.60277,82961
7.61088,74744
7.61902,78799
7.62713,79513
7.63525,83856
7.64338,78799
7.65150,73655
7.65963,76869
7.66775,75680
7.67587,73985
7.68400,76805
7.69212,72132
7.70025,69947
7.70837,70917
7.71648,72572
7.72462,69988
7.73273,72058
7.74087,68771
7.74898,67944
7.75710,62898
7.76523,73051
7.77335,65016
7.78147,60832
7.78960,63354
7.79772,64341
7.80585,62162
7.81397,67575
7.82208,69311
7.83022,67389
7.83833,63058
7.84647,64943
7.85458,59432
7.86270,61842
7.87083,62751
7.87895,63370
7.88708,63498
7.89520,63750
7.90332,63954
7.91145,59870
7.91957,59730
7.92768,62438
7.93582,55920
7.94393,58051
7.95207,62254
7.96018,64928
7.96830,62772
7.97643,69070
7.98455,69455
7.99268,70002
8.00080,68345
8.00892,64182
8.01705,62770
8.02517,59237
8.03328,62865
8.04142,58056
8.04953,63185
8.05767,63313
8.06578,63002
8.07390,59549
8.08203,59064
8.09015,58212
8.09828,59459
8.10640,60669
8.11452,58487
8.12265,55306
8.13077,59699
8.13890,59410
8.14702,63944
8.15513,63413
8.16327,63423
8.17138,67402
8.17950,71681
8.18763,70187
8.19575,67131
8.20388,66036
8.21200,65004
8.22012,62790
8.22825,60580
8.23637,57279
8.24450,56511
8.25262,61478
8.26073,61024
8.26887,58886
8.27698,57792
8.28512,59389
8.29323,56349
8.30135,59946
8.30948,58125
8.31760,59695
8.32572,58627
8.33385,68228
8.34197,71194
8.35010,77523
8.35822,78655
8.36633,75538
8.37447,68516
8.38258,66632
8.39072,61686
8.39883,65374
8.40695,59158
8.41508,61095
8.42320,60173
8.43132,57586
8.43945,58818
8.44757,58095
8.45570,57879
8.46382,59015
8.47193,63118
8.48007,59927
8.48818,59160
8.49632,63596
8.50443,64053
8.51255,67401
8.52068,70875
8.52880,74210
8.53693,68044
8.54505,66216
8.55317,61553
8.56130,60385
8.56942,60483
8.57753,66651
8.58567,62408
8.59378,62566
8.60192,61448
8.61003,58249
8.61815,58280
8.62628,59423
8.63440,56687
8.64253,57930
8.65065,57040
8.65877,57784
8.66690,56789
8.67502,53177
8.68313,52966
8.69127,55091
8.69938,49237
8.70752,55116
8.71563,59056
8.72375,58601
8.73188,62053
8.74000,77210
8.74813,113419
8.75625,170638
8.76437,246196
8.77250,312457
8.78062,308862
8.78875,258913
8.79687,206658
8.80498,159365
8.81312,140611
8.82123,130559
8.82935,123073
8.83748,112114
8.84560,106221
8.85373,93515
8.86185,93365
8.86997,84489
8.87810,85945
8.88622,78865
8.89435,88193
8.90247,80404
8.91058,77455
8.91872,78615
8.92683,77377
8.93497,77899
8.94308,73435
8.95120,73618
8.95933,73851
8.96745,70280
8.97557,77094
8.98370,69117
8.99182,72504
8.99995,69913
9.00807,72272
9.01618,71774
9.02432,68326
9.03243,70134
9.04057,67436
9.04868,69432
9.05680,69304
9.06493,65885
9.07305,72991
9.08117,71732
9.08930,63493
9.09742,65300
9.10555,66611
9.11367,64170
9.12178,67551
9.12992,69459
9.13803,65919
9.14617,65678
9.15428,63247
9.16240,64820
9.17053,64551
9.17865,66453
9.18678,65237
9.19490,61251
9.20302,60331
9.21115,60899
9.21927,60771
9.22738,57434
9.23552,56186
9.24363,55511
9.25177,64345
9.25988,60724
9.26800,62193
9.27613,58354
9.28425,64338
9.29238,64089
9.30050,59099
9.30862,60768
9.31675,61022
9.32487,60799
9.33300,59687
9.34112,64698
9.34923,62759
9.35737,66900
9.36548,65031
9.37360,63074
9.38173,61769
9.38985,65484
9.39798,60155
9.40610,54974
9.41422,57222
9.42235,58707
9.43047,54982
9.43860,60639
9.44672,60096
9.45483,56816
9.46297,58314
9.47108,54110
9.47920,51688
9.48733,55450
9.49545,58055
9.50358,54574
9.51170,58543
9.51982,52427
9.52795,52828
9.53607,59610
9.54420,56726
9.55232,57187
9.56043,55514
9.56857,50725
9.57668,48327
9.58482,45815
9.59293,45333
9.60105,44566
9.60918,49786
9.61730,47924
9.62542,47479
9.63355,42232
9.64167,45330
9.64980,45015
9.65792,46294
9.66603,44881
9.67417,40747
9.68228,40771
9.69042,43739
9.69853,45087
9.70665,39016
9.71478,39909
9.72290,41550
9.73103,37478
9.73915,39496
9.74727,40724
9.75540,40904
9.76352,40173
9.77163,37282
9.77977,40542
9.78788,39456
9.79602,38248
9.80413,39365
9.81225,39518
9.82038,37295
9.82850,36757
9.83663,39236
9.84475,38591
9.85287,38912
9.86100,40972
9.86912,38546
9.87723,37822
9.88537,36862
9.89348,40097
9.90162,38636
9.90973,38070
9.91785,37091
9.92598,39218
9.93410,39749
9.94223,39374
9.95035,36477
9.95847,35203
9.96660,39225
9.97472,45058
9.98285,43067
9.99097,46984
9.99908,49148
10.00722,52082
10.01533,46796
10.02345,44877
10.03158,45179
10.03970,48222
10.04783,44671
10.05595,41299
10.06407,36831
10.07220,39562
10.08032,37837
10.08845,38410
10.09657,42474
10.10468,38708
10.11282,35384
10.12093,38163
10.12905,37954
10.13718,34242
10.14530,35627
10.15343,40135
10.16155,37972
10.16967,41137
10.17780,36961
10.18592,35697
10.19405,37174
10.20217,36996
10.21028,36195
10.21842,39805
10.22653,42739
10.23467,44780
10.24278,44018
10.25090,41849
10.25903,43945
10.26715,43626
10.27527,42707
10.28340,43319
10.29152,47421
10.29965,41171
10.30777,43966
10.31588,42921
10.32402,45866
10.33213,46085
10.34027,41347
10.34838,39714
10.35650,43180
10.36463,40199
10.37275,42805
10.38088,38731
10.38900,48318
10.39712,45176
10.40525,48441
10.41337,49955
10.42148,48529
10.42962,44140
10.43773,41544
10.44587,37271
10.45398,37089
10.46210,37301
10.47023,36413
10.47835,38740
10.48648,39041
10.49460,37122
10.50272,34463
10.51085,34873
10.51897,35463
10.52708,39263
10.53522,41252
10.54333,41010
10.55147,39945
10.55958,42778
10.56770,41889
10.57583,41804
10.58395,39919
10.59208,38833
10.60020,38022
10.60832,38073
10.61645,37328
10.62457,35528
10.63270,37590
10.64082,34887
10.64893,36004
10.65707,31659
10.66518,34819
10.67330,35320
10.68143,37616
10.68955,39727
10.69768,39349
10.70580,38662
10.71392,39316
10.72205,41212
10.73017,43837
10.73830,46827
10.74642,39366
10.75453,40330
10.76267,43790
10.77078,42131
10.77892,43439
10.78703,44698
10.79515,39406
10.80328,39523
10.81140,39257
10.81952,39340
10.82765,34897
10.83577,35738
10.84390,36543
10.85202,34849
10.86013,35137
10.86827,33919
10.87638,35212
10.88452,36093
10.89263,36997
10.90075,34461
10.90888,31171
10.91700,30755
10.92512,35162
10.93325,35793
10.94137,35193
10.94950,33762
10.95762,32880
10.96573,36297
10.97387,33127
10.98198,36262
10.99012,37433
10.99823,37312
11.00635,38194
11.01448,38787
11.02260,35778
11.03073,33983
11.03885,34628
11.04697,32040
11.05510,35046
11.06322,33224
11.07133,35650
11.07947,30338
11.08758,32360
11.09572,32884
11.10383,34613
11.11195,28439
11.12008,35649
11.12820,39322
11.13633,36188
11.14445,38211
11.15257,37493
11.16070,36401
11.16882,41462
11.17693,37109
11.18507,36438
11.19318,34157
11.20132,37729
11.20943,35446
11.21755,38943
11.22568,38138
11.23380,37340
11.24193,39726
11.25005,35044
11.25817,39089
11.26630,37204
11.27442,42569
11.28255,40620
11.29067,47046
11.29878,58398
11.30692,76546
11.31503,89494
11.32315,92112
11.33128,93286
11.33940,83016
11.34753,84950
11.35565,79606
11.36377,71945
11.37190,67881
11.38002,63398
11.38815,56340
11.39627,48250
11.40438,43201
11.41252,43998
11.42063,42690
11.42877,37609
11.43688,44892
11.44500,42216
11.45313,36817
11.46125,37930
11.46937,37573
11.47750,35797
11.48562,34707
11.49375,33874
11.50187,34423
11.50998,37667
11.51812,36741
11.52623,39959
11.53437,43565
11.54248,46219
11.55060,48159
11.55873,47930
11.56685,46637
11.57498,47157
11.58310,44946
11.59122,46789
11.59935,47925
11.60747,48230
11.61558,42227
11.62372,41237
11.63183,41183
11.63997,35062
11.64808,37895
11.65620,37953
11.66433,38261
11.67245,35258
11.68058,39620
11.68870,42751
11.69682,44613
11.70495,49981
11.71307,55423
11.72118,56870
11.72932,54506
11.73743,54400
11.74557,57528
11.75368,50887
11.76180,51763
11.76993,51392
11.77805,54299
11.78618,51907
11.79430,49613
11.80242,46170
11.81055,46827
11.81867,43545
11.82680,40952
11.83492,40139
11.84303,45424
11.85117,43245
11.85928,42115
11.86740,39457
11.87553,41409
11.88365,38371
11.89178,42738
11.89990,39251
11.90802,35762
11.91615,37029
11.92427,40043
11.93240,39929
11.94052,41600
11.94863,45541
11.95677,48029
11.96488,48649
11.97300,52314
11.98113,50126
11.98925,52622
11.99738,48771
12.00550,45616
12.01362,44497
12.02175,41514
12.02987,38294
12.03800,42440
12.04612,34468
12.05423,34718
12.06237,33711
12.07048,34850
12.07862,35639
12.08673,37387
12.09485,33996
12.10298,40253
12.11110,38263
12.11922,33886
12.12735,30834
12.13547,37079
12.14360,35949
12.15172,35621
12.15983,35654
12.16797,33908
12.17608,34133
12.18422,36342
12.19233,32590
12.20045,33427
12.20858,32698
12.21670,32385
12.22483,32110
12.23295,33796
12.24107,31651
12.24920,33338
12.25732,33796
12.26543,33684
12.27357,32463
12.28168,30960
12.28982,32377
12.29793,32051
12.30605,33370
12.31418,31799
12.32230,32697
12.33043,33632
12.33855,34528
12.34667,33775
12.35480,32763
12.36292,31401
12.37103,30364
12.37917,31897
12.38728,32187
12.39542,31345
12.40353,34991
12.41165,32014
12.41978,32829
12.42790,32672
12.43603,33462
12.44415,38421
12.45227,32871
12.46040,37030
12.46852,33685
12.47665,37967
12.48477,34852
12.49288,34758
12.50102,33004
12.50913,34395
12.51725,31076
12.52538,33820
12.53350,33286
12.54163,31953
12.54975,32454
12.55787,32949
12.56600,32674
12.57412,29758
12.58225,31928
12.59037,33381
12.59848,25378
12.60662,29817
12.61473,29227
12.62287,28275
12.63098,28482
12.63910,29057
12.64723,29904
12.65535,28702
12.66347,29877
12.67160,28797
12.67972,28448
12.68785,30533
12.69597,27537
12.70408,32101
12.71222,30947
12.72033,30340
12.72847,31038
12.73658,37790
12.74470,35291
12.75283,31995
12.76095,32641
12.76907,34183
12.77720,34054
12.78532,29025
12.79345,32304
12.80157,32651
12.80968,36689
12.81782,37437
12.82593,36840
12.83407,35336
12.84218,37523
12.85030,37129
12.85843,33761
12.86655,34419
12.87468,36490
12.88280,31380
12.89092,35579
12.89905,31670
12.90717,30150
12.91528,31210
12.92342,30839
12.93153,30330
12.93967,31640
12.94778,31535
12.95590,37241
12.96403,42644
12.97215,54357
12.98028,66751
12.98840,72838
12.99652,86571
13.00465,85543
13.01277,81476
13.02088,80307
13.02902,70819
13.03713,64484
13.04527,55719
13.05338,51662
13.06150,43883
13.06963,44281
13.07775,42235
13.08588,35596
13.09400,37561
13.10212,38136
13.11025,39224
13.11837,35582
13.12650,36356
13.13462,35535
13.14273,34438
13.15087,33479
13.15898,32381
13.16710,35521
13.17523,33548
13.18335,36277
13.19148,35050
13.19960,37071
13.20772,35340
13.21585,37653
13.22397,35052
13.23210,31651
13.24022,34939
13.24833,32575
13.25647,40016
13.26458,38691
13.27272,41689
13.28083,41913
13.28895,46709
13.29708,46308
13.30520,48902
13.31332,46317
13.32145,44828
13.32957,46340
13.33770,46635
13.34582,42508
13.35393,45474
13.36207,49093
13.37018,45236
13.37832,42677
13.38643,42356
13.39455,39364
13.40268,38486
13.41080,33734
13.41892,37235
13.42705,33511
13.43517,33410
13.44330,35449
13.45142,33800
13.45953,37388
13.46767,34222
13.47578,34270
13.48392,30387
13.49203,31414
13.50015,29850
13.50828,34591
13.51640,30553
13.52453,32760
13.53265,29263
13.54077,31031
13.54890,35069
13.55702,37462
13.56513,36376
13.57327,43468
13.58138,39333
13.58952,41792
13.59763,45238
13.60575,51315
13.61388,46003
13.62200,44797
13.63013,49882
13.63825,49691
13.64637,50602
13.65450,54700
13.66262,51459
13.67075,54261
13.67887,50692
13.68698,49174
13.69512,46639
13.70323,41829
13.71135,40251
13.71948,36854
13.72760,38960
13.73573,37913
13.74385,36439
13.75197,40049
13.76010,41164
13.76822,41950
13.77635,40314
13.78447,37991
13.79258,39997
13.80072,35555
13.80883,40542
13.81695,36779
13.82508,35000
13.83320,34715
13.84133,35732
13.84945,34642
13.85757,34519
13.86570,35616
13.87382,39158
13.88195,36501
13.89007,39101
13.89818,38876
13.90632,39186
13.91443,42416
13.92257,46168
13.93068,46733
13.93880,44855
13.94693,46222
13.95505,47192
13.96317,43326
13.97130,44462
13.97942,41828
13.98755,39548
13.99567,38728
14.00378,38184
14.01192,40197
14.02003,42985
14.02817,40359
14.03628,41016
14.04440,40302
14.05253,39081
14.06065,44183
14.06878,38703
14.07690,38610
14.08502,44346
14.09315,42385
14.10127,39037
14.10938,44934
14.11752,43170
14.12563,41777
14.13377,41205
14.14188,48334
14.15000,70425
14.15813,86054
14.16625,112731
14.17438,147297
14.18250,151733
14.19062,144629
14.19875,125158
14.20687,108997
14.21498,86001
14.22312,80701
14.23123,72595
14.23937,69684
14.24748,65566
14.25560,63603
14.26373,61844
14.27185,56188
14.27998,58940
14.28810,54957
14.29622,52607
14.30435,51479
14.31247,46748
14.32060,45229
14.32872,41133
14.33683,39634
14.34497,37305
14.35308,34171
14.36120,32840
14.36933,34388
14.37745,31547
14.38558,31103
14.39370,31269
14.40182,34010
14.40995,33246
14.41807,30717
14.42620,35181
14.43432,31350
14.44243,32413
14.45057,31486
14.45868,34220
14.46680,30510
14.47493,34047
14.48305,32425
14.49118,34724
14.49930,30496
14.50742,27506
14.51555,33832
14.52367,31000
14.53180,31011
14.53992,27132
14.54803,30344
14.55617,32540
14.56428,31219
14.57242,28181
14.58053,30710
14.58865,29755
14.59678,28226
14.60490,30646
14.61302,27963
14.62115,29076
14.62927,29614
14.63740,31118
14.64552,32184
14.65363,31356
14.66177,28175
14.66988,28391
14.67802,30646
14.68613,30929
14.69425,30878
14.70238,30427
14.71050,30791
14.71863,30781
14.72675,28286
14.73487,27808
14.74300,30452
14.75112,29130
14.75923,30503
14.76737,28513
14.77548,29742
14.78362,30353
14.79173,30469
14.79985,31632
14.80798,28541
14.81610,31341
14.82423,31039
14.83235,29779
14.84047,33248
14.84860,35780
14.85672,37327
14.86483,34958
14.87297,34833
14.88108,33171
14.88922,33531
14.89733,33575
14.90545,34336
14.91358,36457
14.92170,35903
14.92983,33225
14.93795,31769
14.94607,31107
14.95420,32173
14.96232,30030
14.97045,32382
14.97857,30930
14.98668,33862
14.99482,33125
15.00293,34465
15.01105,34326
15.01918,31496
15.02730,30618
15.03543,30864
15.04355,29264
15.05167,32115
15.05980,31155
15.06792,29746
15.07605,32231
15.08417,27909
15.09228,30262
15.10042,30892
15.10853,29411
15.11667,30755
15.12478,28946
15.13290,28847
15.14103,28216
15.14915,29496
15.15727,30326
15.16540,29692
15.17352,30114
15.18165,32805
15.18977,30143
15.19788,30324
15.20602,31863
15.21413,29438
15.22227,29194
15.23038,30280
15.23850,28187
15.24663,27373
15.25475,27524
15.26287,28359
15.27100,29401
15.27912,29234
15.28725,31233
15.29537,27230
15.30348,31440
15.31162,28738
15.31973,26666
15.32787,27326
15.33598,31819
15.34410,27681
15.35223,27185
15.36035,30287
15.36848,28593
15.37660,27521
15.38472,25755
15.39285,29727
15.40097,29529
15.40908,31026
15.41722,28112
15.42533,28399
15.43347,28025
15.44158,26313
15.44970,26215
15.45783,25503
15.46595,26326
15.47408,23765
15.48220,26488
15.49032,28086
15.49845,27138
15.50657,29473
15.51468,24904
15.52282,26380
15.53093,27768
15.53907,27204
15.54718,27562
15.55530,28909
15.56343,27615
15.57155,29670
15.57968,28654
15.58780,25761
15.59592,26839
15.60405,26052
15.61217,26408
15.62030,25238
15.62842,28641
15.63653,28569
15.64467,25953
15.65278,28118
15.66090,25192
15.66903,29671
15.67715,27101
15.68528,24980
15.69340,30270
15.70152,32328
15.70965,26886
15.71777,27932
15.72590,26676
15.73402,27278
15.74213,27213
15.75027,30135
15.75838,27128
15.76652,29268
15.77463,31535
15.78275,27374
15.79088,31391
15.79900,30705
15.80712,32487
15.81525,29690
15.82337,27714
15.83150,26922
15.83962,28852
15.84773,28671
15.85587,27587
15.86398,28313
15.87212,28431
15.88023,25154
15.88835,24398
15.89648,23173
15.90460,27244
15.91273,27390
15.92085,24879
15.92897,26449
15.93710,29048
15.94522,28763
15.95333,25258
15.96147,26795
15.96958,26427
15.97772,29212
15.98583,32543
15.99395,29336
16.00208,30822
16.01020,28985
16.01833,32595
16.02645,33202
16.03457,30751
16.04270,33899
16.05082,33327
16.05893,31658
16.06707,29875
16.07518,28781
16.08332,30848
16.09143,31736
16.09955,26809
16.10768,29318
16.11580,28869
16.12393,28319
16.13205,28245
16.14017,28347
16.14830,24997
16.15642,28409
16.16455,25807
16.17267,30066
16.18078,28480
16.18892,27922
16.19703,24921
16.20515,26914
16.21328,24245
16.22140,30412
16.22953,29619
16.23765,27613
16.24577,25333
16.25390,28291
16.26202,28873
16.27015,27778
16.27827,27735
16.28638,28681
16.29452,27835
16.30263,29090
16.31075,27759
16.31888,28823
16.32700,29083
16.33513,31441
16.34325,31285
16.35137,31695
16.35950,32863
16.36762,30245
16.37575,30251
16.38387,28808
16.39198,27968
16.40012,32197
16.40823,27808
16.41637,26233
16.42448,25882
16.43260,28692
16.44073,27722
16.44885,27589
16.45697,28617
16.46510,28303
16.47322,26045
16.48135,28001
16.48947,28835
16.49758,29811
16.50572,28750
16.51383,29276
16.52197,30728
16.53008,28199
16.53820,27529
16.54633,26446
16.55445,27540
16.56258,33225
16.57070,28253
16.57882,32204
16.58695,31484
16.59507,32390
16.60318,30303
16.61132,31471
16.61943,29835
16.62757,31273
16.63568,28157
16.64380,30640
16.65193,31043
16.66005,27679
16.66818,25608
16.67630,31982
16.68442,28149
16.69255,27105
16.70067,29494
16.70878,26276
16.71692,27103
16.72503,27585
16.73317,26318
16.74128,25691
16.74940,28208
16.75753,27277
16.76565,28593
16.77378,25919
16.78190,29072
16.79002,26243
16.79815,29394
16.80627,29451
16.81440,27503
16.82252,28218
16.83063,28557
16.83877,30050
16.84688,29804
16.85500,26270
16.86313,27874
16.87125,27681
16.87938,29310
16.88750,26432
16.89562,27758
16.90375,27453
16.91187,26430
16.92000,30250
16.92812,27581
16.93623,26796
16.94437,27250
16.95248,26646
16.96062,28903
16.96873,27233
16.97685,29958
16.98498,26136
16.99310,28426
17.00122,24610
17.00935,29620
17.01747,26251
17.02560,28711
17.03372,32439
17.04183,29456
17.04997,28842
17.05808,28736
17.06622,29254
17.07433,28386
17.08245,29782
17.09058,29027
17.09870,27861
17.10682,30356
17.11495,28381
17.12307,25759
17.13120,31378
17.13932,28736
17.14743,32049
17.15557,30339
17.16368,29991
17.17182,29922
17.17993,31229
17.18805,32325
17.19618,32042
17.20430,29077
17.21243,27557
17.22055,30658
17.22867,27462
17.23680,28262
17.24492,26694
17.25303,29144
17.26117,31095
17.26928,29349
17.27742,25783
17.28553,29145
17.29365,27263
17.30178,29717
17.30990,29476
17.31803,28230
17.32615,30622
17.33427,30643
17.34240,29852
17.35052,28701
17.35863,31540
17.36677,33033
17.37488,32679
17.38302,36564
17.39113,33714
17.39925,33073
17.40738,35254
17.41550,37541
17.42363,36578
17.43175,35394
17.43987,30494
17.44800,30050
17.45612,33649
17.46425,30602
17.47237,32252
17.48048,35928
17.48862,30564
17.49673,29561
17.50485,34570
17.51298,36587
17.52110,32218
17.52923,37092
17.53735,42936
17.54547,44830
17.55360,51827
17.56172,52358
17.56985,50167
17.57797,45326
17.58608,46386
17.59422,44752
17.60233,41045
17.61047,35859
17.61858,34529
17.62670,33670
17.63483,33013
17.64295,35485
17.65107,29657
17.65920,32953
17.66732,32428
17.67545,36606
17.68357,31468
17.69168,36082
17.69982,32450
17.70793,32339
17.71607,29681
17.72418,34077
17.73230,33064
17.74043,30764
17.74855,30304
17.75667,29658
17.76480,32901
17.77292,28436
17.78105,32460
17.78917,29786
17.79728,31838
17.80542,31038
17.81353,33590
17.82167,27369
17.82978,32228
17.83790,31961
17.84603,33316
17.85415,35828
17.86228,35022
17.87040,32711
17.87852,34304
17.88665,34415
17.89477,31267
17.90288,29954
17.91102,27161
17.91913,28438
17.92727,28467
17.93538,28074
17.94350,28284
17.95163,26787
17.95975,29187
17.96788,27634
17.97600,29956
17.98412,31509
17.99225,27249
18.00037,29284
18.00850,25962
18.01662,28484
18.02473,31339
18.03287,29704
18.04098,35463
18.04910,31628
18.05723,30079
18.06535,32729
18.07348,36321
18.08160,37857
18.08972,41390
18.09785,33973
18.10597,41139
18.11410,40776
18.12222,38492
18.13033,39227
18.13847,41929
18.14658,41262
18.15470,38222
18.16283,34900
18.17095,37072
18.17908,34916
18.18720,36808
18.19532,34399
18.20345,36432
18.21157,35556
18.21970,38274
18.22782,33988
18.23593,35371
18.24407,35387
18.25218,35537
18.26032,38729
18.26843,33551
18.27655,30971
18.28468,31512
18.29280,30308
18.30092,31783
18.30905,30699
18.31717,29694
18.32530,31626
18.33342,30020
18.34153,29547
18.34967,27559
18.35778,31772
18.36592,27553
18.37403,31632
18.38215,32572
18.39028,32530
18.39840,31019
18.40652,34172
18.41465,32192
18.42277,33585
18.43090,36948
18.43902,38970
18.44713,42303
18.45527,39280
18.46338,47202
18.47152,45779
18.47963,45586
18.48775,44720
18.49588,44495
18.50400,44679
18.51213,41454
18.52025,44823
18.52837,45352
18.53650,45245
18.54462,41865
18.55273,47252
18.56087,46757
18.56898,45898
18.57712,45532
18.58523,46482
18.59335,47871
18.60148,46149
18.60960,47123
18.61773,47522
18.62585,46806
18.63397,43378
18.64210,44920
18.65022,43331
18.65835,43333
18.66647,42078
18.67458,44912
18.68272,42426
18.69083,44015
18.69895,46447
18.70708,39893
18.71520,41494
18.72333,40325
18.73145,40859
18.73957,38187
18.74770,39801
18.75582,37760
18.76395,36001
18.77207,36877
18.78018,37770
18.78832,38236
18.79643,35484
18.80455,33510
18.81268,39777
18.82080,36077
18.82893,38960
18.83705,40320
18.84517,36622
18.85330,34973
18.86142,33284
18.86955,32660
18.87767,35175
18.88578,37403
18.89392,36424
18.90203,34882
18.91017,38831
18.91828,40077
18.92640,36508
18.93453,36328
18.94265,33960
18.95077,34544
18.95890,33303
18.96702,34516
18.97515,35077
18.98327,34438
18.99138,35139
18.99952,34269
19.00763,34317
19.01577,34929
19.02388,42264
19.03200,38386
19.04013,38654
19.04825,38361
19.05638,36497
19.06450,34043
19.07262,35629
19.08075,37563
19.08887,41071
19.09698,40745
19.10512,43031
19.11323,43202
19.12137,44692
19.12948,39654
19.13760,46524
19.14573,54339
19.15385,49944
19.16198,47755
19.17010,50292
19.17822,48906
19.18635,50975
19.19447,44638
19.20258,45517
19.21072,41876
19.21883,39859
19.22697,35883
19.23508,37050
19.24320,35348
19.25133,34548
19.25945,33690
19.26758,36358
19.27570,35972
19.28382,34620
19.29195,36771
19.30007,39111
19.30820,37200
19.31632,38848
19.32443,34672
19.33257,35484
19.34068,34055
19.34880,32726
19.35693,33661
19.36505,33351
19.37318,29833
19.38130,32030
19.38942,32651
19.39755,30794
19.40567,33606
19.41380,31500
19.42192,32849
19.43003,34397
19.43817,42256
19.44628,47322
19.45442,62234
19.46253,85676
19.47065,106538
19.47878,101931
19.48690,100256
19.49502,83852
19.50315,58894
19.51127,47234
19.51940,44223
19.52752,41406
19.53563,36740
19.54377,33430
19.55188,34054
19.56002,33163
19.56813,37492
19.57625,33869
19.58438,34438
19.59250,34104
19.60062,32767
19.60875,32434
19.61687,32785
19.62500,33480
19.63312,38552
19.64123,41940
19.64937,48160
19.65748,53890
19.66562,57849
19.67373,51763
19.68185,53690
19.68998,54331
19.69810,48527
19.70623,40731
19.71435,40148
19.72247,37504
19.73060,39858
19.73872,38048
19.74683,38278
19.75497,33410
19.76308,34656
19.77122,32402
19.77933,33038
19.78745,35633
19.79558,32029
19.80370,38746
19.81183,36115
19.81995,32815
19.82807,35517
19.83620,33536
19.84432,35086
19.85243,36787
19.86057,36853
19.86868,41336
19.87682,47633
19.88493,60913
19.89305,81764
19.90118,97792
19.90930,126085
19.91743,142622
19.92555,147015
19.93367,161348
19.94180,158765
19.94992,150418
19.95805,140997
19.96617,128637
19.97428,122534
19.98242,123439
19.99053,122394
19.99865,118941
20.00678,111593
20.01490,115431
20.02303,109786
20.03115,100869
20.03927,96033
20.04740,90078
20.05552,75007
20.06365,60133
20.07177,52341
20.07988,54798
20.08802,49214
20.09613,46433
20.10427,50792
20.11238,47854
20.12050,42768
20.12863,42330
20.13675,40998
20.14487,44991
20.15300,40615
20.16112,41609
20.16925,45734
20.17737,44581
20.18548,45168
20.19362,47221
20.20173,43941
20.20987,45788
20.21798,48994
20.22610,45442
20.23423,43365
20.24235,47651
20.25047,51638
20.25860,55454
20.26672,60331
20.27485,63954
20.28297,60822
20.29108,55685
20.29922,59434
20.30733,54616
20.31547,45806
20.32358,42841
20.33170,42054
20.33983,38765
20.34795,37609
20.35608,37193
20.36420,32284
20.37232,34670
20.38045,33448
20.38857,34504
20.39668,35492
20.40482,35472
20.41293,33250
20.42107,33782
20.42918,39575
20.43730,37609
20.44543,35890
20.45355,37689
20.46168,35370
20.46980,38706
20.47792,37907
20.48605,38482
20.49417,33904
20.50230,33529
20.51042,35119
20.51853,31953
20.52667,34018
20.53478,31075
20.54290,32181
20.55103,33733
20.55915,31664
20.56728,29982
20.57540,30147
20.58352,27267
20.59165,30137
20.59977,27493
20.60790,29072
20.61602,29690
20.62413,29945
20.63227,31107
20.64038,35329
20.64850,28945
20.65663,29194
20.66475,30819
20.67288,30245
20.68100,29988
20.68912,30609
20.69725,31212
20.70537,29747
20.71350,29193
20.72162,31145
20.72973,30680
20.73787,28678
20.74598,28958
20.75412,34517
20.76223,32389
20.77035,31702
20.77848,31807
20.78660,31118
20.79472,32282
20.80285,32236
20.81097,30972
20.81910,30949
20.82722,30660
20.83533,32487
20.84347,30679
20.85158,28842
20.85972,30245
20.86783,28964
20.87595,29969
20.88408,30526
20.89220,31371
20.90032,30108
20.90845,28489
20.91657,31099
20.92470,27700
20.93282,26072
20.94093,30939
20.94907,30728
20.95718,30679
20.96532,29678
20.97343,31812
20.98155,33255
20.98968,30859
20.99780,30368
21.00593,28651
21.01405,29887
21.02217,29317
21.03030,31045
21.03842,28977
21.04653,30627
21.05467,30596
21.06278,33811
21.07092,30895
21.07903,31687
21.08715,30091
21.09528,32588
21.10340,30437
21.11153,30681
21.11965,30656
21.12777,32247
21.13590,29000
21.14402,25563
21.15215,32734
21.16027,32196
21.16838,30659
21.17652,30546
21.18463,34168
21.19275,32127
21.20088,33870
21.20900,31093
21.21713,32367
21.22525,32931
21.23337,35408
21.24150,33204
21.24962,32113
21.25775,32562
21.26587,34177
21.27398,32866
21.28212,32820
21.29023,37052
21.29837,36101
21.30648,32825
21.31460,30892
21.32273,32817
21.33085,32903
21.33897,31201
21.34710,31169
21.35522,34076
21.36335,32347
21.37147,34398
21.37958,31161
21.38772,30211
21.39583,33251
21.40397,28021
21.41208,30812
21.42020,33580
21.42833,32209
21.43645,29853
21.44457,32123
21.45270,36900
21.46082,37652
21.46895,32820
21.47707,27666
21.48518,29983
21.49332,31864
21.50143,32464
21.50957,30164
21.51768,33841
21.52580,31991
21.53393,30384
21.54205,30945
21.55018,29029
21.55830,29631
21.56642,28414
21.57455,28234
21.58267,31074
21.59078,33905
21.59892,37638
21.60703,34099
21.61517,36009
21.62328,34269
21.63140,37823
21.63953,38415
21.64765,35777
21.65578,33993
21.66390,32346
21.67202,30965
21.68015,30405
21.68827,30408
21.69638,31015
21.70452,34430
21.71263,32801
21.72077,28840
21.72888,26751
21.73700,26630
21.74513,30681
21.75325,32195
21.76138,31982
21.76950,29712
21.77762,30551
21.78575,33719
21.79387,33441
21.80200,32950
21.81012,36015
21.81823,35313
21.82637,35002
21.83448,36657
21.84260,33530
21.85073,30531
21.85885,31319
21.86698,26242
21.87510,34285
21.88322,30939
21.89135,28525
21.89947,30125
21.90760,29284
21.91572,30902
21.92383,31422
21.93197,34644
21.94008,31666
21.94822,29647
21.95633,30602
21.96445,30325
21.97258,30184
21.98070,32956
21.98882,29546
21.99695,29653
22.00507,31781
22.01320,31101
22.02132,30065
22.02943,31644
22.03757,30068
22.04568,31248
22.05382,34392
22.06193,31437
22.07005,32289
22.07818,31217
22.08630,31867
22.09442,34492
22.10255,32475
22.11067,34065
22.11880,32848
22.12692,33581
22.13503,32435
22.14317,32835
22.15128,32150
22.15942,34685
22.16753,30601
22.17565,30090
22.18378,32758
22.19190,30585
22.20003,28328
22.20815,31334
22.21627,32559
22.22440,30177
22.23252,30724
22.24063,28562
22.24877,28578
22.25688,30763
22.26502,31335
22.27313,27925
22.28125,29795
22.28938,29870
22.29750,31055
22.30563,31353
22.31375,31733
22.32187,34033
22.33000,30984
22.33812,32730
22.34625,34259
22.35437,36381
22.36248,31837
22.37062,31338
22.37873,32120
22.38685,29830
22.39498,31479
22.40310,29892
22.41123,30014
22.41935,32576
22.42747,30560
22.43560,32558
22.44372,30582
22.45185,31375
22.45997,28829
22.46808,31914
22.47622,36333
22.48433,29478
22.49245,31276
22.50058,32628
22.50870,29381
22.51683,31346
22.52495,29864
22.53307,32620
22.54120,33802
22.54932,28780
22.55745,29011
22.56557,28441
22.57368,28301
22.58182,28025
22.58993,28397
22.59807,28440
22.60618,30832
22.61430,30032
22.62243,29397
22.63055,27623
22.63867,29661
22.64680,29462
22.65492,30665
22.66305,28052
22.67117,26302
22.67928,27816
22.68742,31808
22.69553,30563
22.70367,30374
22.71178,31486
22.71990,32336
22.72803,32112
22.73615,30449
22.74427,29927
22.75240,32753
22.76052,26498
22.76865,30654
22.77677,29536
22.78488,29327
22.79302,28569
22.80113,28758
22.80927,31082
22.81738,28420
22.82550,28750
22.83363,32982
22.84175,34130
22.84988,31145
22.85800,29534
22.86612,31563
22.87425,33063
22.88237,33298
22.89048,34306
22.89862,36243
22.90673,36810
22.91487,37674
22.92298,43032
22.93110,39023
22.93923,41578
22.94735,42747
22.95548,42883
22.96360,44970
22.97172,42896
22.97985,40528
22.98797,40427
22.99610,40221
23.00422,36432
23.01233,34837
23.02047,37034
23.02858,38605
23.03670,33198
23.04483,32797
23.05295,32296
23.06108,35263
23.06920,32860
23.07732,30565
23.08545,30590
23.09357,31005
23.10170,27266
23.10982,30703
23.11793,29361
23.12607,28302
23.13418,26840
23.14230,30458
23.15043,26935
23.15855,29698
23.16668,27999
23.17480,30683
23.18292,33025
23.19105,28748
23.19917,27312
23.20730,33765
23.21542,29771
23.22353,31844
23.23167,31490
23.23978,29272
23.24792,31488
23.25603,30118
23.26415,30092
23.27228,28983
23.28040,28511
23.28852,31060
23.29665,29988
23.30477,32470
23.31290,31225
23.32102,30970
23.32913,31252
23.33727,30328
23.34538,30331
23.35352,30740
23.36163,33971
23.36975,33681
23.37788,31523
23.38600,33558
23.39413,34236
23.40225,35541
23.41037,35224
23.41850,32559
23.42662,35094
23.43473,35131
23.44287,28849
23.45098,31122
23.45912,34515
23.46723,30041
23.47535,30473
23.48348,30241
23.49160,32049
23.49973,33348
23.50785,28593
23.51597,26929
23.52410,29494
23.53222,29965
23.54033,29265
23.54847,29513
23.55658,30810
23.56472,31987
23.57283,35113
23.58095,34959
23.58908,32352
23.59720,34150
23.60533,34963
23.61345,33072
23.62157,35045
23.62970,35931
23.63782,35751
23.64595,38369
23.65407,38134
23.66218,41762
23.67032,36349
23.67843,39868
23.68655,40822
23.69468,36221
23.70280,40598
23.71093,35128
23.71905,38274
23.72717,38701
23.73530,46095
23.74342,63708
23.75155,104065
23.75967,189377
23.76778,339032
23.77592,518719
23.78403,713764
23.79215,855572
23.80028,832777
23.80840,731150
23.81653,588506
23.82465,464019
23.83277,374356
23.84090,297856
23.84902,240943
23.85715,195955
23.86527,177038
23.87338,154377
23.88152,137609
23.88963,123184
23.89777,115152
23.90588,109743
23.91400,104382
23.92213,98206
23.93025,85653
23.93837,85426
23.94650,79744
23.95462,79908
23.96275,72790
23.97087,71152
23.97898,70925
23.98712,64915
23.99523,68525
24.00337,63168
24.01148,63878
24.01960,59179
24.02773,60037
24.03585,65574
24.04398,52798
24.05210,55865
24.06022,58871
24.06835,55350
24.07647,53392
24.08458,54524
24.09272,54875
24.10083,52503
24.10897,49689
24.11708,52820
24.12520,51828
24.13333,47559
24.14145,49881
24.14958,47308
24.15770,49403
24.16582,49380
24.17395,49712
24.18207,51724
24.19018,55640
24.19832,55610
24.20643,51682
24.21457,51572
24.22268,51516
24.23080,44764
24.23893,44708
24.24705,43949
24.25518,45926
24.26330,41326
24.27142,42383
24.27955,41601
24.28767,45214
24.29580,43001
24.30392,39477
24.31203,37743
24.32017,42721
24.32828,47078
24.33640,51054
24.34453,61210
24.35265,75338
24.36078,81008
24.36890,76634
24.37702,67758
24.38515,55408
24.39327,48591
24.40140,45879
24.40952,41882
24.41763,41057
24.42577,38232
24.43388,37470
24.44202,37454
24.45013,39395
24.45825,39390
24.46638,42164
24.47450,45006
24.48262,42877
24.49075,42870
24.49887,39714
24.50700,38870
24.51512,36296
24.52323,38365
24.53137,35773
24.53948,33560
24.54762,38495
24.55573,40190
24.56385,33745
24.57198,37830
24.58010,37374
24.58822,35166
24.59635,37843
24.60447,36355
24.61260,37709
24.62072,35955
24.62883,34631
24.63697,39222
24.64508,36978
24.65322,34605
24.66133,36290
24.66945,37164
24.67758,32492
24.68570,36638
24.69383,32769
24.70195,37137
24.71007,35352
24.71820,32774
24.72632,31283
24.73443,35031
24.74257,33189
24.75068,35054
24.75882,35256
24.76693,34988
24.77505,37827
24.78318,36194
24.79130,33612
24.79943,36102
24.80755,36880
24.81567,35556
24.82380,34797
24.83192,33185
24.84005,33003
24.84817,34021
24.85628,33869
24.86442,34039
24.87253,33521
24.88065,33075
24.88878,34345
24.89690,34183
24.90503,33457
24.91315,33257
24.92127,34956
24.92940,36005
24.93752,31433
24.94565,31947
24.95377,31486
24.96188,31527
24.97002,29093
24.97813,30527
24.98625,34056
24.99438,32234
25.00250,34314
25.01063,31379
25.01875,30614
25.02687,35013
25.03500,33547
25.04312,35492
25.05125,35607
25.05937,35639
25.06748,36878
25.07562,34453
25.08373,35421
25.09187,31091
25.09998,33415
25.10810,33654
25.11623,38645
25.12435,40580
25.13247,38488
25.14060,46848
25.14872,49367
25.15685,48663
25.16497,48794
25.17308,42130
25.18122,39657
25.18933,39435
25.19747,37386
25.20558,31848
25.21370,33392
25.22183,36593
25.22995,32857
25.23807,33608
25.24620,33123
25.25432,29661
25.26245,31388
25.27057,35131
25.27868,36293
25.28682,34868
25.29493,37435
25.30307,39462
25.31118,41326
25.31930,43807
25.32743,42195
25.33555,40357
25.34368,38832
25.35180,34801
25.35992,37326
25.36805,32371
25.37617,32861
25.38428,33673
25.39242,31987
25.40053,30801
25.40867,32014
25.41678,30161
25.42490,32970
25.43303,31514
25.44115,33611
25.44928,28737
25.45740,31501
25.46552,29592
25.47365,30556
25.48177,30114
25.48990,28392
25.49802,33819
25.50613,31381
25.51427,31139
25.52238,27752
25.53050,31675
25.53863,33641
25.54675,31346
25.55488,28745
25.56300,29879
25.57112,28918
25.57925,30634
25.58737,30741
25.59550,27111
25.60362,28405
25.61173,28896
25.61987,31180
25.62798,27999
25.63610,30970
25.64423,28953
25.65235,29988
25.66048,31179
25.66860,30160
25.67672,27151
25.68485,29249
25.69297,28974
25.70110,25503
25.70922,27289
25.71733,29524
25.72547,30141
25.73358,29936
25.74172,31568
25.74983,32152
25.75795,28840
25.76608,29552
25.77420,30339
25.78232,29749
25.79045,25516
25.79857,26788
25.80670,26374
25.81482,29219
25.82293,28732
25.83107,28198
25.83918,28681
25.84732,27809
25.85543,26682
25.86355,24191
25.87168,27772
25.87980,27944
25.88793,28171
25.89605,26382
25.90417,26054
25.91230,29603
25.92042,29328
25.92853,31413
25.93667,30679
25.94478,27159
25.95292,26798
25.96103,27815
25.96915,26080
25.97728,27067
25.98540,25125
25.99353,26268
26.00165,24108
26.00977,24735
26.01790,25662
26.02602,27379
26.03413,27069
26.04227,26522
26.05038,25613
26.05852,28401
26.06663,28396
26.07475,27471
26.08288,26625
26.09100,27908
26.09913,25064
26.10725,29008
26.11537,27849
26.12350,32976
26.13162,32561
26.13975,35845
26.14787,35744
26.15598,35238
26.16412,36796
26.17223,34563
26.18035,32767
26.18848,29521
26.19660,28109
26.20473,30266
26.21285,27820
26.22097,32023
26.22910,27832
26.23722,25636
26.24535,28073
26.25347,26717
26.26158,26251
26.26972,27809
26.27783,28341
26.28595,26579
26.29408,26315
26.30220,27430
26.31033,25295
26.31845,28496
26.32657,28797
26.33470,28309
26.34282,27123
26.35095,28919
26.35907,30830
26.36718,29260
26.37532,27459
26.38343,28132
26.39157,30031
26.39968,26832
26.40780,28639
26.41593,25136
26.42405,28817
26.43217,28346
26.44030,25718
26.44842,31149
26.45655,28662
26.46467,28360
26.47278,28272
26.48092,29377
26.48903,28625
26.49717,28589
26.50528,28485
26.51340,26446
26.52153,28222
26.52965,24795
26.53778,25679
26.54590,28928
26.55402,26605
26.56215,26949
26.57027,28480
26.57838,26966
26.58652,31450
26.59463,27664
26.60277,32115
26.61088,29337
26.61900,26526
26.62713,30853
26.63525,31031
26.64338,28492
26.65150,24319
26.65962,29105
26.66775,26612
26.67587,27400
26.68400,32141
26.69212,25387
26.70023,27476
26.70837,27678
26.71648,28101
26.72460,31494
26.73273,27345
26.74085,27401
26.74898,26546
26.75710,28312
26.76522,30484
26.77335,23813
26.78147,28727
26.78960,26626
26.79772,25176
26.80583,29060
26.81397,27948
26.82208,28053
26.83020,27239
26.83833,26939
26.84645,26367
26.85458,29405
26.86270,25498
26.87082,25978
26.87895,27223
26.88707,27013
26.89520,29405
26.90332,28870
26.91143,26642
26.91957,27050
26.92768,25633
26.93582,29090
26.94393,27499
26.95205,34206
26.96018,37483
26.96830,45030
26.97642,63958
26.98455,75819
26.99267,93297
27.00080,100222
27.00892,104169
27.01703,103528
27.02517,92893
27.03328,79454
27.04142,74026
27.04953,64599
27.05765,58740
27.06578,50467
27.07390,46112
27.08202,46010
27.09015,43384
27.09827,37709
27.10640,38710
27.11452,36070
27.12263,35027
27.13077,37070
27.13888,35001
27.14702,32109
27.15513,36814
27.16325,35859
27.17138,34612
27.17950,36746
27.18763,34728
27.19575,34503
27.20387,32517
27.21200,33200
27.22012,33043
27.22823,31057
27.23637,29235
27.24448,29873
27.25262,33002
27.26073,32417
27.26885,30098
27.27698,30799
27.28510,31853
27.29323,28091
27.30135,28390
27.30947,33980
27.31760,31499
27.32572,29317
27.33385,27943
27.34197,30072
27.35008,30756
27.35822,30823
27.36633,26428
27.37445,31065
27.38258,29672
27.39070,31496
27.39883,29076
27.40695,27247
27.41507,28851
27.42320,31175
27.43132,27705
27.43945,27394
27.44757,26633
27.45568,28918
27.46382,27506
27.47193,24091
27.48005,26183
27.48818,30421
27.49630,27672
27.50443,26492
27.51255,29571
27.52067,29067
27.52880,27582
27.53692,24789
27.54505,27121
27.55317,27297
27.56128,29349
27.56942,29645
27.57753,35265
27.58567,29290
27.59378,31038
27.60190,30357
27.61003,28336
27.61815,29799
27.62627,27809
27.63440,27210
27.64252,28218
27.65065,31164
27.65877,29260
27.66688,27555
27.67502,27415
27.68313,24279
27.69127,25685
27.69938,30503
27.70750,25228
27.71563,28396
27.72375,29542
27.73188,33309
27.74000,37042
27.74812,34076
27.75625,37046
27.76437,32697
27.77248,31793
27.78062,30613
27.78873,31046
27.79687,27722
27.80498,29136
27.81310,28061
27.82123,29223
27.82935,29386
27.83748,28202
27.84560,29525
27.85372,30050
27.86185,29181
27.86997,27825
27.87808,25792
27.88622,28982
27.89433,27268
27.90247,27548
27.91058,27076
27.91870,26822
27.92683,24980
27.93495,23656
27.94308,26925
27.95120,29301
27.95932,27197
27.96745,25627
27.97557,28896
27.98370,30368
27.99182,31567
27.99993,30766
28.00807,28555
28.01618,30752
28.02430,30560
28.03243,27254
28.04055,29314
28.04868,27913
28.05680,31235
28.06492,28051
28.07305,32075
28.08117,34070
28.08930,37393
28.09742,43381
28.10553,53528
28.11367,54765
28.12178,51107
28.12990,44923
28.13803,46480
28.14615,39084
28.15428,36166
28.16240,34633
28.17052,28809
28.17865,30190
28.18677,27461
28.19490,30165
28.20302,29881
28.21113,28209
28.21927,28918
28.22738,29057
28.23552,26461
28.24363,32862
28.25175,30052
28.25988,29061
28.26800,33795
28.27612,37869
28.28425,42188
28.29237,44682
28.30050,49309
28.30862,53568
28.31673,58646
28.32487,61353
28.33298,60999
28.34112,60765
28.34923,58356
28.35735,58534
28.36548,58402
28.37360,52750
28.38173,51491
28.38985,47210
28.39797,44146
28.40610,42617
28.41422,42818
28.42233,37463
28.43047,39758
28.43858,40546
28.44672,35946
28.45483,37901
28.46295,33453
28.47108,34640
28.47920,32546
28.48733,33387
28.49545,33225
28.50357,32432
28.51170,34570
28.51982,28935
28.52793,31001
28.53607,36563
28.54418,35286
28.55232,32403
28.56043,30323
28.56855,30056
28.57668,29908
28.58480,31604
28.59293,30722
28.60105,31158
28.60917,29316
28.61730,31602
28.62542,29871
28.63355,36337
28.64167,37263
28.64978,34335
28.65792,39932
28.66603,42328
28.67415,37388
28.68228,38798
28.69040,35266
28.69853,36545
28.70665,39981
28.71477,44296
28.72290,44276
28.73102,43393
28.73915,44615
28.74727,42451
28.75538,36370
28.76352,33606
28.77163,33391
28.77977,32618
28.78788,29929
28.79600,28785
28.80413,28579
28.81225,32494
28.82037,29403
28.82850,27381
28.83662,30968
28.84475,34109
28.85287,30573
28.86098,29376
28.86912,28850
28.87723,30024
28.88537,26739
28.89348,30810
28.90160,29472
28.90973,28636
28.91785,28425
28.92597,31060
28.93410,29310
28.94222,29904
28.95035,31576
28.95847,33769
28.96658,32439
28.97472,30895
28.98283,30570
28.99097,30489
28.99908,34084
29.00720,30147
29.01533,29734
29.02345,29922
29.03158,29905
29.03970,28167
29.04782,29713
29.05595,29443
29.06407,26055
29.07218,30516
29.08032,28936
29.08843,29052
29.09657,29602
29.10468,29535
29.11280,30230
29.12093,26092
29.12905,25636
29.13718,30131
29.14530,30923
29.15342,33341
29.16155,31596
29.16967,29987
29.17778,28230
29.18592,28560
29.19403,29797
29.20217,31971
29.21028,28677
29.21840,28141
29.22653,29948
29.23465,31482
29.24278,34127
29.25090,32641
29.25902,37420
29.26715,35301
29.27527,34396
29.28340,34275
29.29152,31238
29.29963,28239
29.30777,31518
29.31588,31880
29.32400,30752
29.33213,29964
29.34025,31278
29.34838,32921
29.35650,29787
29.36462,30052
29.37275,28415
29.38087,25080
29.38900,28874
29.39712,28521
29.40523,28709
29.41337,31661
29.42148,29905
29.42962,30555
29.43773,30945
29.44585,30518
29.45398,30213
29.46210,26895
29.47022,31689
29.47835,30581
29.48647,29304
29.49460,33752
29.50272,32055
29.51083,35798
29.51897,33708
29.52708,33037
29.53522,30518
29.54333,30490
29.55145,32609
29.55958,31902
29.56770,34144
29.57582,36888
29.58395,36477
29.59207,40335
29.60020,40708
29.60832,42063
29.61643,40721
29.62457,33355
29.63268,36214
29.64082,30630
29.64893,29398
29.65705,28227
29.66518,29038
29.67330,26847
29.68143,27736
29.68955,28031
29.69767,31989
29.70580,30568
29.71392,28536
29.72203,30275
29.73017,28030
29.73828,29497
29.74642,27905
29.75453,26591
29.76265,27366
29.77078,26014
29.77890,29415
29.78703,28107
29.79515,28256
29.80327,27743
29.81140,25880
29.81952,26009
29.82765,27314
29.83577,29146
29.84388,28003
29.85202,26206
29.86013,27886
29.86825,32878
29.87638,33091
29.88450,32108
29.89263,33071
29.90075,34472
29.90887,37695
29.91700,43411
29.92512,40469
29.93325,50756
29.94137,47633
29.94948,50196
29.95762,52087
29.96573,54396
29.97385,57434
29.98198,57832
29.99010,54074
29.99823,52232
30.00635,48783
30.01447,45269
30.02260,41872
30.03072,44339
30.03885,41304
30.04697,38616
30.05508,39810
30.06322,40596
30.07133,38960
30.07947,41859
30.08758,37871
30.09570,37235
30.10383,35147
30.11195,36244
30.12007,36313
30.12820,35775
30.13632,34329
30.14445,34387
30.15257,31924
30.16068,37246
30.16882,35772
30.17693,32446
30.18507,34153
30.19318,31822
30.20130,29912
30.20943,29981
30.21755,33922
30.22568,32439
30.23380,32170
30.24192,31854
30.25005,34975
30.25817,31755
30.26628,34540
30.27442,27201
30.28253,31574
30.29067,30738
30.29878,35001
30.30690,31142
30.31503,28369
30.32315,31760
30.33128,32159
30.33940,31456
30.34752,29326
30.35565,30381
30.36377,32094
30.37188,31512
30.38002,31350
30.38813,29598
30.39627,29496
30.40438,33041
30.41250,32524
30.42063,29825
30.42875,31236
30.43688,28869
30.44500,28411
30.45312,35014
30.46125,36037
30.46937,28492
30.47750,29735
30.48562,31856
30.49373,26418
30.50187,32172
30.50998,28586
30.51810,29919
30.52623,32893
30.53435,34735
30.54248,30529
30.55060,32457
30.55872,28288
30.56685,34356
30.57497,30898
30.58310,29120
30.59122,31150
30.59933,29891
30.60747,31300
30.61558,29064
30.62370,28825
30.63183,30161
30.63995,29913
30.64808,30158
30.65620,27361
30.66432,26880
30.67245,31583
30.68057,30446
30.68870,30668
30.69682,31738
30.70493,30986
30.71307,31045
30.72118,28375
30.72932,29659
30.73743,28576
30.74555,34883
30.75368,30525
30.76180,29130
30.76992,32181
30.77805,29724
30.78617,31537
30.79430,30155
30.80242,32650
30.81053,40905
30.81867,35710
30.82678,33876
30.83492,29819
30.84303,32661
30.85115,30483
30.85928,31475
30.86740,28907
30.87553,30055
30.88365,29102
30.89177,27854
30.89990,26773
30.90802,33522
30.91613,30678
30.92427,28294
30.93238,29544
30.94052,27554
30.94863,31642
30.95675,29908
30.96488,28724
30.97300,31251
30.98113,32087
30.98925,27525
30.99737,29829
31.00550,27892
31.01362,30486
31.02173,27124
31.02987,32402
31.03798,28313
31.04612,30987
31.05423,31458
31.06235,31543
31.07048,38684
31.07860,33187
31.08673,38110
31.09485,30846
31.10297,35106
31.11110,34028
31.11922,33377
31.12735,32177
31.13547,31803
31.14358,28921
31.15172,31797
31.15983,32928
31.16795,36766
31.17608,49287
31.18420,56086
31.19233,75672
31.20045,84848
31.20857,101945
31.21670,101697
31.22482,93928
31.23295,83753
31.24107,65134
31.24918,53352
31.25732,46125
31.26543,38204
31.27357,40035
31.28168,33106
31.28980,34509
31.29793,32382
31.30605,30107
31.31417,31025
31.32230,31382
31.33042,31883
31.33855,32529
31.34667,32785
31.35478,33300
31.36292,31570
31.37103,31565
31.37917,33150
31.38728,31517
31.39540,30919
31.40353,30900
31.41165,31445
31.41977,29935
31.42790,31098
31.43602,29626
31.44415,33981
31.45227,33743
31.46038,30784
31.46852,34812
31.47663,32228
31.48477,30324
31.49288,27632
31.50100,33829
31.50913,30596
31.51725,34396
31.52538,29990
31.53350,33821
31.54162,32925
31.54975,30637
31.55787,32793
31.56598,32426
31.57412,31105
31.58223,30361
31.59037,33692
31.59848,33531
31.60660,29684
31.61473,33796
31.62285,30292
31.63098,33747
31.63910,33188
31.64722,29994
31.65535,32911
31.66347,32967
31.67158,36303
31.67972,38521
31.68783,36110
31.69597,37260
31.70408,37128
31.71220,35524
31.72033,36190
31.72845,36926
31.73658,33413
31.74470,32000
31.75282,33157
31.76095,31616
31.76907,31895
31.77720,32254
31.78532,35428
31.79343,32550
31.80157,31651
31.80968,32441
31.81780,37999
31.82593,33164
31.83405,34382
31.84218,34654
31.85030,38921
31.85842,37856
31.86655,39548
31.87467,43566
31.88280,43046
31.89092,46960
31.89903,43165
31.90717,46081
31.91528,42122
31.92342,46777
31.93153,46841
31.93965,40968
31.94778,43415
31.95590,36213
31.96402,36826
31.97215,39566
31.98027,39656
31.98840,38196
31.99652,37476
32.00463,36053
32.01277,39396
32.02088,39557
32.02902,40638
32.03713,39567
32.04525,35817
32.05338,36895
32.06150,37908
32.06962,37821
32.07775,31626
32.08587,34234
32.09400,34611
32.10212,32863
32.11023,30149
32.11837,35302
32.12648,33881
32.13462,32264
32.14273,33060
32.15085,35059
32.15898,31669
32.16710,33130
32.17523,32061
32.18335,32441
32.19147,33890
32.19960,31728
32.20772,33631
32.21583,35438
32.22397,29206
32.23208,31785
32.24022,32320
32.24833,32767
32.25645,35486
32.26458,33169
32.27270,33790
32.28083,35262
32.28895,35702
32.29707,34729
32.30520,35429
32.31332,34191
32.32145,34144
32.32957,37610
32.33768,38023
32.34582,32804
32.35393,34056
32.36205,32503
32.37018,35667
32.37830,36134
32.38643,33670
32.39455,31036
32.40267,36442
32.41080,33581
32.41892,33506
32.42705,33295
32.43517,31098
32.44328,40713
32.45142,34931
32.45953,32536
32.46765,31229
32.47578,34594
32.48390,35615
32.49203,32582
32.50015,32891
32.50827,34351
32.51640,31058
32.52452,30878
32.53265,34101
32.54077,31093
32.54888,33912
32.55702,35620
32.56513,34598
32.57327,33092
32.58138,34564
32.58950,35343
32.59763,40204
32.60575,41855
32.61387,49886
32.62200,48015
32.63012,41470
32.63825,43001
32.64637,37429
32.65448,38720
32.66262,35269
32.67073,39009
32.67887,40113
32.68698,35090
32.69510,36425
32.70323,41229
32.71135,37831
32.71947,38709
32.72760,34182
32.73572,35966
32.74385,32401
32.75197,34296
32.76008,31094
32.76822,34111
32.77633,31578
32.78447,35771
32.79258,33470
32.80070,34735
32.80883,34787
32.81695,32766
32.82508,34262
32.83320,35737
32.84132,32016
32.84945,33298
32.85757,33854
32.86568,31823
32.87382,33657
32.88193,33219
32.89007,33123
32.89818,31218
32.90630,32561
32.91443,33070
32.92255,36576
32.93068,41207
32.93880,37431
32.94692,36766
32.95505,34695
32.96317,36283
32.97130,33168
32.97942,34140
32.98753,32426
32.99567,35948
33.00378,33321
33.01190,35755
33.02003,34712
33.02815,32337
33.03628,32304
33.04440,36353
33.05252,34217
33.06065,36064
33.06877,33420
33.07690,35613
33.08502,37049
33.09313,43796
33.10127,43517
33.10938,46483
33.11752,50063
33.12563,47119
33.13375,46209
33.14188,45024
33.15000,37962
33.15812,36910
33.16625,37836
33.17437,35566
33.18250,36004
33.19062,36418
33.19873,36971
33.20687,33890
33.21498,34181
33.22312,37698
33.23123,33998
33.23935,34760
33.24748,33273
33.25560,36356
33.26372,32439
33.27185,35913
33.27997,36453
33.28810,38518
33.29622,36619
33.30433,32083
33.31247,40152
33.32058,35409
33.32872,31759
33.33683,34509
33.34495,35189
33.35308,34787
33.36120,34623
33.36933,35592
33.37745,35225
33.38557,34897
33.39370,36966
33.40182,34972
33.40993,40224
33.41807,37468
33.42618,31304
33.43432,37090
33.44243,38041
33.45055,34005
33.45868,34410
33.46680,34732
33.47493,37785
33.48305,36783
33.49117,35266
33.49930,34788
33.50742,39557
33.51553,40041
33.52367,36492
33.53178,35892
33.53992,35634
33.54803,35975
33.55615,32585
33.56428,33827
33.57240,34410
33.58053,36879
33.58865,30430
33.59677,35525
33.60490,34473
33.61302,33393
33.62115,36462
33.62927,37693
33.63738,33128
33.64552,35467
33.65363,37644
33.66175,36184
33.66988,35740
33.67800,35748
33.68613,32663
33.69425,38075
33.70237,35390
33.71050,36245
33.71862,35934
33.72675,38732
33.73487,41219
33.74298,41863
33.75112,39001
33.75923,40289
33.76737,40976
33.77548,40158
33.78360,40403
33.79173,42597
33.79985,44525
33.80797,42970
33.81610,42682
33.82422,44064
33.83235,46046
33.84047,43943
33.84858,48321
33.85672,44628
33.86483,40812
33.87297,44266
33.88108,50363
33.88920,46448
33.89733,48008
33.90545,45804
33.91357,47457
33.92170,45365
33.92982,48881
33.93795,46763
33.94607,47555
33.95418,47594
33.96232,51373
33.97043,48748
33.97857,43730
33.98668,43498
33.99480,45463
34.00293,45776
34.01105,46826
34.01918,45192
34.02730,44039
34.03542,43180
34.04355,44687
34.05167,41124
34.05978,42182
34.06792,44010
34.07603,40996
34.08417,40672
34.09228,41169
34.10040,39889
34.10853,40535
34.11665,43981
34.12478,44343
34.13290,41974
34.14102,38982
34.14915,47222
34.15727,42645
34.16540,44344
34.17352,41057
34.18163,44020
34.18977,42693
34.19788,39573
34.20600,40600
34.21413,40547
34.22225,39872
34.23038,40916
34.23850,37223
34.24662,41205
34.25475,40918
34.26287,41303
34.27100,40541
34.27912,37694
34.28723,39977
34.29537,40379
34.30348,37918
34.31160,36695
34.31973,42975
34.32785,43307
34.33598,41021
34.34410,41227
34.35222,40420
34.36035,40422
34.36847,40578
34.37660,41874
34.38472,38261
34.39283,38553
34.40097,41782
34.40908,41269
34.41722,41275
34.42533,36152
34.43345,37267
34.44158,41324
34.44970,41177
34.45782,46001
34.46595,47796
34.47407,48869
34.48220,51188
34.49032,50852
34.49843,54524
34.50657,51515
34.51468,52413
34.52282,55465
34.53093,56306
34.53905,51869
34.54718,51014
34.55530,53608
34.56342,49171
34.57155,50418
34.57967,48051
34.58780,47198
34.59592,48646
34.60403,49184
34.61217,49873
34.62028,55864
34.62842,52138
34.63653,50055
34.64465,48248
34.65278,49267
34.66090,51732
34.66903,52914
34.67715,53730
34.68527,57617
34.69340,51514
34.70152,51101
34.70963,50616
34.71777,49048
34.72588,47129
34.73402,54322
34.74213,51886
34.75025,50029
34.75838,48247
34.76650,49651
34.77463,49626
34.78275,48656
34.79087,48713
34.79900,48516
34.80712,44507
34.81525,42765
34.82337,46301
34.83148,43843
34.83962,48346
34.84773,43969
34.85585,50311
34.86398,43949
34.87210,43306
34.88023,46539
34.88835,42801
34.89647,42276
34.90460,46292
34.91272,43895
34.92085,44416
34.92897,46593
34.93708,44395
34.94522,43992
34.95333,47487
34.96145,49568
34.96958,43718
34.97770,45610
34.98583,49958
34.99395,44446
35.00207,48025
35.01020,43719
35.01832,41976
35.02645,42224
35.03457,39207
35.04268,45186
35.05082,45436
35.05893,44355
35.06707,42200
35.07518,47212
35.08330,44899
35.09143,44674
35.09955,43188
35.10767,42923
35.11580,44287
35.12392,47763
35.13205,46611
35.14017,43858
35.14828,45554
35.15642,44345
35.16453,44090
35.17267,45378
35.18078,39216
35.18890,44931
35.19703,44523
35.20515,43441
35.21328,44723
35.22140,42901
35.22952,45270
35.23765,43415
35.24577,45021
35.25388,42224
35.26202,43827
35.27013,44878
35.27827,46300
35.28638,45073
35.29450,43877
35.30263,44620
35.31075,45077
35.31888,45995
35.32700,46122
35.33512,47434
35.34325,50177
35.35137,46495
35.35948,41182
35.36762,44533
35.37573,46060
35.38387,48335
35.39198,46917
35.40010,50278
35.40823,48133
35.41635,47152
35.42448,52262
35.43260,47170
35.44072,54840
35.44885,47242
35.45697,48638
35.46510,48575
35.47322,49670
35.48133,52027
35.48947,50364
35.49758,48725
35.50570,51918
35.51383,50525
35.52195,47118
35.53008,49221
35.53820,47097
35.54632,43183
35.55445,46713
35.56257,47931
35.57070,49107
35.57882,45771
35.58693,45544
35.59507,47562
35.60318,49311
35.61132,49468
35.61943,47965
35.62755,46385
35.63568,46546
35.64380,46625
35.65192,48323
35.66005,48102
35.66817,45916
35.67630,46299
35.68442,44987
35.69253,45588
35.70067,51610
35.70878,45936
35.71692,46797
35.72503,47687
35.73315,49025
35.74128,46960
35.74940,51083
35.75752,48580
35.76565,49131
35.77377,44637
35.78190,46672
35.79002,51700
35.79813,52128
35.80627,44489
35.81438,49304
35.82252,47009
35.83063,48876
35.83875,48890
35.84688,47606
35.85500,51163
35.86313,50811
35.87125,49705
35.87937,45978
35.88750,48917
35.89562,47997
35.90373,49369
35.91187,49411
35.91998,46058
35.92812,47278
35.93623,47204
35.94435,48172
35.95248,46308
35.96060,50788
35.96873,46378
35.97685,50498
35.98497,51630
35.99310,51699
36.00122,54083
36.00933,49844
36.01747,54080
36.02558,50363
36.03372,52947
36.04183,53529
36.04995,52394
36.05808,49369
36.06620,54088
36.07433,48176
36.08245,58611
36.09057,50961
36.09870,53018
36.10682,50594
36.11495,48239
36.12307,48306
36.13118,48425
36.13932,51453
36.14743,47661
36.15555,51238
36.16368,48657
36.17180,45202
36.17993,49213
36.18805,45668
36.19617,47825
36.20430,51230
36.21242,50859
36.22055,48131
36.22867,53549
36.23678,53059
36.24492,58937
36.25303,58738
36.26117,66429
36.26928,63462
36.27740,57960
36.28553,58093
36.29365,57432
36.30177,54150
36.30990,47572
36.31802,52493
36.32615,53776
36.33427,49265
36.34238,51306
36.35052,49387
36.35863,48348
36.36677,51917
36.37488,52103
36.38300,50922
36.39113,50216
36.39925,50016
36.40737,50525
36.41550,52650
36.42362,54170
36.43175,50021
36.43987,48072
36.44798,45804
36.45612,53032
36.46423,52948
36.47237,49187
36.48048,51761
36.48860,54561
36.49673,55892
36.50485,50790
36.51298,52524
36.52110,53516
36.52922,51609
36.53735,51035
36.54547,47706
36.55358,51506
36.56172,52802
36.56983,49875
36.57797,51052
36.58608,56896
36.59420,50703
36.60233,54491
36.61045,55348
36.61858,56986
36.62670,55249
36.63482,55226
36.64295,50064
36.65107,54298
36.65920,54923
36.66732,54386
36.67543,53707
36.68357,53048
36.69168,54625
36.69980,53796
36.70793,54711
36.71605,54923
36.72418,50674
36.73230,54827
36.74042,55306
36.74855,55247
36.75667,54166
36.76480,53730
36.77292,54874
36.78103,56391
36.78917,51892
36.79728,54166
36.80540,46949
36.81353,50291
36.82165,56684
36.82978,56126
36.83790,56071
36.84602,56669
36.85415,54725
36.86227,55154
36.87040,56282
36.87852,51589
36.88663,53947
36.89477,50983
36.90288,53913
36.91102,55544
36.91913,56467
36.92725,53068
36.93538,57916
36.94350,54912
36.95162,60207
36.95975,56089
36.96787,54828
36.97600,60222
36.98412,63098
36.99223,71758
37.00037,87241
37.00848,102455
37.01662,129552
37.02473,143091
37.03285,151499
37.04098,147078
37.04910,128385
37.05722,111758
37.06535,85642
37.07347,76921
37.08160,71725
37.08972,65714
37.09783,59693
37.10597,55469
37.11408,60020
37.12222,64691
37.13033,62488
37.13845,63458
37.14658,67552
37.15470,63177
37.16283,61036
37.17095,61299
37.17907,56246
37.18720,55864
37.19532,59819
37.20343,64518
37.21157,60847
37.21968,61994
37.22782,58207
37.23593,62176
37.24405,58625
37.25218,60234
37.26030,62126
37.26843,64210
37.27655,66576
37.28467,71603
37.29280,75039
37.30092,75199
37.30905,77171
37.31717,73131
37.32528,70890
37.33342,74692
37.34153,68042
37.34965,68019
37.35778,69456
37.36590,68305
37.37403,63353
37.38215,62420
37.39027,62835
37.39840,63638
37.40652,63978
37.41465,68343
37.42277,62959
37.43088,64197
37.43902,62232
37.44713,63514
37.45527,64741
37.46338,68307
37.47150,65293
37.47963,61610
37.48775,64485
