C:\MassHunter\GCMS\1\data\JTB-E02\BACandBLUE\JTB-E18-022-10.D Thu Jul 11 12:29:38 2019
Start of data points
2.09513,63260
2.10325,55533
2.11137,58600
2.11950,58199
2.12762,64134
2.13575,58086
2.14387,58453
2.15198,54851
2.16012,57694
2.16823,58261
2.17635,56981
2.18448,57413
2.19260,49589
2.20073,55813
2.20885,55139
2.21697,51598
2.22510,56977
2.23322,54144
2.24135,52441
2.24947,51993
2.25758,53024
2.26572,57234
2.27383,178317
2.28197,963306
2.29008,1151099
2.29820,457899
2.30633,247833
2.31445,202799
2.32257,172130
2.33070,153094
2.33882,139921
2.34695,140435
2.35507,121437
2.36318,114069
2.37132,111004
2.37943,103731
2.38757,105516
2.39568,99969
2.40380,97807
2.41193,103376
2.42005,90193
2.42817,95449
2.43630,96714
2.44442,95235
2.45255,95111
2.46067,92981
2.46878,88482
2.47692,88923
2.48503,82557
2.49317,101530
2.50128,132220
2.50940,115689
2.51753,92878
2.52565,93361
2.53378,91101
2.54190,89906
2.55002,87763
2.55815,100528
2.56627,138584
2.57438,139564
2.58252,102973
2.59063,95855
2.59877,90813
2.60688,153969
2.61500,552726
2.62313,807371
2.63125,456622
2.63938,261615
2.64750,190559
2.65562,161822
2.66375,136267
2.67187,126194
2.68000,115034
2.68812,110036
2.69623,102986
2.70437,99537
2.71248,97833
2.72060,97816
2.72873,96419
2.73685,95805
2.74498,92554
2.75310,87436
2.76122,86045
2.76935,84700
2.77747,92112
2.78560,138088
2.79372,259465
2.80183,235525
2.80997,151195
2.81808,135075
2.82620,144811
2.83433,135698
2.84245,130463
2.85058,113073
2.85870,102099
2.86682,95910
2.87495,96501
2.88307,92682
2.89120,90601
2.89932,87964
2.90743,90017
2.91557,86296
2.92368,82312
2.93182,86233
2.93993,82239
2.94805,79351
2.95618,81984
2.96430,87639
2.97242,98136
2.98055,95762
2.98867,89021
2.99680,83562
3.00492,86514
3.01303,79716
3.02117,83983
3.02928,76447
3.03742,76762
3.04553,74228
3.05365,75430
3.06178,84381
3.06990,87730
3.07802,90254
3.08615,234601
3.09427,980883
3.10240,2097281
3.11052,3656159
3.11863,4669535
3.12677,3294325
3.13488,1952009
3.14302,1389476
3.15113,1096419
3.15925,880713
3.16738,740293
3.17550,667027
3.18363,641474
3.19175,921954
3.19987,1592021
3.20800,1616886
3.21612,1090438
3.22423,801262
3.23237,665897
3.24048,564099
3.24862,507515
3.25673,443922
3.26485,401751
3.27298,367739
3.28110,336927
3.28923,363752
3.29735,655545
3.30547,1621972
3.31360,2964451
3.32172,3363881
3.32985,2756196
3.33797,1955032
3.34608,1480016
3.35422,1239535
3.36233,1070278
3.37045,933096
3.37858,830569
3.38670,735613
3.39483,679365
3.40295,626716
3.41107,588192
3.41920,558102
3.42732,532314
3.43545,519172
3.44357,486329
3.45168,462289
3.45982,443113
3.46793,426636
3.47605,419992
3.48418,418697
3.49230,394788
3.50043,393372
3.50855,376920
3.51667,367301
3.52480,350761
3.53292,350867
3.54105,357147
3.54917,363479
3.55728,354638
3.56542,332457
3.57353,351996
3.58167,390520
3.58978,386340
3.59790,352261
3.60603,330247
3.61415,318952
3.62227,321898
3.63040,320204
3.63852,327880
3.64665,318346
3.65477,324149
3.66288,375746
3.67102,1017657
3.67913,3222777
3.68727,5510978
3.69538,4804124
3.70350,2868182
3.71163,1827138
3.71975,1436804
3.72788,1196089
3.73600,1040189
3.74412,925011
3.75225,849145
3.76037,778607
3.76848,737695
3.77662,692960
3.78473,646837
3.79287,620364
3.80098,630462
3.80910,902699
3.81723,1584473
3.82535,2022392
3.83348,1685715
3.84160,1187379
3.84972,920359
3.85785,809287
3.86597,715575
3.87408,656278
3.88222,617159
3.89033,569883
3.89847,550429
3.90658,525979
3.91470,516278
3.92283,586730
3.93095,716784
3.93908,774099
3.94720,761231
3.95532,1028739
3.96345,2105323
3.97157,3399872
3.97970,3393168
3.98782,2321333
3.99593,1799450
4.00407,3759860
4.01218,9703397
4.02030,1.586027E+07
4.02843,1.552274E+07
4.03655,9877966
4.04468,5345925
4.05280,3252122
4.06092,2363059
4.06905,1832998
4.07717,1502214
4.08530,1268504
4.09342,1114939
4.10153,997721
4.10967,895312
4.11778,822499
4.12592,762875
4.13403,719052
4.14215,766855
4.15028,858391
4.15840,897234
4.16652,793383
4.17465,691962
4.18277,638756
4.19090,591824
4.19902,561142
4.20713,664563
4.21527,1840110
4.22338,6154753
4.23152,1.322747E+07
4.23963,1.855725E+07
4.24775,1.829636E+07
4.25588,1.268545E+07
4.26400,7328699
4.27212,4905689
4.28025,3635240
4.28837,2847998
4.29650,2305833
4.30462,1920367
4.31273,1684368
4.32087,1466961
4.32898,1310937
4.33712,1219963
4.34523,1117549
4.35335,1056764
4.36148,1039328
4.36960,997057
4.37773,937195
4.38585,873041
4.39397,809039
4.40210,761435
4.41022,728343
4.41833,693215
4.42647,675113
4.43458,649340
4.44272,627454
4.45083,595232
4.45895,577931
4.46708,561057
4.47520,549040
4.48333,536875
4.49145,506985
4.49957,508077
4.50770,504844
4.51582,483254
4.52393,469193
4.53207,461893
4.54018,446345
4.54832,439627
4.55643,436518
4.56455,419296
4.57268,413393
4.58080,391901
4.58893,392266
4.59705,383206
4.60517,381247
4.61330,377333
4.62142,381994
4.62955,439047
4.63767,581992
4.64578,726886
4.65392,751703
4.66203,624808
4.67015,511306
4.67828,427421
4.68640,402349
4.69453,381948
4.70265,364991
4.71077,347482
4.71890,341534
4.72702,322690
4.73515,322850
4.74327,322099
4.75138,307805
4.75952,306840
4.76763,304456
4.77577,294625
4.78388,289153
4.79200,301687
4.80013,367432
4.80825,467959
4.81637,501978
4.82450,460752
4.83262,412437
4.84075,396534
4.84887,390652
4.85698,391060
4.86512,364326
4.87323,335581
4.88137,332317
4.88948,308001
4.89760,295764
4.90573,292530
4.91385,287685
4.92197,284530
4.93010,309313
4.93822,462878
4.94635,864277
4.95447,1525250
4.96258,2160126
4.97072,2369225
4.97883,2023697
4.98697,1548306
4.99508,1158585
5.00320,925121
5.01133,790470
5.01945,730609
5.02758,767746
5.03570,1015340
5.04382,1351799
5.05195,1421926
5.06007,1253900
5.06818,984183
5.07632,827751
5.08443,737337
5.09257,683116
5.10068,626468
5.10880,585820
5.11693,558111
5.12505,536364
5.13318,504682
5.14130,492810
5.14942,493246
5.15755,498601
5.16567,507343
5.17380,529350
5.18192,522214
5.19003,493557
5.19817,480170
5.20628,488044
5.21440,486425
5.22253,480671
5.23065,467496
5.23878,454373
5.24690,448364
5.25502,431701
5.26315,395569
5.27127,360988
5.27940,352664
5.28752,348936
5.29563,336029
5.30377,330254
5.31188,317445
5.32000,320891
5.32813,322933
5.33625,324855
5.34438,343610
5.35250,345167
5.36062,322759
5.36875,316637
5.37687,298248
5.38500,315115
5.39312,306963
5.40123,308751
5.40937,314598
5.41748,311634
5.42562,286035
5.43373,296486
5.44185,303005
5.44998,299168
5.45810,299021
5.46622,297276
5.47435,285848
5.48247,275029
5.49060,268309
5.49872,262092
5.50683,265234
5.51497,261677
5.52308,268608
5.53122,274822
5.53933,253359
5.54745,251949
5.55558,249805
5.56370,263110
5.57182,269292
5.57995,284859
5.58807,276218
5.59620,279067
5.60432,260068
5.61243,253373
5.62057,249344
5.62868,246840
5.63682,252634
5.64493,268717
5.65305,261890
5.66118,251354
5.66930,258700
5.67743,265854
5.68555,305769
5.69367,342034
5.70180,351248
5.70992,331716
5.71803,292263
5.72617,269548
5.73428,252377
5.74242,250485
5.75053,235043
5.75865,235398
5.76678,224313
5.77490,219181
5.78303,212044
5.79115,218192
5.79927,211485
5.80740,219574
5.81552,212078
5.82365,207956
5.83177,209138
5.83988,220298
5.84802,221252
5.85613,223975
5.86425,213695
5.87238,209046
5.88050,209495
5.88863,198159
5.89675,201982
5.90487,189281
5.91300,164330
5.92112,150135
5.92925,145329
5.93737,151941
5.94548,164079
5.95362,176084
5.96173,203770
5.96987,227448
5.97798,269652
5.98610,308458
5.99423,331536
6.00235,326216
6.01047,274672
6.01860,228634
6.02672,203788
6.03485,184849
6.04297,181320
6.05108,167920
6.05922,157350
6.06733,157694
6.07547,153449
6.08358,144939
6.09170,147341
6.09983,140543
6.10795,141036
6.11607,144749
6.12420,168765
6.13232,237690
6.14045,337597
6.14857,448091
6.15668,483457
6.16482,407284
6.17293,310692
6.18107,248540
6.18918,226100
6.19730,208910
6.20543,190188
6.21355,193911
6.22168,187405
6.22980,192169
6.23792,180908
6.24605,180647
6.25417,178554
6.26228,179427
6.27042,188724
6.27853,184416
6.28667,180630
6.29478,176772
6.30290,180713
6.31103,181322
6.31915,180916
6.32728,194549
6.33540,194829
6.34352,208088
6.35165,202675
6.35977,198992
6.36788,188445
6.37602,191591
6.38413,186367
6.39227,183103
6.40038,187904
6.40850,184622
6.41663,183309
6.42475,181408
6.43288,181182
6.44100,184469
6.44912,187830
6.45725,179629
6.46537,183548
6.47350,183250
6.48162,189595
6.48973,186216
6.49787,182425
6.50598,183875
6.51410,185414
6.52223,188132
6.53035,191976
6.53848,193834
6.54660,198998
6.55472,191171
6.56285,187576
6.57097,199335
6.57910,206289
6.58722,216430
6.59533,214611
6.60347,209321
6.61158,199844
6.61972,198055
6.62783,194703
6.63595,198534
6.64408,201294
6.65220,204167
6.66032,218387
6.66845,237492
6.67657,245775
6.68470,246554
6.69282,231806
6.70093,217698
6.70907,205847
6.71718,203833
6.72532,210537
6.73343,205652
6.74155,207766
6.74968,204330
6.75780,213878
6.76592,220114
6.77405,211986
6.78217,220780
6.79030,224340
6.79842,219306
6.80653,192751
6.81467,176307
6.82278,163997
6.83092,153055
6.83903,149866
6.84715,167029
6.85528,176443
6.86340,189654
6.87153,167699
6.87965,141731
6.88777,119352
6.89590,105015
6.90402,98021
6.91213,88706
6.92027,94796
6.92838,89521
6.93652,90087
6.94463,90673
6.95275,82786
6.96088,93655
6.96900,96628
6.97713,107635
6.98525,114033
6.99337,108824
7.00150,98863
7.00962,93833
7.01775,85264
7.02587,89278
7.03398,85394
7.04212,79640
7.05023,83856
7.05835,80681
7.06648,77384
7.07460,77247
7.08273,71735
7.09085,68341
7.09897,73177
7.10710,73127
7.11522,71189
7.12335,67136
7.13147,70959
7.13958,76693
7.14772,87009
7.15583,112388
7.16395,136997
7.17208,143459
7.18020,130645
7.18833,105601
7.19645,90655
7.20457,88388
7.21270,80851
7.22082,96487
7.22895,174224
7.23707,422953
7.24518,925798
7.25332,1540421
7.26143,1758969
7.26957,1456141
7.27768,939953
7.28580,564166
7.29393,380872
7.30205,312210
7.31017,278015
7.31830,230664
7.32642,175262
7.33455,129425
7.34267,101527
7.35078,93481
7.35892,92478
7.36703,88927
7.37517,88496
7.38328,94184
7.39140,89177
7.39953,92037
7.40765,85559
7.41577,78878
7.42390,81546
7.43202,79668
7.44015,75553
7.44827,78476
7.45638,80767
7.46452,86974
7.47263,80645
7.48077,76618
7.48888,73199
7.49700,69956
7.50513,79548
7.51325,90986
7.52138,114537
7.52950,146946
7.53762,194638
7.54575,231601
7.55387,231526
7.56198,212259
7.57012,181325
7.57823,142082
7.58637,113141
7.59448,98194
7.60260,86791
7.61073,82321
7.61885,77223
7.62698,75171
7.63510,75816
7.64322,76149
7.65135,72935
7.65947,64204
7.66760,67610
7.67572,65271
7.68383,64441
7.69197,65079
7.70008,61452
7.70820,66711
7.71633,64709
7.72445,65372
7.73258,67307
7.74070,65067
7.74882,71680
7.75695,63190
7.76507,63451
7.77320,58447
7.78132,60410
7.78943,71034
7.79757,71191
7.80568,77035
7.81380,76650
7.82193,72667
7.83005,73039
7.83818,66660
7.84630,67202
7.85442,64560
7.86255,68294
7.87067,72407
7.87880,83591
7.88692,78964
7.89503,75884
7.90317,68563
7.91128,66182
7.91942,69384
7.92753,75579
7.93565,96324
7.94378,113511
7.95190,128000
7.96002,113441
7.96815,101248
7.97627,87984
7.98440,80955
7.99252,73608
8.00063,68869
8.00877,58377
8.01688,65491
8.02502,63153
8.03313,63831
8.04125,63917
8.04938,60159
8.05750,59189
8.06563,58949
8.07375,59331
8.08187,56514
8.09000,54472
8.09812,60219
8.10623,54323
8.11437,56845
8.12248,59422
8.13062,69727
8.13873,74700
8.14685,88990
8.15498,98500
8.16310,92083
8.17123,86392
8.17935,77908
8.18747,67763
8.19560,69232
8.20372,68333
8.21183,63562
8.21997,61974
8.22808,56550
8.23622,61548
8.24433,59625
8.25245,57927
8.26058,59051
8.26870,62385
8.27683,55154
8.28495,60477
8.29307,63012
8.30120,61943
8.30932,65735
8.31745,65705
8.32557,62170
8.33368,57905
8.34182,61349
8.34993,59735
8.35805,53873
8.36618,55364
8.37430,55412
8.38243,56017
8.39055,57438
8.39867,52114
8.40680,58461
8.41492,56822
8.42305,51966
8.43117,55469
8.43928,50490
8.44742,47712
8.45553,53722
8.46365,52686
8.47178,50063
8.47990,51329
8.48803,54387
8.49615,50479
8.50427,52443
8.51240,50011
8.52052,54540
8.52865,60065
8.53677,88925
8.54488,158666
8.55302,254720
8.56113,343716
8.56927,374783
8.57738,304535
8.58550,223418
8.59363,158837
8.60175,115235
8.60987,100675
8.61800,88960
8.62612,79256
8.63425,74839
8.64237,70828
8.65048,67483
8.65862,66067
8.66673,65961
8.67487,63052
8.68298,68173
8.69110,65642
8.69923,61657
8.70735,67699
8.71548,59731
8.72360,64759
8.73172,77201
8.73985,102358
8.74797,209908
8.75608,405441
8.76422,686430
8.77233,978430
8.78047,995389
8.78858,878052
8.79670,623548
8.80483,425467
8.81295,275154
8.82108,211282
8.82920,177129
8.83732,163210
8.84545,166798
8.85357,173848
8.86168,177078
8.86982,176130
8.87793,164617
8.88607,156722
8.89418,152118
8.90230,153833
8.91043,146827
8.91855,137847
8.92668,140606
8.93480,138740
8.94292,146700
8.95105,162527
8.95917,164275
8.96730,164612
8.97542,153105
8.98353,139372
8.99167,129015
8.99978,122598
9.00790,123347
9.01603,114216
9.02415,108063
9.03228,111483
9.04040,106728
9.04852,102847
9.05665,105080
9.06477,105111
9.07290,100589
9.08102,98591
9.08913,104446
9.09727,106692
9.10538,118801
9.11352,114860
9.12163,122350
9.12975,119094
9.13788,109366
9.14600,109867
9.15412,105154
9.16225,102266
9.17037,96954
9.17850,93932
9.18662,89114
9.19473,87973
9.20287,82986
9.21098,86370
9.21912,86491
9.22723,81993
9.23535,82019
9.24348,84504
9.25160,83307
9.25972,86352
9.26785,81691
9.27597,81418
9.28410,80071
9.29222,79273
9.30033,79236
9.30847,79226
9.31658,75771
9.32472,73095
9.33283,70435
9.34095,73434
9.34908,73911
9.35720,76884
9.36533,76727
9.37345,75583
9.38157,77916
9.38970,76812
9.39782,79389
9.40593,84240
9.41407,90382
9.42218,97169
9.43032,99152
9.43843,107704
9.44655,102263
9.45468,91524
9.46280,91368
9.47093,89792
9.47905,85184
9.48717,74457
9.49530,75117
9.50342,77506
9.51155,83540
9.51967,89821
9.52778,91427
9.53592,86145
9.54403,77447
9.55215,72980
9.56028,73862
9.56840,95902
9.57653,131816
9.58465,163262
9.59277,189511
9.60090,170957
9.60902,136286
9.61715,99147
9.62527,71498
9.63338,61616
9.64152,55439
9.64963,52208
9.65775,48275
9.66588,47944
9.67400,45189
9.68213,47551
9.69025,48256
9.69837,49657
9.70650,48244
9.71462,43399
9.72275,45633
9.73087,44007
9.73898,43757
9.74712,41641
9.75523,42125
9.76337,39013
9.77148,40572
9.77960,44413
9.78773,42479
9.79585,41774
9.80397,44712
9.81210,40716
9.82022,38804
9.82835,40368
9.83647,40787
9.84458,39642
9.85272,40881
9.86083,39390
9.86897,42070
9.87708,45415
9.88520,46984
9.89333,44361
9.90145,41336
9.90957,50105
9.91770,46249
9.92582,52285
9.93395,62506
9.94207,80846
9.95018,98679
9.95832,104814
9.96643,99315
9.97457,93030
9.98268,79856
9.99080,70822
9.99893,66475
10.00705,62323
10.01518,60320
10.02330,54506
10.03142,49173
10.03955,48682
10.04767,46003
10.05578,44033
10.06392,45626
10.07203,48768
10.08017,44845
10.08828,47414
10.09640,51307
10.10453,48277
10.11265,46414
10.12078,47735
10.12890,48812
10.13702,41967
10.14515,44672
10.15327,45934
10.16140,47058
10.16952,46634
10.17763,45567
10.18577,41288
10.19388,43053
10.20200,43354
10.21013,43977
10.21825,45764
10.22638,46071
10.23450,48050
10.24262,49498
10.25075,53598
10.25887,68585
10.26700,124953
10.27512,307562
10.28323,686848
10.29137,1358199
10.29948,2176963
10.30760,3093495
10.31573,4448533
10.32385,6470541
10.33198,9170716
10.34010,1.12579E+07
10.34822,1.126065E+07
10.35635,8971109
10.36447,5467805
10.37260,2815550
10.38072,1464902
10.38883,867700
10.39697,605813
10.40508,481172
10.41322,396022
10.42133,341470
10.42945,308992
10.43758,275475
10.44570,249169
10.45382,230233
10.46195,221569
10.47007,211929
10.47820,197775
10.48632,179981
10.49443,167519
10.50257,173832
10.51068,155888
10.51882,160623
10.52693,164357
10.53505,166042
10.54318,173986
10.55130,169034
10.55943,162145
10.56755,143714
10.57567,137838
10.58380,129636
10.59192,122432
10.60003,117710
10.60817,108649
10.61628,110805
10.62442,110429
10.63253,99022
10.64065,97116
10.64878,93393
10.65690,94197
10.66503,91105
10.67315,92782
10.68127,87140
10.68940,93603
10.69752,85560
10.70563,86146
10.71377,87021
10.72188,84469
10.73002,81916
10.73813,86881
10.74625,78448
10.75438,82810
10.76250,81984
10.77063,80374
10.77875,73352
10.78687,71810
10.79500,69536
10.80312,71577
10.81125,69741
10.81937,70366
10.82748,68981
10.83562,71403
10.84373,66512
10.85185,59355
10.85998,60490
10.86810,59634
10.87623,59855
10.88435,61074
10.89247,57744
10.90060,62308
10.90872,59439
10.91685,58195
10.92497,59544
10.93308,59962
10.94122,55035
10.94933,55598
10.95745,55079
10.96558,57549
10.97370,61028
10.98183,54579
10.98995,55433
10.99807,56913
11.00620,57829
11.01432,56234
11.02245,50540
11.03057,53460
11.03868,50397
11.04682,53160
11.05493,51303
11.06307,52614
11.07118,49557
11.07930,53600
11.08743,56949
11.09555,52918
11.10367,52971
11.11180,50369
11.11992,50817
11.12805,46654
11.13617,45885
11.14428,42757
11.15242,41766
11.16053,47430
11.16867,42239
11.17678,49851
11.18490,45008
11.19303,44985
11.20115,45470
11.20928,44176
11.21740,42711
11.22552,44208
11.23365,37580
11.24177,42418
11.24988,38260
11.25802,38722
11.26613,36494
11.27427,40792
11.28238,41028
11.29050,48870
11.29863,62147
11.30675,77275
11.31488,113139
11.32300,159733
11.33112,214424
11.33925,259081
11.34737,254352
11.35548,231305
11.36362,182207
11.37173,126697
11.37987,101071
11.38798,78232
11.39610,66895
11.40423,64014
11.41235,63438
11.42048,64867
11.42860,62840
11.43672,58117
11.44485,60499
11.45297,57519
11.46110,58698
11.46922,64120
11.47733,73415
11.48547,96482
11.49358,120521
11.50170,143090
11.50983,139721
11.51795,125097
11.52608,102028
11.53420,89404
11.54232,79820
11.55045,86276
11.55857,76625
11.56670,72013
11.57482,68203
11.58293,63537
11.59107,64956
11.59918,78545
11.60732,100399
11.61543,122441
11.62355,134967
11.63168,136204
11.63980,111695
11.64792,95271
11.65605,73124
11.66417,63331
11.67230,58181
11.68042,53299
11.68853,54373
11.69667,55976
11.70478,58828
11.71292,51910
11.72103,51293
11.72915,48462
11.73728,48079
11.74540,45843
11.75352,47692
11.76165,47171
11.76977,48292
11.77790,43062
11.78602,43357
11.79413,45368
11.80227,45452
11.81038,44974
11.81852,45733
11.82663,43881
11.83475,41895
11.84288,44782
11.85100,42819
11.85913,43264
11.86725,42959
11.87537,40350
11.88350,39868
11.89162,37701
11.89973,39542
11.90787,41899
11.91598,41373
11.92412,44798
11.93223,46334
11.94035,52634
11.94848,47937
11.95660,43297
11.96473,41404
11.97285,40762
11.98097,48882
11.98910,60160
11.99722,84095
12.00533,116521
12.01347,136187
12.02158,145193
12.02972,128790
12.03783,98561
12.04595,77588
12.05408,59499
12.06220,54709
12.07033,61511
12.07845,52808
12.08657,48251
12.09470,51007
12.10282,48434
12.11095,52109
12.11907,53684
12.12718,53491
12.13532,47597
12.14343,48119
12.15155,48162
12.15968,45155
12.16780,42122
12.17593,40879
12.18405,42981
12.19217,40774
12.20030,38722
12.20842,43214
12.21655,41478
12.22467,43287
12.23278,40583
12.24092,39955
12.24903,41155
12.25717,39255
12.26528,40784
12.27340,45984
12.28153,38976
12.28965,35418
12.29777,36887
12.30590,36821
12.31402,39476
12.32215,39343
12.33027,36763
12.33838,40571
12.34652,38779
12.35463,38992
12.36277,36026
12.37088,36112
12.37900,39920
12.38713,36974
12.39525,38534
12.40338,44506
12.41150,57799
12.41962,58866
12.42775,69487
12.43587,68712
12.44398,65725
12.45212,64380
12.46023,58554
12.46837,56697
12.47648,47729
12.48460,50242
12.49273,43855
12.50085,42538
12.50898,44780
12.51710,47862
12.52522,53146
12.53335,77390
12.54147,128028
12.54958,258988
12.55772,481169
12.56583,727879
12.57397,872819
12.58208,786642
12.59020,568996
12.59833,358761
12.60645,219389
12.61458,148855
12.62270,105395
12.63082,95789
12.63895,82673
12.64707,75945
12.65520,75916
12.66332,70884
12.67143,62114
12.67957,63489
12.68768,60064
12.69580,63598
12.70393,60455
12.71205,61498
12.72018,58763
12.72830,65981
12.73642,64449
12.74455,64469
12.75267,58981
12.76080,53710
12.76892,53446
12.77703,50333
12.78517,47127
12.79328,43879
12.80140,42752
12.80953,35925
12.81765,39751
12.82578,38767
12.83390,41678
12.84202,39696
12.85015,41994
12.85827,35541
12.86640,39363
12.87452,37086
12.88263,35117
12.89077,37636
12.89888,35676
12.90702,37208
12.91513,37498
12.92325,35718
12.93138,35113
12.93950,35386
12.94762,38517
12.95575,39581
12.96387,47378
12.97200,60638
12.98012,69935
12.98823,78331
12.99637,80015
13.00448,74679
13.01262,63699
13.02073,55283
13.02885,46183
13.03698,45081
13.04510,44467
13.05323,41165
13.06135,40779
13.06947,40005
13.07760,36974
13.08572,39698
13.09383,43130
13.10197,39066
13.11008,42152
13.11822,35558
13.12633,38582
13.13445,39759
13.14258,37809
13.15070,36526
13.15883,38003
13.16695,44284
13.17507,41870
13.18320,41100
13.19132,45262
13.19943,48517
13.20757,46887
13.21568,47456
13.22382,47710
13.23193,43628
13.24005,42888
13.24818,40479
13.25630,42206
13.26443,35803
13.27255,37216
13.28067,35320
13.28880,33190
13.29692,35396
13.30505,36914
13.31317,36139
13.32128,31635
13.32942,35718
13.33753,36078
13.34565,32959
13.35378,35004
13.36190,31702
13.37003,31660
13.37815,34025
13.38627,32413
13.39440,32953
13.40252,33574
13.41065,37103
13.41877,31258
13.42688,31231
13.43502,31896
13.44313,32769
13.45127,30684
13.45938,31307
13.46750,31397
13.47563,30818
13.48375,28594
13.49187,32350
13.50000,31793
13.50812,31444
13.51625,32090
13.52437,30722
13.53248,32642
13.54062,35996
13.54873,35191
13.55687,30617
13.56498,32825
13.57310,32798
13.58123,36879
13.58935,39459
13.59747,51472
13.60560,75348
13.61372,111518
13.62185,144833
13.62997,167318
13.63808,150814
13.64622,117448
13.65433,93619
13.66247,68311
13.67058,51781
13.67870,47218
13.68683,42610
13.69495,42604
13.70308,38961
13.71120,37553
13.71932,38575
13.72745,46780
13.73557,69793
13.74368,131105
13.75182,267613
13.75993,564791
13.76807,967095
13.77618,1350760
13.78430,1517923
13.79243,1449299
13.80055,1090656
13.80868,770616
13.81680,570342
13.82492,463013
13.83305,392899
13.84117,368900
13.84928,326582
13.85742,275851
13.86553,239610
13.87367,198921
13.88178,166828
13.88990,159275
13.89803,148399
13.90615,137753
13.91428,130453
13.92240,121714
13.93052,110883
13.93865,107640
13.94677,108154
13.95490,103963
13.96302,110793
13.97113,107314
13.97927,110020
13.98738,109454
13.99550,105743
14.00363,103773
14.01175,95997
14.01988,89141
14.02800,90714
14.03612,82014
14.04425,83868
14.05237,80848
14.06050,82708
14.06862,83023
14.07673,80623
14.08487,78487
14.09298,76429
14.10112,79110
14.10923,80162
14.11735,77902
14.12548,81005
14.13360,77778
14.14172,82323
14.14985,86917
14.15797,92002
14.16610,100812
14.17422,124375
14.18233,158980
14.19047,198548
14.19858,227368
14.20672,232284
14.21483,204362
14.22295,183506
14.23108,165156
14.23920,164702
14.24732,161557
14.25545,142967
14.26357,136198
14.27170,121699
14.27982,116505
14.28793,103725
14.29607,92199
14.30418,90208
14.31232,87511
14.32043,82812
14.32855,77219
14.33668,74716
14.34480,71095
14.35293,61201
14.36105,56537
14.36917,51181
14.37730,57121
14.38542,65705
14.39353,89669
14.40167,146355
14.40978,243125
14.41792,362386
14.42603,461655
14.43415,460770
14.44228,366095
14.45040,259188
14.45853,167502
14.46665,123052
14.47477,104754
14.48290,88730
14.49102,78619
14.49915,73081
14.50727,68636
14.51538,71174
14.52352,66494
14.53163,64821
14.53975,65177
14.54788,61504
14.55600,56908
14.56413,56116
14.57225,54768
14.58037,52837
14.58850,49569
14.59662,50671
14.60475,48745
14.61287,48666
14.62098,51120
14.62912,49375
14.63723,48903
14.64535,43762
14.65348,49987
14.66160,43178
14.66973,44581
14.67785,44049
14.68597,46414
14.69410,44643
14.70222,43621
14.71035,43859
14.71847,44284
14.72658,54354
14.73472,46644
14.74283,47996
14.75097,47130
14.75908,44961
14.76720,46329
14.77533,47461
14.78345,61339
14.79157,92043
14.79970,214406
14.80782,500369
14.81595,1033583
14.82407,1723157
14.83218,2248624
14.84032,2315844
14.84843,1921114
14.85657,1380919
14.86468,909092
14.87280,560330
14.88093,377870
14.88905,282419
14.89718,236689
14.90530,198571
14.91342,177989
14.92155,155154
14.92967,143404
14.93778,133353
14.94592,123663
14.95403,117252
14.96217,118506
14.97028,115673
14.97840,110473
14.98653,104922
14.99465,106592
15.00278,105428
15.01090,96341
15.01902,90001
15.02715,79672
15.03527,81254
15.04338,79251
15.05152,78546
15.05963,75532
15.06777,71470
15.07588,71132
15.08400,72199
15.09213,70223
15.10025,61282
15.10838,70854
15.11650,70327
15.12462,72054
15.13275,67682
15.14087,77045
15.14900,82544
15.15712,75914
15.16523,74168
15.17337,65818
15.18148,60360
15.18960,59871
15.19773,51895
15.20585,51567
15.21398,50791
15.22210,48850
15.23022,45199
15.23835,46161
15.24647,42265
15.25460,41928
15.26272,43192
15.27083,41602
15.27897,42148
15.28708,40673
15.29520,38971
15.30333,40558
15.31145,38946
15.31958,40164
15.32770,40287
15.33582,36122
15.34395,37510
15.35207,39325
15.36020,38585
15.36832,40812
15.37643,39090
15.38457,40939
15.39268,46483
15.40082,47744
15.40893,53856
15.41705,55062
15.42518,55095
15.43330,55214
15.44142,47925
15.44955,44554
15.45767,42209
15.46580,44424
15.47392,45469
15.48203,61322
15.49017,74890
15.49828,77714
15.50642,83243
15.51453,80288
15.52265,73732
15.53078,70943
15.53890,63673
15.54703,58833
15.55515,56983
15.56327,54327
15.57140,45862
15.57952,49971
15.58763,44685
15.59577,40892
15.60388,39218
15.61202,41391
15.62013,41137
15.62825,39111
15.63638,40077
15.64450,39319
15.65263,39512
15.66075,40177
15.66887,37311
15.67700,35465
15.68512,36705
15.69323,36812
15.70137,34678
15.70948,36340
15.71762,40741
15.72573,41748
15.73385,42841
15.74198,51519
15.75010,50356
15.75823,70418
15.76635,102014
15.77447,160909
15.78260,219377
15.79072,263306
15.79885,259122
15.80697,228649
15.81508,166684
15.82322,122651
15.83133,89997
15.83945,77008
15.84758,67441
15.85570,64191
15.86383,59383
15.87195,54772
15.88007,58297
15.88820,54256
15.89632,48652
15.90445,50461
15.91257,49976
15.92068,50419
15.92882,47122
15.93693,48195
15.94507,53298
15.95318,60603
15.96130,68214
15.96943,79619
15.97755,93498
15.98567,87029
15.99380,86099
16.00192,81362
16.01005,74841
16.01817,74424
16.02628,69084
16.03442,68017
16.04253,63026
16.05067,59084
16.05878,58574
16.06690,49236
16.07503,50669
16.08315,42695
16.09127,46773
16.09940,43596
16.10752,49590
16.11565,43637
16.12377,49259
16.13188,47486
16.14002,53150
16.14813,49592
16.15627,50824
16.16438,47918
16.17250,47544
16.18063,44000
16.18875,43587
16.19688,42633
16.20500,42698
16.21312,45019
16.22125,41023
16.22937,41238
16.23748,43481
16.24562,43208
16.25373,39721
16.26187,35859
16.26998,42057
16.27810,43868
16.28623,41935
16.29435,44643
16.30248,44128
16.31060,44530
16.31872,43339
16.32685,41359
16.33497,42699
16.34308,44562
16.35122,52730
16.35933,60821
16.36747,71541
16.37558,75952
16.38370,83149
16.39183,74709
16.39995,71393
16.40808,63969
16.41620,52991
16.42432,48202
16.43245,45969
16.44057,50400
16.44870,54469
16.45682,75530
16.46493,101145
16.47307,145938
16.48118,174805
16.48930,172528
16.49743,153650
16.50555,116622
16.51368,93853
16.52180,76695
16.52992,61959
16.53805,54394
16.54617,55788
16.55430,47500
16.56242,50476
16.57053,49936
16.57867,51642
16.58678,54120
16.59492,58057
16.60303,66395
16.61115,70431
16.61928,70991
16.62740,67065
16.63552,65249
16.64365,55772
16.65177,54089
16.65990,48350
16.66802,48581
16.67613,47003
16.68427,44915
16.69238,44173
16.70052,41592
16.70863,39954
16.71675,42900
16.72488,44125
16.73300,42508
16.74112,40451
16.74925,40385
16.75737,42747
16.76550,45316
16.77362,42499
16.78173,43335
16.78987,40507
16.79798,39697
16.80612,38658
16.81423,38802
16.82235,36299
16.83048,39621
16.83860,36707
16.84673,34631
16.85485,37040
16.86297,35790
16.87110,33666
16.87922,37441
16.88733,38637
16.89547,37086
16.90358,35277
16.91172,33657
16.91983,34901
16.92795,35156
16.93608,33144
16.94420,32672
16.95233,37297
16.96045,33411
16.96857,33459
16.97670,36292
16.98482,38686
16.99295,35759
17.00107,34499
17.00918,36103
17.01732,37206
17.02543,40689
17.03355,47079
17.04168,45941
17.04980,52351
17.05793,53483
17.06605,53374
17.07417,55366
17.08230,57303
17.09042,70415
17.09855,80118
17.10667,84564
17.11478,89544
17.12292,91441
17.13103,89538
17.13915,86745
17.14728,78534
17.15540,64830
17.16353,61241
17.17165,57505
17.17977,52064
17.18790,51526
17.19602,50609
17.20415,51237
17.21227,42238
17.22038,41064
17.22852,40978
17.23663,39665
17.24477,39247
17.25288,38679
17.26100,41008
17.26913,41221
17.27725,38599
17.28537,36100
17.29350,36338
17.30162,37760
17.30975,39145
17.31787,40672
17.32598,52759
17.33412,48305
17.34223,51721
17.35037,53955
17.35848,57903
17.36660,60031
17.37473,52610
17.38285,51380
17.39098,46799
17.39910,48706
17.40722,45557
17.41535,45032
17.42347,47469
17.43158,44326
17.43972,44552
17.44783,45164
17.45597,41480
17.46408,40759
17.47220,37556
17.48033,38419
17.48845,38972
17.49658,35952
17.50470,39326
17.51282,36816
17.52095,37752
17.52907,39404
17.53718,38451
17.54532,44816
17.55343,48543
17.56157,70486
17.56968,110021
17.57780,193411
17.58593,322750
17.59405,510365
17.60218,738707
17.61030,867331
17.61842,875538
17.62655,722149
17.63467,549566
17.64280,399014
17.65092,291867
17.65903,232005
17.66717,195381
17.67528,162195
17.68340,140877
17.69153,124471
17.69965,111841
17.70778,102876
17.71590,91612
17.72402,86752
17.73215,82698
17.74027,75216
17.74840,75206
17.75652,74355
17.76463,67831
17.77277,66075
17.78088,65574
17.78902,72232
17.79713,80411
17.80525,111638
17.81338,152317
17.82150,203070
17.82962,233940
17.83775,237802
17.84587,208458
17.85400,174032
17.86212,138664
17.87023,114453
17.87837,98612
17.88648,89199
17.89462,75178
17.90273,69416
17.91085,63835
17.91898,61569
17.92710,57597
17.93522,58303
17.94335,50002
17.95147,55419
17.95960,52804
17.96772,56054
17.97583,52795
17.98397,50135
17.99208,48771
18.00022,49644
18.00833,52752
18.01645,56938
18.02458,64456
18.03270,70884
18.04083,81830
18.04895,87403
18.05707,111188
18.06520,171433
18.07332,288110
18.08143,454750
18.08957,621750
18.09768,696698
18.10582,663425
18.11393,532083
18.12205,423817
18.13018,317411
18.13830,245797
18.14643,214800
18.15455,194554
18.16267,172160
18.17080,160529
18.17892,149112
18.18703,138349
18.19517,131767
18.20328,121757
18.21142,115917
18.21953,108785
18.22765,108039
18.23578,100723
18.24390,92673
18.25203,88826
18.26015,86300
18.26827,81621
18.27640,79140
18.28452,70747
18.29265,58909
18.30077,55824
18.30888,58407
18.31702,52378
18.32513,49805
18.33325,47119
18.34138,48007
18.34950,48761
18.35763,45585
18.36575,47937
18.37387,46096
18.38200,47093
18.39012,52629
18.39825,60940
18.40637,71516
18.41448,84385
18.42262,106857
18.43073,139886
18.43887,200326
18.44698,242044
18.45510,298487
18.46323,365491
18.47135,445072
18.47947,497425
18.48760,545631
18.49572,513746
18.50385,474335
18.51197,413898
18.52008,370880
18.52822,345672
18.53633,315263
18.54447,308759
18.55258,283610
18.56070,271343
18.56883,272729
18.57695,269243
18.58507,265792
18.59320,270024
18.60132,259711
18.60945,257908
18.61757,262924
18.62568,263114
18.63382,254473
18.64193,249119
18.65007,245523
18.65818,251185
18.66630,237418
18.67443,236254
18.68255,236516
18.69068,238256
18.69880,225336
18.70692,223985
18.71505,224609
18.72317,222741
18.73128,218339
18.73942,213756
18.74753,212055
18.75567,209187
18.76378,209889
18.77190,209084
18.78003,210982
18.78815,201435
18.79628,205631
18.80440,200710
18.81252,195429
18.82065,193683
18.82877,188657
18.83690,191014
18.84502,186867
18.85313,195790
18.86127,190805
18.86938,190017
18.87750,189789
18.88563,178520
18.89375,181049
18.90188,180449
18.91000,182084
18.91812,178340
18.92625,182154
18.93437,183120
18.94250,176079
18.95062,181657
18.95873,175150
18.96687,175399
18.97498,171792
18.98310,175260
18.99123,172672
18.99935,165123
19.00748,168318
19.01560,163466
19.02372,157249
19.03185,153212
19.03997,158311
19.04810,156139
19.05622,157524
19.06433,163574
19.07247,170592
19.08058,196468
19.08872,235743
19.09683,285671
19.10495,297087
19.11308,316492
19.12120,293817
19.12932,256876
19.13745,217608
19.14557,192413
19.15370,176259
19.16182,168589
19.16993,161083
19.17807,154909
19.18618,147150
19.19432,144266
19.20243,145795
19.21055,146169
19.21868,138639
19.22680,135586
19.23492,140645
19.24305,134486
19.25117,130019
19.25930,135918
19.26742,138356
19.27553,142536
19.28367,141657
19.29178,144498
19.29992,148155
19.30803,148683
19.31615,140662
19.32428,137973
19.33240,133870
19.34053,137371
19.34865,147346
19.35677,161843
19.36490,184670
19.37302,207551
19.38113,203976
19.38927,197608
19.39738,177991
19.40552,160003
19.41363,141518
19.42175,131220
19.42988,125068
19.43800,117534
19.44613,124115
19.45425,123091
19.46237,130125
19.47050,146902
19.47862,163180
19.48675,192848
19.49487,218439
19.50298,232941
19.51112,219466
19.51923,200125
19.52735,166596
19.53548,141800
19.54360,128970
19.55173,124336
19.55985,112119
19.56797,112186
19.57610,110454
19.58422,105745
19.59235,105143
19.60047,98114
19.60858,104742
19.61672,98921
19.62483,102246
19.63295,111186
19.64108,126194
19.64920,143791
19.65733,186372
19.66545,201493
19.67357,243499
19.68170,245139
19.68982,242972
19.69795,223367
19.70607,209666
19.71418,184067
19.72232,160687
19.73043,161253
19.73857,137910
19.74668,128144
19.75480,121344
19.76293,121346
19.77105,115391
19.77917,122930
19.78730,117375
19.79542,117070
19.80355,120262
19.81167,116690
19.81978,113659
19.82792,102298
19.83603,104579
19.84417,110112
19.85228,146198
19.86040,229287
19.86853,409232
19.87665,815797
19.88478,1380133
19.89290,1983910
19.90102,2416805
19.90915,2411976
19.91727,2119195
19.92538,1667091
19.93352,1230508
19.94163,925595
19.94977,730486
19.95788,601222
19.96600,562312
19.97413,502163
19.98225,469747
19.99038,437057
19.99850,419330
20.00662,398281
20.01475,376749
20.02287,365290
20.03098,333236
20.03912,302104
20.04723,282760
20.05537,242007
20.06348,202075
20.07160,178646
20.07973,159916
20.08785,151139
20.09598,143390
20.10410,132658
20.11222,123230
20.12035,125930
20.12847,122133
20.13660,114265
20.14472,110454
20.15283,112945
20.16097,115709
20.16908,117569
20.17720,130950
20.18533,134056
20.19345,139761
20.20158,132393
20.20970,135414
20.21782,122490
20.22595,128361
20.23407,127556
20.24220,127495
20.25032,145463
20.25843,167130
20.26657,194121
20.27468,210141
20.28282,226442
20.29093,232175
20.29905,199680
20.30718,183154
20.31530,163430
20.32342,142212
20.33155,126672
20.33967,114489
20.34780,111845
20.35592,106253
20.36403,97128
20.37217,97774
20.38028,91910
20.38842,89727
20.39653,82756
20.40465,85682
20.41278,84171
20.42090,85757
20.42902,89277
20.43715,88215
20.44527,86952
20.45340,90900
20.46152,90169
20.46963,84906
20.47777,84695
20.48588,76813
20.49402,78007
20.50213,67934
20.51025,68744
20.51838,72049
20.52650,71505
20.53463,73840
20.54275,69614
20.55087,71476
20.55900,69586
20.56712,68351
20.57523,65521
20.58337,67980
20.59148,69091
20.59962,64497
20.60773,68687
20.61585,60329
20.62398,66419
20.63210,68216
20.64023,65140
20.64835,66758
20.65647,66000
20.66460,70355
20.67272,65373
20.68083,64783
20.68897,62555
20.69708,60600
20.70522,61206
20.71333,58460
20.72145,58607
20.72958,60425
20.73770,61140
20.74583,64507
20.75395,63811
20.76207,65385
20.77020,70368
20.77832,76439
20.78645,95524
20.79457,131775
20.80268,161907
20.81082,207269
20.81893,244284
20.82705,245239
20.83518,208020
20.84330,164746
20.85143,130031
20.85955,110796
20.86767,88718
20.87580,82286
20.88392,75744
20.89205,77340
20.90017,77608
20.90828,73443
20.91642,70628
20.92453,71475
20.93267,69148
20.94078,69229
20.94890,67836
20.95703,66071
20.96515,64833
20.97327,70262
20.98140,66171
20.98952,61772
20.99765,62888
21.00577,62286
21.01388,63197
21.02202,62725
21.03013,63009
21.03827,62415
21.04638,66112
21.05450,61947
21.06263,60155
21.07075,59445
21.07887,61094
21.08700,60299
21.09512,64618
21.10325,58461
21.11137,60927
21.11948,60881
21.12762,59986
21.13573,63212
21.14387,71785
21.15198,75805
21.16010,78817
21.16823,84975
21.17635,77764
21.18448,83065
21.19260,71733
21.20072,69553
21.20885,60931
21.21697,60821
21.22508,61467
21.23322,63169
21.24133,59142
21.24947,56912
21.25758,59492
21.26570,62812
21.27383,62101
21.28195,57089
21.29008,60716
21.29820,58970
21.30632,59525
21.31445,53745
21.32257,52719
21.33070,55084
21.33882,55957
21.34693,53771
21.35507,51901
21.36318,55593
21.37130,52714
21.37943,56159
21.38755,57430
21.39568,55192
21.40380,55948
21.41192,54479
21.42005,61419
21.42817,56973
21.43630,53503
21.44442,56303
21.45253,52697
21.46067,53757
21.46878,52236
21.47690,49629
21.48503,50584
21.49315,52137
21.50128,48505
21.50940,50269
21.51752,46398
21.52565,45685
21.53377,49547
21.54190,46870
21.55002,44956
21.55813,45975
21.56627,50916
21.57438,57588
21.58252,59665
21.59063,64866
21.59875,65217
21.60688,76069
21.61500,75594
21.62312,75056
21.63125,80396
21.63937,76142
21.64750,74347
21.65562,82154
21.66373,80589
21.67187,73344
21.67998,82699
21.68812,77160
21.69623,72615
21.70435,68233
21.71248,64112
21.72060,61080
21.72872,57226
21.73685,54020
21.74497,55457
21.75310,53138
21.76122,55403
21.76933,53796
21.77747,53042
21.78558,49980
21.79372,50291
21.80183,52548
21.80995,55201
21.81808,62395
21.82620,66469
21.83433,67325
21.84245,70657
21.85057,67698
21.85870,56674
21.86682,55353
21.87493,56597
21.88307,53632
21.89118,51138
21.89932,48770
21.90743,48160
21.91555,52123
21.92368,49520
21.93180,46822
21.93993,46074
21.94805,42882
21.95617,45810
21.96430,42270
21.97242,43612
21.98055,39169
21.98867,41290
21.99678,41456
22.00492,38618
22.01303,41039
22.02115,42873
22.02928,42466
22.03740,44318
22.04553,40973
22.05365,42747
22.06177,43546
22.06990,40662
22.07802,45448
22.08615,42735
22.09427,42613
22.10238,41146
22.11052,43685
22.11863,46283
22.12677,43555
22.13488,53897
22.14300,51545
22.15113,57637
22.15925,60269
22.16737,64394
22.17550,65900
22.18362,62496
22.19175,66532
22.19987,74598
22.20798,70859
22.21612,74535
22.22423,71743
22.23237,75688
22.24048,80167
22.24860,76222
22.25673,77748
22.26485,76850
22.27297,76102
22.28110,76305
22.28922,83834
22.29735,84358
22.30547,81770
22.31358,80521
22.32172,81499
22.32983,77349
22.33797,82996
22.34608,73619
22.35420,75360
22.36233,75033
22.37045,61516
22.37858,61946
22.38670,68166
22.39482,79367
22.40295,87308
22.41107,104325
22.41918,122850
22.42732,115302
22.43543,108201
22.44357,95517
22.45168,82041
22.45980,78785
22.46793,69712
22.47605,77157
22.48418,80122
22.49230,92154
22.50042,86473
22.50855,88765
22.51667,85157
22.52478,78524
22.53292,69086
22.54103,69726
22.54917,64208
22.55728,62409
22.56540,56536
22.57353,54114
22.58165,53501
22.58978,43334
22.59790,44944
22.60602,43927
22.61415,43191
22.62227,43592
22.63040,45936
22.63852,47441
22.64663,54016
22.65477,69052
22.66288,79435
22.67100,84649
22.67913,100752
22.68725,105569
22.69538,116325
22.70350,132449
22.71162,137715
22.71975,141821
22.72787,142417
22.73600,144416
22.74412,139906
22.75223,143261
22.76037,134816
22.76848,136018
22.77662,144299
22.78473,160782
22.79285,170534
22.80098,187484
22.80910,188193
22.81722,193039
22.82535,191839
22.83347,179768
22.84160,169938
22.84972,153943
22.85783,145336
22.86597,141837
22.87408,144960
22.88222,151816
22.89033,168445
22.89845,175563
22.90658,196509
22.91470,231208
22.92282,267762
22.93095,281284
22.93907,266060
22.94720,239574
22.95532,195497
22.96343,173560
22.97157,156402
22.97968,148420
22.98782,135086
22.99593,130856
23.00405,124339
23.01218,122202
23.02030,118064
23.02843,113857
23.03655,113534
23.04467,115392
23.05280,110440
23.06092,108630
23.06903,111988
23.07717,108726
23.08528,108979
23.09342,104439
23.10153,98214
23.10965,100942
23.11778,103084
23.12590,102160
23.13403,100102
23.14215,99013
23.15027,99147
23.15840,104091
23.16652,91248
23.17465,97009
23.18277,93485
23.19088,98604
23.19902,97625
23.20713,96609
23.21525,92853
23.22338,93445
23.23150,91584
23.23963,91385
23.24775,97718
23.25587,100313
23.26400,104050
23.27212,101895
23.28025,100006
23.28837,97595
23.29648,92802
23.30462,90379
23.31273,89242
23.32085,95435
23.32898,100402
23.33710,116106
23.34523,137807
23.35335,171406
23.36147,231033
23.36960,299881
23.37772,394282
23.38585,484982
23.39397,586960
23.40208,650815
23.41022,693438
23.41833,719127
23.42647,720329
23.43458,714691
23.44270,685589
23.45083,657048
23.45895,613597
23.46707,567862
23.47520,522456
23.48332,490427
23.49145,451294
23.49957,401467
23.50768,377676
23.51582,345730
23.52393,328443
23.53207,305016
23.54018,289833
23.54830,274509
23.55643,270105
23.56455,258347
23.57267,267656
23.58080,276497
23.58892,304308
23.59705,316998
23.60517,329046
23.61328,323698
23.62142,297756
23.62953,259439
23.63767,235909
23.64578,220506
23.65390,218027
23.66203,212576
23.67015,212297
23.67828,198992
23.68640,189161
23.69452,172583
23.70265,154798
23.71077,147992
23.71888,133049
23.72702,133989
23.73513,136437
23.74327,157069
23.75138,225867
23.75950,383330
23.76763,671408
23.77575,1143955
23.78388,1630327
23.79200,2047699
23.80012,2250578
23.80825,2056613
23.81637,1683852
23.82450,1353886
23.83262,1070425
23.84073,869166
23.84887,693664
23.85698,563977
23.86510,475098
23.87323,412062
23.88135,365230
23.88948,338905
23.89760,297384
23.90572,288500
23.91385,265620
23.92197,250642
23.93010,236294
23.93822,224381
23.94633,200650
23.95447,196069
23.96258,185970
23.97070,168689
23.97883,166497
23.98695,155089
23.99508,166056
24.00320,175752
24.01132,211073
24.01945,265088
24.02757,333794
24.03570,366594
24.04382,353296
24.05193,312612
24.06007,244393
24.06818,189728
24.07632,152973
24.08443,127025
24.09255,116034
24.10068,118646
24.10880,113396
24.11692,113726
24.12505,116091
24.13317,107492
24.14130,108317
24.14942,106536
24.15753,111457
24.16567,107689
24.17378,104978
24.18192,106408
24.19003,109014
24.19815,104133
24.20628,105138
24.21440,101578
24.22253,96448
24.23065,90234
24.23877,88704
24.24690,89142
24.25502,86307
24.26313,83129
24.27127,79788
24.27938,80515
24.28752,74615
24.29563,77492
24.30375,79410
24.31188,80240
24.32000,75284
24.32813,70863
24.33625,76008
24.34437,77782
24.35250,77267
24.36062,82222
24.36873,93169
24.37687,111608
24.38498,116601
24.39312,119111
24.40123,110390
24.40935,101714
24.41748,83587
24.42560,82410
24.43373,92180
24.44185,105574
24.44997,128379
24.45810,147618
24.46622,159239
24.47435,170007
24.48247,194367
24.49058,217288
24.49872,220831
24.50683,220745
24.51495,229662
24.52308,244551
24.53120,256025
24.53933,269461
24.54745,277212
24.55557,293609
24.56370,293746
24.57182,289425
24.57995,290036
24.58807,279685
24.59618,271210
24.60432,265219
24.61243,258381
24.62057,257363
24.62868,249612
24.63680,250482
24.64493,243626
24.65305,258916
24.66117,246364
24.66930,242641
24.67742,235614
24.68555,237448
24.69367,229857
24.70178,235315
24.70992,227577
24.71803,223254
24.72617,228922
24.73428,223342
24.74240,221969
24.75053,218350
24.75865,212115
24.76677,220538
24.77490,215830
24.78302,221655
24.79115,218234
24.79927,215943
24.80738,210019
24.81552,217094
24.82363,214763
24.83177,227361
24.83988,243150
24.84800,275458
24.85613,320110
24.86425,392350
24.87238,481104
24.88050,584689
24.88862,656732
24.89675,693342
24.90487,648116
24.91298,550867
24.92112,441588
24.92923,334894
24.93737,261812
24.94548,196231
24.95360,157568
24.96173,132741
24.96985,110818
24.97798,105740
24.98610,95394
24.99422,95379
25.00235,85100
25.01047,85169
25.01858,81818
25.02672,80192
25.03483,78339
25.04297,77200
25.05108,73608
25.05920,78791
25.06733,74782
25.07545,78300
25.08358,85013
25.09170,101604
25.09982,147747
25.10795,270103
25.11607,522489
25.12420,992248
25.13232,1681316
25.14043,2249471
25.14857,2510757
25.15668,2330002
25.16480,1911638
25.17293,1373809
25.18105,848495
25.18918,509675
25.19730,315972
25.20542,204740
25.21355,160744
25.22167,132126
25.22980,129012
25.23792,138973
25.24603,163364
25.25417,191109
25.26228,227100
25.27042,248264
25.27853,256997
25.28665,238656
25.29478,204045
25.30290,158615
25.31102,127038
25.31915,106193
25.32727,96594
25.33540,88838
25.34352,79489
25.35163,85226
25.35977,95416
25.36788,120853
25.37602,171489
25.38413,214262
25.39225,252228
25.40038,271421
25.40850,298746
25.41662,307723
25.42475,312400
25.43287,318145
25.44100,322276
25.44912,331623
25.45723,326173
25.46537,337228
25.47348,342831
25.48162,339144
25.48973,325447
25.49785,329348
25.50598,336065
25.51410,316513
25.52223,323449
25.53035,308069
25.53847,315340
25.54660,308334
25.55472,314015
25.56283,303061
25.57097,304049
25.57908,304960
25.58722,307088
25.59533,309570
25.60345,309346
25.61158,302131
25.61970,284056
25.62783,284130
25.63595,286912
25.64407,294365
25.65220,294197
25.66032,285182
25.66845,289679
25.67657,272184
25.68468,270426
25.69282,261428
25.70093,260778
25.70905,253890
25.71718,253426
25.72530,256928
25.73343,252932
25.74155,247954
25.74967,248404
25.75780,245462
25.76592,245840
25.77405,245315
25.78217,237128
25.79028,236562
25.79842,234285
25.80653,234760
25.81465,229291
25.82278,222172
25.83090,231520
25.83903,221139
25.84715,222303
25.85527,220775
25.86340,217180
25.87152,211146
25.87965,207163
25.88777,204402
25.89588,209470
25.90402,204124
25.91213,196613
25.92027,200842
25.92838,188490
25.93650,197108
25.94463,186819
25.95275,190287
25.96087,186145
25.96900,174107
25.97712,176142
25.98525,174824
25.99337,176102
26.00148,168505
26.00962,172894
26.01773,163928
26.02587,162791
26.03398,158505
26.04210,155188
26.05023,162456
26.05835,159088
26.06647,159484
26.07460,163024
26.08272,153846
26.09085,149920
26.09897,153338
26.10708,154297
26.11522,150314
26.12333,152962
26.13147,149118
26.13958,150454
26.14770,142751
26.15583,151140
26.16395,147191
26.17208,146878
26.18020,151460
26.18832,136020
26.19645,137484
26.20457,139019
26.21268,134603
26.22082,128868
26.22893,130215
26.23707,132913
26.24518,126700
26.25330,130997
26.26143,128967
26.26955,122617
26.27768,117912
26.28580,121383
26.29392,116446
26.30205,120785
26.31017,109463
26.31830,112584
26.32642,111250
26.33453,110259
26.34267,110826
26.35078,103303
26.35890,110701
26.36703,109488
26.37515,115972
26.38328,119583
26.39140,126551
26.39952,120371
26.40765,126601
26.41577,122792
26.42390,118207
26.43202,106510
26.44013,109710
26.44827,98704
26.45638,99711
26.46452,96351
26.47263,100517
26.48075,97732
26.48888,93958
26.49700,92731
26.50512,93735
26.51325,91580
26.52137,90516
26.52950,93508
26.53762,86839
26.54573,87395
26.55387,81113
26.56198,83505
26.57012,85549
26.57823,82544
26.58635,81766
26.59448,86374
26.60260,78738
26.61072,75405
26.61885,78963
26.62697,77522
26.63510,78113
26.64322,75468
26.65133,77354
26.65947,77471
26.66758,83445
26.67572,83002
26.68383,76424
26.69195,74945
26.70008,76437
26.70820,71506
26.71633,73098
26.72445,75683
26.73257,71244
26.74070,73547
26.74882,67339
26.75693,69853
26.76507,70651
26.77318,73002
26.78132,68865
26.78943,71336
26.79755,77337
26.80568,76600
26.81380,70746
26.82193,73910
26.83005,74040
26.83817,68835
26.84630,65608
26.85442,65677
26.86253,67146
26.87067,63823
26.87878,61123
26.88692,60891
26.89503,65141
26.90315,60823
26.91128,62404
26.91940,59598
26.92753,63735
26.93565,61555
26.94377,61129
26.95190,66142
26.96002,66385
26.96815,74000
26.97627,88187
26.98438,109447
26.99252,147995
27.00063,200415
27.00875,252392
27.01688,302824
27.02500,338239
27.03313,363446
27.04125,353787
27.04937,328856
27.05750,289780
27.06562,254409
27.07375,215439
27.08187,186457
27.08998,167625
27.09812,147560
27.10623,140089
27.11437,130399
27.12248,130094
27.13060,117731
27.13873,115988
27.14685,116092
27.15497,104997
27.16310,103102
27.17122,98762
27.17935,97846
27.18747,94314
27.19558,98549
27.20372,91351
27.21183,87085
27.21997,86250
27.22808,81114
27.23620,78253
27.24433,79652
27.25245,74296
27.26057,78007
27.26870,69929
27.27682,73236
27.28495,66417
27.29307,67750
27.30118,67484
27.30932,62514
27.31743,70485
27.32557,65095
27.33368,65830
27.34180,64883
27.34993,65333
27.35805,67663
27.36618,61895
27.37430,66207
27.38242,66205
27.39055,65320
27.39867,64749
27.40678,62903
27.41492,56162
27.42303,57365
27.43117,56619
27.43928,56799
27.44740,62390
27.45553,55902
27.46365,52518
27.47178,53224
27.47990,54370
27.48802,56466
27.49615,53768
27.50427,59791
27.51240,61594
27.52052,60283
27.52863,62949
27.53677,58744
27.54488,54325
27.55300,58288
27.56113,56777
27.56925,60542
27.57738,62818
27.58550,68069
27.59362,72729
27.60175,79602
27.60987,79971
27.61800,71479
27.62612,61632
27.63423,57638
27.64237,55774
27.65048,59625
27.65860,51609
27.66673,52814
27.67485,50710
27.68298,56218
27.69110,53327
27.69922,55143
27.70735,52898
27.71547,54595
27.72360,50065
27.73172,50785
27.73983,51227
27.74797,52027
27.75608,48728
27.76422,48468
27.77233,50171
27.78045,47723
27.78858,50437
27.79670,49388
27.80482,52512
27.81295,48056
27.82107,51978
27.82920,45215
27.83732,48762
27.84543,48636
27.85357,48127
27.86168,46955
27.86982,50458
27.87793,47962
27.88605,46097
27.89418,44983
27.90230,44821
27.91042,46352
27.91855,45264
27.92667,44379
27.93480,46129
27.94292,47871
27.95103,44570
27.95917,43759
27.96728,43375
27.97542,50152
27.98353,46852
27.99165,45460
27.99978,48376
28.00790,46002
28.01603,50459
28.02415,50863
28.03227,52663
28.04040,59127
28.04852,61244
28.05663,58613
28.06477,61218
28.07288,55336
28.08102,52384
28.08913,52540
28.09725,52565
28.10538,45745
28.11350,46952
28.12163,47407
28.12975,46963
28.13787,43536
28.14600,43165
28.15412,42236
28.16225,46906
28.17037,45636
28.17848,52266
28.18662,59248
28.19473,59385
28.20285,65599
28.21098,73854
28.21910,81057
28.22723,74271
28.23535,75699
28.24347,71591
28.25160,61133
28.25972,56366
28.26785,52427
28.27597,47821
28.28408,46401
28.29222,49291
28.30033,54500
28.30845,56672
28.31658,61375
28.32470,69542
28.33283,70204
28.34095,83048
28.34907,92028
28.35720,103234
28.36532,105231
28.37345,114840
28.38157,123674
28.38968,129398
28.39782,131288
28.40593,128391
28.41407,125897
28.42218,128224
28.43030,119150
28.43843,114146
28.44655,107282
28.45467,103267
28.46280,93748
28.47092,90947
28.47905,84258
28.48717,84178
28.49528,82504
28.50342,81228
28.51153,72714
28.51967,73668
28.52778,71286
28.53590,68323
28.54403,66606
28.55215,63746
28.56028,64292
28.56840,61949
28.57652,60353
28.58465,62632
28.59277,56502
28.60088,60026
28.60902,56113
28.61713,58541
28.62527,56398
28.63338,57243
28.64150,59295
28.64963,58390
28.65775,62276
28.66588,60272
28.67400,59450
28.68212,60838
28.69025,55727
28.69837,57327
28.70648,56199
28.71462,53885
28.72273,53614
28.73087,53280
28.73898,57350
28.74710,63985
28.75523,74523
28.76335,68931
28.77148,65522
28.77960,63808
28.78772,61458
28.79585,59398
28.80397,56596
28.81210,60435
28.82022,59827
28.82833,57067
28.83647,59844
28.84458,54770
28.85270,51352
28.86083,48642
28.86895,56614
28.87708,61607
28.88520,65330
28.89332,72743
28.90145,71778
28.90957,65882
28.91770,61877
28.92582,62917
28.93393,55657
28.94207,60366
28.95018,54915
28.95830,56443
28.96643,52827
28.97455,51120
28.98268,48478
28.99080,50690
28.99892,52010
29.00705,50222
29.01517,46760
29.02330,46415
29.03142,45715
29.03953,43614
29.04767,47166
29.05578,49112
29.06392,47959
29.07203,51279
29.08015,52334
29.08828,51920
29.09640,53247
29.10452,49071
29.11265,49808
29.12077,45464
29.12890,46890
29.13702,43998
29.14513,47848
29.15327,43206
29.16138,47094
29.16952,51526
29.17763,52789
29.18575,58379
29.19388,68146
29.20200,85470
29.21013,94132
29.21825,100096
29.22637,94962
29.23450,83121
29.24262,80233
29.25073,70821
29.25887,67686
29.26698,66642
29.27512,66426
29.28323,60277
29.29135,60421
29.29948,50540
29.30760,48991
29.31573,46578
29.32385,48409
29.33197,43909
29.34010,46960
29.34822,44505
29.35633,42071
29.36447,36909
29.37258,42004
29.38072,42775
29.38883,44264
29.39695,43263
29.40508,41896
29.41320,43207
29.42133,44076
29.42945,44615
29.43757,41758
29.44570,45703
29.45382,42642
29.46195,42105
29.47007,44698
29.47818,45254
29.48632,44153
29.49443,46969
29.50255,42408
29.51068,45029
29.51880,43908
29.52693,45110
29.53505,43586
29.54317,43187
29.55130,42469
29.55942,43409
29.56755,40018
29.57567,41844
29.58378,41750
29.59192,43107
29.60003,40029
29.60817,41617
29.61628,39880
29.62440,39877
29.63253,41162
29.64065,40028
29.64877,41109
29.65690,38806
29.66502,42579
29.67315,42776
29.68127,47493
29.68938,48638
29.69752,50597
29.70563,50093
29.71377,50413
29.72188,39847
29.73000,46067
29.73813,43055
29.74625,41055
29.75437,40720
29.76250,43424
29.77062,38932
29.77875,37522
29.78687,39418
29.79498,34963
29.80312,39481
29.81123,39033
29.81937,39389
29.82748,39428
29.83560,36791
29.84373,38413
29.85185,42620
29.85998,49019
29.86810,61430
29.87622,80837
29.88435,108851
29.89247,139575
29.90058,157662
29.90872,150093
29.91683,129892
29.92497,102930
29.93308,78949
29.94120,66617
29.94933,58247
29.95745,54437
29.96558,58866
29.97370,64634
29.98182,60644
29.98995,72500
29.99807,75151
30.00620,76577
30.01432,83994
30.02243,82966
30.03057,81810
30.03868,87534
30.04680,83325
30.05493,90606
30.06305,89601
30.07118,80697
30.07930,85689
30.08742,83718
30.09555,83884
30.10367,79073
30.11180,78015
30.11992,75724
30.12803,80332
30.13617,77453
30.14428,73196
30.15240,74493
30.16053,66704
30.16865,67640
30.17678,66299
30.18490,59400
30.19302,59699
30.20115,56900
30.20927,59910
30.21740,57626
30.22552,56578
30.23363,51561
30.24177,50687
30.24988,52344
30.25802,53918
30.26613,48667
30.27425,47986
30.28238,48199
30.29050,48609
30.29862,54261
30.30675,45759
30.31487,49321
30.32300,45174
30.33112,43326
30.33923,49287
30.34737,50976
30.35548,46519
30.36362,45936
30.37173,43484
30.37985,45910
30.38798,43649
30.39610,48207
30.40422,44804
30.41235,41529
30.42047,46406
30.42860,42058
30.43672,43505
30.44483,37528
30.45297,38478
30.46108,43483
30.46922,45235
30.47733,41758
30.48545,40786
30.49358,42102
30.50170,38435
30.50983,42821
30.51795,40452
30.52607,42949
30.53420,40749
30.54232,42968
30.55043,40389
30.55857,39934
30.56668,42250
30.57482,41719
30.58293,41687
30.59105,40695
30.59918,41585
30.60730,41045
30.61543,41598
30.62355,41905
30.63167,40789
30.63980,38707
30.64792,37350
30.65605,39703
30.66417,36493
30.67228,36723
30.68042,38427
30.68853,37246
30.69665,36665
30.70478,40857
30.71290,37325
30.72103,38430
30.72915,36777
30.73727,39399
30.74540,40136
30.75352,37890
30.76165,42803
30.76977,44745
30.77788,55182
30.78602,68305
30.79413,83907
30.80225,101639
30.81038,106239
30.81850,105834
30.82663,93824
30.83475,79293
30.84287,63019
30.85100,57334
30.85912,49992
30.86725,42744
30.87537,45083
30.88348,40494
30.89162,45607
30.89973,38571
30.90787,38463
30.91598,40189
30.92410,40338
30.93223,39271
30.94035,41789
30.94847,41737
30.95660,42293
30.96472,41547
30.97285,38831
30.98097,37818
30.98908,37670
30.99722,41463
31.00533,36346
31.01347,38810
31.02158,37650
31.02970,36630
31.03783,39311
31.04595,41634
31.05408,40923
31.06220,46585
31.07032,53970
31.07845,48364
31.08657,57303
31.09468,63602
31.10282,71541
31.11093,65987
31.11907,70071
31.12718,61752
31.13530,61718
31.14343,59097
31.15155,60515
31.15968,64384
31.16780,63154
31.17592,65759
31.18405,75406
31.19217,88344
31.20028,108739
31.20842,129924
31.21653,156954
31.22467,171962
31.23278,163741
31.24090,155445
31.24903,126962
31.25715,106520
31.26528,85786
31.27340,69838
31.28152,62919
31.28965,60171
31.29777,56196
31.30590,59789
31.31402,57768
31.32213,59911
31.33027,59196
31.33838,58497
31.34650,55026
31.35463,55399
31.36275,58185
31.37088,61822
31.37900,59045
31.38712,57762
31.39525,59213
31.40337,58986
31.41150,58630
31.41962,56664
31.42773,52159
31.43587,51135
31.44398,51390
31.45210,51200
31.46023,53053
31.46835,50403
31.47648,52920
31.48460,54124
31.49272,55427
31.50085,52671
31.50897,50635
31.51710,53763
31.52522,49818
31.53333,51096
31.54147,50707
31.54958,54084
31.55772,56211
31.56583,52262
31.57395,54457
31.58208,46027
31.59020,52462
31.59832,53757
31.60645,50555
31.61457,48215
31.62270,47024
31.63082,50634
31.63893,50260
31.64707,50702
31.65518,50302
31.66332,50414
31.67143,52068
31.67955,57017
31.68768,54379
31.69580,50010
31.70393,48411
31.71205,45673
31.72017,46694
31.72830,42679
31.73642,46324
31.74453,44150
31.75267,43660
31.76078,43007
31.76892,46956
31.77703,45133
31.78515,46376
31.79328,42180
31.80140,48008
31.80953,45244
31.81765,44273
31.82577,47726
31.83390,44168
31.84202,49017
31.85015,43243
31.85827,52563
31.86638,45321
31.87452,48623
31.88263,54277
31.89075,57504
31.89888,56340
31.90700,62715
31.91513,65368
31.92325,72882
31.93137,66004
31.93950,74968
31.94762,72076
31.95575,78037
31.96387,76263
31.97198,77637
31.98012,82449
31.98823,78839
31.99635,84503
32.00448,83265
32.01260,84116
32.02073,79287
32.02885,75114
32.03697,74643
32.04510,78072
32.05322,71933
32.06135,73604
32.06947,68738
32.07758,60334
32.08572,59112
32.09383,57537
32.10197,57050
32.11008,59146
32.11820,53400
32.12633,54847
32.13445,55882
32.14257,55544
32.15070,47001
32.15882,49189
32.16695,49448
32.17507,56285
32.18318,47205
32.19132,46722
32.19943,43446
32.20757,45818
32.21568,45209
32.22380,44006
32.23193,48315
32.24005,45651
32.24817,49350
32.25630,47938
32.26442,51547
32.27255,53752
32.28067,46375
32.28878,46322
32.29692,45025
32.30503,49379
32.31317,42486
32.32128,41599
32.32940,42692
32.33753,47426
32.34565,46684
32.35378,44787
32.36190,43077
32.37002,47674
32.37815,47666
32.38627,44809
32.39438,40934
32.40252,43688
32.41063,43106
32.41877,40207
32.42688,42060
32.43500,42293
32.44313,41077
32.45125,41268
32.45938,45487
32.46750,41826
32.47562,38968
32.48375,43236
32.49187,39310
32.50000,45085
32.50812,42965
32.51623,39903
32.52437,43010
32.53248,41105
32.54060,38509
32.54873,41982
32.55685,43015
32.56498,41953
32.57310,39531
32.58122,44472
32.58935,42980
32.59747,41897
32.60560,41454
32.61372,42991
32.62183,42294
32.62997,40463
32.63808,46694
32.64620,50982
32.65433,51335
32.66245,55109
32.67058,48552
32.67870,45095
32.68682,43904
32.69495,46716
32.70307,44814
32.71120,42968
32.71932,43823
32.72743,44767
32.73557,42999
32.74368,45220
32.75182,39645
32.75993,37664
32.76805,40846
32.77618,38522
32.78430,39633
32.79242,38328
32.80055,40008
32.80867,39237
32.81680,34993
32.82492,39547
32.83303,38952
32.84117,37372
32.84928,38054
32.85742,38863
32.86553,38279
32.87365,38369
32.88178,40379
32.88990,42271
32.89803,40912
32.90615,40963
32.91427,41500
32.92240,43815
32.93052,41553
32.93863,39907
32.94677,45384
32.95488,43060
32.96302,40102
32.97113,42311
32.97925,47384
32.98738,52184
32.99550,55494
33.00363,58778
33.01175,57871
33.01987,54536
33.02800,55449
33.03612,50297
33.04423,46113
33.05237,47467
33.06048,46361
33.06862,46498
33.07673,47989
33.08485,51583
33.09298,56116
33.10110,56101
33.10923,56720
33.11735,56430
33.12547,59825
33.13360,56529
33.14172,53364
33.14985,48322
33.15797,41989
33.16608,38811
33.17422,40977
33.18233,41235
33.19045,42949
33.19858,41695
33.20670,41800
33.21483,44210
33.22295,39763
33.23107,38810
33.23920,37307
33.24732,41921
33.25545,42194
33.26357,39008
33.27168,40370
33.27982,36679
33.28793,39097
33.29605,35646
33.30418,38536
33.31230,40137
33.32043,38960
33.32855,36901
33.33667,39003
33.34480,38614
33.35292,41339
33.36105,40841
33.36917,46527
33.37728,43839
33.38542,44772
33.39353,41438
33.40167,38984
33.40978,41258
33.41790,36185
33.42603,41608
33.43415,37819
33.44227,33027
33.45040,33892
33.45852,37190
33.46665,39377
33.47477,37567
33.48288,39019
33.49102,36458
33.49913,41365
33.50727,37340
33.51538,39902
33.52350,39650
33.53163,41836
33.53975,46129
33.54788,45382
33.55600,43286
33.56412,48069
33.57225,43631
33.58037,43175
33.58848,38554
33.59662,36925
33.60473,37874
33.61287,39966
33.62098,38557
33.62910,43936
33.63723,38762
33.64535,37291
33.65348,41890
33.66160,41948
33.66972,42284
33.67785,42455
33.68597,42555
33.69408,40480
33.70222,39324
33.71033,39232
33.71847,39491
33.72658,38121
33.73470,37530
33.74283,38660
33.75095,38159
33.75908,40717
33.76720,36543
33.77532,37057
33.78345,37216
33.79157,37739
33.79970,44322
33.80782,39314
33.81593,40579
33.82407,38233
33.83218,41967
33.84030,36397
33.84843,37104
33.85655,39240
33.86468,42721
33.87280,40261
33.88092,43705
33.88905,41551
33.89717,39818
33.90530,42425
33.91342,46612
33.92153,42517
33.92967,41983
33.93778,39902
33.94592,39474
33.95403,37497
33.96215,38589
33.97028,39568
33.97840,34289
33.98652,37745
33.99465,35642
34.00277,39601
34.01090,37711
34.01902,38286
34.02713,40436
34.03527,42194
34.04338,40287
34.05152,34333
34.05963,39979
34.06775,42456
34.07588,41077
34.08400,39263
34.09212,42723
34.10025,41062
34.10837,38819
34.11650,37160
34.12462,38253
34.13273,41179
34.14087,41352
34.14898,39312
34.15712,40010
34.16523,42475
34.17335,41423
34.18148,41750
34.18960,39973
34.19773,37118
34.20585,38042
34.21397,36891
34.22210,40264
34.23022,38514
34.23833,38294
34.24647,37661
34.25458,40234
34.26272,37320
34.27083,35477
34.27895,38449
34.28708,41135
34.29520,35961
34.30333,40674
34.31145,39060
34.31957,39178
34.32770,39721
34.33582,39254
34.34393,40375
34.35207,36551
34.36018,38777
34.36832,39635
34.37643,35147
34.38455,39789
34.39268,38101
34.40080,42129
34.40893,39361
34.41705,35149
34.42517,40021
34.43330,39577
34.44142,37219
34.44955,37487
34.45767,34166
34.46578,37048
34.47392,37664
34.48203,38909
34.49015,42816
34.49828,45038
34.50640,54182
34.51453,52917
34.52265,56877
34.53077,68616
34.53890,68282
34.54702,70703
34.55515,71544
34.56327,68426
34.57138,68367
34.57952,70794
34.58763,60301
34.59577,65107
34.60388,56952
34.61200,58327
34.62013,55462
34.62825,49647
34.63637,51420
34.64450,52027
34.65262,48125
34.66075,46002
34.66887,49519
34.67698,46149
34.68512,44011
34.69323,47544
34.70137,49053
34.70948,46435
34.71760,42844
34.72573,45394
34.73385,45392
34.74197,45442
34.75010,46308
34.75822,46588
34.76635,47513
34.77447,44126
34.78258,43517
34.79072,43512
34.79883,43126
34.80697,47331
34.81508,43601
34.82320,44108
34.83133,46091
34.83945,41269
34.84758,42164
34.85570,45549
34.86382,46028
34.87195,44671
34.88007,46093
34.88818,45474
34.89632,45430
34.90443,43291
34.91257,46281
34.92068,45585
34.92880,45381
34.93693,43638
34.94505,48227
34.95318,51749
34.96130,48975
34.96942,50629
34.97755,48923
34.98567,54194
34.99380,46143
35.00192,45742
35.01003,46427
35.01817,42790
35.02628,44727
35.03440,42615
35.04253,43634
35.05065,39198
35.05878,39627
35.06690,41148
35.07502,40121
35.08315,41946
35.09127,43924
35.09940,38495
35.10752,40024
35.11563,41791
35.12377,41107
35.13188,44900
35.14000,48371
35.14813,47606
35.15625,47837
35.16438,42102
35.17250,47788
35.18062,43702
35.18875,40429
35.19687,38737
35.20500,42536
35.21312,40614
35.22123,41760
35.22937,42499
35.23748,39567
35.24562,40680
35.25373,40224
35.26185,45685
35.26998,41313
35.27810,41580
35.28622,42879
35.29435,39761
35.30247,42377
35.31060,43690
35.31872,42661
35.32683,39695
35.33497,39726
35.34308,43232
35.35122,42912
35.35933,41025
35.36745,40776
35.37558,37948
35.38370,38327
35.39183,42591
35.39995,43298
35.40807,44350
35.41620,42241
35.42432,44767
35.43243,45296
35.44057,44763
35.44868,47805
35.45682,45221
35.46493,43089
35.47305,46600
35.48118,44709
35.48930,44065
35.49743,44321
35.50555,44648
35.51367,41702
35.52180,41042
35.52992,41331
35.53803,45360
35.54617,40439
35.55428,42852
35.56242,41587
35.57053,44019
35.57865,40698
35.58678,42347
35.59490,41608
35.60303,42335
35.61115,45642
35.61927,42076
35.62740,39652
35.63552,43997
35.64365,44146
35.65177,46193
35.65988,42162
35.66802,41711
35.67613,41934
35.68425,43210
35.69238,43213
35.70050,40109
35.70863,44410
35.71675,41572
35.72487,41688
35.73300,43277
35.74112,43025
35.74925,45695
35.75737,45692
35.76548,46382
35.77362,49984
35.78173,52262
35.78985,44320
35.79798,40590
35.80610,46370
35.81423,40079
35.82235,43796
35.83047,41235
35.83860,41861
35.84672,42357
35.85485,41705
35.86297,40689
35.87108,41864
35.87922,41276
35.88733,37504
35.89547,39369
35.90358,41510
35.91170,41883
35.91983,42904
35.92795,38937
35.93607,41656
35.94420,42129
35.95232,45001
35.96045,43471
35.96857,40933
35.97668,41299
35.98482,43969
35.99293,39671
36.00107,45060
36.00918,45798
36.01730,42854
36.02543,46917
36.03355,44354
36.04168,41530
36.04980,40686
36.05792,40494
36.06605,44064
36.07417,49073
36.08228,43827
36.09042,44326
36.09853,39097
36.10667,40704
36.11478,41658
36.12290,44811
36.13103,42257
36.13915,46824
36.14728,42662
36.15540,43702
36.16352,44608
36.17165,42756
36.17977,41969
36.18788,41636
36.19602,43372
36.20413,42603
36.21227,41000
36.22038,41904
36.22850,38933
36.23663,41230
36.24475,42999
36.25288,42199
36.26100,44649
36.26912,45132
36.27725,45004
36.28537,51631
36.29350,50652
36.30162,55791
36.30973,52139
36.31787,52955
36.32598,46089
36.33410,44367
36.34223,42679
36.35035,43554
36.35848,46066
36.36660,43147
36.37472,45172
36.38285,42883
36.39097,47088
36.39910,44635
36.40722,45524
36.41533,45877
36.42347,49883
36.43158,47066
36.43972,48264
36.44783,49037
36.45595,44943
36.46408,45018
36.47220,43017
36.48032,42558
36.48845,41752
36.49657,42760
36.50470,44338
36.51282,42947
36.52093,41480
36.52907,45536
36.53718,46436
36.54532,40198
36.55343,41269
36.56155,43092
36.56968,46365
36.57780,45245
36.58592,40696
36.59405,44284
36.60217,43935
36.61030,49634
36.61842,46640
36.62653,46221
36.63467,45314
36.64278,44494
36.65092,45358
36.65903,46381
36.66715,51533
36.67528,45167
36.68340,50893
36.69153,50661
36.69965,45275
36.70777,52005
36.71590,48994
36.72402,48881
36.73213,49059
36.74027,50936
36.74838,49735
36.75652,47247
36.76463,46119
36.77275,50603
36.78088,49018
36.78900,49690
36.79713,46343
36.80525,49614
36.81337,48826
36.82150,49334
36.82962,46028
36.83773,47662
36.84587,47574
36.85398,51693
36.86212,47744
36.87023,48286
36.87835,47999
36.88648,47916
36.89460,44310
36.90273,45807
36.91085,49408
36.91897,50408
36.92710,48514
36.93522,50481
36.94335,53105
36.95147,65891
36.95958,60010
36.96772,59849
36.97583,64743
36.98395,64054
36.99208,62296
37.00020,54357
37.00833,54409
37.01645,49998
37.02457,46500
37.03270,46425
37.04082,48916
37.04895,51013
37.05707,53731
37.06518,51949
37.07332,48689
37.08143,51501
37.08957,46104
37.09768,48778
37.10580,47440
37.11393,53254
37.12205,50547
37.13017,46451
37.13830,51216
37.14642,48019
37.15455,48776
37.16267,48776
37.17078,49525
37.17892,53573
37.18703,49737
37.19517,47799
37.20328,48636
37.21140,50207
37.21953,48670
37.22765,49588
37.23578,47413
37.24390,48833
37.25202,53477
37.26015,50335
37.26827,53324
37.27638,50029
37.28452,53069
37.29263,51716
37.30077,52442
37.30888,54502
37.31700,61629
37.32513,68985
37.33325,75202
37.34138,74916
37.34950,72700
37.35762,73453
37.36575,65725
37.37387,67817
37.38198,63655
37.39012,60992
37.39823,64213
37.40637,58964
37.41448,62915
37.42260,58572
37.43073,59229
37.43885,56180
37.44698,57845
37.45510,61602
37.46322,61951
37.47135,56684
37.47947,57165
37.48760,53436
