Z:\data\JTB-E02\BACandBLUE\JTB-E02-200-06.D Thu Feb 28 08:26:44 2019
Start of data points
2.09528,43812
2.10342,39782
2.11153,42516
2.11965,43627
2.12778,45281
2.13590,54469
2.14403,52941
2.15215,54999
2.16027,49927
2.16840,47407
2.17652,59924
2.18463,50678
2.19277,53207
2.20088,49410
2.20902,50490
2.21713,53711
2.22525,50258
2.23338,45836
2.24150,45726
2.24963,55611
2.25775,394793
2.26587,1760630
2.27400,2527759
2.28212,1751188
2.29025,837877
2.29837,552072
2.30648,437847
2.31462,380586
2.32273,325772
2.33085,303060
2.33898,268635
2.34710,240539
2.35523,219130
2.36335,207498
2.37147,193320
2.37960,187071
2.38772,181798
2.39585,207743
2.40397,224301
2.41208,285482
2.42022,386169
2.42833,268800
2.43647,208390
2.44458,194309
2.45270,173020
2.46083,148846
2.46895,135228
2.47707,132830
2.48520,129222
2.49332,127288
2.50145,119654
2.50957,114633
2.51768,116179
2.52582,115478
2.53393,117739
2.54207,120148
2.55018,144046
2.55830,171971
2.56643,136714
2.57455,115546
2.58268,110730
2.59080,104134
2.59892,109910
2.60705,114269
2.61517,118977
2.62328,104488
2.63142,106888
2.63953,99927
2.64767,93622
2.65578,96413
2.66390,93938
2.67203,95725
2.68015,93774
2.68828,94785
2.69640,87832
2.70452,91496
2.71265,88190
2.72077,85349
2.72888,83826
2.73702,83573
2.74513,83863
2.75327,79132
2.76138,84042
2.76950,79983
2.77763,82928
2.78575,87201
2.79388,95249
2.80200,90802
2.81012,90267
2.81825,88045
2.82637,83336
2.83450,85555
2.84262,80931
2.85073,86304
2.85887,82016
2.86698,79967
2.87510,76986
2.88323,82299
2.89135,76524
2.89948,79451
2.90760,77345
2.91572,76955
2.92385,75788
2.93197,80027
2.94010,75954
2.94822,77246
2.95633,74212
2.96447,70251
2.97258,71714
2.98070,72754
2.98883,76176
2.99695,80239
3.00508,78382
3.01320,79981
3.02132,77074
3.02945,71327
3.03757,73895
3.04570,72155
3.05382,75773
3.06193,69620
3.07007,75161
3.07818,69853
3.08632,71393
3.09443,77234
3.10255,90332
3.11068,96654
3.11880,96384
3.12692,89253
3.13505,82822
3.14317,82358
3.15130,81992
3.15942,83529
3.16753,72645
3.17567,78817
3.18378,72889
3.19192,74934
3.20003,74777
3.20815,70791
3.21628,68965
3.22440,71842
3.23252,69529
3.24065,66132
3.24877,67632
3.25690,67693
3.26502,64687
3.27313,80857
3.28127,171286
3.28938,787555
3.29752,2919886
3.30563,6517391
3.31375,8733137
3.32188,8197926
3.33000,6349257
3.33813,4733498
3.34625,3649709
3.35437,2972165
3.36250,2455459
3.37062,2122305
3.37873,1822597
3.38687,1598463
3.39498,1428792
3.40312,1304144
3.41123,1186462
3.41935,1090689
3.42748,1007471
3.43560,923106
3.44373,870886
3.45185,829681
3.45997,778454
3.46810,724534
3.47622,711154
3.48435,676322
3.49247,655483
3.50058,604750
3.50872,590340
3.51683,571562
3.52495,560276
3.53308,523439
3.54120,512881
3.54933,485330
3.55745,471555
3.56557,461915
3.57370,448735
3.58182,437389
3.58995,418773
3.59807,421583
3.60618,403718
3.61432,388499
3.62243,392633
3.63057,386108
3.63868,360464
3.64680,360252
3.65493,354427
3.66305,351504
3.67117,342041
3.67930,342672
3.68742,344311
3.69555,345698
3.70367,340902
3.71178,326930
3.71992,325672
3.72803,319897
3.73617,299258
3.74428,296519
3.75240,297456
3.76053,291821
3.76865,276964
3.77677,287596
3.78490,285603
3.79302,280144
3.80115,277044
3.80927,269383
3.81738,262193
3.82552,272975
3.83363,266633
3.84177,271547
3.84988,258077
3.85800,246374
3.86613,251075
3.87425,252530
3.88238,241502
3.89050,240406
3.89862,235957
3.90675,227957
3.91487,230813
3.92298,233005
3.93112,226680
3.93923,222218
3.94737,213314
3.95548,220963
3.96360,230706
3.97173,215070
3.97985,219326
3.98798,220400
3.99610,209761
4.00422,211837
4.01235,222679
4.02047,216688
4.02858,208489
4.03672,206650
4.04483,209438
4.05297,211792
4.06108,209252
4.06920,202051
4.07733,198847
4.08545,199076
4.09358,204115
4.10170,187664
4.10982,194275
4.11795,190541
4.12607,203393
4.13420,220598
4.14232,313680
4.15043,422993
4.15857,450310
4.16668,392213
4.17480,303577
4.18293,274710
4.19105,245186
4.19918,224728
4.20730,214755
4.21542,201409
4.22355,212121
4.23167,224841
4.23980,228135
4.24792,224673
4.25603,207553
4.26417,195594
4.27228,198585
4.28042,195955
4.28853,185861
4.29665,185575
4.30478,180679
4.31290,185665
4.32102,179644
4.32915,187578
4.33727,181462
4.34540,180808
4.35352,172974
4.36163,175156
4.36977,180248
4.37788,184792
4.38602,181027
4.39413,170900
4.40225,169383
4.41038,163989
4.41850,161641
4.42662,164619
4.43475,159539
4.44287,159688
4.45100,157510
4.45912,165962
4.46723,161786
4.47537,154825
4.48348,155352
4.49162,162075
4.49973,155109
4.50785,152469
4.51598,156338
4.52410,153828
4.53223,155536
4.54035,153618
4.54847,148553
4.55660,149238
4.56472,149316
4.57283,146105
4.58097,144857
4.58908,143754
4.59722,143672
4.60533,146557
4.61345,142314
4.62158,138069
4.62970,145004
4.63783,142370
4.64595,141960
4.65407,148144
4.66220,147069
4.67032,147213
4.67845,141243
4.68657,146115
4.69468,146544
4.70282,135602
4.71093,135134
4.71905,141813
4.72718,137176
4.73530,139555
4.74343,135983
4.75155,133403
4.75967,143707
4.76780,137772
4.77592,137753
4.78405,134299
4.79217,134008
4.80028,130692
4.80842,135267
4.81653,128714
4.82465,136974
4.83278,127473
4.84090,136714
4.84903,125256
4.85715,129369
4.86527,127391
4.87340,135232
4.88152,134587
4.88965,129831
4.89777,129758
4.90588,130965
4.91402,125978
4.92213,133094
4.93027,151765
4.93838,253357
4.94650,600526
4.95463,1449780
4.96275,2617156
4.97087,3661042
4.97900,3794206
4.98712,3223512
4.99525,2473416
5.00337,1864335
5.01148,1447076
5.01962,1191063
5.02773,1005354
5.03587,858630
5.04398,776852
5.05210,709942
5.06023,645232
5.06835,609043
5.07647,579622
5.08460,541944
5.09272,519884
5.10085,496139
5.10897,474215
5.11708,437796
5.12522,435935
5.13333,402193
5.14147,403193
5.14958,390947
5.15770,373478
5.16583,374147
5.17395,362199
5.18208,358575
5.19020,355957
5.19832,349784
5.20645,333880
5.21457,328094
5.22268,313247
5.23082,316314
5.23893,315524
5.24707,317387
5.25518,312483
5.26330,301606
5.27143,291979
5.27955,282644
5.28768,276768
5.29580,269904
5.30392,267102
5.31205,262051
5.32017,259584
5.32830,253701
5.33642,249608
5.34453,258706
5.35267,243007
5.36078,236586
5.36890,238999
5.37703,240066
5.38515,240203
5.39328,236931
5.40140,230441
5.40952,223448
5.41765,219168
5.42577,221246
5.43390,222700
5.44202,212340
5.45013,219657
5.45827,217631
5.46638,217406
5.47450,215623
5.48263,205432
5.49075,210048
5.49888,199577
5.50700,206489
5.51512,215099
5.52325,204208
5.53137,199636
5.53950,201600
5.54762,201585
5.55573,204103
5.56387,195956
5.57198,195249
5.58012,197762
5.58823,193046
5.59635,182757
5.60448,192494
5.61260,207738
5.62072,202146
5.62885,200752
5.63697,209512
5.64510,218048
5.65322,211234
5.66133,209382
5.66947,190815
5.67758,203288
5.68572,214002
5.69383,232288
5.70195,244342
5.71008,233096
5.71820,218365
5.72633,193172
5.73445,198234
5.74257,175468
5.75070,188214
5.75882,185015
5.76693,177732
5.77507,172562
5.78318,172060
5.79132,171204
5.79943,175633
5.80755,166523
5.81568,169760
5.82380,171341
5.83193,157970
5.84005,162421
5.84817,161407
5.85630,165028
5.86442,165220
5.87253,171493
5.88067,170437
5.88878,174334
5.89692,160775
5.90503,163896
5.91315,152103
5.92128,123199
5.92940,121193
5.93753,120455
5.94565,115359
5.95377,120738
5.96190,121466
5.97002,131290
5.97815,146188
5.98627,167535
5.99438,166984
6.00252,154472
6.01063,146109
6.01875,139181
6.02688,128453
6.03500,124442
6.04313,130606
6.05125,122522
6.05937,118910
6.06750,118351
6.07562,113060
6.08375,115224
6.09187,117254
6.09998,115414
6.10812,106075
6.11623,116521
6.12437,112706
6.13248,120134
6.14060,125004
6.14873,126130
6.15685,132305
6.16497,125997
6.17310,123307
6.18122,122932
6.18935,132164
6.19747,133635
6.20558,130289
6.21372,130392
6.22183,127684
6.22997,133857
6.23808,134956
6.24620,133169
6.25433,143808
6.26245,139830
6.27057,143796
6.27870,143739
6.28682,142913
6.29495,147362
6.30307,148957
6.31118,144683
6.31932,145883
6.32743,153173
6.33557,155597
6.34368,150186
6.35180,159408
6.35993,160596
6.36805,161800
6.37618,159990
6.38430,162145
6.39242,163633
6.40055,157615
6.40867,159472
6.41678,167571
6.42492,167387
6.43303,177985
6.44117,172053
6.44928,171959
6.45740,178462
6.46553,182013
6.47365,185361
6.48178,183458
6.48990,183485
6.49802,180910
6.50615,188265
6.51427,180041
6.52238,194696
6.53052,184639
6.53863,177540
6.54677,192224
6.55488,190199
6.56300,162230
6.57113,148035
6.57925,144421
6.58738,137790
6.59550,133676
6.60362,131960
6.61175,128013
6.61987,129637
6.62800,125692
6.63612,128494
6.64423,124914
6.65237,122506
6.66048,122946
6.66860,119715
6.67673,121741
6.68485,118175
6.69298,124014
6.70110,116752
6.70922,116501
6.71735,117332
6.72547,122171
6.73360,122354
6.74172,106029
6.74983,109522
6.75797,124497
6.76608,111757
6.77422,108593
6.78233,111203
6.79045,105190
6.79858,111593
6.80670,104226
6.81482,105786
6.82295,106615
6.83107,109385
6.83920,110936
6.84732,108007
6.85543,95387
6.86357,94809
6.87168,84138
6.87982,70867
6.88793,73632
6.89605,68560
6.90418,63900
6.91230,69094
6.92042,66477
6.92855,63451
6.93667,68042
6.94480,65337
6.95292,67264
6.96103,72966
6.96917,63913
6.97728,66273
6.98542,62629
6.99353,62585
7.00165,60380
7.00978,66237
7.01790,66888
7.02603,58795
7.03415,60993
7.04227,61463
7.05040,60706
7.05852,62328
7.06663,62694
7.07477,57618
7.08288,61584
7.09102,56629
7.09913,58412
7.10725,60506
7.11538,65679
7.12350,59383
7.13163,59542
7.13975,61549
7.14787,56980
7.15600,58448
7.16412,57247
7.17225,58177
7.18037,59392
7.18848,62575
7.19662,63690
7.20473,59916
7.21285,64144
7.22098,56682
7.22910,61971
7.23723,57571
7.24535,60196
7.25347,56572
7.26160,59682
7.26972,60012
7.27785,58972
7.28597,58737
7.29408,59786
7.30222,59190
7.31033,55099
7.31845,61131
7.32658,59838
7.33470,59847
7.34283,53743
7.35095,55356
7.35907,59283
7.36720,56655
7.37532,55279
7.38345,62773
7.39157,53227
7.39968,54937
7.40782,56344
7.41593,59128
7.42407,58056
7.43218,64462
7.44030,70779
7.44843,72248
7.45655,66733
7.46467,68285
7.47280,58952
7.48092,58202
7.48905,52729
7.49717,54657
7.50528,53354
7.51342,55438
7.52153,55686
7.52967,53662
7.53778,57078
7.54590,55357
7.55403,56667
7.56215,53314
7.57027,57742
7.57840,54980
7.58652,54088
7.59465,53588
7.60277,56218
7.61088,56469
7.61902,54366
7.62713,59238
7.63527,54653
7.64338,53524
7.65150,55855
7.65963,55517
7.66775,54740
7.67588,53709
7.68400,55499
7.69212,52813
7.70025,54953
7.70837,52741
7.71648,56781
7.72462,51232
7.73273,53619
7.74087,59107
7.74898,56348
7.75710,50204
7.76523,56048
7.77335,52388
7.78148,51355
7.78960,51043
7.79772,52920
7.80585,54234
7.81397,55632
7.82210,57937
7.83022,51155
7.83833,55143
7.84647,55912
7.85458,50336
7.86270,46933
7.87083,45953
7.87895,50288
7.88708,49338
7.89520,50054
7.90332,51806
7.91145,49533
7.91957,52175
7.92770,45860
7.93582,45633
7.94393,46500
7.95207,47267
7.96018,50121
7.96832,52242
7.97643,53028
7.98455,52655
7.99268,50221
8.00080,49709
8.00892,48533
8.01705,53623
8.02517,49944
8.03330,50724
8.04142,47732
8.04953,52500
8.05767,47534
8.06578,53883
8.07392,51810
8.08203,49585
8.09015,52793
8.09828,52445
8.10640,57092
8.11452,54161
8.12265,56306
8.13077,55599
8.13890,53777
8.14702,54797
8.15513,50582
8.16327,53675
8.17138,59036
8.17952,56881
8.18763,55606
8.19575,53859
8.20388,56440
8.21200,55348
8.22013,58950
8.22825,57037
8.23637,56951
8.24450,53346
8.25262,53635
8.26073,55796
8.26887,58846
8.27698,56293
8.28512,53835
8.29323,53044
8.30135,51715
8.30948,52506
8.31760,55734
8.32573,56896
8.33385,53179
8.34197,56908
8.35010,56988
8.35822,54732
8.36633,59781
8.37447,55197
8.38258,58927
8.39072,52849
8.39883,53576
8.40695,55922
8.41508,53632
8.42320,58845
8.43133,53987
8.43945,53767
8.44757,51700
8.45570,50401
8.46382,55047
8.47195,56219
8.48007,51287
8.48818,53147
8.49632,50374
8.50443,53281
8.51255,55956
8.52068,58606
8.52880,61246
8.53693,55430
8.54505,60208
8.55317,52506
8.56130,54655
8.56942,54275
8.57755,53580
8.58567,53632
8.59378,52997
8.60192,49808
8.61003,54804
8.61817,57241
8.62628,52608
8.63440,55922
8.64253,53124
8.65065,52089
8.65877,52309
8.66690,49151
8.67502,49356
8.68315,54187
8.69127,50571
8.69938,47527
8.70752,46675
8.71563,53228
8.72377,50939
8.73188,49640
8.74000,49115
8.74813,51243
8.75625,53138
8.76437,58985
8.77250,81333
8.78062,145184
8.78875,273443
8.79687,507930
8.80498,728383
8.81312,861835
8.82123,817731
8.82937,704286
8.83748,550417
8.84560,458159
8.85373,392477
8.86185,351185
8.86998,307496
8.87810,285140
8.88622,252957
8.89435,235059
8.90247,214344
8.91058,211823
8.91872,191145
8.92683,182310
8.93497,174107
8.94308,166452
8.95120,166689
8.95933,160212
8.96745,154917
8.97558,150068
8.98370,147222
8.99182,138508
8.99995,137176
9.00807,136161
9.01620,145025
9.02432,134793
9.03243,129998
9.04057,127723
9.04868,124567
9.05680,117624
9.06493,124029
9.07305,122138
9.08118,120691
9.08930,116804
9.09742,115053
9.10555,111129
9.11367,104775
9.12180,110195
9.12992,111687
9.13803,103134
9.14617,101136
9.15428,99502
9.16240,94931
9.17053,103205
9.17865,103927
9.18678,104347
9.19490,105910
9.20302,97329
9.21115,105816
9.21927,96639
9.22740,102562
9.23552,99327
9.24363,94690
9.25177,93068
9.25988,93916
9.26802,91868
9.27613,87511
9.28425,90338
9.29238,91151
9.30050,81622
9.30862,86839
9.31675,83311
9.32487,82131
9.33300,88605
9.34112,86306
9.34923,83184
9.35737,78449
9.36548,84758
9.37362,81794
9.38173,81471
9.38985,87840
9.39798,81654
9.40610,77267
9.41422,76502
9.42235,75066
9.43047,71824
9.43860,78726
9.44672,72611
9.45483,80585
9.46297,80224
9.47108,77075
9.47922,75455
9.48733,79317
9.49545,74587
9.50358,69009
9.51170,75323
9.51983,74389
9.52795,76003
9.53607,77305
9.54420,79082
9.55232,80867
9.56043,70951
9.56857,67287
9.57668,63541
9.58482,51254
9.59293,49888
9.60105,49927
9.60918,49716
9.61730,52613
9.62543,50317
9.63355,45505
9.64167,47303
9.64980,46485
9.65792,43155
9.66605,47320
9.67417,43461
9.68228,45015
9.69042,45556
9.69853,45569
9.70665,42089
9.71478,49759
9.72290,44760
9.73103,39659
9.73915,44996
9.74727,44396
9.75540,46679
9.76352,42054
9.77165,43594
9.77977,43355
9.78788,45721
9.79602,47035
9.80413,39791
9.81225,38878
9.82038,39357
9.82850,42554
9.83663,47639
9.84475,48170
9.85287,51628
9.86100,58945
9.86912,51065
9.87725,48933
9.88537,41987
9.89348,40984
9.90162,45246
9.90973,43932
9.91787,47019
9.92598,43154
9.93410,42993
9.94223,42919
9.95035,42310
9.95847,41842
9.96660,43671
9.97472,40897
9.98285,44104
9.99097,42297
9.99908,47707
10.00722,48194
10.01533,50887
10.02347,58001
10.03158,57360
10.03970,60579
10.04783,59677
10.05595,60816
10.06408,58929
10.07220,59691
10.08032,54079
10.08845,57614
10.09657,50209
10.10468,51912
10.11282,51728
10.12093,52029
10.12907,46196
10.13718,51878
10.14530,50188
10.15343,48152
10.16155,45100
10.16968,46167
10.17780,46311
10.18592,46449
10.19405,47683
10.20217,42401
10.21028,43272
10.21842,46462
10.22653,48564
10.23467,50073
10.24278,52095
10.25090,56958
10.25903,53306
10.26715,50190
10.27528,48467
10.28340,53525
10.29152,46610
10.29965,55771
10.30777,52518
10.31590,53300
10.32402,60792
10.33213,63464
10.34027,58005
10.34838,57254
10.35650,58701
10.36463,55914
10.37275,57240
10.38088,50710
10.38900,49148
10.39712,48140
10.40525,51186
10.41337,53556
10.42150,52364
10.42962,50156
10.43773,44703
10.44587,45316
10.45398,46728
10.46212,48954
10.47023,48306
10.47835,43872
10.48648,45876
10.49460,44200
10.50272,48643
10.51085,47227
10.51897,46853
10.52710,48989
10.53522,46244
10.54333,45919
10.55147,51617
10.55958,53083
10.56772,46492
10.57583,46214
10.58395,44985
10.59208,47928
10.60020,47143
10.60832,49509
10.61645,45302
10.62457,46853
10.63270,51884
10.64082,44701
10.64893,40190
10.65707,46189
10.66518,43755
10.67332,44751
10.68143,44976
10.68955,43728
10.69768,45045
10.70580,45751
10.71393,45290
10.72205,45711
10.73017,44423
10.73830,40435
10.74642,46224
10.75453,46478
10.76267,43629
10.77078,49625
10.77892,45354
10.78703,42241
10.79515,39589
10.80328,42594
10.81140,40530
10.81953,40286
10.82765,41704
10.83577,48462
10.84390,40950
10.85202,46874
10.86013,42263
10.86827,45171
10.87638,43243
10.88452,41669
10.89263,39422
10.90075,41990
10.90888,46294
10.91700,41650
10.92513,43615
10.93325,40258
10.94137,39252
10.94950,43736
10.95762,40381
10.96575,45840
10.97387,44373
10.98198,46799
10.99012,43770
10.99823,44628
11.00635,42113
11.01448,44068
11.02260,43993
11.03073,41559
11.03885,39146
11.04697,41849
11.05510,39651
11.06322,39173
11.07135,40409
11.07947,38678
11.08758,35773
11.09572,40213
11.10383,36128
11.11197,41472
11.12008,39854
11.12820,40262
11.13633,41801
11.14445,38238
11.15257,37786
11.16070,39400
11.16882,36871
11.17695,40439
11.18507,48518
11.19318,55765
11.20132,64215
11.20943,69706
11.21757,66485
11.22568,64448
11.23380,58673
11.24193,54516
11.25005,52925
11.25817,48968
11.26630,44459
11.27442,43622
11.28255,39265
11.29067,39557
11.29878,41512
11.30692,38650
11.31503,34321
11.32317,34446
11.33128,41494
11.33940,40632
11.34753,36925
11.35565,39469
11.36378,38481
11.37190,37762
11.38002,42352
11.38815,39584
11.39627,40481
11.40438,38796
11.41252,36537
11.42063,42439
11.42877,34515
11.43688,35415
11.44500,38440
11.45313,36675
11.46125,38233
11.46938,36556
11.47750,38922
11.48562,39892
11.49375,38589
11.50187,40752
11.51000,39371
11.51812,34978
11.52623,36940
11.53437,40551
11.54248,39251
11.55060,42502
11.55873,32224
11.56685,36796
11.57498,37482
11.58310,34956
11.59122,38730
11.59935,38343
11.60747,37117
11.61560,38696
11.62372,39997
11.63183,39998
11.63997,38847
11.64808,36011
11.65620,35131
11.66433,36847
11.67245,38662
11.68058,36095
11.68870,35493
11.69682,37181
11.70495,38085
11.71307,38129
11.72120,38667
11.72932,39585
11.73743,41306
11.74557,40506
11.75368,39011
11.76182,40528
11.76993,36164
11.77805,39716
11.78618,41921
11.79430,41373
11.80242,44640
11.81055,38526
11.81867,40745
11.82680,39516
11.83492,39887
11.84303,39059
11.85117,44550
11.85928,36684
11.86742,40551
11.87553,43546
11.88365,39428
11.89178,40764
11.89990,37127
11.90802,38004
11.91615,37884
11.92427,35647
11.93240,39330
11.94052,36042
11.94863,34335
11.95677,34333
11.96488,33060
11.97302,41116
11.98113,35819
11.98925,38372
11.99738,37650
12.00550,38605
12.01363,36503
12.02175,37079
12.02987,37139
12.03800,35097
12.04612,36676
12.05423,42091
12.06237,37369
12.07048,38747
12.07862,36577
12.08673,38713
12.09485,37023
12.10298,37859
12.11110,34935
12.11923,35004
12.12735,34185
12.13547,36357
12.14360,41242
12.15172,37604
12.15985,44954
12.16797,41614
12.17608,39827
12.18422,47247
12.19233,44500
12.20045,46744
12.20858,46060
12.21670,45935
12.22483,47673
12.23295,45552
12.24107,47872
12.24920,47650
12.25732,46974
12.26545,46995
12.27357,49940
12.28168,51650
12.28982,46769
12.29793,46762
12.30607,48077
12.31418,47185
12.32230,44307
12.33043,50309
12.33855,45427
12.34667,47188
12.35480,54207
12.36292,47780
12.37105,46484
12.37917,50282
12.38728,49037
12.39542,44268
12.40353,49835
12.41167,46920
12.41978,41424
12.42790,46608
12.43603,49534
12.44415,53140
12.45227,50777
12.46040,47102
12.46852,50098
12.47665,49239
12.48477,47866
12.49288,45504
12.50102,44452
12.50913,43210
12.51727,48114
12.52538,40780
12.53350,42193
12.54163,43882
12.54975,46028
12.55788,42131
12.56600,43958
12.57412,48377
12.58225,45897
12.59037,44064
12.59848,44585
12.60662,40583
12.61473,41827
12.62287,40279
12.63098,43356
12.63910,40205
12.64723,40914
12.65535,38634
12.66348,45268
12.67160,43315
12.67972,43082
12.68785,42693
12.69597,42718
12.70408,38388
12.71222,45860
12.72033,47057
12.72847,46504
12.73658,45842
12.74470,53706
12.75283,50187
12.76095,48640
12.76908,51934
12.77720,46129
12.78532,46873
12.79345,47970
12.80157,45275
12.80970,47919
12.81782,42081
12.82593,41392
12.83407,41262
12.84218,39543
12.85030,44926
12.85843,37423
12.86655,37430
12.87468,35655
12.88280,35899
12.89092,36045
12.89905,38016
12.90717,33759
12.91530,33973
12.92342,35916
12.93153,35342
12.93967,31538
12.94778,35446
12.95592,39569
12.96403,39987
12.97215,36048
12.98028,36318
12.98840,37775
12.99652,35224
13.00465,36924
13.01277,36611
13.02090,39708
13.02902,40585
13.03713,34989
13.04527,34115
13.05338,35501
13.06152,33497
13.06963,39185
13.07775,38435
13.08588,35899
13.09400,36989
13.10212,36243
13.11025,35473
13.11837,34747
13.12650,35431
13.13462,32752
13.14273,38627
13.15087,36096
13.15898,38241
13.16712,33018
13.17523,38931
13.18335,36387
13.19148,36101
13.19960,39359
13.20773,39422
13.21585,44817
13.22397,51036
13.23210,49708
13.24022,44430
13.24833,38132
13.25647,43718
13.26458,37721
13.27272,39589
13.28083,35894
13.28895,32965
13.29708,34626
13.30520,34022
13.31333,35569
13.32145,32706
13.32957,34494
13.33770,34816
13.34582,32947
13.35395,33727
13.36207,30866
13.37018,31221
13.37832,36454
13.38643,32511
13.39455,33038
13.40268,37079
13.41080,35511
13.41893,33973
13.42705,33439
13.43517,34938
13.44330,36766
13.45142,35422
13.45955,37538
13.46767,33235
13.47578,35265
13.48392,34095
13.49203,38946
13.50015,35048
13.50828,35369
13.51640,36933
13.52453,35464
13.53265,34046
13.54077,40006
13.54890,35956
13.55702,36302
13.56515,32787
13.57327,35194
13.58138,32377
13.58952,33275
13.59763,35163
13.60577,33329
13.61388,31272
13.62200,35732
13.63013,36236
13.63825,37922
13.64637,35176
13.65450,33220
13.66262,35614
13.67075,34815
13.67887,34541
13.68698,33574
13.69512,35216
13.70323,32068
13.71137,30475
13.71948,37560
13.72760,32762
13.73573,35816
13.74385,36873
13.75197,36013
13.76010,37163
13.76822,34951
13.77635,38212
13.78447,34978
13.79258,35988
13.80072,40404
13.80883,35067
13.81697,34072
13.82508,35630
13.83320,36565
13.84133,34531
13.84945,36955
13.85758,39557
13.86570,37143
13.87382,37170
13.88195,38676
13.89007,37128
13.89818,34683
13.90632,32497
13.91443,36698
13.92257,39277
13.93068,36909
13.93880,39303
13.94693,39398
13.95505,40186
13.96318,39133
13.97130,41481
13.97942,42310
13.98755,40377
13.99567,39446
14.00380,39263
14.01192,44851
14.02003,38162
14.02817,33477
14.03628,34582
14.04440,42647
14.05253,34089
14.06065,43704
14.06878,40096
14.07690,37047
14.08502,40701
14.09315,42334
14.10127,43190
14.10940,41866
14.11752,38180
14.12563,38199
14.13377,34942
14.14188,37932
14.15000,37686
14.15813,36866
14.16625,38966
14.17438,38075
14.18250,41762
14.19062,57235
14.19875,76191
14.20687,118550
14.21500,187944
14.22312,259761
14.23123,288393
14.23937,288932
14.24748,246169
14.25562,206447
14.26373,176649
14.27185,151607
14.27998,129893
14.28810,123429
14.29622,112513
14.30435,108017
14.31247,94848
14.32060,88947
14.32872,89475
14.33683,86448
14.34497,80366
14.35308,79550
14.36122,68487
14.36933,66572
14.37745,59279
14.38558,52549
14.39370,49392
14.40183,43464
14.40995,45441
14.41807,42555
14.42620,43582
14.43432,38754
14.44243,37883
14.45057,39387
14.45868,45250
14.46682,42672
14.47493,41671
14.48305,39563
14.49118,33121
14.49930,36517
14.50743,42354
14.51555,39313
14.52367,40187
14.53180,38251
14.53992,34540
14.54803,37251
14.55617,37219
14.56428,38691
14.57242,34452
14.58053,36821
14.58865,37532
14.59678,37486
14.60490,40555
14.61303,35264
14.62115,35824
14.62927,31738
14.63740,34791
14.64552,35367
14.65365,38946
14.66177,33671
14.66988,32910
14.67802,37935
14.68613,34932
14.69425,33930
14.70238,28155
14.71050,35894
14.71863,34340
14.72675,35257
14.73487,36789
14.74300,34646
14.75112,36301
14.75925,31438
14.76737,34034
14.77548,32276
14.78362,33415
14.79173,35380
14.79985,34918
14.80798,36319
14.81610,33730
14.82423,40480
14.83235,45941
14.84047,49465
14.84860,49917
14.85672,56856
14.86485,63224
14.87297,60114
14.88108,61321
14.88922,56863
14.89733,60483
14.90547,53943
14.91358,57120
14.92170,57959
14.92983,56919
14.93795,54022
14.94607,52747
14.95420,48760
14.96232,51746
14.97045,46747
14.97857,47319
14.98668,48929
14.99482,48238
15.00293,47028
15.01107,50145
15.01918,47300
15.02730,44088
15.03543,48271
15.04355,45703
15.05168,48840
15.05980,48996
15.06792,46875
15.07605,50042
15.08417,46449
15.09228,43883
15.10042,47768
15.10853,44872
15.11667,44636
15.12478,45174
15.13290,39121
15.14103,46021
15.14915,45217
15.15728,45004
15.16540,39866
15.17352,38145
15.18165,37163
15.18977,34820
15.19788,38260
15.20602,38179
15.21413,31197
15.22227,34612
15.23038,34572
15.23850,28530
15.24663,35375
15.25475,39553
15.26288,40645
15.27100,33901
15.27912,35131
15.28725,33555
15.29537,32716
15.30350,37098
15.31162,32871
15.31973,32971
15.32787,29604
15.33598,29925
15.34410,30034
15.35223,33978
15.36035,34601
15.36848,32029
15.37660,35004
15.38472,35758
15.39285,31507
15.40097,31582
15.40910,31421
15.41722,34577
15.42533,30606
15.43347,33232
15.44158,29926
15.44972,31847
15.45783,32453
15.46595,33462
15.47408,29770
15.48220,32197
15.49032,31106
15.49845,31397
15.50657,33608
15.51470,37412
15.52282,36377
15.53093,35041
15.53907,35012
15.54718,37842
15.55532,34259
15.56343,34798
15.57155,31577
15.57968,37389
15.58780,33376
15.59592,33800
15.60405,33498
15.61217,32686
15.62030,33391
15.62842,31812
15.63653,36725
15.64467,32350
15.65278,32375
15.66092,30516
15.66903,32550
15.67715,32994
15.68528,30863
15.69340,32214
15.70153,36100
15.70965,32405
15.71777,34084
15.72590,32636
15.73402,34067
15.74213,34477
15.75027,38665
15.75838,33276
15.76652,31517
15.77463,32565
15.78275,35294
15.79088,34480
15.79900,36362
15.80713,35962
15.81525,33724
15.82337,35552
15.83150,33669
15.83962,34379
15.84775,29489
15.85587,35222
15.86398,33146
15.87212,33767
15.88023,34109
15.88835,34024
15.89648,35116
15.90460,33466
15.91273,33174
15.92085,33332
15.92897,32465
15.93710,32603
15.94522,34606
15.95335,31761
15.96147,31378
15.96958,36473
15.97772,33523
15.98583,36313
15.99395,34023
16.00208,36520
16.01020,36453
16.01833,42296
16.02645,45689
16.03457,48486
16.04270,54301
16.05082,53456
16.05895,48555
16.06707,45932
16.07518,44602
16.08332,43419
16.09143,36999
16.09957,37425
16.10768,41937
16.11580,36597
16.12393,34428
16.13205,34084
16.14017,32712
16.14830,33240
16.15642,32393
16.16455,32607
16.17267,33601
16.18078,35495
16.18892,37017
16.19703,34319
16.20517,33822
16.21328,38915
16.22140,33394
16.22953,33925
16.23765,31853
16.24577,35627
16.25390,36774
16.26202,34201
16.27015,33839
16.27827,30983
16.28638,33647
16.29452,33921
16.30263,34508
16.31077,31680
16.31888,33663
16.32700,31028
16.33513,32826
16.34325,32278
16.35138,35176
16.35950,32567
16.36762,34587
16.37575,32598
16.38387,29570
16.39198,36362
16.40012,34565
16.40823,34451
16.41637,35652
16.42448,36718
16.43260,31309
16.44073,38359
16.44885,34379
16.45698,30928
16.46510,34518
16.47322,34922
16.48135,32333
16.48947,34669
16.49760,36020
16.50572,37136
16.51383,43720
16.52197,36817
16.53008,34640
16.53820,35727
16.54633,34258
16.55445,36787
16.56258,35848
16.57070,35055
16.57882,38937
16.58695,34226
16.59507,29411
16.60320,34767
16.61132,27594
16.61943,30809
16.62757,33065
16.63568,33386
16.64380,34573
16.65193,32549
16.66005,33790
16.66818,30999
16.67630,37331
16.68442,35127
16.69255,32717
16.70067,32796
16.70880,27813
16.71692,33859
16.72503,32546
16.73317,30627
16.74128,27734
16.74942,28958
16.75753,31479
16.76565,30282
16.77378,32052
16.78190,27842
16.79002,26229
16.79815,30560
16.80627,27980
16.81440,29867
16.82252,29137
16.83063,30874
16.83877,31292
16.84688,29970
16.85502,30952
16.86313,30160
16.87125,27053
16.87938,29111
16.88750,29862
16.89563,27590
16.90375,26760
16.91187,28178
16.92000,28628
16.92812,28621
16.93623,30395
16.94437,30213
16.95248,29840
16.96062,29852
16.96873,26557
16.97685,27629
16.98498,26655
16.99310,27778
17.00123,28406
17.00935,28076
17.01747,25684
17.02560,25568
17.03372,29942
17.04183,33430
17.04997,27235
17.05808,32016
17.06622,29473
17.07433,29369
17.08245,27569
17.09058,30691
17.09870,28583
17.10683,25483
17.11495,30370
17.12307,29203
17.13120,31112
17.13932,32192
17.14745,34423
17.15557,32410
17.16368,27838
17.17182,31696
17.17993,33339
17.18805,31388
17.19618,31722
17.20430,31769
17.21243,28084
17.22055,28876
17.22867,26250
17.23680,27185
17.24492,26687
17.25305,30417
17.26117,25139
17.26928,25965
17.27742,28658
17.28553,28576
17.29365,27028
17.30178,27899
17.30990,35244
17.31803,32943
17.32615,27449
17.33427,26056
17.34240,29205
17.35052,28663
17.35865,31215
17.36677,33732
17.37488,31661
17.38302,40146
17.39113,37210
17.39927,38248
17.40738,39330
17.41550,37948
17.42363,37303
17.43175,38663
17.43987,39420
17.44800,32710
17.45612,34272
17.46425,33525
17.47237,34182
17.48048,32507
17.48862,31916
17.49673,33431
17.50487,34499
17.51298,30143
17.52110,31985
17.52923,32127
17.53735,37002
17.54548,34060
17.55360,34766
17.56172,29969
17.56985,34092
17.57797,32423
17.58608,34007
17.59422,30667
17.60233,31433
17.61047,28618
17.61858,29861
17.62670,29578
17.63483,31913
17.64295,30171
17.65108,32495
17.65920,35828
17.66732,33100
17.67545,34002
17.68357,32306
17.69168,34474
17.69982,33669
17.70793,36662
17.71607,36805
17.72418,33930
17.73230,35747
17.74043,37758
17.74855,37780
17.75668,31269
17.76480,34353
17.77292,36079
17.78105,35304
17.78917,36281
17.79730,33165
17.80542,34015
17.81353,35803
17.82167,32951
17.82978,30004
17.83790,37149
17.84603,32986
17.85415,34575
17.86228,33134
17.87040,33980
17.87852,32458
17.88665,32678
17.89477,34667
17.90290,32032
17.91102,32372
17.91913,30263
17.92727,27632
17.93538,31583
17.94352,31148
17.95163,28613
17.95975,30590
17.96788,27361
17.97600,26136
17.98412,30053
17.99225,29748
18.00037,25980
18.00850,35340
18.01662,31964
18.02473,26886
18.03287,31185
18.04098,25995
18.04912,24924
18.05723,28834
18.06535,30006
18.07348,32431
18.08160,34313
18.08972,41567
18.09785,45770
18.10597,54351
18.11410,64720
18.12222,62701
18.13033,68158
18.13847,68237
18.14658,64471
18.15472,64818
18.16283,61552
18.17095,54703
18.17908,54751
18.18720,59895
18.19533,53359
18.20345,61073
18.21157,56210
18.21970,56708
18.22782,48627
18.23593,49279
18.24407,50266
18.25218,53772
18.26032,50330
18.26843,49680
18.27655,50092
18.28468,49314
18.29280,45794
18.30093,41664
18.30905,38251
18.31717,35331
18.32530,35116
18.33342,33240
18.34153,39613
18.34967,34105
18.35778,34766
18.36592,31194
18.37403,33201
18.38215,30966
18.39028,34108
18.39840,35565
18.40653,33287
18.41465,33335
18.42277,34592
18.43090,29199
18.43902,32444
18.44715,30771
18.45527,34040
18.46338,34314
18.47152,35873
18.47963,34541
18.48775,33313
18.49588,30415
18.50400,34214
18.51213,33747
18.52025,31911
18.52837,31837
18.53650,32002
18.54462,33588
18.55275,32004
18.56087,34383
18.56898,26123
18.57712,29312
18.58523,30061
18.59337,29837
18.60148,40500
18.60960,33491
18.61773,30648
18.62585,33076
18.63397,32094
18.64210,34360
18.65022,30995
18.65835,32758
18.66647,29769
18.67458,31174
18.68272,29773
18.69083,28047
18.69897,31688
18.70708,32327
18.71520,36068
18.72333,32204
18.73145,30983
18.73958,29627
18.74770,28124
18.75582,30489
18.76395,29861
18.77207,29089
18.78018,30570
18.78832,30918
18.79643,30218
18.80457,26244
18.81268,26696
18.82080,27040
18.82893,29728
18.83705,27476
18.84518,30622
18.85330,29177
18.86142,28228
18.86955,27046
18.87767,29958
18.88578,28238
18.89392,28873
18.90203,31545
18.91017,36464
18.91828,28721
18.92640,29541
18.93453,29090
18.94265,28536
18.95078,30152
18.95890,30021
18.96702,31285
18.97515,30199
18.98327,33663
18.99140,28204
18.99952,32351
19.00763,27685
19.01577,33163
19.02388,33677
19.03200,28795
19.04013,28475
19.04825,29609
19.05638,30141
19.06450,33408
19.07262,29720
19.08075,29098
19.08887,26526
19.09700,30391
19.10512,31748
19.11323,36151
19.12137,31404
19.12948,35287
19.13760,33832
19.14573,34228
19.15385,30322
19.16198,31905
19.17010,30732
19.17822,30220
19.18635,33955
19.19447,31616
19.20260,30953
19.21072,33452
19.21883,32367
19.22697,30491
19.23508,29981
19.24322,29023
19.25133,28435
19.25945,34974
19.26758,32624
19.27570,37206
19.28382,36547
19.29195,37145
19.30007,42696
19.30820,43357
19.31632,44036
19.32443,44391
19.33257,37344
19.34068,39533
19.34882,36206
19.35693,32014
19.36505,36637
19.37318,35375
19.38130,36536
19.38943,33796
19.39755,31443
19.40567,29883
19.41380,32339
19.42192,35894
19.43003,35714
19.43817,33150
19.44628,35846
19.45442,32899
19.46253,35576
19.47065,33112
19.47878,31252
19.48690,38096
19.49503,41824
19.50315,60715
19.51127,88195
19.51940,117087
19.52752,153403
19.53563,158293
19.54377,153570
19.55188,109700
19.56002,84094
19.56813,64025
19.57625,47088
19.58438,40853
19.59250,42811
19.60063,36215
19.60875,39652
19.61687,38124
19.62500,36368
19.63312,38003
19.64125,45563
19.64937,72025
19.65748,113715
19.66562,173989
19.67373,242699
19.68185,312878
19.68998,325068
19.69810,301050
19.70623,262715
19.71435,198219
19.72247,147348
19.73060,111904
19.73872,98961
19.74685,81480
19.75497,64626
19.76308,63053
19.77122,54393
19.77933,52256
19.78747,45931
19.79558,45014
19.80370,39715
19.81183,42829
19.81995,39445
19.82807,39969
19.83620,41472
19.84432,40948
19.85245,36353
19.86057,43751
19.86868,47415
19.87682,62833
19.88493,106983
19.89307,202879
19.90118,342372
19.90930,538007
19.91743,783448
19.92555,1005058
19.93367,1172618
19.94180,1275279
19.94992,1273725
19.95805,1239346
19.96617,1222368
19.97428,1164954
19.98242,1110637
19.99053,1095463
19.99867,1042399
20.00678,989014
20.01490,957031
20.02303,912059
20.03115,885576
20.03928,856841
20.04740,771306
20.05552,651295
20.06365,532092
20.07177,426170
20.07988,335671
20.08802,269570
20.09613,236385
20.10427,211669
20.11238,196018
20.12050,186016
20.12863,182348
20.13675,172792
20.14488,168584
20.15300,161465
20.16112,161646
20.16925,167997
20.17737,154921
20.18548,156770
20.19362,158833
20.20173,155503
20.20987,152478
20.21798,156445
20.22610,153612
20.23423,148118
20.24235,147720
20.25048,150300
20.25860,178420
20.26672,210489
20.27485,280294
20.28297,347318
20.29110,443268
20.29922,481611
20.30733,489611
20.31547,443072
20.32358,367850
20.33170,297174
20.33983,241808
20.34795,202323
20.35608,173681
20.36420,160355
20.37232,144935
20.38045,142455
20.38857,127050
20.39670,114471
20.40482,105534
20.41293,100229
20.42107,94984
20.42918,93956
20.43732,107745
20.44543,127231
20.45355,146475
20.46168,154162
20.46980,158854
20.47792,141233
20.48605,118273
20.49417,105933
20.50230,95369
20.51042,83752
20.51853,74649
20.52667,66316
20.53478,71746
20.54292,70192
20.55103,71303
20.55915,64995
20.56728,65491
20.57540,63082
20.58352,55601
20.59165,59522
20.59977,62856
20.60790,67524
20.61602,57537
20.62413,58861
20.63227,57199
20.64038,58139
20.64852,59988
20.65663,54763
20.66475,54731
20.67288,52972
20.68100,53488
20.68913,50471
20.69725,53560
20.70537,56745
20.71350,51459
20.72162,50082
20.72973,50608
20.73787,53568
20.74598,50856
20.75412,48488
20.76223,47484
20.77035,47844
20.77848,48464
20.78660,48091
20.79473,48775
20.80285,50454
20.81097,48935
20.81910,50381
20.82722,50841
20.83535,50687
20.84347,51013
20.85158,52679
20.85972,49757
20.86783,53008
20.87595,48559
20.88408,47421
20.89220,49246
20.90033,47358
20.90845,51843
20.91657,47053
20.92470,49520
20.93282,45700
20.94095,45633
20.94907,44265
20.95718,44568
20.96532,45417
20.97343,42658
20.98155,42493
20.98968,40948
20.99780,43447
21.00593,45504
21.01405,48191
21.02217,43332
21.03030,42070
21.03842,43805
21.04655,42471
21.05467,40374
21.06278,43632
21.07092,44484
21.07903,45288
21.08717,41312
21.09528,43251
21.10340,41178
21.11153,40715
21.11965,39052
21.12777,38603
21.13590,45654
21.14402,42387
21.15215,41214
21.16027,42683
21.16838,44895
21.17652,45852
21.18463,48801
21.19277,46633
21.20088,47794
21.20900,47067
21.21713,44306
21.22525,45142
21.23337,43070
21.24150,43282
21.24962,41362
21.25775,40852
21.26587,49018
21.27398,39431
21.28212,43349
21.29023,39582
21.29837,39428
21.30648,43061
21.31460,41138
21.32273,40608
21.33085,40201
21.33898,39149
21.34710,40161
21.35522,40716
21.36335,41629
21.37147,36340
21.37958,37149
21.38772,38141
21.39583,37718
21.40397,40209
21.41208,37235
21.42020,42830
21.42833,40762
21.43645,47955
21.44458,45576
21.45270,42009
21.46082,46934
21.46895,39226
21.47707,39405
21.48520,40697
21.49332,40476
21.50143,41047
21.50957,39625
21.51768,40265
21.52580,39418
21.53393,38041
21.54205,38734
21.55018,35755
21.55830,41245
21.56642,44551
21.57455,44177
21.58267,41236
21.59080,44010
21.59892,42361
21.60703,45213
21.61517,46623
21.62328,52597
21.63140,64959
21.63953,76554
21.64765,106085
21.65578,114771
21.66390,131875
21.67202,114396
21.68015,101480
21.68827,84895
21.69640,70838
21.70452,57695
21.71263,47218
21.72077,48243
21.72888,48710
21.73702,42272
21.74513,43633
21.75325,45984
21.76138,41126
21.76950,40699
21.77762,41206
21.78575,42188
21.79387,38150
21.80200,38611
21.81012,40262
21.81823,45973
21.82637,53568
21.83448,63427
21.84262,79149
21.85073,88004
21.85885,98359
21.86698,96306
21.87510,82396
21.88323,76096
21.89135,59435
21.89947,53032
21.90760,46496
21.91572,41372
21.92383,37702
21.93197,39715
21.94008,39109
21.94822,43836
21.95633,40731
21.96445,39661
21.97258,41096
21.98070,41185
21.98883,33649
21.99695,36403
22.00507,36144
22.01320,36204
22.02132,36513
22.02943,34634
22.03757,36272
22.04568,34489
22.05382,37014
22.06193,35721
22.07005,32644
22.07818,33596
22.08630,35884
22.09443,39409
22.10255,38624
22.11067,37735
22.11880,37069
22.12692,32915
22.13505,36669
22.14317,34232
22.15128,36195
22.15942,40758
22.16753,38689
22.17565,41195
22.18378,37876
22.19190,36054
22.20003,38949
22.20815,37227
22.21627,40040
22.22440,43039
22.23252,41786
22.24065,45184
22.24877,45732
22.25688,54277
22.26502,46187
22.27313,50405
22.28127,40544
22.28938,39304
22.29750,32346
22.30563,32931
22.31375,35055
22.32187,33952
22.33000,32450
22.33812,36709
22.34625,37416
22.35437,39502
22.36248,40286
22.37062,39854
22.37873,39662
22.38687,40802
22.39498,43307
22.40310,45887
22.41123,37086
22.41935,40039
22.42747,39597
22.43560,38395
22.44372,38047
22.45185,37237
22.45997,36686
22.46808,38273
22.47622,36287
22.48433,36986
22.49247,34919
22.50058,33953
22.50870,34409
22.51683,37045
22.52495,29388
22.53308,36560
22.54120,33846
22.54932,34749
22.55745,32621
22.56557,32169
22.57368,33270
22.58182,29791
22.58993,35944
22.59807,31688
22.60618,29470
22.61430,32385
22.62243,29404
22.63055,28632
22.63868,30648
22.64680,29765
22.65492,25612
22.66305,32474
22.67117,28689
22.67928,33151
22.68742,29908
22.69553,27259
22.70367,28692
22.71178,33133
22.71990,33807
22.72803,32968
22.73615,33583
22.74428,35732
22.75240,31507
22.76052,32018
22.76865,32768
22.77677,28778
22.78490,36247
22.79302,33336
22.80113,34411
22.80927,33784
22.81738,30082
22.82550,32660
22.83363,36222
22.84175,32211
22.84988,32001
22.85800,31651
22.86612,34163
22.87425,34035
22.88237,36560
22.89050,37355
22.89862,35524
22.90673,38360
22.91487,39860
22.92298,45266
22.93112,53556
22.93923,54780
22.94735,62111
22.95548,62831
22.96360,63771
22.97172,64468
22.97985,60281
22.98797,61995
22.99610,57069
23.00422,53954
23.01233,55764
23.02047,48556
23.02858,50366
23.03672,40508
23.04483,32793
23.05295,37160
23.06108,37758
23.06920,35334
23.07732,34297
23.08545,33754
23.09357,36432
23.10170,33414
23.10982,34151
23.11793,33034
23.12607,30166
23.13418,28310
23.14232,33329
23.15043,32205
23.15855,28584
23.16668,28446
23.17480,31337
23.18293,32371
23.19105,32825
23.19917,30314
23.20730,28604
23.21542,31568
23.22353,28907
23.23167,30269
23.23978,28789
23.24792,32899
23.25603,32187
23.26415,30478
23.27228,27743
23.28040,31360
23.28853,35394
23.29665,33480
23.30477,27768
23.31290,38093
23.32102,30236
23.32915,29829
23.33727,29819
23.34538,32718
23.35352,29755
23.36163,31042
23.36975,30077
23.37788,32571
23.38600,32299
23.39413,32430
23.40225,31121
23.41037,31784
23.41850,34064
23.42662,31390
23.43475,33460
23.44287,35347
23.45098,35019
23.45912,33537
23.46723,32213
23.47535,29226
23.48348,30692
23.49160,31241
23.49973,30111
23.50785,34496
23.51597,32366
23.52410,28080
23.53222,27843
23.54035,30914
23.54847,31526
23.55658,30323
23.56472,30983
23.57283,31088
23.58097,34796
23.58908,31732
23.59720,33008
23.60533,31199
23.61345,37912
23.62157,35048
23.62970,36672
23.63782,37932
23.64595,37034
23.65407,40117
23.66218,42029
23.67032,45191
23.67843,55020
23.68657,61898
23.69468,67798
23.70280,63502
23.71093,65873
23.71905,63416
23.72717,62446
23.73530,59252
23.74342,62067
23.75155,98905
23.75967,216774
23.76778,581854
23.77592,1514330
23.78403,3078727
23.79217,4926661
23.80028,6225754
23.80840,6312755
23.81653,5653377
23.82465,4323647
23.83278,3057174
23.84090,2118639
23.84902,1418271
23.85715,1054564
23.86527,787508
23.87338,627669
23.88152,528728
23.88963,455436
23.89777,399597
23.90588,347114
23.91400,311152
23.92213,288288
23.93025,267551
23.93838,241528
23.94650,217654
23.95462,212926
23.96275,203443
23.97087,180184
23.97900,184393
23.98712,173136
23.99523,165680
24.00337,167017
24.01148,154683
24.01960,148904
24.02773,141658
24.03585,136952
24.04398,138172
24.05210,135125
24.06022,121639
24.06835,122745
24.07647,120027
24.08460,113939
24.09272,114221
24.10083,117445
24.10897,108680
24.11708,105939
24.12522,99581
24.13333,108499
24.14145,114403
24.14958,115636
24.15770,115247
24.16582,123167
24.17395,113911
24.18207,105467
24.19020,105988
24.19832,98905
24.20643,97763
24.21457,97424
24.22268,101766
24.23082,107157
24.23893,114867
24.24705,114712
24.25518,105541
24.26330,96713
24.27142,93010
24.27955,86520
24.28767,80849
24.29580,79214
24.30392,74278
24.31203,73837
24.32017,71636
24.32828,71801
24.33642,72091
24.34453,69349
24.35265,69538
24.36078,65778
24.36890,62558
24.37703,69500
24.38515,73373
24.39327,81563
24.40140,95487
24.40952,115775
24.41763,140369
24.42577,152465
24.43388,144446
24.44202,116923
24.45013,100859
24.45825,80337
24.46638,66705
24.47450,61891
24.48263,62458
24.49075,65220
24.49887,65923
24.50700,70716
24.51512,83358
24.52323,89364
24.53137,98020
24.53948,95936
24.54762,93191
24.55573,85364
24.56385,83390
24.57198,68873
24.58010,72976
24.58823,72098
24.59635,71062
24.60447,71044
24.61260,71050
24.62072,72441
24.62885,68841
24.63697,66418
24.64508,64304
24.65322,73089
24.66133,68148
24.66945,67132
24.67758,71941
24.68570,70218
24.69383,66123
24.70195,66538
24.71007,57505
24.71820,57182
24.72632,53359
24.73445,56802
24.74257,51743
24.75068,54784
24.75882,51965
24.76693,51721
24.77507,51522
24.78318,54183
24.79130,52014
24.79943,51050
24.80755,48717
24.81567,43348
24.82380,55658
24.83192,49329
24.84005,45844
24.84817,46920
24.85628,46368
24.86442,48559
24.87253,50889
24.88067,47441
24.88878,49423
24.89690,52661
24.90503,48429
24.91315,57178
24.92127,51042
24.92940,48099
24.93752,46832
24.94565,50384
24.95377,44287
24.96188,50198
24.97002,41096
24.97813,41403
24.98627,45423
24.99438,42809
25.00250,41310
25.01063,50743
25.01875,41157
25.02688,46400
25.03500,41193
25.04312,41843
25.05125,43904
25.05937,44469
25.06748,39377
25.07562,43653
25.08373,47986
25.09187,45102
25.09998,45017
25.10810,42909
25.11623,46868
25.12435,46386
25.13248,53659
25.14060,62952
25.14872,78430
25.15685,87939
25.16497,99230
25.17310,105398
25.18122,102494
25.18933,90254
25.19747,81549
25.20558,78086
25.21370,64294
25.22183,59104
25.22995,59656
25.23808,57102
25.24620,50716
25.25432,52601
25.26245,50198
25.27057,52109
25.27870,51416
25.28682,49569
25.29493,47915
25.30307,52901
25.31118,51953
25.31930,48663
25.32743,55945
25.33555,53199
25.34368,58499
25.35180,49894
25.35992,52121
25.36805,51340
25.37617,47118
25.38430,43085
25.39242,40833
25.40053,44017
25.40867,45775
25.41678,41760
25.42492,41686
25.43303,39484
25.44115,44138
25.44928,39998
25.45740,43048
25.46552,39264
25.47365,46195
25.48177,48575
25.48990,46783
25.49802,52557
25.50613,53611
25.51427,54449
25.52238,50999
25.53052,48196
25.53863,43861
25.54675,43727
25.55488,42517
25.56300,42749
25.57112,37268
25.57925,40532
25.58737,35592
25.59550,36948
25.60362,36702
25.61173,40559
25.61987,36350
25.62798,41106
25.63612,40590
25.64423,38651
25.65235,38458
25.66048,37706
25.66860,35998
25.67673,35783
25.68485,35299
25.69297,33829
25.70110,38201
25.70922,38558
25.71733,38833
25.72547,36733
25.73358,40304
25.74172,38044
25.74983,35336
25.75795,35937
25.76608,39511
25.77420,38167
25.78233,36259
25.79045,36866
25.79857,39836
25.80670,41572
25.81482,43382
25.82295,41151
25.83107,41335
25.83918,36726
25.84732,42565
25.85543,42817
25.86355,42391
25.87168,50299
25.87980,39618
25.88793,40722
25.89605,38145
25.90417,39011
25.91230,39583
25.92042,38836
25.92855,40036
25.93667,40447
25.94478,41674
25.95292,38775
25.96103,41820
25.96915,37815
25.97728,35360
25.98540,37295
25.99353,36162
26.00165,43332
26.00977,35069
26.01790,36441
26.02602,33082
26.03415,39390
26.04227,36837
26.05038,36544
26.05852,38038
26.06663,34455
26.07477,34494
26.08288,41299
26.09100,39695
26.09913,36798
26.10725,43235
26.11537,38786
26.12350,43550
26.13162,44882
26.13975,43975
26.14787,49300
26.15598,49572
26.16412,52982
26.17223,48858
26.18037,53564
26.18848,51079
26.19660,48778
26.20473,44894
26.21285,42731
26.22098,44489
26.22910,39882
26.23722,45759
26.24535,40825
26.25347,41857
26.26158,42465
26.26972,42198
26.27783,37571
26.28597,43499
26.29408,38836
26.30220,37378
26.31033,40703
26.31845,43011
26.32658,37383
26.33470,33760
26.34282,34562
26.35095,35316
26.35907,35319
26.36718,37168
26.37532,40001
26.38343,50339
26.39157,53001
26.39968,58343
26.40780,64004
26.41593,65761
26.42405,73445
26.43218,67345
26.44030,63445
26.44842,62629
26.45655,52315
26.46467,48705
26.47280,42892
26.48092,44227
26.48903,43336
26.49717,45169
26.50528,40111
26.51340,37761
26.52153,39949
26.52965,38935
26.53778,36176
26.54590,37182
26.55402,35216
26.56215,36632
26.57027,32650
26.57840,43730
26.58652,34828
26.59463,36249
26.60277,38313
26.61088,37694
26.61902,34980
26.62713,37937
26.63525,36556
26.64338,33260
26.65150,35915
26.65962,36050
26.66775,37404
26.67587,39319
26.68400,35962
26.69212,39299
26.70023,42081
26.70837,42486
26.71648,39756
26.72462,39001
26.73273,36146
26.74085,36562
26.74898,35971
26.75710,38673
26.76522,35236
26.77335,33627
26.78147,36945
26.78960,34618
26.79772,38353
26.80583,44656
26.81397,39680
26.82208,43309
26.83022,40301
26.83833,37190
26.84645,42983
26.85458,39335
26.86270,43185
26.87083,44759
26.87895,46586
26.88707,45110
26.89520,51716
26.90332,43793
26.91143,45665
26.91957,48407
26.92768,44671
26.93582,41657
26.94393,47044
26.95205,50275
26.96018,65711
26.96830,82690
26.97643,134145
26.98455,257417
26.99267,550081
27.00080,1153883
27.00892,2346993
27.01703,3981851
27.02517,5322747
27.03328,5491405
27.04142,4910458
27.04953,3956841
27.05765,2918238
27.06578,2071274
27.07390,1498646
27.08203,1085453
27.09015,813113
27.09827,646505
27.10640,541153
27.11452,460080
27.12265,399793
27.13077,350791
27.13888,319111
27.14702,296654
27.15513,275007
27.16325,256918
27.17138,235694
27.17950,211801
27.18763,197742
27.19575,198332
27.20387,192398
27.21200,186970
27.22012,173941
27.22825,167612
27.23637,153960
27.24448,155012
27.25262,139678
27.26073,130781
27.26887,132214
27.27698,134561
27.28510,127022
27.29323,123571
27.30135,121162
27.30947,106866
27.31760,108566
27.32572,104558
27.33385,101515
27.34197,105847
27.35008,95692
27.35822,97841
27.36633,94156
27.37447,89644
27.38258,93515
27.39070,87080
27.39883,91506
27.40695,79871
27.41507,82211
27.42320,83069
27.43132,80518
27.43945,80177
27.44757,81160
27.45568,75384
27.46382,77828
27.47193,71845
27.48007,79228
27.48818,76367
27.49630,70502
27.50443,70286
27.51255,71672
27.52068,68904
27.52880,74612
27.53692,75670
27.54505,73565
27.55317,73950
27.56128,71036
27.56942,71450
27.57753,68130
27.58567,64520
27.59378,67515
27.60190,64146
27.61003,64387
27.61815,69946
27.62628,72957
27.63440,66195
27.64252,66429
27.65065,62475
27.65877,63487
27.66690,62178
27.67502,57652
27.68313,61311
27.69127,59068
27.69938,62051
27.70750,59979
27.71563,55930
27.72375,57801
27.73188,59632
27.74000,59024
27.74812,52719
27.75625,53188
27.76437,56652
27.77250,58090
27.78062,51114
27.78873,61718
27.79687,54740
27.80498,54757
27.81310,56304
27.82123,56152
27.82935,55474
27.83748,54817
27.84560,56142
27.85372,58067
27.86185,54440
27.86997,56292
27.87810,50335
27.88622,54212
27.89433,51085
27.90247,45072
27.91058,49019
27.91872,49885
27.92683,49851
27.93495,47731
27.94308,45483
27.95120,42901
27.95932,49111
27.96745,43803
27.97557,46272
27.98370,49055
27.99182,44068
27.99993,45859
28.00807,47244
28.01618,41014
28.02432,48323
28.03243,46288
28.04055,49646
28.04868,46423
28.05680,47690
28.06492,50800
28.07305,48461
28.08117,50038
28.08930,46366
28.09742,44850
28.10553,45423
28.11367,47564
28.12178,46745
28.12992,44778
28.13803,46026
28.14615,42850
28.15428,43254
28.16240,44105
28.17053,45288
28.17865,38844
28.18677,42552
28.19490,44701
28.20302,49288
28.21113,48978
28.21927,53554
28.22738,58745
28.23552,58898
28.24363,59622
28.25175,58188
28.25988,51974
28.26800,48504
28.27613,49199
28.28425,46768
28.29237,52081
28.30050,62558
28.30862,86413
28.31675,126947
28.32487,197569
28.33298,290815
28.34112,409140
28.34923,558647
28.35735,713058
28.36548,808236
28.37360,882138
28.38173,929661
28.38985,917511
28.39797,856504
28.40610,768636
28.41422,677338
28.42235,554835
28.43047,493896
28.43858,413391
28.44672,344413
28.45483,298030
28.46297,262034
28.47108,226677
28.47920,213546
28.48733,180492
28.49545,172139
28.50357,163338
28.51170,143449
28.51982,146579
28.52795,131268
28.53607,125793
28.54418,124488
28.55232,115153
28.56043,106350
28.56857,107561
28.57668,104850
28.58480,99587
28.59293,95495
28.60105,101025
28.60917,88951
28.61730,85196
28.62542,87747
28.63355,90412
28.64167,87885
28.64978,88308
28.65792,89069
28.66603,92082
28.67417,88244
28.68228,84807
28.69040,87017
28.69853,82991
28.70665,82156
28.71478,77790
28.72290,70974
28.73102,77226
28.73915,71579
28.74727,70148
28.75538,76378
28.76352,77594
28.77163,85262
28.77977,91647
28.78788,105443
28.79600,103067
28.80413,112490
28.81225,98064
28.82038,85406
28.82850,77094
28.83662,69662
28.84475,65759
28.85287,61734
28.86098,56652
28.86912,64912
28.87723,59489
28.88537,62952
28.89348,62751
28.90160,60810
28.90973,63089
28.91785,62634
28.92598,54345
28.93410,62494
28.94222,58465
28.95035,57103
28.95847,60655
28.96660,59355
28.97472,61535
28.98283,62667
28.99097,60052
28.99908,54902
29.00720,53918
29.01533,53593
29.02345,52629
29.03158,55843
29.03970,50554
29.04782,52621
29.05595,54141
29.06407,55450
29.07220,58954
29.08032,60254
29.08843,48236
29.09657,55025
29.10468,50401
29.11282,57674
29.12093,54716
29.12905,53066
29.13718,48106
29.14530,52777
29.15342,53943
29.16155,49864
29.16967,56203
29.17780,57748
29.18592,53475
29.19403,55058
29.20217,47905
29.21028,55694
29.21842,56521
29.22653,53329
29.23465,61080
29.24278,51483
29.25090,51074
29.25902,57988
29.26715,53369
29.27527,54243
29.28340,55271
29.29152,51078
29.29963,52176
29.30777,53808
29.31588,52195
29.32402,52712
29.33213,52440
29.34025,54160
29.34838,51441
29.35650,49582
29.36463,45741
29.37275,50934
29.38087,50085
29.38900,49073
29.39712,48629
29.40523,49384
29.41337,51144
29.42148,46168
29.42962,49033
29.43773,45592
29.44585,47718
29.45398,48573
29.46210,51404
29.47023,55972
29.47835,48981
29.48647,45426
29.49460,52950
29.50272,54061
29.51085,55047
29.51897,55097
29.52708,56784
29.53522,60054
29.54333,55712
29.55145,49733
29.55958,45679
29.56770,45607
29.57583,44162
29.58395,43119
29.59207,45398
29.60020,45469
29.60832,44803
29.61645,45998
29.62457,44346
29.63268,49270
29.64082,42975
29.64893,42560
29.65705,51303
29.66518,41614
29.67330,44712
29.68143,45960
29.68955,38113
29.69767,42478
29.70580,45682
29.71392,44280
29.72205,43883
29.73017,43468
29.73828,41373
29.74642,44215
29.75453,43803
29.76267,42547
29.77078,43114
29.77890,40793
29.78703,41188
29.79515,43257
29.80327,38048
29.81140,44331
29.81952,37476
29.82765,39825
29.83577,42447
29.84388,40881
29.85202,37084
29.86013,42667
29.86827,41280
29.87638,41088
29.88450,51438
29.89263,47366
29.90075,51762
29.90887,52613
29.91700,57450
29.92512,56407
29.93325,60131
29.94137,57509
29.94948,62728
29.95762,69537
29.96573,81894
29.97387,109271
29.98198,145088
29.99010,157536
29.99823,199327
30.00635,223837
30.01448,257601
30.02260,288291
30.03072,297459
30.03885,308922
30.04697,313209
30.05508,303028
30.06322,299377
30.07133,281644
30.07947,259840
30.08758,246581
30.09570,227229
30.10383,204194
30.11195,180476
30.12008,159812
30.12820,153027
30.13632,134305
30.14445,132241
30.15257,118280
30.16070,108076
30.16882,99495
30.17693,99859
30.18507,94525
30.19318,87588
30.20130,84904
30.20943,79565
30.21755,87382
30.22568,75880
30.23380,75410
30.24192,76445
30.25005,71092
30.25817,70245
30.26630,67648
30.27442,63826
30.28253,67441
30.29067,62533
30.29878,62523
30.30690,61573
30.31503,61701
30.32315,65022
30.33128,59284
30.33940,56409
30.34752,58543
30.35565,58744
30.36377,56842
30.37190,54744
30.38002,54793
30.38813,56064
30.39627,52404
30.40438,53039
30.41252,57773
30.42063,51871
30.42875,48116
30.43688,53177
30.44500,48453
30.45312,52411
30.46125,53285
30.46937,47698
30.47750,51184
30.48562,48000
30.49373,50405
30.50187,52259
30.50998,51818
30.51812,45997
30.52623,49026
30.53435,45295
30.54248,51637
30.55060,49712
30.55873,44586
30.56685,48141
30.57497,50628
30.58310,50064
30.59122,48848
30.59933,46529
30.60747,47198
30.61558,46115
30.62372,46728
30.63183,43847
30.63995,43644
30.64808,45397
30.65620,45796
30.66433,43797
30.67245,44361
30.68057,42402
30.68870,43736
30.69682,45504
30.70493,45570
30.71307,44247
30.72118,48489
30.72932,45069
30.73743,44333
30.74555,49582
30.75368,43540
30.76180,45130
30.76993,48113
30.77805,46365
30.78617,51414
30.79430,47825
30.80242,47919
30.81055,47228
30.81867,51461
30.82678,49221
30.83492,47918
30.84303,53389
30.85115,48321
30.85928,45504
30.86740,47356
30.87553,44366
30.88365,41357
30.89177,43180
30.89990,44420
30.90802,42906
30.91615,42279
30.92427,44310
30.93238,42385
30.94052,42962
30.94863,42728
30.95675,45488
30.96488,43666
30.97300,42448
30.98113,42481
30.98925,45167
30.99737,40690
31.00550,44369
31.01362,44516
31.02175,43630
31.02987,47380
31.03798,40260
31.04612,43087
31.05423,47859
31.06237,44795
31.07048,47060
31.07860,46032
31.08673,51749
31.09485,47720
31.10297,51643
31.11110,58873
31.11922,57321
31.12735,58120
31.13547,58885
31.14358,55069
31.15172,53349
31.15983,50146
31.16797,46458
31.17608,47301
31.18420,47576
31.19233,52233
31.20045,57469
31.20858,69327
31.21670,74960
31.22482,80694
31.23295,92595
31.24107,88881
31.24918,79902
31.25732,71647
31.26543,64521
31.27357,57661
31.28168,47501
31.28980,45687
31.29793,46747
31.30605,45482
31.31418,43351
31.32230,44695
31.33042,45633
31.33855,44682
31.34667,41814
31.35478,42319
31.36292,44097
31.37103,39271
31.37917,42851
31.38728,47507
31.39540,39869
31.40353,38282
31.41165,38672
31.41978,44738
31.42790,46730
31.43602,46905
31.44415,54005
31.45227,53740
31.46040,44800
31.46852,51341
31.47663,43673
31.48477,44821
31.49288,45422
31.50100,42147
31.50913,40332
31.51725,42400
31.52538,41843
31.53350,40181
31.54162,42213
31.54975,41219
31.55787,41763
31.56600,41898
31.57412,40494
31.58223,37965
31.59037,39548
31.59848,37805
31.60662,41371
31.61473,38184
31.62285,37676
31.63098,35957
31.63910,41096
31.64722,39785
31.65535,42078
31.66347,40910
31.67160,41904
31.67972,37295
31.68783,36451
31.69597,41363
31.70408,40530
31.71222,38200
31.72033,38293
31.72845,35697
31.73658,37269
31.74470,35311
31.75282,39626
31.76095,37199
31.76907,38010
31.77720,38910
31.78532,36728
31.79343,42568
31.80157,40574
31.80968,46381
31.81782,40221
31.82593,41859
31.83405,46760
31.84218,41324
31.85030,44057
31.85843,42579
31.86655,47134
31.87467,48100
31.88280,47686
31.89092,47943
31.89903,53925
31.90717,56992
31.91528,57989
31.92342,67762
31.93153,82567
31.93965,98740
31.94778,113018
31.95590,128466
31.96403,137070
31.97215,154596
31.98027,162129
31.98840,159136
31.99652,159283
32.00465,159148
32.01277,150152
32.02088,139248
32.02902,124442
32.03713,119501
32.04525,115184
32.05338,106649
32.06150,96433
32.06963,90024
32.07775,91160
32.08587,83473
32.09400,78955
32.10212,86043
32.11025,78781
32.11837,74846
32.12648,69131
32.13462,61675
32.14273,60973
32.15085,63538
32.15898,58239
32.16710,58134
32.17523,54977
32.18335,54450
32.19147,56477
32.19960,49523
32.20772,50139
32.21585,54860
32.22397,54477
32.23208,50785
32.24022,52419
32.24833,47396
32.25647,53346
32.26458,51484
32.27270,50979
32.28083,53461
32.28895,52705
32.29707,51275
32.30520,46068
32.31332,47933
32.32145,47717
32.32957,49458
32.33768,46059
32.34582,49735
32.35393,49807
32.36207,48968
32.37018,51010
32.37830,49233
32.38643,49654
32.39455,49806
32.40267,49658
32.41080,46955
32.41892,46493
32.42705,44985
32.43517,44638
32.44328,42357
32.45142,47160
32.45953,46156
32.46767,43486
32.47578,44449
32.48390,48398
32.49203,47622
32.50015,41143
32.50828,42440
32.51640,44837
32.52452,47163
32.53265,48960
32.54077,45212
32.54888,40395
32.55702,44423
32.56513,45059
32.57327,44761
32.58138,41122
32.58950,46821
32.59763,43409
32.60575,39064
32.61388,42285
32.62200,39371
32.63012,41526
32.63825,43143
32.64637,40973
32.65450,45372
32.66262,48951
32.67073,61618
32.67887,62561
32.68698,66252
32.69510,71110
32.70323,64405
32.71135,59930
32.71948,59283
32.72760,52700
32.73572,46110
32.74385,52144
32.75197,43693
32.76010,43104
32.76822,46498
32.77633,45175
32.78447,43274
32.79258,41601
32.80070,38534
32.80883,43419
32.81695,47230
32.82508,41272
32.83320,46699
32.84132,46989
32.84945,41364
32.85757,44007
32.86570,45259
32.87382,42451
32.88193,43597
32.89007,41940
32.89818,42463
32.90632,42921
32.91443,45291
32.92255,46046
32.93068,41909
32.93880,43674
32.94692,47712
32.95505,46490
32.96317,40067
32.97130,40398
32.97942,39438
32.98753,37874
32.99567,39325
33.00378,40590
33.01192,43404
33.02003,42363
33.02815,44024
33.03628,39547
33.04440,42647
33.05253,37706
33.06065,41595
33.06877,45416
33.07690,44563
33.08502,43645
33.09313,42685
33.10127,41999
33.10938,44393
33.11752,47370
33.12563,53190
33.13375,58792
33.14188,65196
33.15000,51037
33.15813,46358
33.16625,47716
33.17437,40227
33.18250,39551
33.19062,44774
33.19873,42973
33.20687,39937
33.21498,44537
33.22312,45926
33.23123,46340
33.23935,43117
33.24748,44934
33.25560,42299
33.26373,41428
33.27185,45304
33.27997,38749
33.28810,44501
33.29622,39616
33.30435,39012
33.31247,40007
33.32058,39620
33.32872,42753
33.33683,39215
33.34495,41497
33.35308,46454
33.36120,40336
33.36933,37962
33.37745,41028
33.38557,39751
33.39370,41456
33.40182,41014
33.40995,40433
33.41807,44012
33.42618,47871
33.43432,40816
33.44243,38277
33.45055,39999
33.45868,42181
33.46680,47015
33.47493,40891
33.48305,42199
33.49117,44484
33.49930,46501
33.50742,42602
33.51555,41324
33.52367,41852
33.53178,43152
33.53992,40353
33.54803,42105
33.55617,43724
33.56428,42231
33.57240,43662
33.58053,43798
33.58865,41642
33.59677,44176
33.60490,41485
33.61302,37495
33.62115,39260
33.62927,39163
33.63738,41816
33.64552,42995
33.65363,41218
33.66177,39381
33.66988,41657
33.67800,40123
33.68613,44398
33.69425,47416
33.70238,42301
33.71050,40019
33.71862,39166
33.72675,40541
33.73487,38356
33.74298,39825
33.75112,43690
33.75923,41102
33.76737,39458
33.77548,39481
33.78360,40906
33.79173,39615
33.79985,42735
33.80798,50174
33.81610,39673
33.82422,42930
33.83235,40400
33.84047,41108
33.84860,43037
33.85672,43171
33.86483,45394
33.87297,45962
33.88108,43595
33.88920,48840
33.89733,43069
33.90545,45144
33.91358,42751
33.92170,42377
33.92982,41109
33.93795,39589
33.94607,41560
33.95420,40783
33.96232,43834
33.97043,46527
33.97857,40740
33.98668,40756
33.99480,39127
34.00293,38831
34.01105,39169
34.01918,42758
34.02730,43710
34.03542,39134
34.04355,41963
34.05167,43524
34.05980,40921
34.06792,43744
34.07603,35981
34.08417,44678
34.09228,40155
34.10042,43718
34.10853,38704
34.11665,39515
34.12478,41446
34.13290,40183
34.14102,45197
34.14915,40994
34.15727,40825
34.16540,42839
34.17352,44299
34.18163,39960
34.18977,38483
34.19788,39943
34.20602,43346
34.21413,38200
34.22225,44509
34.23038,39684
34.23850,40008
34.24662,40818
34.25475,41486
34.26287,45658
34.27100,43486
34.27912,43069
34.28723,37742
34.29537,45160
34.30348,47062
34.31162,41525
34.31973,43860
34.32785,40360
34.33598,42411
34.34410,41045
34.35223,40119
34.36035,42425
34.36847,41596
34.37660,44153
34.38472,46802
34.39283,41759
34.40097,45419
34.40908,45386
34.41722,39717
34.42533,39542
34.43345,40635
34.44158,43461
34.44970,42891
34.45783,51555
34.46595,44387
34.47407,44002
34.48220,43892
34.49032,41462
34.49843,42587
34.50657,45615
34.51468,44555
34.52282,50796
34.53093,54700
34.53905,73772
34.54718,85465
34.55530,99510
34.56343,110835
34.57155,109731
34.57967,121571
34.58780,113856
34.59592,107667
34.60405,99427
34.61217,84882
34.62028,78475
34.62842,72594
34.63653,70792
34.64465,66137
34.65278,62017
34.66090,58073
34.66903,59464
34.67715,61907
34.68527,58347
34.69340,56209
34.70152,54708
34.70965,50995
34.71777,56126
34.72588,50965
34.73402,54304
34.74213,52519
34.75027,54002
34.75838,53647
34.76650,53523
34.77463,50205
34.78275,47013
34.79087,50076
34.79900,49822
34.80712,51906
34.81525,47928
34.82337,52561
34.83148,50588
34.83962,45927
34.84773,49390
34.85587,49987
34.86398,47738
34.87210,45579
34.88023,48243
34.88835,46454
34.89648,49644
34.90460,53027
34.91272,48442
34.92085,50418
34.92897,49428
34.93708,51189
34.94522,48072
34.95333,58083
34.96147,56488
34.96958,60297
34.97770,65107
34.98583,68703
34.99395,69645
35.00208,61293
35.01020,63492
35.01832,59028
35.02645,55854
35.03457,51957
35.04268,50574
35.05082,50646
35.05893,52773
35.06707,54984
35.07518,47295
35.08330,47636
35.09143,51197
35.09955,50192
35.10768,50405
35.11580,52892
35.12392,50571
35.13205,47908
35.14017,48424
35.14830,49402
35.15642,56057
35.16453,58246
35.17267,58977
35.18078,54533
35.18890,56263
35.19703,51979
35.20515,50897
35.21328,55997
35.22140,49507
35.22952,44502
35.23765,44017
35.24577,45061
35.25390,44725
35.26202,48956
35.27013,47328
35.27827,48479
35.28638,48974
35.29450,49420
35.30263,46297
35.31075,43876
35.31888,45804
35.32700,47264
35.33512,42585
35.34325,50680
35.35137,49320
35.35950,48822
35.36762,49654
35.37573,43972
35.38387,47341
35.39198,42707
35.40012,47922
35.40823,46374
35.41635,48582
35.42448,49979
35.43260,46833
35.44072,52491
35.44885,54585
35.45697,52814
35.46510,48981
35.47322,49742
35.48133,47751
35.48947,48725
35.49758,49256
35.50572,52173
35.51383,51080
35.52195,52493
35.53008,48502
35.53820,44733
35.54633,45744
35.55445,49729
35.56257,50216
35.57070,47880
35.57882,47847
35.58693,45208
35.59507,43163
35.60318,48350
35.61132,47258
35.61943,50000
35.62755,51604
35.63568,52585
35.64380,49278
35.65193,49197
35.66005,49694
35.66817,45629
35.67630,49386
35.68442,55563
35.69253,55344
35.70067,55580
35.70878,60811
35.71692,57908
35.72503,53612
35.73315,55605
35.74128,52786
35.74940,50414
35.75753,54036
35.76565,48232
35.77377,53100
35.78190,49710
35.79002,52477
35.79815,48177
35.80627,54261
35.81438,49840
35.82252,48823
35.83063,48353
35.83875,53237
35.84688,51262
35.85500,51949
35.86313,57531
35.87125,47561
35.87937,51495
35.88750,47471
35.89562,49521
35.90375,48107
35.91187,51240
35.91998,51254
35.92812,45758
35.93623,46036
35.94437,52702
35.95248,48451
35.96060,46337
35.96873,45568
35.97685,46331
35.98497,48549
35.99310,46917
36.00122,50747
36.00935,50171
36.01747,50709
36.02558,49698
36.03372,54742
36.04183,57611
36.04997,54870
36.05808,53594
36.06620,51768
36.07433,50640
36.08245,55801
36.09057,52905
36.09870,52501
36.10682,48856
36.11495,45970
36.12307,49493
36.13118,49131
36.13932,51264
36.14743,55887
36.15557,50977
36.16368,49287
36.17180,47433
36.17993,50475
36.18805,52118
36.19618,54227
36.20430,51358
36.21242,50058
36.22055,52528
36.22867,53158
36.23678,50612
36.24492,51960
36.25303,55209
36.26117,49507
36.26928,52144
36.27740,48573
36.28553,51501
36.29365,51943
36.30178,55295
36.30990,58792
36.31802,58016
36.32615,68397
36.33427,79017
36.34238,82976
36.35052,72591
36.35863,68066
36.36677,61324
36.37488,58815
36.38300,56801
36.39113,54258
36.39925,57357
36.40738,55687
36.41550,56941
36.42362,55920
36.43175,55592
36.43987,51841
36.44800,52976
36.45612,52055
36.46423,53245
36.47237,53871
36.48048,52614
36.48860,52291
36.49673,53296
36.50485,52051
36.51298,50743
36.52110,53353
36.52922,51109
36.53735,53625
36.54547,51647
36.55360,52696
36.56172,50543
36.56983,51946
36.57797,48930
36.58608,52560
36.59422,52118
36.60233,52115
36.61045,55447
36.61858,51440
36.62670,55977
36.63482,58567
36.64295,60548
36.65107,63434
36.65920,63914
36.66732,68936
36.67543,79476
36.68357,76533
36.69168,82040
36.69982,84709
36.70793,91440
36.71605,97658
36.72418,95371
36.73230,102397
36.74042,111087
36.74855,101561
36.75667,105061
36.76480,102167
36.77292,92840
36.78103,97695
36.78917,98112
36.79728,91715
36.80542,81301
36.81353,82008
36.82165,73905
36.82978,72532
36.83790,70234
36.84603,63964
36.85415,69145
36.86227,61691
36.87040,62748
36.87852,57053
36.88663,53532
36.89477,55624
36.90288,58384
36.91102,55250
36.91913,53471
36.92725,55373
36.93538,58027
36.94350,58047
36.95163,54938
36.95975,53460
36.96787,56406
36.97600,56360
36.98412,51967
36.99225,55707
37.00037,58884
37.00848,53665
37.01662,54724
37.02473,54579
37.03285,56882
37.04098,53211
37.04910,56894
37.05723,50914
37.06535,52785
37.07347,57080
37.08160,57343
37.08972,58022
37.09785,60449
37.10597,63447
37.11408,57582
37.12222,60219
37.13033,56926
37.13845,57525
37.14658,55325
37.15470,56899
37.16283,58072
37.17095,55774
37.17907,56124
37.18720,53320
37.19532,59026
37.20345,60148
37.21157,61074
37.21968,65937
37.22782,61023
37.23593,61232
37.24407,60372
37.25218,67987
37.26030,60056
37.26843,65086
37.27655,60782
37.28467,63842
37.29280,59973
37.30092,63911
37.30905,58228
37.31717,64266
37.32528,60738
37.33342,64365
37.34153,66922
37.34967,77388
37.35778,85337
37.36590,87325
37.37403,95114
37.38215,102968
37.39028,99798
37.39840,90299
37.40652,87990
37.41465,84566
37.42277,74095
37.43088,74844
37.43902,77660
37.44713,76952
37.45527,71694
37.46338,72310
37.47150,72067
37.47963,70787
37.48775,70184
