Z:\data\JTB-E02\BACandBLUE\JTB-E02-192-15.D Tue Dec 18 15:02:23 2018
Start of data points
2.09530,88076
2.10342,84847
2.11153,84235
2.11967,84389
2.12778,87943
2.13592,90842
2.14403,87467
2.15215,82973
2.16028,93150
2.16840,85343
2.17653,85842
2.18465,80966
2.19277,81105
2.20090,77525
2.20902,82814
2.21713,78030
2.22527,81640
2.23338,79544
2.24152,76988
2.24963,87087
2.25775,292081
2.26588,837718
2.27400,1516979
2.28213,1418167
2.29025,784933
2.29837,527933
2.30650,420957
2.31462,365511
2.32273,324540
2.33087,292541
2.33898,269356
2.34712,254239
2.35523,241824
2.36335,230641
2.37148,216050
2.37960,204940
2.38773,206221
2.39585,200627
2.40397,192309
2.41210,191869
2.42022,188517
2.42835,180035
2.43647,175822
2.44458,172222
2.45272,167399
2.46083,159870
2.46895,152661
2.47708,163209
2.48520,170635
2.49333,173389
2.50145,179310
2.50957,164224
2.51770,164007
2.52582,161248
2.53395,156604
2.54207,157623
2.55018,165980
2.55832,165261
2.56643,158641
2.57455,147776
2.58268,141344
2.59080,178941
2.59893,310310
2.60705,521745
2.61517,577846
2.62330,403742
2.63142,283307
2.63955,242562
2.64767,205699
2.65578,184613
2.66392,172078
2.67203,157951
2.68017,154028
2.68828,144585
2.69640,140815
2.70453,146674
2.71265,135453
2.72077,140388
2.72890,137003
2.73702,131450
2.74515,131750
2.75327,139013
2.76138,375914
2.76952,2290496
2.77763,5771601
2.78577,8018020
2.79388,6318998
2.80200,3607711
2.81013,2424270
2.81825,1899939
2.82638,1477830
2.83450,1184569
2.84262,965770
2.85075,808790
2.85887,708430
2.86698,609109
2.87512,548366
2.88323,480704
2.89137,434574
2.89948,391107
2.90760,368820
2.91573,336376
2.92385,322627
2.93198,302451
2.94010,283187
2.94822,275344
2.95635,264182
2.96447,255754
2.97258,250070
2.98072,243962
2.98883,244950
2.99697,264758
3.00508,255382
3.01320,252387
3.02133,225026
3.02945,217888
3.03758,205284
3.04570,194531
3.05382,185961
3.06195,187407
3.07007,273352
3.07820,700427
3.08632,1499056
3.09443,2629919
3.10257,3635092
3.11068,4024037
3.11880,3202739
3.12693,2074384
3.13505,1465199
3.14318,1132097
3.15130,956794
3.15942,923256
3.16755,1122207
3.17567,2130651
3.18380,4694804
3.19192,7495182
3.20003,7684034
3.20817,5504431
3.21628,3814790
3.22442,2971976
3.23253,2388825
3.24065,2009388
3.24878,1700732
3.25690,1464005
3.26502,1250399
3.27315,1163867
3.28127,1224356
3.28940,2010097
3.29752,4195040
3.30563,7039663
3.31377,8225015
3.32188,7096145
3.33002,5290006
3.33813,3866524
3.34625,3031167
3.35438,2520521
3.36250,2128083
3.37062,1868825
3.37875,1644328
3.38687,1477521
3.39500,1365631
3.40312,1231760
3.41123,1143000
3.41937,1108590
3.42748,1094768
3.43562,1104506
3.44373,1049629
3.45185,995535
3.45998,1078754
3.46810,1232833
3.47623,1257575
3.48435,1089344
3.49247,891215
3.50060,750923
3.50872,701867
3.51683,677912
3.52497,687492
3.53308,743072
3.54122,776334
3.54933,733246
3.55745,642878
3.56558,568468
3.57370,537467
3.58183,504063
3.58995,491705
3.59807,470853
3.60620,469474
3.61432,464799
3.62243,475040
3.63057,500996
3.63868,522300
3.64682,800495
3.65493,4265643
3.66305,1.916076E+07
3.67118,4.129518E+07
3.67930,5.61727E+07
3.68743,5.796609E+07
3.69555,4.751254E+07
3.70367,3.370866E+07
3.71180,2.521158E+07
3.71992,2.060688E+07
3.72805,1.752052E+07
3.73617,1.514453E+07
3.74428,1.330482E+07
3.75242,1.179138E+07
3.76053,1.048203E+07
3.76865,9291594
3.77678,8464315
3.78490,7779744
3.79303,7336770
3.80115,7105240
3.80927,7175180
3.81740,7276975
3.82552,6882308
3.83365,6132385
3.84177,5515058
3.84988,5131687
3.85802,4779231
3.86613,4447722
3.87427,4215052
3.88238,4019883
3.89050,3808060
3.89863,3627339
3.90675,3610764
3.91487,3929543
3.92300,4505106
3.93112,4916265
3.93925,4650997
3.94737,4279738
3.95548,4590075
3.96362,5258752
3.97173,5291956
3.97987,4463681
3.98798,3613665
3.99610,3436756
4.00423,4170677
4.01235,5092773
4.02048,5153142
4.02860,4268992
4.03672,3209356
4.04485,2623554
4.05297,2278586
4.06108,2109140
4.06922,2012331
4.07733,1908088
4.08547,1852160
4.09358,1815006
4.10170,1779167
4.10983,1683479
4.11795,1606929
4.12608,1545074
4.13420,1532415
4.14232,1526673
4.15045,1526462
4.15857,1505600
4.16668,1480753
4.17482,1457997
4.18293,1438288
4.19107,1414567
4.19918,1576200
4.20730,3183977
4.21543,8438480
4.22355,1.714112E+07
4.23168,2.522527E+07
4.23980,3.0971E+07
4.24792,3.476658E+07
4.25605,3.711418E+07
4.26417,3.584331E+07
4.27230,2.562252E+07
4.28042,1.446106E+07
4.28853,9990848
4.29667,7831383
4.30478,6400284
4.31290,5394841
4.32103,4597262
4.32915,3989966
4.33728,3553055
4.34540,3238288
4.35352,3183112
4.36165,3489938
4.36977,3871902
4.37790,3772830
4.38602,3150548
4.39413,2514252
4.40227,2156876
4.41038,1915359
4.41850,1758052
4.42663,1640137
4.43475,1547935
4.44288,1473499
4.45100,1404093
4.45912,1337622
4.46725,1282713
4.47537,1240145
4.48350,1223585
4.49162,1184591
4.49973,1155696
4.50787,1112441
4.51598,1121134
4.52412,1119694
4.53223,1101092
4.54035,1149491
4.54848,1225177
4.55660,1248257
4.56472,1161838
4.57285,1057012
4.58097,978386
4.58910,934590
4.59722,913645
4.60533,925670
4.61347,984952
4.62158,1328203
4.62972,2224703
4.63783,3630424
4.64595,4571305
4.65408,4216575
4.66220,3158815
4.67033,2311692
4.67845,1918306
4.68657,1709047
4.69470,1463470
4.70282,1239780
4.71093,1075695
4.71907,974161
4.72718,891803
4.73532,861937
4.74343,821043
4.75155,781960
4.75968,762168
4.76780,745615
4.77593,722732
4.78405,762568
4.79217,846166
4.80030,1027778
4.80842,1172036
4.81653,1118108
4.82467,987862
4.83278,951391
4.84092,1025868
4.84903,1194158
4.85715,1214916
4.86528,1099717
4.87340,928955
4.88153,813328
4.88965,757768
4.89777,721004
4.90590,681088
4.91402,658100
4.92215,639418
4.93027,650709
4.93838,708419
4.94652,941042
4.95463,1429738
4.96275,2084209
4.97088,2568727
4.97900,2606620
4.98713,2279807
4.99525,1920103
5.00337,1713939
5.01150,1558216
5.01962,1500468
5.02775,1783412
5.03587,2404237
5.04398,2879423
5.05212,2908677
5.06023,2447695
5.06837,2003317
5.07648,1725006
5.08460,1504465
5.09273,1365426
5.10085,1299910
5.10897,1227820
5.11710,1159755
5.12522,1073685
5.13335,1043747
5.14147,1042414
5.14958,1231318
5.15772,1643734
5.16583,2097606
5.17397,2308476
5.18208,2120789
5.19020,1825918
5.19833,1823234
5.20645,2055213
5.21457,2239814
5.22270,2088875
5.23082,1752284
5.23895,1410661
5.24707,1189608
5.25518,1022150
5.26332,906302
5.27143,801414
5.27957,754493
5.28768,711104
5.29580,672207
5.30393,658952
5.31205,643620
5.32018,649345
5.32830,669097
5.33642,706949
5.34455,736542
5.35267,718863
5.36078,672522
5.36892,637261
5.37703,621483
5.38517,690733
5.39328,821111
5.40140,973360
5.40953,1014918
5.41765,919700
5.42578,775334
5.43390,686811
5.44202,707378
5.45015,887919
5.45827,1056615
5.46638,1112336
5.47452,998404
5.48263,808705
5.49077,650484
5.49888,574008
5.50700,529798
5.51513,518064
5.52325,522007
5.53138,510463
5.53950,527805
5.54762,663118
5.55575,1137462
5.56387,2162315
5.57200,3471965
5.58012,4190844
5.58823,3862597
5.59637,2855832
5.60448,1840273
5.61260,1224271
5.62073,887586
5.62885,744602
5.63698,672394
5.64510,618175
5.65322,576315
5.66135,561006
5.66947,540564
5.67760,533307
5.68572,572051
5.69383,657572
5.70197,746603
5.71008,767025
5.71822,736192
5.72633,670972
5.73445,586490
5.74258,512446
5.75070,478433
5.75882,460928
5.76695,446664
5.77507,437417
5.78320,430150
5.79132,422280
5.79943,414879
5.80757,399051
5.81568,397089
5.82382,404771
5.83193,406613
5.84005,389985
5.84818,391411
5.85630,383998
5.86442,378807
5.87255,376794
5.88067,376675
5.88880,377216
5.89692,395536
5.90503,442215
5.91317,519994
5.92128,612853
5.92942,649466
5.93753,583719
5.94565,527937
5.95378,499754
5.96190,558524
5.97003,698741
5.97815,890994
5.98627,1125907
5.99440,1285867
6.00252,1324370
6.01063,1215583
6.01877,1003092
6.02688,771069
6.03502,598817
6.04313,496908
6.05125,430023
6.05938,391983
6.06750,393612
6.07563,396342
6.08375,385894
6.09187,378134
6.10000,361749
6.10812,344368
6.11625,370208
6.12437,547460
6.13248,1052272
6.14062,1920230
6.14873,2740948
6.15685,2855984
6.16498,2306442
6.17310,1602382
6.18123,1152828
6.18935,904047
6.19747,766297
6.20560,674007
6.21372,607346
6.22185,554574
6.22997,509775
6.23808,527870
6.24622,581417
6.25433,726500
6.26245,910653
6.27058,990299
6.27870,891321
6.28683,715499
6.29495,571921
6.30307,512919
6.31120,484754
6.31932,460478
6.32745,455123
6.33557,461022
6.34368,433589
6.35182,421976
6.35993,418734
6.36807,398470
6.37618,407858
6.38430,414280
6.39243,427849
6.40055,414209
6.40867,387782
6.41680,355433
6.42492,348560
6.43305,354516
6.44117,362505
6.44928,381532
6.45742,389713
6.46553,410531
6.47367,402029
6.48178,374553
6.48990,365639
6.49803,358445
6.50615,360320
6.51428,372016
6.52240,387614
6.53052,403883
6.53865,402791
6.54677,392233
6.55488,455009
6.56302,790895
6.57113,1737661
6.57927,3179910
6.58738,4225961
6.59550,4030130
6.60363,2887990
6.61175,1724315
6.61988,1036509
6.62800,751509
6.63612,622332
6.64425,528390
6.65237,437357
6.66048,438242
6.66862,437157
6.67673,412304
6.68487,387233
6.69298,345484
6.70110,320902
6.70923,305403
6.71735,310453
6.72548,306102
6.73360,297259
6.74172,290512
6.74985,287858
6.75797,273720
6.76610,274903
6.77422,277417
6.78233,276708
6.79047,267343
6.79858,248856
6.80670,231881
6.81483,222354
6.82295,213541
6.83108,203213
6.83920,205928
6.84732,220072
6.85545,232381
6.86357,261984
6.87170,272012
6.87982,272850
6.88793,272522
6.89607,256390
6.90418,226301
6.91230,210831
6.92043,185906
6.92855,195559
6.93668,185443
6.94480,188583
6.95292,182610
6.96105,187954
6.96917,207642
6.97730,235680
6.98542,269512
6.99353,279616
7.00167,264516
7.00978,239634
7.01792,227787
7.02603,219912
7.03415,222174
7.04228,217835
7.05040,239075
7.05852,323564
7.06665,498333
7.07477,781302
7.08290,1044824
7.09102,1168783
7.09913,1087185
7.10727,860040
7.11538,622396
7.12352,453699
7.13163,367772
7.13975,335205
7.14788,345213
7.15600,372389
7.16413,425212
7.17225,483526
7.18037,623910
7.18850,1307264
7.19662,3191153
7.20473,6442581
7.21287,1.007166E+07
7.22098,1.163909E+07
7.22912,1.008362E+07
7.23723,6302735
7.24535,2989831
7.25348,1206900
7.26160,509450
7.26973,303446
7.27785,252351
7.28597,244607
7.29410,254986
7.30222,272719
7.31033,258451
7.31847,267024
7.32658,297100
7.33472,358650
7.34283,461590
7.35095,546184
7.35908,588792
7.36720,563581
7.37533,467872
7.38345,389033
7.39157,329001
7.39970,273040
7.40782,244133
7.41595,222629
7.42407,208598
7.43218,197902
7.44032,194119
7.44843,187444
7.45655,193357
7.46468,205519
7.47280,228196
7.48093,248342
7.48905,225077
7.49717,213201
7.50530,199060
7.51342,205354
7.52155,233000
7.52967,397318
7.53778,937022
7.54592,2242232
7.55403,4958952
7.56217,9325220
7.57028,1.473577E+07
7.57840,1.965935E+07
7.58653,2.185482E+07
7.59465,2.081141E+07
7.60277,1.655654E+07
7.61090,1.129268E+07
7.61902,6812845
7.62715,3856553
7.63527,2263616
7.64338,1474138
7.65152,1036099
7.65963,763735
7.66777,599340
7.67588,453568
7.68400,351231
7.69213,289502
7.70025,251635
7.70837,251305
7.71650,325794
7.72462,436108
7.73275,583130
7.74087,702995
7.74898,733058
7.75712,721562
7.76523,625648
7.77337,551101
7.78148,500783
7.78960,449540
7.79773,429998
7.80585,472671
7.81398,540893
7.82210,606816
7.83022,586598
7.83835,515212
7.84647,447091
7.85458,382013
7.86272,385241
7.87083,443923
7.87897,542141
7.88708,708093
7.89520,921556
7.90333,1065105
7.91145,1063879
7.91958,884680
7.92770,673316
7.93582,513873
7.94395,466331
7.95207,464306
7.96018,480467
7.96832,443151
7.97643,393168
7.98457,334014
7.99268,272740
8.00080,235795
8.00893,211381
8.01705,197845
8.02518,189643
8.03330,187090
8.04142,180034
8.04955,171408
8.05767,174540
8.06580,187880
8.07392,191027
8.08203,188808
8.09017,187406
8.09828,174379
8.10640,175337
8.11453,164922
8.12265,162987
8.13078,188633
8.13890,254885
8.14702,387300
8.15515,519513
8.16327,588872
8.17140,566410
8.17952,461823
8.18763,344692
8.19577,282224
8.20388,233051
8.21202,203794
8.22013,194500
8.22825,178497
8.23638,166095
8.24450,161663
8.25262,153583
8.26075,159838
8.26887,147212
8.27700,146556
8.28512,133231
8.29323,139821
8.30137,134672
8.30948,155306
8.31762,180281
8.32573,220953
8.33385,269107
8.34198,304407
8.35010,291689
8.35822,241277
8.36635,199357
8.37447,156388
8.38260,137910
8.39072,130792
8.39883,125448
8.40697,118549
8.41508,114985
8.42322,109015
8.43133,114739
8.43945,121997
8.44758,123804
8.45570,125191
8.46383,127527
8.47195,123412
8.48007,117861
8.48820,116792
8.49632,113679
8.50443,114738
8.51257,117533
8.52068,151022
8.52882,219349
8.53693,301769
8.54505,354469
8.55318,335454
8.56130,252113
8.56943,190058
8.57755,141670
8.58567,117429
8.59380,117009
8.60192,120089
8.61005,136470
8.61817,156843
8.62628,180450
8.63442,188858
8.64253,193177
8.65065,174080
8.65878,159615
8.66690,133316
8.67503,119313
8.68315,119917
8.69127,115056
8.69940,107244
8.70752,113594
8.71565,117237
8.72377,117609
8.73188,113918
8.74002,109636
8.74813,102763
8.75625,107525
8.76438,112521
8.77250,135753
8.78063,203954
8.78875,345994
8.79687,544893
8.80500,682065
8.81312,748301
8.82125,696371
8.82937,569078
8.83748,468208
8.84562,409906
8.85373,358325
8.86187,333538
8.86998,309468
8.87810,293983
8.88623,288712
8.89435,260980
8.90247,252103
8.91060,259751
8.91872,264043
8.92685,336733
8.93497,446230
8.94308,555025
8.95122,570159
8.95933,505499
8.96747,416475
8.97558,406072
8.98370,465771
8.99183,563782
8.99995,618970
9.00807,589446
9.01620,505100
9.02432,401096
9.03245,330445
9.04057,256449
9.04868,225747
9.05682,217794
9.06493,211702
9.07307,203878
9.08118,207781
9.08930,227534
9.09743,286274
9.10555,415138
9.11368,631070
9.12180,875947
9.12992,1020896
9.13805,978158
9.14617,808055
9.15428,591821
9.16242,432441
9.17053,331265
9.17867,296790
9.18678,271395
9.19490,260804
9.20303,243619
9.21115,242496
9.21928,229212
9.22740,232891
9.23552,235309
9.24365,248020
9.25177,250467
9.25990,262143
9.26802,237707
9.27613,232659
9.28427,225680
9.29238,212126
9.30050,202503
9.30863,196407
9.31675,193083
9.32488,198078
9.33300,188298
9.34112,189828
9.34925,172477
9.35737,168262
9.36550,165135
9.37362,164692
9.38173,185846
9.38987,232274
9.39798,351287
9.40612,526802
9.41423,757254
9.42235,963644
9.43048,1157418
9.43860,1378552
9.44672,1574707
9.45485,1650097
9.46297,1561974
9.47110,1310060
9.47922,937519
9.48733,624379
9.49547,432500
9.50358,343502
9.51172,339234
9.51983,403930
9.52795,494834
9.53608,576469
9.54420,597777
9.55232,575282
9.56045,490902
9.56857,390872
9.57670,307191
9.58482,234997
9.59293,206956
9.60107,186833
9.60918,172436
9.61732,169819
9.62543,158837
9.63355,150654
9.64168,151321
9.64980,150108
9.65793,151941
9.66605,155328
9.67417,153522
9.68230,163658
9.69042,157398
9.69853,154019
9.70667,139595
9.71478,137409
9.72292,151183
9.73103,140408
9.73915,135548
9.74728,140411
9.75540,121034
9.76353,117322
9.77165,120974
9.77977,109329
9.78790,111056
9.79602,111887
9.80413,119963
9.81227,113493
9.82038,108475
9.82852,111959
9.83663,113528
9.84475,110415
9.85288,112053
9.86100,114681
9.86913,107949
9.87725,102339
9.88537,98319
9.89350,102962
9.90162,99903
9.90975,109388
9.91787,109615
9.92598,123394
9.93412,160216
9.94223,255322
9.95035,454633
9.95848,794483
9.96660,1206801
9.97473,1481834
9.98285,1492678
9.99097,1256803
9.99910,915908
10.00722,575621
10.01535,364165
10.02347,260113
10.03158,212790
10.03972,218097
10.04783,250553
10.05597,288554
10.06408,314807
10.07220,326775
10.08033,317841
10.08845,315408
10.09657,299264
10.10470,271574
10.11282,262982
10.12095,240754
10.12907,236473
10.13718,229918
10.14532,223526
10.15343,214991
10.16157,203891
10.16968,194499
10.17780,193446
10.18593,198137
10.19405,182437
10.20217,175160
10.21030,177391
10.21842,177216
10.22655,168649
10.23467,175023
10.24278,180542
10.25092,204710
10.25903,282763
10.26717,551206
10.27528,1330335
10.28340,3003332
10.29153,5783809
10.29965,9420510
10.30778,1.374345E+07
10.31590,1.817348E+07
10.32402,2.329809E+07
10.33215,2.918782E+07
10.34027,3.653926E+07
10.34838,4.565564E+07
10.35652,5.49045E+07
10.36463,6.252209E+07
10.37277,6.559413E+07
10.38088,5.729285E+07
10.38900,3.68499E+07
10.39713,2.333881E+07
10.40525,1.622323E+07
10.41338,1.105161E+07
10.42150,6684966
10.42962,4170899
10.43775,3048257
10.44587,2780237
10.45400,2886604
10.46212,3040612
10.47023,3131431
10.47837,3008969
10.48648,2655949
10.49460,2198707
10.50273,1732922
10.51085,1399134
10.51898,1198261
10.52710,1120700
10.53522,1077879
10.54335,1125147
10.55147,1150675
10.55960,1112590
10.56772,1024091
10.57583,931563
10.58397,858052
10.59208,803625
10.60020,747511
10.60833,700361
10.61645,663087
10.62458,622299
10.63270,580797
10.64082,571801
10.64895,540111
10.65707,513433
10.66520,497557
10.67332,472617
10.68143,458357
10.68957,458515
10.69768,496037
10.70582,534204
10.71393,571444
10.72205,591204
10.73018,578848
10.73830,541108
10.74642,493704
10.75455,447551
10.76267,421225
10.77080,395724
10.77892,372233
10.78703,356021
10.79517,369154
10.80328,376046
10.81142,424914
10.81953,508896
10.82765,572100
10.83578,568730
10.84390,528220
10.85202,452166
10.86015,382091
10.86827,330437
10.87640,285909
10.88452,271702
10.89263,270823
10.90077,268979
10.90888,261803
10.91702,262328
10.92513,261540
10.93325,255469
10.94138,252612
10.94950,249169
10.95763,243741
10.96575,231796
10.97387,236681
10.98200,230215
10.99012,239119
10.99823,267825
11.00637,315298
11.01448,364280
11.02262,430121
11.03073,453695
11.03885,427496
11.04698,387045
11.05510,328326
11.06323,309145
11.07135,319028
11.07947,354223
11.08760,428536
11.09572,499071
11.10385,528276
11.11197,550439
11.12008,521471
11.12822,481714
11.13633,416451
11.14445,346565
11.15258,302957
11.16070,275894
11.16883,265434
11.17695,278302
11.18507,250324
11.19320,227055
11.20132,214072
11.20945,205383
11.21757,184348
11.22568,182645
11.23382,159988
11.24193,148698
11.25005,139449
11.25818,132318
11.26630,130922
11.27443,123951
11.28255,123737
11.29067,131282
11.29880,156660
11.30692,267702
11.31505,670369
11.32317,1761167
11.33128,4041933
11.33942,7711772
11.34753,1.216985E+07
11.35567,1.585701E+07
11.36378,1.772771E+07
11.37190,1.653459E+07
11.38003,1.342567E+07
11.38815,9720040
11.39627,6875020
11.40440,4967097
11.41252,3846124
11.42065,3066561
11.42877,2414903
11.43688,1960368
11.44502,1619086
11.45313,1349534
11.46127,1150968
11.46938,1011861
11.47750,894513
11.48563,808701
11.49375,814044
11.50188,855803
11.51000,986545
11.51812,1120804
11.52625,1148697
11.53437,1120345
11.54248,1038964
11.55062,918213
11.55873,836379
11.56687,765997
11.57498,757558
11.58310,746518
11.59123,743413
11.59935,747875
11.60748,850794
11.61560,1001149
11.62372,1126569
11.63185,1173244
11.63997,1042561
11.64808,875751
11.65622,646514
11.66433,492823
11.67247,394023
11.68058,353011
11.68870,343717
11.69683,355964
11.70495,360353
11.71308,358498
11.72120,371433
11.72932,369787
11.73745,378888
11.74557,348775
11.75370,312868
11.76182,276647
11.76993,236107
11.77807,219094
11.78618,205458
11.79430,186742
11.80243,177321
11.81055,173405
11.81868,167410
11.82680,173102
11.83492,163511
11.84305,158664
11.85117,155974
11.85930,154168
11.86742,158848
11.87553,148477
11.88367,146143
11.89178,135154
11.89992,132602
11.90803,138132
11.91615,136641
11.92428,138136
11.93240,145552
11.94052,151426
11.94865,144510
11.95677,140466
11.96490,135082
11.97302,118669
11.98113,121515
11.98927,115255
11.99738,114102
12.00552,110641
12.01363,113959
12.02175,113271
12.02988,104005
12.03800,106521
12.04612,109202
12.05425,111923
12.06237,116346
12.07050,123344
12.07862,140050
12.08673,176585
12.09487,240647
12.10298,357817
12.11112,663919
12.11923,1298853
12.12735,2500178
12.13548,4220921
12.14360,6011418
12.15173,7039945
12.15985,7081927
12.16797,5758495
12.17610,4147415
12.18422,2809100
12.19233,2023482
12.20047,1656001
12.20858,1410185
12.21672,1275485
12.22483,1101815
12.23295,989010
12.24108,886965
12.24920,801233
12.25733,705694
12.26545,671835
12.27357,673680
12.28170,637393
12.28982,601167
12.29793,575356
12.30607,527450
12.31418,496609
12.32232,453931
12.33043,444516
12.33855,432224
12.34668,410524
12.35480,396862
12.36293,385388
12.37105,385174
12.37917,369855
12.38730,366225
12.39542,385584
12.40355,463604
12.41167,602679
12.41978,881950
12.42792,1224184
12.43603,1476998
12.44415,1442544
12.45228,1229771
12.46040,949140
12.46853,709454
12.47665,586277
12.48477,489030
12.49290,458433
12.50102,429141
12.50915,410296
12.51727,379234
12.52538,375464
12.53352,412362
12.54163,467894
12.54977,593123
12.55788,703113
12.56600,777175
12.57413,779704
12.58225,711913
12.59037,578203
12.59850,488928
12.60662,430355
12.61475,392359
12.62287,364325
12.63098,347318
12.63912,323523
12.64723,306307
12.65537,285551
12.66348,267801
12.67160,261510
12.67973,243251
12.68785,244500
12.69597,246371
12.70410,233512
12.71222,239167
12.72035,240464
12.72847,219623
12.73658,228065
12.74472,229890
12.75283,218913
12.76097,216260
12.76908,209564
12.77720,209239
12.78533,203284
12.79345,192922
12.80158,183189
12.80970,182629
12.81782,174148
12.82595,156022
12.83407,137783
12.84218,123940
12.85032,109682
12.85843,99635
12.86657,96662
12.87468,95751
12.88280,91862
12.89093,99809
12.89905,100876
12.90718,93727
12.91530,95191
12.92342,99888
12.93155,94707
12.93967,93181
12.94780,93959
12.95592,96425
12.96403,100711
12.97217,108843
12.98028,119978
12.98840,125506
12.99653,131729
13.00465,122424
13.01278,114704
13.02090,106794
13.02902,97425
13.03715,90703
13.04527,91517
13.05340,89033
13.06152,86849
13.06963,91321
13.07777,95229
13.08588,100509
13.09400,100057
13.10213,105613
13.11025,110144
13.11838,101583
13.12650,96391
13.13462,90064
13.14275,91255
13.15087,89699
13.15900,91779
13.16712,95156
13.17523,104393
13.18337,112563
13.19148,105748
13.19962,113371
13.20773,111328
13.21585,123716
13.22398,135239
13.23210,146834
13.24022,150163
13.24835,157567
13.25647,154475
13.26460,147935
13.27272,153303
13.28083,142830
13.28897,124421
13.29708,120196
13.30522,109352
13.31333,97966
13.32145,91797
13.32958,84047
13.33770,82477
13.34582,83976
13.35395,81491
13.36207,81211
13.37020,76020
13.37832,79606
13.38643,82572
13.39457,82847
13.40268,80915
13.41082,78647
13.41893,78350
13.42705,86462
13.43518,84353
13.44330,84700
13.45143,86148
13.45955,94045
13.46767,108551
13.47580,121754
13.48392,134295
13.49203,132832
13.50017,138779
13.50828,119130
13.51642,114397
13.52453,114659
13.53265,122547
13.54078,120275
13.54890,116781
13.55703,100320
13.56515,95218
13.57327,99875
13.58140,108928
13.58952,141116
13.59765,178214
13.60577,224309
13.61388,248246
13.62202,266434
13.63013,266010
13.63825,257395
13.64638,212338
13.65450,187328
13.66263,151534
13.67075,121116
13.67887,106929
13.68700,85514
13.69512,76710
13.70325,73191
13.71137,72676
13.71948,72186
13.72762,68405
13.73573,67399
13.74387,72743
13.75198,82840
13.76010,106590
13.76823,144107
13.77635,222036
13.78447,314092
13.79260,484208
13.80072,709346
13.80885,955750
13.81697,1226226
13.82508,1610013
13.83322,2130499
13.84133,2733070
13.84947,3241030
13.85758,3373005
13.86570,3048285
13.87383,2479245
13.88195,1830125
13.89007,1282131
13.89820,869156
13.90632,597752
13.91445,423444
13.92257,321153
13.93068,255902
13.93882,215910
13.94693,196178
13.95507,180427
13.96318,161982
13.97130,146987
13.97943,138008
13.98755,127349
13.99568,127446
14.00380,120773
14.01192,128001
14.02005,128940
14.02817,131523
14.03628,124426
14.04442,119869
14.05253,111398
14.06067,104687
14.06878,100386
14.07690,100761
14.08503,106282
14.09315,108806
14.10128,112074
14.10940,99297
14.11752,98134
14.12565,93439
14.13377,92321
14.14188,103815
14.15002,122736
14.15813,161054
14.16627,204138
14.17438,238866
14.18250,257913
14.19063,258196
14.19875,266253
14.20688,267169
14.21500,286367
14.22312,336787
14.23125,385361
14.23937,443051
14.24750,467715
14.25562,535148
14.26373,596601
14.27187,611797
14.27998,570993
14.28810,482654
14.29623,380141
14.30435,292931
14.31248,242637
14.32060,208112
14.32872,189032
14.33685,177241
14.34497,168529
14.35310,163925
14.36122,153714
14.36933,160963
14.37747,143742
14.38558,142445
14.39372,125772
14.40183,128683
14.40995,154614
14.41808,194600
14.42620,261818
14.43432,307490
14.44245,324908
14.45057,294556
14.45870,254780
14.46682,221479
14.47493,212953
14.48307,219999
14.49118,235834
14.49932,253078
14.50743,246282
14.51555,233169
14.52368,199996
14.53180,189213
14.53992,176617
14.54805,165623
14.55617,153265
14.56430,143743
14.57242,134417
14.58053,120053
14.58867,110564
14.59678,107131
14.60492,95496
14.61303,88103
14.62115,86346
14.62928,84830
14.63740,81503
14.64553,76359
14.65365,77920
14.66177,72745
14.66990,74617
14.67802,71408
14.68613,75887
14.69427,76453
14.70238,78408
14.71052,72108
14.71863,74927
14.72675,84369
14.73488,85042
14.74300,98577
14.75113,110509
14.75925,119474
14.76737,134471
14.77550,132470
14.78362,139034
14.79175,176341
14.79987,302831
14.80798,788175
14.81612,2182177
14.82423,5176074
14.83235,9835189
14.84048,1.617346E+07
14.84860,2.306136E+07
14.85673,2.825444E+07
14.86485,2.930593E+07
14.87297,2.522936E+07
14.88110,1.674424E+07
14.88922,9120863
14.89735,4692098
14.90547,2891601
14.91358,2134273
14.92172,1757670
14.92983,1604877
14.93795,1442997
14.94608,1313300
14.95420,1194393
14.96233,1126050
14.97045,1028334
14.97857,946195
14.98670,862035
14.99482,791216
15.00295,764075
15.01107,721344
15.01918,709111
15.02732,663741
15.03543,657727
15.04357,643321
15.05168,636308
15.05980,614582
15.06793,578625
15.07605,550379
15.08417,493821
15.09230,465041
15.10042,428258
15.10855,409373
15.11667,385699
15.12478,386417
15.13292,406123
15.14103,458877
15.14917,518680
15.15728,580954
15.16540,588952
15.17353,526524
15.18165,424408
15.18977,304317
15.19790,227047
15.20602,188949
15.21415,172597
15.22227,159446
15.23038,150189
15.23852,153301
15.24663,144775
15.25477,147887
15.26288,147636
15.27100,138804
15.27913,146757
15.28725,124276
15.29538,124089
15.30350,114796
15.31162,119411
15.31975,113241
15.32787,107223
15.33598,104282
15.34412,106007
15.35223,101931
15.36037,105048
15.36848,99969
15.37660,111033
15.38473,109351
15.39285,120168
15.40098,120661
15.40910,123848
15.41722,119016
15.42535,113590
15.43347,116149
15.44160,106605
15.44972,107334
15.45783,111500
15.46597,137552
15.47408,217057
15.48220,420143
15.49033,812092
15.49845,1386386
15.50658,2109348
15.51470,2781375
15.52282,3161743
15.53095,3064321
15.53907,2682868
15.54720,2113660
15.55532,1566059
15.56343,1092657
15.57157,770845
15.57968,578862
15.58780,437908
15.59593,365504
15.60405,312528
15.61218,290683
15.62030,272471
15.62842,251017
15.63655,238647
15.64467,221294
15.65280,207896
15.66092,191144
15.66903,182506
15.67717,176444
15.68528,156750
15.69342,149984
15.70153,142387
15.70965,137772
15.71778,129404
15.72590,123350
15.73402,123403
15.74215,117101
15.75027,129452
15.75840,157218
15.76652,252785
15.77463,486527
15.78277,925306
15.79088,1573675
15.79902,2170319
15.80713,2370735
15.81525,2143708
15.82338,1630216
15.83150,1099451
15.83963,690366
15.84775,455273
15.85587,344960
15.86400,296414
15.87212,259753
15.88023,258167
15.88837,230727
15.89648,224481
15.90462,209832
15.91273,203476
15.92085,194258
15.92898,190499
15.93710,173116
15.94523,182346
15.95335,168662
15.96147,168047
15.96960,166852
15.97772,149914
15.98583,147368
15.99397,147327
16.00208,147395
16.01022,178564
16.01833,197002
16.02645,235857
16.03458,258969
16.04270,261386
16.05083,247194
16.05895,223490
16.06707,191753
16.07520,160201
16.08332,139169
16.09145,129246
16.09957,120202
16.10768,115083
16.11582,122064
16.12393,132272
16.13205,155635
16.14018,183640
16.14830,234786
16.15643,278699
16.16455,307092
16.17267,305891
16.18080,285837
16.18892,254647
16.19705,211887
16.20517,183953
16.21328,155876
16.22142,151978
16.22953,156025
16.23767,155519
16.24578,149197
16.25390,142366
16.26203,123455
16.27015,117086
16.27827,119779
16.28640,124139
16.29452,159116
16.30265,199460
16.31077,251832
16.31888,281633
16.32702,286739
16.33513,267193
16.34327,245032
16.35138,225025
16.35950,204653
16.36763,190035
16.37575,177617
16.38387,166292
16.39200,162174
16.40012,151632
16.40825,140431
16.41637,125062
16.42448,125703
16.43262,118763
16.44073,132964
16.44887,163907
16.45698,308162
16.46510,695647
16.47323,1602543
16.48135,3179274
16.48948,4977028
16.49760,6560461
16.50572,6775620
16.51385,5678518
16.52197,3943942
16.53008,2362086
16.53822,1336652
16.54633,825513
16.55447,576508
16.56258,450093
16.57070,394212
16.57883,358732
16.58695,337434
16.59508,324706
16.60320,308311
16.61132,297981
16.61945,280858
16.62757,267021
16.63568,262051
16.64382,242822
16.65193,219317
16.66007,207610
16.66818,200730
16.67630,184197
16.68443,170071
16.69255,165868
16.70068,163666
16.70880,154090
16.71692,151087
16.72505,141561
16.73317,143685
16.74130,131149
16.74942,131373
16.75753,143524
16.76567,168632
16.77378,201313
16.78190,223120
16.79003,223386
16.79815,191312
16.80628,163539
16.81440,125451
16.82252,115387
16.83065,98301
16.83877,92794
16.84690,93300
16.85502,91652
16.86313,89882
16.87127,88933
16.87938,93759
16.88752,83141
16.89563,81770
16.90375,81407
16.91188,76598
16.92000,81196
16.92812,78627
16.93625,84925
16.94437,87674
16.95250,86718
16.96062,84911
16.96873,88602
16.97687,86986
16.98498,90518
16.99312,87588
17.00123,88599
17.00935,91096
17.01748,90493
17.02560,109524
17.03372,104976
17.04185,115365
17.04997,136713
17.05810,172954
17.06622,207428
17.07433,217434
17.08247,208350
17.09058,181411
17.09872,151751
17.10683,129820
17.11495,115298
17.12308,117701
17.13120,136040
17.13933,143633
17.14745,163574
17.15557,163435
17.16370,161867
17.17182,155165
17.17993,149503
17.18807,138832
17.19618,134017
17.20432,117383
17.21243,105519
17.22055,102355
17.22868,89837
17.23680,88967
17.24493,91698
17.25305,94790
17.26117,96695
17.26930,103714
17.27742,109445
17.28555,104535
17.29367,98193
17.30178,85746
17.30992,85278
17.31803,93071
17.32615,118544
17.33428,153590
17.34240,210611
17.35053,279915
17.35865,328076
17.36677,361604
17.37490,355475
17.38302,343500
17.39115,317831
17.39927,301258
17.40738,284007
17.41552,287759
17.42363,291920
17.43175,292882
17.43988,313177
17.44800,314101
17.45613,274609
17.46425,263310
17.47237,231358
17.48050,191036
17.48862,169077
17.49675,156411
17.50487,135126
17.51298,130560
17.52112,120656
17.52923,130870
17.53737,123266
17.54548,124529
17.55360,130857
17.56173,146912
17.56985,216018
17.57797,389359
17.58610,854015
17.59422,1834226
17.60235,3381195
17.61047,5030063
17.61858,6323038
17.62672,6780909
17.63483,6049590
17.64297,4722631
17.65108,3165965
17.65920,1938945
17.66733,1126335
17.67545,701931
17.68357,484802
17.69170,381444
17.69982,331047
17.70795,311717
17.71607,301918
17.72418,291317
17.73232,308770
17.74043,307868
17.74857,307433
17.75668,302221
17.76480,294647
17.77293,280343
17.78105,241683
17.78918,226256
17.79730,185634
17.80542,173270
17.81355,159281
17.82167,155369
17.82978,147687
17.83792,168584
17.84603,198333
17.85417,244913
17.86228,330140
17.87040,427667
17.87853,513894
17.88665,562160
17.89478,504184
17.90290,408148
17.91102,300588
17.91915,217324
17.92727,169480
17.93540,146412
17.94352,128010
17.95163,128296
17.95977,117806
17.96788,114018
17.97600,111051
17.98413,107848
17.99225,104518
18.00038,105909
18.00850,106487
18.01662,123984
18.02475,170744
18.03287,264044
18.04100,407794
18.04912,581410
18.05723,712510
18.06537,862496
18.07348,1182395
18.08160,1998514
18.08973,3522788
18.09785,5609232
18.10598,7486938
18.11410,8308199
18.12222,7858832
18.13035,6506752
18.13847,4739983
18.14660,3417425
18.15472,2568635
18.16283,2082693
18.17097,1771218
18.17908,1573427
18.18722,1359778
18.19533,1186351
18.20345,1058562
18.21158,922265
18.21970,845416
18.22782,769713
18.23595,718759
18.24407,674610
18.25220,631444
18.26032,572655
18.26843,542666
18.27657,489806
18.28468,450311
18.29282,373380
18.30093,315498
18.30905,236094
18.31718,193003
18.32530,167499
18.33343,160097
18.34155,139897
18.34967,139336
18.35780,135116
18.36592,124367
18.37403,121863
18.38217,128142
18.39028,122519
18.39842,124814
18.40653,130910
18.41465,156677
18.42278,213620
18.43090,307277
18.43903,446618
18.44715,642483
18.45527,874077
18.46340,1099016
18.47152,1383071
18.47963,1736027
18.48777,2192224
18.49588,2473171
18.50402,2510262
18.51213,2191981
18.52025,1694756
18.52838,1155287
18.53650,735039
18.54463,499395
18.55275,332862
18.56087,262489
18.56900,220749
18.57712,194012
18.58525,176613
18.59337,170963
18.60148,179907
18.60962,210283
18.61773,237282
18.62585,299952
18.63398,336733
18.64210,363809
18.65023,358777
18.65835,330711
18.66647,290988
18.67460,236581
18.68272,193247
18.69085,170532
18.69897,148976
18.70708,147998
18.71522,143736
18.72333,149454
18.73145,151683
18.73958,158060
18.74770,147858
18.75583,147162
18.76395,129052
18.77207,130621
18.78020,120372
18.78832,106687
18.79645,114322
18.80457,114287
18.81268,120374
18.82082,120261
18.82893,119940
18.83707,116699
18.84518,117888
18.85330,111966
18.86143,124452
18.86955,141332
18.87767,179489
18.88580,207822
18.89392,249163
18.90205,270636
18.91017,260404
18.91828,244699
18.92642,217797
18.93453,211692
18.94267,216635
18.95078,235035
18.95890,271514
18.96703,303189
18.97515,339036
18.98328,338032
18.99140,326894
18.99952,282596
19.00765,240146
19.01577,197443
19.02388,171508
19.03202,153648
19.04013,144708
19.04827,136877
19.05638,129017
19.06450,128963
19.07263,121263
19.08075,118448
19.08888,131077
19.09700,151181
19.10512,206092
19.11325,262245
19.12137,291616
19.12950,306729
19.13762,279662
19.14573,241195
19.15387,185983
19.16198,156998
19.17010,133054
19.17823,117260
19.18635,108685
19.19448,101724
19.20260,96647
19.21072,96336
19.21885,104580
19.22697,132223
19.23510,166853
19.24322,204622
19.25133,227492
19.25947,225076
19.26758,239946
19.27570,235718
19.28383,241604
19.29195,261458
19.30008,286167
19.30820,309528
19.31632,324557
19.32445,327847
19.33257,323312
19.34070,314571
19.34882,294485
19.35693,303942
19.36507,329420
19.37318,403703
19.38132,501147
19.38943,599275
19.39755,635545
19.40568,604110
19.41380,516073
19.42192,430707
19.43005,376822
19.43817,341553
19.44630,317914
19.45442,309419
19.46253,297788
19.47067,280086
19.47878,282988
19.48692,278112
19.49503,284302
19.50315,317086
19.51128,347721
19.51940,391516
19.52752,449365
19.53565,514726
19.54377,560508
19.55190,594916
19.56002,587207
19.56813,545733
19.57627,493475
19.58438,412543
19.59252,361382
19.60063,323952
19.60875,292136
19.61688,267145
19.62500,250994
19.63313,253421
19.64125,262138
19.64937,308317
19.65750,437713
19.66562,679138
19.67373,1064278
19.68187,1471112
19.68998,1785687
19.69812,1877263
19.70623,1782360
19.71435,1508416
19.72248,1240136
19.73060,987765
19.73873,811040
19.74685,713238
19.75497,594742
19.76310,518832
19.77122,465826
19.77935,483241
19.78747,545580
19.79558,684231
19.80372,871650
19.81183,1060731
19.81995,1204183
19.82808,1218031
19.83620,1073643
19.84433,874665
19.85245,690090
19.86057,511849
19.86870,426895
19.87682,388082
19.88495,379614
19.89307,419403
19.90118,487981
19.90932,524972
19.91743,569471
19.92555,573813
19.93368,529796
19.94180,476144
19.94993,428297
19.95805,364046
19.96617,346173
19.97430,329166
19.98242,299856
19.99055,290471
19.99867,286237
20.00678,286188
20.01492,291965
20.02303,306823
20.03117,325828
20.03928,333592
20.04740,348961
20.05553,373550
20.06365,436982
20.07177,589795
20.07990,865136
20.08802,1159197
20.09615,1491284
20.10427,1694953
20.11238,1703477
20.12052,1500722
20.12863,1234295
20.13677,975632
20.14488,807128
20.15300,843175
20.16113,1202644
20.16925,2081853
20.17738,3680765
20.18550,5854300
20.19362,8559020
20.20175,1.092692E+07
20.20987,1.249806E+07
20.21798,1.263822E+07
20.22612,1.126347E+07
20.23423,9298261
20.24237,7193024
20.25048,5421928
20.25860,4952005
20.26673,5416246
20.27485,6489155
20.28298,7843583
20.29110,8744271
20.29922,8716967
20.30735,7784726
20.31547,6405855
20.32358,4782843
20.33172,3323961
20.33983,2230707
20.34797,1534337
20.35608,1102456
20.36420,810697
20.37233,644138
20.38045,554927
20.38858,457917
20.39670,413609
20.40482,378511
20.41295,336669
20.42107,324482
20.42920,311163
20.43732,312751
20.44543,343599
20.45357,377420
20.46168,426336
20.46980,436453
20.47793,448243
20.48605,429530
20.49418,377525
20.50230,331568
20.51042,294623
20.51855,259093
20.52667,239161
20.53480,216441
20.54292,219524
20.55103,224586
20.55917,232061
20.56728,234260
20.57540,230325
20.58353,220101
20.59165,217125
20.59978,217518
20.60790,199980
20.61602,194342
20.62415,194619
20.63227,204862
20.64040,216975
20.64852,258124
20.65663,283235
20.66477,300277
20.67288,326371
20.68102,313800
20.68913,290289
20.69725,256248
20.70538,227999
20.71350,196232
20.72162,192790
20.72975,189935
20.73787,179983
20.74600,178932
20.75412,211193
20.76223,224575
20.77037,255279
20.77848,299063
20.78662,354205
20.79473,520264
20.80285,897686
20.81098,1596274
20.81910,2709223
20.82723,3828324
20.83535,4607683
20.84347,4703325
20.85160,3847623
20.85972,2710303
20.86783,1646896
20.87597,948539
20.88408,550125
20.89222,373995
20.90033,313215
20.90845,288408
20.91658,311366
20.92470,346413
20.93283,406951
20.94095,464745
20.94907,511190
20.95720,529868
20.96532,515461
20.97343,460770
20.98157,394570
20.98968,323150
20.99782,274895
21.00593,246121
21.01405,226650
21.02218,225747
21.03030,226150
21.03843,234194
21.04655,253873
21.05467,261734
21.06280,252924
21.07092,237484
21.07905,216797
21.08717,209777
21.09528,185830
21.10342,187025
21.11153,179986
21.11965,171578
21.12778,178475
21.13590,203457
21.14403,279582
21.15215,440930
21.16027,700673
21.16840,1046416
21.17652,1341714
21.18465,1458232
21.19277,1340824
21.20088,1067421
21.20902,768962
21.21713,532068
21.22527,405647
21.23338,324810
21.24150,269357
21.24963,247631
21.25775,223795
21.26587,206431
21.27400,184267
21.28212,177190
21.29025,175383
21.29837,171666
21.30648,162912
21.31462,163924
21.32273,157020
21.33087,158690
21.33898,152083
21.34710,160605
21.35523,153050
21.36335,163599
21.37147,164272
21.37960,170827
21.38772,185599
21.39585,205678
21.40397,246824
21.41208,289056
21.42022,368104
21.42833,442175
21.43647,499943
21.44458,536420
21.45270,538247
21.46083,492355
21.46895,416430
21.47708,367583
21.48520,314217
21.49332,267021
21.50145,245072
21.50957,216805
21.51768,191955
21.52582,180495
21.53393,172055
21.54207,164005
21.55018,170081
21.55830,158091
21.56643,158209
21.57455,161500
21.58268,173166
21.59080,186908
21.59892,222376
21.60705,242039
21.61517,251369
21.62330,258581
21.63142,237472
21.63953,240415
21.64767,267883
21.65578,298114
21.66390,354161
21.67203,414128
21.68015,486733
21.68828,538450
21.69640,537437
21.70452,530717
21.71265,466150
21.72077,400104
21.72890,324253
21.73702,254352
21.74513,214862
21.75327,193684
21.76138,184600
21.76950,175289
21.77763,172724
21.78575,178633
21.79388,175006
21.80200,178882
21.81012,178384
21.81825,194213
21.82637,203031
21.83450,205620
21.84262,232816
21.85073,258484
21.85887,300058
21.86698,331536
21.87512,349083
21.88323,316753
21.89135,285349
21.89948,253982
21.90760,234452
21.91572,200232
21.92385,201480
21.93197,188352
21.94010,177187
21.94822,165995
21.95633,151723
21.96447,139448
21.97258,140137
21.98072,130490
21.98883,126078
21.99695,121830
22.00508,116762
22.01320,124738
22.02132,128447
22.02945,139181
22.03757,149947
22.04570,170631
22.05382,184156
22.06193,178600
22.07007,182081
22.07818,189581
22.08632,173103
22.09443,169042
22.10255,160899
22.11068,158943
22.11880,149376
22.12693,138108
22.13505,124747
22.14317,118679
22.15130,118333
22.15942,112640
22.16753,116488
22.17567,107902
22.18378,111527
22.19192,115109
22.20003,118509
22.20815,115292
22.21628,111864
22.22440,112338
22.23253,119490
22.24065,132593
22.24877,146107
22.25690,160610
22.26502,170075
22.27315,172360
22.28127,176912
22.28938,196107
22.29752,226349
22.30563,252710
22.31375,259301
22.32188,257715
22.33000,244214
22.33813,213933
22.34625,185934
22.35437,178483
22.36250,157785
22.37062,143829
22.37875,136968
22.38687,144121
22.39498,186832
22.40312,266877
22.41123,414205
22.41935,663996
22.42748,901743
22.43560,1102470
22.44373,1154283
22.45185,1075072
22.45997,856131
22.46810,610408
22.47622,421964
22.48435,330093
22.49247,296529
22.50058,313974
22.50872,384866
22.51683,488034
22.52497,586871
22.53308,654677
22.54120,673458
22.54933,612481
22.55745,536977
22.56557,431772
22.57370,347658
22.58182,283922
22.58995,239078
22.59807,214260
22.60618,194385
22.61432,187129
22.62243,148923
22.63057,145089
22.63868,139708
22.64680,134371
22.65493,150871
22.66305,155552
22.67118,165668
22.67930,165169
22.68742,172203
22.69555,175768
22.70367,200078
22.71178,233165
22.71992,291990
22.72803,333251
22.73617,383007
22.74428,381498
22.75240,338120
22.76053,281875
22.76865,242044
22.77678,216870
22.78490,203408
22.79302,226406
22.80115,269934
22.80927,326357
22.81738,418537
22.82552,486551
22.83363,507659
22.84177,484549
22.84988,418697
22.85800,350213
22.86613,337980
22.87425,352816
22.88238,420246
22.89050,536475
22.89862,707891
22.90675,845273
22.91487,944071
22.92300,971170
22.93112,981312
22.93923,964863
22.94737,933148
22.95548,837051
22.96360,681678
22.97173,528965
22.97985,403294
22.98798,298468
22.99610,243329
23.00422,197387
23.01235,181278
23.02047,167569
23.02860,157565
23.03672,141496
23.04483,134052
23.05297,138900
23.06108,137800
23.06920,155977
23.07733,179203
23.08545,196054
23.09358,202187
23.10170,210099
23.10982,208128
23.11795,183701
23.12607,162173
23.13420,153404
23.14232,152041
23.15043,157110
23.15857,158964
23.16668,154545
23.17482,147925
23.18293,139117
23.19105,121404
23.19918,122255
23.20730,111795
23.21542,106233
23.22355,100266
23.23167,93917
23.23980,102547
23.24792,111116
23.25603,126082
23.26417,166756
23.27228,215924
23.28042,261583
23.28853,283473
23.29665,280280
23.30478,238585
23.31290,204423
23.32103,166795
23.32915,152477
23.33727,160752
23.34540,207460
23.35352,279441
23.36163,414545
23.36977,590825
23.37788,746877
23.38602,783867
23.39413,761648
23.40225,651573
23.41038,514212
23.41850,385552
23.42663,262990
23.43475,205490
23.44287,150362
23.45100,123759
23.45912,112215
23.46723,103893
23.47537,103697
23.48348,107868
23.49162,99769
23.49973,92002
23.50785,92478
23.51598,93848
23.52410,91231
23.53223,100220
23.54035,102781
23.54847,113508
23.55660,131039
23.56472,161535
23.57285,217315
23.58097,318217
23.58908,485103
23.59722,764832
23.60533,1053862
23.61345,1335371
23.62158,1485114
23.62970,1411318
23.63783,1152477
23.64595,836447
23.65407,562349
23.66220,383216
23.67032,268802
23.67845,219336
23.68657,186632
23.69468,174147
23.70282,154578
23.71093,138822
23.71907,126375
23.72718,121082
23.73530,117595
23.74343,120192
23.75155,116244
23.75967,149704
23.76780,248241
23.77592,537393
23.78405,1187254
23.79217,2279801
23.80028,3663145
23.80842,4569282
23.81653,4834340
23.82467,4232322
23.83278,3388648
23.84090,2479620
23.84903,1748031
23.85715,1237831
23.86527,952004
23.87340,762906
23.88152,633048
23.88965,548153
23.89777,528363
23.90588,533983
23.91402,570973
23.92213,677037
23.93027,770862
23.93838,818928
23.94650,773393
23.95463,685025
23.96275,556633
23.97088,442622
23.97900,355569
23.98712,312124
23.99525,282760
24.00337,269962
24.01148,263153
24.01962,274967
24.02773,304787
24.03587,350811
24.04398,407538
24.05210,453109
24.06023,445697
24.06835,401295
24.07648,317085
24.08460,269390
24.09272,224959
24.10085,190254
24.10897,186007
24.11708,184286
24.12522,181566
24.13333,194372
24.14147,224401
24.14958,279019
24.15770,360137
24.16583,451992
24.17395,516256
24.18208,534722
24.19020,532050
24.19832,506871
24.20645,499767
24.21457,483130
24.22270,466778
24.23082,423881
24.23893,368404
24.24707,318186
24.25518,290759
24.26330,265806
24.27143,231357
24.27955,212373
24.28768,192816
24.29580,177624
24.30392,178661
24.31205,179338
24.32017,189428
24.32830,201438
24.33642,217993
24.34453,218888
24.35267,212682
24.36078,205743
24.36892,203133
24.37703,172145
24.38515,162345
24.39328,156438
24.40140,159778
24.40952,166897
24.41765,185432
24.42577,198295
24.43390,222865
24.44202,229813
24.45013,218037
24.45827,188154
24.46638,176819
24.47452,174422
24.48263,165113
24.49075,173827
24.49888,187781
24.50700,193481
24.51513,194089
24.52325,205714
24.53137,217475
24.53950,261471
24.54762,327383
24.55573,392851
24.56387,471504
24.57198,564604
24.58012,603883
24.58823,567740
24.59635,516585
24.60448,431747
24.61260,361081
24.62073,297334
24.62885,256984
24.63697,221981
24.64510,188054
24.65322,174254
24.66133,170415
24.66947,176413
24.67758,168327
24.68572,178370
24.69383,175748
24.70195,168863
24.71008,163816
24.71820,162784
24.72633,157443
24.73445,158244
24.74257,163956
24.75070,169764
24.75882,173602
24.76695,179291
24.77507,179665
24.78318,205504
24.79132,225679
24.79943,247471
24.80755,260743
24.81568,282088
24.82380,274328
24.83193,277506
24.84005,317758
24.84817,379891
24.85630,505103
24.86442,712112
24.87255,992655
24.88067,1445554
24.88878,2084841
24.89692,2844213
24.90503,3526910
24.91315,3978880
24.92128,3792020
24.92940,3134721
24.93753,2200202
24.94565,1412913
24.95377,853674
24.96190,531106
24.97002,355653
24.97815,260094
24.98627,214997
24.99438,188738
25.00252,177745
25.01063,172876
25.01877,160416
25.02688,157412
25.03500,159858
25.04313,163494
25.05125,163252
25.05937,158875
25.06750,161978
25.07562,157490
25.08375,161331
25.09187,177606
25.09998,199841
25.10812,281599
25.11623,564585
25.12437,1365886
25.13248,3168089
25.14060,6516611
25.14873,1.133414E+07
25.15685,1.650549E+07
25.16498,1.958746E+07
25.17310,2.003177E+07
25.18122,1.799701E+07
25.18935,1.339252E+07
25.19747,8696067
25.20558,4917839
25.21372,2602680
25.22183,1378515
25.22997,785670
25.23808,513043
25.24620,407920
25.25433,445246
25.26245,570468
25.27058,768414
25.27870,960768
25.28682,1104764
25.29495,1140873
25.30307,1017287
25.31118,812555
25.31932,611817
25.32743,438106
25.33557,309246
25.34368,227499
25.35180,197813
25.35993,171517
25.36805,154955
25.37618,147816
25.38430,137112
25.39242,138232
25.40055,128111
25.40867,127836
25.41680,122084
25.42492,121207
25.43303,114325
25.44117,111293
25.44928,118199
25.45740,113289
25.46553,120002
25.47365,121746
25.48178,130993
25.48990,129558
25.49802,135771
25.50615,144236
25.51427,140398
25.52240,133340
25.53052,130608
25.53863,120303
25.54677,115057
25.55488,113270
25.56302,117863
25.57113,109398
25.57925,113850
25.58738,115147
25.59550,120719
25.60362,126078
25.61175,119041
25.61987,124469
25.62800,118289
25.63612,108514
25.64423,109882
25.65237,107243
25.66048,114453
25.66862,110490
25.67673,122472
25.68485,139559
25.69298,155848
25.70110,171801
25.70922,192724
25.71735,207539
25.72547,204811
25.73360,190248
25.74172,174208
25.74983,156631
25.75797,143034
25.76608,128722
25.77422,116282
25.78233,121541
25.79045,122113
25.79858,132078
25.80670,141706
25.81483,152635
25.82295,150239
25.83107,133842
25.83920,117576
25.84732,121487
25.85543,118494
25.86357,119802
25.87168,121224
25.87982,120236
25.88793,119815
25.89605,125944
25.90418,124008
25.91230,132990
25.92043,129619
25.92855,120547
25.93667,124126
25.94480,126790
25.95292,126597
25.96103,129849
25.96917,143014
25.97728,146366
25.98542,142072
25.99353,137990
26.00165,130160
26.00978,126029
26.01790,113965
26.02603,109602
26.03415,99991
26.04227,102868
26.05040,101693
26.05852,105832
26.06665,110351
26.07477,117798
26.08288,130887
26.09102,146607
26.09913,152558
26.10725,158731
26.11538,170125
26.12350,159680
26.13163,151844
26.13975,145473
26.14787,136952
26.15600,150141
26.16412,161816
26.17225,162981
26.18037,189665
26.18848,192720
26.19662,234284
26.20473,288846
26.21287,355302
26.22098,385862
26.22910,413472
26.23723,407079
26.24535,410862
26.25347,421403
26.26160,396800
26.26972,397951
26.27785,388327
26.28597,388214
26.29408,383167
26.30222,383078
26.31033,387061
26.31847,377193
26.32658,388652
26.33470,376467
26.34283,380090
26.35095,388216
26.35907,472158
26.36720,600005
26.37532,922818
26.38345,1512788
26.39157,2439175
26.39968,3489658
26.40782,4487080
26.41593,5050355
26.42407,4821477
26.43218,4258712
26.44030,3398398
26.44843,2482385
26.45655,1693021
26.46468,1189840
26.47280,852560
26.48092,646670
26.48905,556227
26.49717,500844
26.50528,465913
26.51342,439395
26.52153,401535
26.52967,389913
26.53778,375612
26.54590,363825
26.55403,341496
26.56215,335002
26.57028,341908
26.57840,334075
26.58652,335362
26.59465,333633
26.60277,322238
26.61090,331927
26.61902,330853
26.62713,339512
26.63527,332975
26.64338,329909
26.65150,324861
26.65963,316191
26.66775,322434
26.67588,324308
26.68400,326609
26.69212,325940
26.70025,311741
26.70837,316342
26.71650,311738
26.72462,313310
26.73273,302577
26.74087,308587
26.74898,312292
26.75710,316369
26.76523,313715
26.77335,311052
26.78148,318598
26.78960,314080
26.79772,309252
26.80585,319317
26.81397,324982
26.82210,330134
26.83022,322775
26.83833,322883
26.84647,317348
26.85458,314369
26.86272,308147
26.87083,312691
26.87895,297669
26.88708,288202
26.89520,306592
26.90332,308383
26.91145,302529
26.91957,289198
26.92770,278972
26.93582,276193
26.94393,279465
26.95207,263393
26.96018,268615
26.96832,281173
26.97643,321566
26.98455,374388
26.99268,544537
27.00080,880154
27.00893,1474791
27.01705,2351455
27.02517,3231499
27.03330,3918145
27.04142,3946387
27.04953,3621270
27.05767,2986491
27.06578,2281985
27.07392,1677386
27.08203,1269630
27.09015,985226
27.09828,812359
27.10640,704646
27.11453,651222
27.12265,600600
27.13077,561974
27.13890,531468
27.14702,511665
27.15513,488245
27.16327,468899
27.17138,499205
27.17952,548738
27.18763,629650
27.19575,731221
27.20388,812211
27.21200,824730
27.22013,782845
27.22825,694744
27.23637,598564
27.24450,512386
27.25262,448227
27.26075,422215
27.26887,375277
27.27698,350884
27.28512,329151
27.29323,320701
27.30135,305393
27.30948,299509
27.31760,301588
27.32573,308286
27.33385,320996
27.34197,316301
27.35010,308447
27.35822,319466
27.36635,327312
27.37447,327246
27.38258,321215
27.39072,321397
27.39883,318745
27.40695,302683
27.41508,288064
27.42320,287767
27.43133,281493
27.43945,282418
27.44757,284240
27.45570,281357
27.46382,271527
27.47195,267896
27.48007,253710
27.48818,248161
27.49632,240450
27.50443,229700
27.51257,224275
27.52068,226080
27.52880,226292
27.53693,221684
27.54505,221521
27.55317,229198
27.56130,230248
27.56942,235394
27.57755,243658
27.58567,274579
27.59378,310517
27.60192,367435
27.61003,436952
27.61817,467943
27.62628,463946
27.63440,440489
27.64253,381255
27.65065,343272
27.65878,310675
27.66690,289798
27.67502,273773
27.68315,269854
27.69127,294031
27.69938,296428
27.70752,318125
27.71563,316970
27.72377,310454
27.73188,272150
27.74000,262170
27.74813,226259
27.75625,200161
27.76438,187812
27.77250,185116
27.78062,189757
27.78875,206800
27.79687,215115
27.80498,214987
27.81312,226020
27.82123,221937
27.82937,211234
27.83748,202485
27.84560,187033
27.85373,183037
27.86185,178199
27.86998,171910
27.87810,174723
27.88622,161497
27.89435,171116
27.90247,167092
27.91060,162801
27.91872,174177
27.92683,169408
27.93497,170525
27.94308,164631
27.95120,164114
27.95933,170408
27.96745,165412
27.97558,165365
27.98370,157682
27.99182,157950
27.99995,161177
28.00807,171953
28.01620,181204
28.02432,209949
28.03243,247028
28.04057,319930
28.04868,425993
28.05682,566640
28.06493,644028
28.07305,673890
28.08118,603416
28.08930,506226
28.09742,384369
28.10555,288914
28.11367,217875
28.12180,184463
28.12992,171379
28.13803,153150
28.14617,154882
28.15428,144076
28.16242,147201
28.17053,145584
28.17865,146580
28.18678,154962
28.19490,161733
28.20302,192077
28.21115,224330
28.21927,282584
28.22740,348299
28.23552,387308
28.24363,416430
28.25177,397500
28.25988,376026
28.26802,308021
28.27613,250488
28.28425,203846
28.29238,177387
28.30050,165362
28.30863,176516
28.31675,215163
28.32487,258194
28.33300,325787
28.34112,378130
28.34923,411974
28.35737,433404
28.36548,467243
28.37362,478723
28.38173,514143
28.38985,541130
28.39798,548861
28.40610,541802
28.41423,510294
28.42235,485027
28.43047,468275
28.43860,416585
28.44672,372347
28.45483,326418
28.46297,297636
28.47108,273644
28.47922,262591
28.48733,268201
28.49545,285696
28.50358,305083
28.51170,355023
28.51983,388303
28.52795,398563
28.53607,394041
28.54420,355404
28.55232,304151
28.56045,246092
28.56857,208502
28.57668,176362
28.58482,157278
28.59293,152225
28.60105,151618
28.60918,156096
28.61730,169384
28.62543,170889
28.63355,184840
28.64167,209819
28.64980,226760
28.65792,236336
28.66605,236556
28.67417,228479
28.68228,208195
28.69042,191277
28.69853,175381
28.70667,154795
28.71478,148382
28.72290,143497
28.73103,136094
28.73915,127241
28.74727,124957
28.75540,126805
28.76352,129229
28.77165,128210
28.77977,133907
28.78788,146104
28.79602,155082
28.80413,179886
28.81227,188502
28.82038,204766
28.82850,212895
28.83663,218645
28.84475,191495
28.85287,189710
28.86100,170646
28.86912,157729
28.87725,161523
28.88537,168253
28.89348,181166
28.90162,217077
28.90973,245617
28.91787,261920
28.92598,272529
28.93410,250267
28.94223,227021
28.95035,207565
28.95848,183626
28.96660,168356
28.97472,162161
28.98285,155990
28.99097,141739
28.99908,132903
29.00722,125059
29.01533,120883
29.02347,119984
29.03158,123843
29.03970,122404
29.04783,119284
29.05595,120809
29.06408,117743
29.07220,115963
29.08032,115702
29.08845,123519
29.09657,127535
29.10470,135272
29.11282,145822
29.12093,134162
29.12907,129412
29.13718,118480
29.14530,110819
29.15343,103378
29.16155,106991
29.16968,107073
29.17780,107510
29.18592,109485
29.19405,127810
29.20217,150585
29.21030,194925
29.21842,257513
29.22653,335368
29.23467,367750
29.24278,393492
29.25090,365786
29.25903,342177
29.26715,320525
29.27528,298639
29.28340,274762
29.29152,242969
29.29965,207445
29.30777,166929
29.31590,148691
29.32402,131367
29.33213,120143
29.34027,110308
29.34838,102973
29.35652,107013
29.36463,99461
29.37275,102629
29.38088,109316
29.38900,102340
29.39712,99794
29.40525,108230
29.41337,113317
29.42150,115888
29.42962,120834
29.43773,129151
29.44587,129433
29.45398,124230
29.46212,119504
29.47023,118735
29.47835,107194
29.48648,103497
29.49460,108611
29.50272,108762
29.51085,109880
29.51897,114237
29.52710,125659
29.53522,120269
29.54333,120200
29.55147,118468
29.55958,116435
29.56772,108081
29.57583,107048
29.58395,102561
29.59208,98223
29.60020,94108
29.60833,95082
29.61645,93532
29.62457,91547
29.63270,93195
29.64082,95922
29.64893,94212
29.65707,91519
29.66518,94746
29.67332,92758
29.68143,99432
29.68955,105701
29.69768,123281
29.70580,133147
29.71393,152746
29.72205,153079
29.73017,148059
29.73830,131364
29.74642,120962
29.75455,114439
29.76267,104180
29.77078,102018
29.77892,90626
29.78703,89989
29.79515,91257
29.80328,88153
29.81140,90564
29.81953,89066
29.82765,89925
29.83577,81600
29.84390,85722
29.85202,84934
29.86015,88748
29.86827,94994
29.87638,98399
29.88452,108043
29.89263,136368
29.90077,166752
29.90888,220076
29.91700,261094
29.92513,271039
29.93325,254532
29.94137,203930
29.94950,164031
29.95762,142021
29.96575,117095
29.97387,113756
29.98198,118812
29.99012,127208
29.99823,144374
30.00637,157331
30.01448,183033
30.02260,197604
30.03073,223516
30.03885,233082
30.04697,243774
30.05510,242857
30.06322,243131
30.07135,245315
30.07947,237326
30.08758,241647
30.09572,226179
30.10383,217760
30.11197,204402
30.12008,190185
30.12820,186259
30.13633,181120
30.14445,167359
30.15258,166358
30.16070,154610
30.16882,155083
30.17695,154896
30.18507,162829
30.19318,171385
30.20132,176274
30.20943,203320
30.21757,212926
30.22568,222800
30.23380,215473
30.24193,197861
30.25005,164749
30.25818,152823
30.26630,134664
30.27442,121137
30.28255,117598
30.29067,111543
30.29878,106243
30.30692,114432
30.31503,107429
30.32317,108602
30.33128,109809
30.33940,105749
30.34753,104726
30.35565,111521
30.36378,107639
30.37190,111432
30.38002,112713
30.38815,107409
30.39627,110310
30.40440,101059
30.41252,93660
30.42063,94857
30.42877,97337
30.43688,94080
30.44500,90834
30.45313,89062
30.46125,98289
30.46938,95003
30.47750,99959
30.48562,98199
30.49375,103222
30.50187,104198
30.51000,110588
30.51812,109865
30.52623,107430
30.53437,107796
30.54248,106540
30.55062,108112
30.55873,111199
30.56685,107588
30.57498,109152
30.58310,125081
30.59122,121876
30.59935,115579
30.60747,114404
30.61560,118819
30.62372,119289
30.63183,113091
30.63997,106765
30.64808,99681
30.65622,107550
30.66433,101009
30.67245,99931
30.68058,95675
30.68870,92481
30.69682,94266
30.70495,89139
30.71307,86083
30.72120,87612
30.72932,92196
30.73743,93027
30.74557,95896
30.75368,94683
30.76182,93216
30.76993,96798
30.77805,94723
30.78618,103659
30.79430,134663
30.80243,173934
30.81055,244381
30.81867,308765
30.82680,387211
30.83492,418998
30.84303,373139
30.85117,297938
30.85928,237305
30.86742,181762
30.87553,163238
30.88365,154006
30.89178,150364
30.89990,155270
30.90803,156663
30.91615,141858
30.92427,145767
30.93240,127240
30.94052,119156
30.94865,109016
30.95677,104349
30.96488,110995
30.97302,103462
30.98113,113049
30.98925,109457
30.99738,107345
31.00550,105717
31.01363,100595
31.02175,92919
31.02987,93977
31.03800,96861
31.04612,92113
31.05425,99135
31.06237,105258
31.07048,93609
31.07862,99848
31.08673,97379
31.09485,108452
31.10298,120642
31.11110,141733
31.11923,168461
31.12735,173592
31.13547,182409
31.14360,164896
31.15172,148085
31.15985,148325
31.16797,142197
31.17608,150532
31.18422,157696
31.19233,167288
31.20047,178668
31.20858,222265
31.21670,277854
31.22483,354728
31.23295,445448
31.24107,511883
31.24920,524631
31.25732,464075
31.26545,365173
31.27357,271417
31.28168,192728
31.28982,141161
31.29793,119182
31.30607,112513
31.31418,109001
31.32230,109201
31.33043,116426
31.33855,128629
31.34667,141756
31.35480,143765
31.36292,135171
31.37105,135902
31.37917,131322
31.38728,118869
31.39542,109374
31.40353,99549
31.41167,89676
31.41978,90233
31.42790,89423
31.43603,98165
31.44415,93592
31.45228,95727
31.46040,95105
31.46852,99199
31.47665,93314
31.48477,106555
31.49288,100256
31.50102,107083
31.50913,118620
31.51727,133756
31.52538,144935
31.53350,169251
31.54163,188677
31.54975,200300
31.55788,188841
31.56600,174210
31.57412,176373
31.58225,150244
31.59037,129324
31.59850,122718
31.60662,108747
31.61473,99401
31.62287,99290
31.63098,99008
31.63910,100717
31.64723,99390
31.65535,103947
31.66348,111439
31.67160,133784
31.67972,139008
31.68785,152156
31.69597,161600
31.70410,161792
31.71222,154569
31.72033,131599
31.72847,116143
31.73658,102202
31.74470,99942
31.75283,91744
31.76095,87510
31.76908,90223
31.77720,90526
31.78532,86148
31.79345,91890
31.80157,93146
31.80970,90834
31.81782,96641
31.82593,93823
31.83407,92070
31.84218,100434
31.85032,88716
31.85843,97978
31.86655,95817
31.87468,92894
31.88280,106465
31.89092,92652
31.89905,99408
31.90717,95285
31.91530,100474
31.92342,93953
31.93153,95245
31.93967,106220
31.94778,103900
31.95592,119806
31.96403,127943
31.97215,150351
31.98028,155544
31.98840,166989
31.99653,189423
32.00465,207450
32.01277,224314
32.02090,246783
32.02902,249317
32.03713,248088
32.04527,226894
32.05338,205686
32.06152,189399
32.06963,167989
32.07775,145540
32.08588,128591
32.09400,133614
32.10213,122193
32.11025,129247
32.11837,128088
32.12650,120601
32.13462,118516
32.14273,112425
32.15087,108209
32.15898,105280
32.16712,97135
32.17523,100647
32.18335,98600
32.19148,100176
32.19960,101873
32.20773,101224
32.21585,95764
32.22397,103814
32.23210,100133
32.24022,96057
32.24835,99167
32.25647,97153
32.26458,94206
32.27272,95520
32.28083,97695
32.28895,96929
32.29708,101249
32.30520,102449
32.31333,100084
32.32145,97667
32.32957,93269
32.33770,97754
32.34582,94788
32.35395,92451
32.36207,98501
32.37018,102128
32.37832,102331
32.38643,96555
32.39457,97102
32.40268,93476
32.41080,94940
32.41893,95420
32.42705,89182
32.43517,89063
32.44330,91208
32.45142,86727
32.45955,89577
32.46767,87665
32.47578,88687
32.48392,93461
32.49203,89547
32.50017,94063
32.50828,95679
32.51640,95382
32.52453,96553
32.53265,105139
32.54077,97284
32.54890,90820
32.55702,98183
32.56515,93886
32.57327,99147
32.58138,103131
32.58952,95901
32.59763,101757
32.60577,100302
32.61388,99872
32.62200,95570
32.63013,97629
32.63825,94482
32.64638,101172
32.65450,99966
32.66262,99232
32.67075,97111
32.67887,102796
32.68698,98319
32.69512,110905
32.70323,111219
32.71137,112356
32.71948,110913
32.72760,112158
32.73573,109039
32.74385,100946
32.75198,99852
32.76010,96551
32.76822,94657
32.77635,92366
32.78447,89055
32.79258,88117
32.80072,91839
32.80883,86827
32.81697,90391
32.82508,91290
32.83320,93813
32.84133,100951
32.84945,100803
32.85758,98823
32.86570,95808
32.87382,99404
32.88195,97786
32.89007,107985
32.89820,110007
32.90632,109242
32.91443,119737
32.92257,115990
32.93068,116154
32.93880,121014
32.94693,113964
32.95505,102899
32.96318,95824
32.97130,95967
32.97942,99795
32.98755,117622
32.99567,141361
33.00380,192650
33.01192,245077
33.02003,292560
33.02817,305551
33.03628,286833
33.04442,235988
33.05253,199925
33.06065,167618
33.06878,174974
33.07690,190996
33.08502,224650
33.09315,270098
33.10127,324543
33.10940,392483
33.11752,471625
33.12563,507589
33.13377,465113
33.14188,423161
33.15002,345841
33.15813,269946
33.16625,228309
33.17438,200937
33.18250,175376
33.19062,150653
33.19875,137861
33.20687,124989
33.21500,123014
33.22312,116453
33.23123,107420
33.23937,120254
33.24748,121084
33.25562,119293
33.26373,114584
33.27185,117181
33.27998,111970
33.28810,108399
33.29623,104944
33.30435,111066
33.31247,115466
33.32060,113401
33.32872,119420
33.33683,122162
33.34497,118249
33.35308,124802
33.36122,136054
33.36933,144522
33.37745,162956
33.38558,168275
33.39370,162621
33.40183,148974
33.40995,128351
33.41807,108929
33.42620,103176
33.43432,98884
33.44245,96553
33.45057,91228
33.45868,85924
33.46682,84033
33.47493,85975
33.48305,81627
33.49118,85693
33.49930,89170
33.50743,95635
33.51555,98638
33.52367,101488
33.53180,104166
33.53992,114741
33.54805,117962
33.55617,128181
33.56428,139469
33.57242,159336
33.58053,157557
33.58865,151676
33.59678,144352
33.60490,125451
33.61303,105120
33.62115,96816
33.62927,101088
33.63740,95090
33.64552,109954
33.65365,111463
33.66177,117934
33.66988,119076
33.67802,126559
33.68613,128489
33.69427,125822
33.70238,116542
33.71050,107382
33.71863,96289
33.72675,86377
33.73487,88921
33.74300,89041
33.75112,81831
33.75925,85190
33.76737,84547
33.77548,85230
33.78362,87645
33.79173,83134
33.79987,81292
33.80798,83805
33.81610,80933
33.82423,85817
33.83235,85797
33.84047,84299
33.84860,82669
33.85672,82386
33.86485,86029
33.87297,92764
33.88108,89714
33.88922,92895
33.89733,97179
33.90547,98423
33.91358,100638
33.92170,105117
33.92983,100879
33.93795,98295
33.94608,95827
33.95420,90757
33.96232,82369
33.97045,87400
33.97857,86641
33.98668,85128
33.99482,83798
34.00293,86489
34.01107,82658
34.01918,79008
34.02730,79312
34.03543,76985
34.04355,85190
34.05168,85678
34.05980,85577
34.06792,81177
34.07605,87874
34.08417,88034
34.09230,85674
34.10042,82478
34.10853,81247
34.11667,84803
34.12478,82701
34.13290,84237
34.14103,84968
34.14915,83510
34.15728,84575
34.16540,89768
34.17352,81860
34.18165,83885
34.18977,88594
34.19790,92206
34.20602,88781
34.21413,78628
34.22227,83072
34.23038,88366
34.23852,84811
34.24663,80386
34.25475,83263
34.26288,82077
34.27100,81165
34.27912,79145
34.28725,84079
34.29537,78314
34.30350,78402
34.31162,81792
34.31973,78337
34.32787,84115
34.33598,78203
34.34412,78734
34.35223,83753
34.36035,78799
34.36848,80615
34.37660,84854
34.38472,86718
34.39285,82220
34.40097,82529
34.40910,77189
34.41722,84245
34.42533,82366
34.43347,77728
34.44158,79961
34.44972,81847
34.45783,80964
34.46595,79986
34.47408,87919
34.48220,82695
34.49033,84041
34.49845,79810
34.50657,79495
34.51470,79197
34.52282,86918
34.53093,87199
34.53907,93275
34.54718,99654
34.55532,111810
34.56343,125796
34.57155,137679
34.57968,156417
34.58780,158040
34.59593,161794
34.60405,150871
34.61217,137766
34.62030,131300
34.62842,114784
34.63653,112014
34.64467,102358
34.65278,100823
34.66092,96606
34.66903,91926
34.67715,96880
34.68528,95292
34.69340,91664
34.70153,88863
34.70965,92799
34.71777,92197
34.72590,92404
34.73402,88329
34.74215,89731
34.75027,85216
34.75838,88241
34.76652,93055
34.77463,97434
34.78275,102967
34.79088,103991
34.79900,108565
34.80713,110557
34.81525,100894
34.82337,104082
34.83150,96216
34.83962,95240
34.84775,90304
34.85587,93682
34.86398,97671
34.87212,97264
34.88023,86916
34.88837,89882
34.89648,86149
34.90460,85384
34.91273,85503
34.92085,83886
34.92897,86165
34.93710,90782
34.94522,93161
34.95335,98197
34.96147,94083
34.96958,103095
34.97772,107766
34.98583,113441
34.99397,118698
35.00208,121452
35.01020,109761
35.01833,109153
35.02645,102710
35.03457,91987
35.04270,91123
35.05082,91683
35.05895,90910
35.06707,93122
35.07518,88964
35.08332,95291
35.09143,86831
35.09957,87349
35.10768,90051
35.11580,88550
35.12393,92687
35.13205,89791
35.14018,87275
35.14830,96455
35.15642,92539
35.16455,95400
35.17267,100384
35.18078,100916
35.18892,105639
35.19703,104460
35.20517,100163
35.21328,95502
35.22140,94495
35.22953,89057
35.23765,89869
35.24578,85370
35.25390,85268
35.26202,86904
35.27015,88300
35.27827,86523
35.28640,91521
35.29452,90406
35.30263,91308
35.31077,93333
35.31888,88639
35.32700,90197
35.33513,85541
35.34325,81854
35.35138,89670
35.35950,89136
35.36762,85493
35.37575,86807
35.38387,88194
35.39200,86226
35.40012,87272
35.40823,91802
35.41637,108610
35.42448,114280
35.43260,136323
35.44073,137523
35.44885,146300
35.45698,144966
35.46510,145226
35.47322,133599
35.48135,119503
35.48947,117694
35.49760,101857
35.50572,101567
35.51383,99465
35.52197,98589
35.53008,104807
35.53822,103972
35.54633,104790
35.55445,95381
35.56258,94106
35.57070,90325
35.57882,90317
35.58695,92335
35.59507,90166
35.60320,87886
35.61132,87064
35.61943,88807
35.62757,88113
35.63568,93879
35.64382,93422
35.65193,92523
35.66005,88990
35.66818,90456
35.67630,90714
35.68442,94960
35.69255,86418
35.70067,92126
35.70880,90780
35.71692,98190
35.72503,97839
35.73317,99899
35.74128,101715
35.74942,119474
35.75753,123258
35.76565,139960
35.77378,155746
35.78190,179156
35.79003,202463
35.79815,188648
35.80627,170662
35.81440,154592
35.82252,130658
35.83063,111763
35.83877,99262
35.84688,92795
35.85502,96681
35.86313,97547
35.87125,95434
35.87938,104143
35.88750,96234
35.89563,92471
35.90375,93506
35.91187,91333
35.92000,93931
35.92812,88085
35.93625,91539
35.94437,97026
35.95248,95157
35.96062,88461
35.96873,91117
35.97685,87300
35.98498,90093
35.99310,91588
36.00123,86516
36.00935,90309
36.01747,93846
36.02560,95306
36.03372,95816
36.04185,92676
36.04997,97953
36.05808,102824
36.06622,90475
36.07433,91925
36.08245,97330
36.09058,88240
36.09870,97247
36.10683,91665
36.11495,95107
36.12307,96229
36.13120,101274
36.13932,100808
36.14745,113555
36.15557,122672
36.16368,121734
36.17182,133285
36.17993,125184
36.18807,116275
36.19618,107246
36.20430,99253
36.21243,99213
36.22055,94248
36.22867,94733
36.23680,90594
36.24492,96260
36.25305,98829
36.26117,90981
36.26928,95767
36.27742,94790
36.28553,99254
36.29367,93185
36.30178,92363
36.30990,97621
36.31803,99089
36.32615,102794
36.33428,99921
36.34240,102445
36.35052,113164
36.35865,110273
36.36677,114521
36.37488,102503
36.38302,110125
36.39113,107483
36.39927,99861
36.40738,100274
36.41550,107320
36.42363,102835
36.43175,108959
36.43988,107068
36.44800,106333
36.45612,110692
36.46425,99963
36.47237,102176
36.48048,100934
36.48862,95520
36.49673,91876
36.50487,89250
36.51298,92503
36.52110,92111
36.52923,90507
36.53735,91425
36.54548,92288
36.55360,92633
36.56172,100755
36.56985,93420
36.57797,91855
36.58610,92224
36.59422,84664
36.60233,91133
36.61047,98222
36.61858,96410
36.62670,95197
36.63483,89741
36.64295,97684
36.65108,99906
36.65920,92421
36.66732,95904
36.67545,93324
36.68357,94666
36.69170,102003
36.69982,98206
36.70793,91832
36.71607,91018
36.72418,92535
36.73232,105852
36.74043,101385
36.74855,97618
36.75668,95675
36.76480,97090
36.77292,92689
36.78105,90955
36.78917,95423
36.79730,100283
36.80542,98853
36.81353,94755
36.82167,103471
36.82978,98297
36.83792,95426
36.84603,93342
36.85415,89001
36.86228,83035
36.87040,91488
36.87852,86345
36.88665,86742
36.89477,92683
36.90290,87949
36.91102,97594
36.91913,86807
36.92727,91018
36.93538,92301
36.94352,98693
36.95163,110344
36.95975,129584
36.96788,157093
36.97600,201586
36.98413,243488
36.99225,264157
37.00037,270947
37.00850,241172
37.01662,191011
37.02473,150772
37.03287,125846
37.04098,117904
37.04912,110823
37.05723,109814
37.06535,110222
37.07348,104521
37.08160,109689
37.08973,119332
37.09785,111997
37.10597,115450
37.11410,124469
37.12222,117129
37.13033,120344
37.13847,109884
37.14658,110389
37.15472,105373
37.16283,97456
37.17095,102156
37.17908,94352
37.18720,97585
37.19533,95902
37.20345,100365
37.21157,99659
37.21970,103210
37.22782,100498
37.23595,103862
37.24407,106470
37.25218,107242
37.26032,99740
37.26843,106878
37.27655,106349
37.28468,105962
37.29280,100424
37.30093,95161
37.30905,94044
37.31717,93595
37.32530,101275
37.33342,99913
37.34155,99992
37.34967,101441
37.35778,101236
37.36592,110942
37.37403,106588
37.38217,119699
37.39028,122075
37.39840,120015
37.40653,123245
37.41465,118581
37.42277,120209
37.43090,128349
37.43902,129577
37.44715,131464
37.45527,123700
37.46338,124370
37.47152,125058
37.47963,119163
37.48777,112294
