C:\MassHunter\GCMS\1\data\JTB-E02\BACandBLUE\JTB-E18-021-09.D Wed Jul 10 11:25:45 2019
Start of data points
2.09535,75164
2.10347,74544
2.11158,77091
2.11972,77530
2.12783,79231
2.13597,69470
2.14408,75218
2.15220,74558
2.16033,75156
2.16845,74369
2.17658,72747
2.18470,73534
2.19282,71261
2.20095,79293
2.20907,70873
2.21718,69667
2.22532,74152
2.23343,67720
2.24157,69179
2.24968,68693
2.25780,72031
2.26593,73429
2.27405,216529
2.28218,1170811
2.29030,1358159
2.29842,517156
2.30655,287248
2.31467,228408
2.32280,207745
2.33092,183139
2.33903,193395
2.34717,199431
2.35528,162947
2.36340,141501
2.37153,131276
2.37965,126910
2.38778,127862
2.39590,125739
2.40402,119704
2.41215,116968
2.42027,110565
2.42840,112546
2.43652,108576
2.44463,107548
2.45277,116811
2.46088,109840
2.46900,109439
2.47713,100978
2.48525,104242
2.49338,112325
2.50150,136384
2.50962,118812
2.51775,99480
2.52587,103426
2.53400,106734
2.54212,104479
2.55023,105209
2.55837,114012
2.56648,146557
2.57462,156502
2.58273,127315
2.59085,116856
2.59898,112945
2.60710,194979
2.61522,770217
2.62335,1093805
2.63147,598959
2.63960,347344
2.64772,250557
2.65583,206708
2.66397,176152
2.67208,160137
2.68022,146222
2.68833,133906
2.69645,129242
2.70458,123536
2.71270,119748
2.72082,118212
2.72895,115452
2.73707,109577
2.74520,109981
2.75332,103130
2.76143,104912
2.76957,100588
2.77768,103789
2.78582,156595
2.79393,280664
2.80205,245223
2.81018,166198
2.81830,160063
2.82643,173342
2.83455,165914
2.84267,145915
2.85080,125714
2.85892,115023
2.86703,110259
2.87517,113874
2.88328,107137
2.89142,108383
2.89953,104991
2.90765,107388
2.91578,98786
2.92390,93839
2.93203,97728
2.94015,94345
2.94827,100706
2.95640,100537
2.96452,107073
2.97265,128616
2.98077,121414
2.98888,105543
2.99702,100698
3.00513,103927
3.01325,103079
3.02138,100335
3.02950,95729
3.03763,96156
3.04575,94008
3.05387,96637
3.06200,91916
3.07012,96765
3.07825,106355
3.08637,282544
3.09448,1179231
3.10262,2426543
3.11073,3537753
3.11885,4169238
3.12698,2919510
3.13510,1706279
3.14323,1229891
3.15135,984604
3.15947,797931
3.16760,673205
3.17572,641135
3.18385,637857
3.19197,964077
3.20008,1737526
3.20822,1731969
3.21633,1165982
3.22447,851090
3.23258,715024
3.24070,613642
3.24883,530835
3.25695,474677
3.26507,425782
3.27320,379662
3.28132,349549
3.28945,397795
3.29757,770939
3.30568,2098998
3.31382,3912001
3.32193,4480497
3.33007,3504049
3.33818,2436851
3.34630,1802686
3.35443,1451070
3.36255,1228602
3.37068,1067109
3.37880,928931
3.38692,835202
3.39505,775597
3.40317,717088
3.41128,671555
3.41942,634848
3.42753,582670
3.43567,555631
3.44378,553693
3.45190,526058
3.46003,495942
3.46815,482389
3.47628,472722
3.48440,458796
3.49252,457718
3.50065,431380
3.50877,415055
3.51688,405524
3.52502,394513
3.53313,393579
3.54127,400920
3.54938,407327
3.55750,390977
3.56563,389934
3.57375,463393
3.58188,589704
3.59000,592188
3.59812,485011
3.60625,421235
3.61437,396953
3.62250,388085
3.63062,392645
3.63873,387819
3.64687,368415
3.65498,367142
3.66310,417576
3.67123,1182742
3.67935,3997151
3.68748,7076328
3.69560,6257512
3.70372,3673700
3.71185,2318241
3.71997,1762737
3.72810,1490826
3.73622,1272024
3.74433,1136116
3.75247,1033123
3.76058,957923
3.76870,886699
3.77683,811127
3.78495,766579
3.79308,751065
3.80120,750186
3.80932,984604
3.81745,1664358
3.82557,2133279
3.83370,1794989
3.84182,1255882
3.84993,1005148
3.85807,866304
3.86618,787440
3.87432,731011
3.88243,683662
3.89055,640899
3.89868,610919
3.90680,590042
3.91492,578323
3.92305,642624
3.93117,810190
3.93930,890894
3.94742,869133
3.95553,1177214
3.96367,2423120
3.97178,4041292
3.97992,4172050
3.98803,2894134
3.99615,2231731
4.00428,4610426
4.01240,1.252574E+07
4.02053,2.169385E+07
4.02865,2.213104E+07
4.03677,1.437027E+07
4.04490,7536669
4.05302,4418267
4.06113,3136483
4.06927,2446407
4.07738,1975207
4.08552,1666868
4.09363,1447098
4.10175,1276896
4.10988,1127283
4.11800,1041396
4.12613,941609
4.13425,906555
4.14237,939321
4.15050,1157292
4.15862,1281983
4.16673,1182288
4.17487,987821
4.18298,854177
4.19112,769197
4.19923,697860
4.20735,770657
4.21548,1705069
4.22360,5498248
4.23173,1.222022E+07
4.23985,1.75654E+07
4.24797,1.762076E+07
4.25610,1.220897E+07
4.26422,7057880
4.27235,4824179
4.28047,3564963
4.28858,2794725
4.29672,2274738
4.30483,1905990
4.31295,1669060
4.32108,1478456
4.32920,1332806
4.33733,1226269
4.34545,1132462
4.35357,1097100
4.36170,1088841
4.36982,1052981
4.37795,989376
4.38607,924590
4.39418,852590
4.40232,785410
4.41043,763863
4.41857,735532
4.42668,707909
4.43480,663032
4.44293,641952
4.45105,623138
4.45917,613182
4.46730,587556
4.47542,562609
4.48355,555249
4.49167,552948
4.49978,536535
4.50792,512805
4.51603,502373
4.52417,491901
4.53228,484099
4.54040,474479
4.54853,458845
4.55665,456951
4.56477,461654
4.57290,443795
4.58102,435051
4.58915,413692
4.59727,410596
4.60538,413279
4.61352,401976
4.62163,409088
4.62977,488560
4.63788,668227
4.64600,927022
4.65413,961712
4.66225,809642
4.67038,616033
4.67850,515396
4.68662,473601
4.69475,442532
4.70287,417120
4.71098,387139
4.71912,378139
4.72723,366728
4.73537,359196
4.74348,352706
4.75160,344106
4.75973,338526
4.76785,325033
4.77598,324358
4.78410,319914
4.79222,330381
4.80035,391140
4.80847,466965
4.81658,506326
4.82472,462826
4.83283,414707
4.84097,391313
4.84908,402416
4.85720,414223
4.86533,400079
4.87345,390577
4.88158,374374
4.88970,343535
4.89782,327008
4.90595,323824
4.91407,304857
4.92220,304525
4.93032,330420
4.93843,430684
4.94657,738572
4.95468,1304038
4.96280,1887371
4.97093,2108965
4.97905,1895078
4.98718,1528137
4.99530,1206169
5.00342,968576
5.01155,833908
5.01967,758917
5.02780,798480
5.03592,1040884
5.04403,1378549
5.05217,1529147
5.06028,1333799
5.06842,1075503
5.07653,880350
5.08465,789538
5.09278,717117
5.10090,667545
5.10902,633785
5.11715,612624
5.12527,556319
5.13340,554157
5.14152,519638
5.14963,510302
5.15777,543065
5.16588,577877
5.17402,594099
5.18213,586596
5.19025,551476
5.19838,525251
5.20650,547247
5.21463,576792
5.22275,564617
5.23087,541879
5.23900,513598
5.24712,480821
5.25523,458356
5.26337,434710
5.27148,406788
5.27962,380222
5.28773,363686
5.29585,371305
5.30398,360516
5.31210,348491
5.32023,347267
5.32835,352726
5.33647,358483
5.34460,368218
5.35272,367895
5.36083,358159
5.36897,338556
5.37708,343852
5.38522,331290
5.39333,338690
5.40145,350829
5.40958,341292
5.41770,346866
5.42583,324063
5.43395,314430
5.44207,306038
5.45020,316078
5.45832,331148
5.46645,317211
5.47457,309936
5.48268,295038
5.49082,293458
5.49893,282400
5.50705,290046
5.51518,283038
5.52330,291533
5.53143,286207
5.53955,281891
5.54767,278976
5.55580,275778
5.56392,298542
5.57205,322661
5.58017,355038
5.58828,342845
5.59642,334421
5.60453,303104
5.61265,278919
5.62078,277841
5.62890,268786
5.63703,279798
5.64515,278180
5.65327,272710
5.66140,275683
5.66952,269883
5.67765,284076
5.68577,312037
5.69388,342872
5.70202,364731
5.71013,339175
5.71827,307410
5.72638,277852
5.73450,267343
5.74263,262130
5.75075,258576
5.75887,248118
5.76700,244932
5.77512,243440
5.78325,238422
5.79137,241248
5.79948,239905
5.80762,233142
5.81573,224900
5.82387,238271
5.83198,238310
5.84010,228787
5.84823,238570
5.85635,230052
5.86448,226745
5.87260,231125
5.88072,227413
5.88885,224420
5.89697,212135
5.90508,213476
5.91322,178459
5.92133,166646
5.92947,162263
5.93758,170323
5.94570,173872
5.95383,184559
5.96195,210478
5.97008,232161
5.97820,266610
5.98632,302441
5.99445,330795
6.00257,325452
6.01068,292059
6.01882,239245
6.02693,209636
6.03507,194460
6.04318,180135
6.05130,170863
6.05943,172077
6.06755,173395
6.07568,162937
6.08380,157196
6.09192,154783
6.10005,159978
6.10817,156672
6.11630,160966
6.12442,177073
6.13253,250848
6.14067,383966
6.14878,532519
6.15690,585307
6.16503,503143
6.17315,378090
6.18128,293235
6.18940,250663
6.19752,232428
6.20565,225546
6.21377,209643
6.22190,198157
6.23002,200861
6.23813,202263
6.24627,200129
6.25438,200488
6.26252,203466
6.27063,207579
6.27875,202534
6.28688,194352
6.29500,192217
6.30312,195804
6.31125,196758
6.31937,199213
6.32750,206470
6.33562,198325
6.34373,198988
6.35187,210220
6.35998,203831
6.36812,201821
6.37623,199159
6.38435,207381
6.39248,199993
6.40060,197747
6.40872,198805
6.41685,202945
6.42497,200239
6.43310,196091
6.44122,199344
6.44933,201614
6.45747,193048
6.46558,201620
6.47372,198541
6.48183,199301
6.48995,191980
6.49808,201634
6.50620,204541
6.51433,207300
6.52245,203338
6.53057,208004
6.53870,206156
6.54682,207831
6.55493,203181
6.56307,218704
6.57118,228178
6.57932,238189
6.58743,258019
6.59555,261433
6.60368,251143
6.61180,233998
6.61993,229003
6.62805,219179
6.63617,217950
6.64430,219808
6.65242,225036
6.66053,248309
6.66867,291458
6.67678,333538
6.68492,323446
6.69303,276568
6.70115,260617
6.70928,239061
6.71740,233018
6.72553,228713
6.73365,225030
6.74177,236443
6.74990,232712
6.75802,226135
6.76615,234879
6.77427,233939
6.78238,237095
6.79052,234070
6.79863,239386
6.80675,209468
6.81488,183937
6.82300,172033
6.83113,171276
6.83925,176738
6.84737,199760
6.85550,234572
6.86362,260767
6.87175,260562
6.87987,233360
6.88798,173822
6.89612,145710
6.90423,127361
6.91237,108877
6.92048,113409
6.92860,103048
6.93673,97399
6.94485,94788
6.95297,100130
6.96110,103737
6.96922,114727
6.97735,134152
6.98547,145645
6.99358,141625
7.00172,130048
7.00983,112611
7.01797,105264
7.02608,103101
7.03420,102765
7.04233,99297
7.05045,97247
7.05857,97906
7.06670,94176
7.07482,93985
7.08295,90105
7.09107,95933
7.09918,86295
7.10732,87075
7.11543,85096
7.12357,80285
7.13168,80564
7.13980,86949
7.14793,111011
7.15605,143529
7.16418,182826
7.17230,199016
7.18042,185549
7.18855,154153
7.19667,130069
7.20478,105143
7.21292,97758
7.22103,114401
7.22917,194261
7.23728,436966
7.24540,906560
7.25353,1429033
7.26165,1605024
7.26978,1316036
7.27790,848684
7.28602,507660
7.29415,353004
7.30227,298243
7.31040,262424
7.31852,217850
7.32663,168191
7.33477,133914
7.34288,108808
7.35100,102091
7.35913,98222
7.36725,101131
7.37538,100827
7.38350,105699
7.39162,104147
7.39975,101591
7.40787,101494
7.41600,99874
7.42412,90094
7.43223,87101
7.44037,87474
7.44848,87795
7.45660,94142
7.46473,94589
7.47285,93027
7.48098,91437
7.48910,87593
7.49722,85789
7.50535,93116
7.51347,111070
7.52160,158945
7.52972,213277
7.53783,311499
7.54597,380495
7.55408,417350
7.56222,401764
7.57033,327728
7.57845,248245
7.58658,184465
7.59470,143410
7.60282,119066
7.61095,108414
7.61907,103064
7.62720,101041
7.63532,95522
7.64343,88949
7.65157,86870
7.65968,83603
7.66782,87690
7.67593,83385
7.68405,84047
7.69218,80872
7.70030,82380
7.70843,77565
7.71655,77073
7.72467,80851
7.73280,76335
7.74092,78623
7.74903,80580
7.75717,77393
7.76528,79897
7.77342,76391
7.78153,76441
7.78965,84632
7.79778,86495
7.80590,100063
7.81403,102617
7.82215,102397
7.83027,93336
7.83840,89354
7.84652,82684
7.85463,84156
7.86277,89268
7.87088,97011
7.87902,102232
7.88713,104793
7.89525,102766
7.90338,91123
7.91150,87475
7.91963,82555
7.92775,93891
7.93587,113313
7.94400,135084
7.95212,152242
7.96025,139871
7.96837,132611
7.97648,110045
7.98462,95859
7.99273,89672
8.00085,80238
8.00898,76345
8.01710,83332
8.02523,78316
8.03335,71560
8.04147,77032
8.04960,72300
8.05772,79843
8.06585,71335
8.07397,70836
8.08208,70596
8.09022,72707
8.09833,66637
8.10645,69727
8.11458,67559
8.12270,68034
8.13083,71876
8.13895,84222
8.14707,96782
8.15520,109218
8.16332,107636
8.17145,96086
8.17957,91466
8.18768,76577
8.19582,75739
8.20393,71949
8.21207,70660
8.22018,76008
8.22830,68499
8.23643,70485
8.24455,71271
8.25267,65427
8.26080,68754
8.26892,64050
8.27705,61508
8.28517,65545
8.29328,62952
8.30142,65153
8.30953,69652
8.31767,77047
8.32578,72163
8.33390,73532
8.34203,69428
8.35015,60320
8.35828,60062
8.36640,66938
8.37452,65447
8.38265,65670
8.39077,63518
8.39888,61485
8.40702,62769
8.41513,60799
8.42327,59496
8.43138,62589
8.43950,60510
8.44763,56323
8.45575,60215
8.46388,56362
8.47200,52196
8.48012,59109
8.48825,57968
8.49637,56838
8.50448,54656
8.51262,57851
8.52073,61015
8.52887,65167
8.53698,89224
8.54510,128549
8.55323,208086
8.56135,285605
8.56948,301168
8.57760,252820
8.58572,181925
8.59385,137687
8.60197,104830
8.61010,88339
8.61822,82404
8.62633,81227
8.63447,73047
8.64258,68811
8.65070,67955
8.65883,68434
8.66695,70894
8.67508,68958
8.68320,67708
8.69132,67868
8.69945,70628
8.70757,71543
8.71570,63781
8.72382,70236
8.73193,71258
8.74007,100636
8.74818,199738
8.75632,420885
8.76443,786343
8.77255,1154915
8.78068,1352514
8.78880,1232762
8.79692,927070
8.80505,602683
8.81317,401208
8.82130,267191
8.82942,210601
8.83753,190660
8.84567,196493
8.85378,202841
8.86192,208593
8.87003,196065
8.87815,187863
8.88628,183039
8.89440,172473
8.90252,160653
8.91065,157235
8.91877,151639
8.92690,154144
8.93502,150931
8.94313,160085
8.95127,176209
8.95938,174613
8.96752,171685
8.97563,162384
8.98375,152067
8.99188,152910
9.00000,145983
9.00813,131798
9.01625,132949
9.02437,123986
9.03250,118188
9.04062,116316
9.04873,112159
9.05687,113813
9.06498,108701
9.07312,110311
9.08123,110157
9.08935,114652
9.09748,124893
9.10560,137833
9.11373,146144
9.12185,155333
9.12997,150409
9.13810,138776
9.14622,125619
9.15433,115024
9.16247,110153
9.17058,104427
9.17872,109950
9.18683,100036
9.19495,98694
9.20308,102249
9.21120,102537
9.21933,94342
9.22745,96324
9.23557,95912
9.24370,96083
9.25182,91582
9.25995,94872
9.26807,88294
9.27618,92122
9.28432,90892
9.29243,83797
9.30055,86758
9.30868,79276
9.31680,83956
9.32493,89711
9.33305,88765
9.34117,85709
9.34930,81950
9.35742,81165
9.36555,82877
9.37367,76357
9.38178,82150
9.38992,83358
9.39803,86719
9.40617,96946
9.41428,104329
9.42240,121994
9.43053,131798
9.43865,140674
9.44677,136958
9.45490,127214
9.46302,111325
9.47115,94298
9.47927,83502
9.48738,79279
9.49552,79957
9.50363,84190
9.51177,89394
9.51988,99071
9.52800,95139
9.53613,91264
9.54425,95022
9.55237,78944
9.56050,68570
9.56862,62580
9.57675,73160
9.58487,74836
9.59298,74085
9.60112,73874
9.60923,66406
9.61737,55344
9.62548,56208
9.63360,48264
9.64173,45618
9.64985,47964
9.65798,46178
9.66610,47060
9.67422,48008
9.68235,46611
9.69047,46998
9.69858,47188
9.70672,43524
9.71483,48897
9.72297,42832
9.73108,41796
9.73920,47502
9.74733,42159
9.75545,45256
9.76358,45455
9.77170,41455
9.77982,44081
9.78795,41159
9.79607,41054
9.80420,43192
9.81232,41219
9.82043,43732
9.82857,42749
9.83668,43670
9.84480,45232
9.85293,45188
9.86105,42654
9.86918,43906
9.87730,46974
9.88542,48521
9.89355,48856
9.90167,46584
9.90980,46288
9.91792,58326
9.92603,52809
9.93417,65057
9.94228,82512
9.95040,108670
9.95853,124724
9.96665,132123
9.97478,116747
9.98290,103396
9.99102,83456
9.99915,78995
10.00727,73319
10.01540,66845
10.02352,58661
10.03163,54875
10.03977,57632
10.04788,52401
10.05602,52051
10.06413,52648
10.07225,52151
10.08038,52473
10.08850,50781
10.09662,53332
10.10475,61310
10.11287,55936
10.12100,55411
10.12912,52484
10.13723,52733
10.14537,45866
10.15348,50512
10.16162,49584
10.16973,45541
10.17785,50083
10.18598,48734
10.19410,45521
10.20222,45559
10.21035,49540
10.21847,47535
10.22660,46130
10.23472,48576
10.24283,52110
10.25097,55575
10.25908,67246
10.26722,107342
10.27533,242990
10.28345,552931
10.29158,1096757
10.29970,1768575
10.30783,2502404
10.31595,3473840
10.32407,5020038
10.33220,7042637
10.34032,8625884
10.34843,8679925
10.35657,7003427
10.36468,4462228
10.37282,2536973
10.38093,1455823
10.38905,913240
10.39718,617860
10.40530,459753
10.41343,360237
10.42155,307370
10.42967,260130
10.43780,234647
10.44592,222303
10.45405,212160
10.46217,208398
10.47028,197102
10.47842,186661
10.48653,182934
10.49465,163695
10.50278,156406
10.51090,149055
10.51903,141592
10.52715,133871
10.53527,134539
10.54340,132244
10.55152,127747
10.55965,126508
10.56777,124608
10.57588,128171
10.58402,121947
10.59213,122771
10.60027,113243
10.60838,109079
10.61650,97607
10.62463,101212
10.63275,95968
10.64087,92886
10.64900,93797
10.65712,88420
10.66525,98780
10.67337,86204
10.68148,86545
10.68962,83560
10.69773,82067
10.70587,81645
10.71398,83484
10.72210,84537
10.73023,80770
10.73835,82026
10.74647,85114
10.75460,79426
10.76272,80632
10.77085,73579
10.77897,71133
10.78708,69705
10.79522,69851
10.80333,75123
10.81147,77256
10.81958,78795
10.82770,68805
10.83583,64133
10.84395,62363
10.85208,61606
10.86020,60587
10.86832,58274
10.87645,62644
10.88457,58720
10.89268,62282
10.90082,59191
10.90893,58276
10.91707,61729
10.92518,62358
10.93330,54958
10.94143,54756
10.94955,54604
10.95768,53230
10.96580,51764
10.97392,54840
10.98205,55904
10.99017,49998
10.99828,54060
11.00642,55702
11.01453,55139
11.02267,58095
11.03078,48716
11.03890,52027
11.04703,50952
11.05515,49118
11.06328,50720
11.07140,52549
11.07952,56609
11.08765,59363
11.09577,58340
11.10390,57132
11.11202,54561
11.12013,46024
11.12827,49651
11.13638,44058
11.14450,39062
11.15263,45634
11.16075,50704
11.16888,44923
11.17700,48946
11.18512,48473
11.19325,50733
11.20137,48920
11.20950,50412
11.21762,48497
11.22573,45507
11.23387,44009
11.24198,42807
11.25012,42301
11.25823,43140
11.26635,41859
11.27448,43515
11.28260,43971
11.29072,49616
11.29885,64598
11.30697,94509
11.31510,175576
11.32322,269631
11.33133,416034
11.33947,514954
11.34758,534351
11.35572,484714
11.36383,368414
11.37195,259045
11.38008,175154
11.38820,127292
11.39632,101524
11.40445,90966
11.41257,95467
11.42070,91565
11.42882,93668
11.43693,90061
11.44507,81012
11.45318,79700
11.46132,74600
11.46943,82369
11.47755,84548
11.48568,109176
11.49380,137216
11.50193,153675
11.51005,155226
11.51817,140312
11.52630,115660
11.53442,97876
11.54253,90762
11.55067,84573
11.55878,89903
11.56692,87380
11.57503,76598
11.58315,74010
11.59128,78050
11.59940,80050
11.60753,100778
11.61565,120750
11.62377,134601
11.63190,133002
11.64002,118803
11.64815,98257
11.65627,80113
11.66438,70975
11.67252,65209
11.68063,60576
11.68875,58915
11.69688,59326
11.70500,58672
11.71313,58102
11.72125,57113
11.72937,55906
11.73750,57352
11.74562,55633
11.75375,52694
11.76187,54337
11.76998,56023
11.77812,50955
11.78623,50472
11.79435,55166
11.80248,50800
11.81060,51447
11.81873,49175
11.82685,49083
11.83497,52766
11.84310,52162
11.85122,50716
11.85935,53755
11.86747,55298
11.87558,57328
11.88372,53544
11.89183,51078
11.89997,46911
11.90808,46545
11.91620,45487
11.92433,49569
11.93245,50345
11.94057,49661
11.94870,48699
11.95682,48500
11.96495,45166
11.97307,51808
11.98118,48096
11.98932,62102
11.99743,85793
12.00557,113202
12.01368,135429
12.02180,141826
12.02993,126478
12.03805,108261
12.04617,85462
12.05430,65923
12.06242,60536
12.07055,55769
12.07867,61282
12.08678,55697
12.09492,51604
12.10303,52428
12.11117,54613
12.11928,58070
12.12740,60537
12.13553,54797
12.14365,58072
12.15178,52668
12.15990,49720
12.16802,47965
12.17615,46641
12.18427,45399
12.19238,46779
12.20052,46372
12.20863,44829
12.21677,44985
12.22488,41937
12.23300,48591
12.24113,47865
12.24925,45658
12.25738,42520
12.26550,43039
12.27362,39959
12.28175,45222
12.28987,39420
12.29800,39081
12.30612,40533
12.31423,43690
12.32237,42437
12.33048,39096
12.33860,43919
12.34673,40771
12.35485,42461
12.36298,38977
12.37110,37588
12.37922,39543
12.38735,39011
12.39547,39651
12.40360,46884
12.41172,58766
12.41983,68998
12.42797,86938
12.43608,82742
12.44420,80110
12.45233,69452
12.46045,62269
12.46858,57622
12.47670,54110
12.48482,53953
12.49295,49436
12.50107,47445
12.50920,48100
12.51732,50692
12.52543,46957
12.53357,56012
12.54168,61047
12.54982,72921
12.55793,96066
12.56605,112964
12.57418,131431
12.58230,126501
12.59042,109843
12.59855,84118
12.60667,70499
12.61480,57944
12.62292,56527
12.63103,56012
12.63917,49246
12.64728,47788
12.65542,45522
12.66353,45671
12.67165,45764
12.67978,44735
12.68790,40999
12.69603,41283
12.70415,39530
12.71227,45949
12.72040,49881
12.72852,47602
12.73663,52537
12.74477,52456
12.75288,51286
12.76102,46339
12.76913,46803
12.77725,39111
12.78538,44441
12.79350,36409
12.80163,41126
12.80975,38173
12.81787,34959
12.82600,37908
12.83412,38876
12.84223,34868
12.85037,36441
12.85848,38254
12.86662,37163
12.87473,38282
12.88285,36030
12.89098,34587
12.89910,37157
12.90723,35676
12.91535,34579
12.92347,36058
12.93160,34662
12.93972,32066
12.94785,34598
12.95597,37069
12.96408,47483
12.97222,55812
12.98033,61768
12.98845,74222
12.99658,73467
13.00470,65447
13.01283,60970
13.02095,45783
13.02907,44885
13.03720,43452
13.04532,42964
13.05345,40053
13.06157,40654
13.06968,38446
13.07782,38130
13.08593,41148
13.09407,39530
13.10218,40640
13.11030,39064
13.11843,36769
13.12655,36956
13.13467,32369
13.14280,41080
13.15092,38560
13.15905,34949
13.16717,38495
13.17528,41919
13.18342,38204
13.19153,40178
13.19967,42701
13.20778,46907
13.21590,43218
13.22403,44157
13.23215,46877
13.24027,46132
13.24840,43290
13.25652,40588
13.26465,41228
13.27277,37520
13.28088,37823
13.28902,37366
13.29713,34817
13.30527,34713
13.31338,37749
13.32150,36486
13.32963,37057
13.33775,39951
13.34588,35311
13.35400,36197
13.36212,34322
13.37025,36635
13.37837,33529
13.38648,34010
13.39462,33220
13.40273,35261
13.41087,32546
13.41898,33358
13.42710,31636
13.43523,34504
13.44335,33003
13.45148,30938
13.45960,32863
13.46772,36676
13.47585,34773
13.48397,32181
13.49208,34041
13.50022,34388
13.50833,35366
13.51647,36418
13.52458,36321
13.53270,34751
13.54083,35629
13.54895,37074
13.55708,38835
13.56520,36391
13.57332,34575
13.58145,38580
13.58957,42670
13.59770,49843
13.60582,65195
13.61393,93117
13.62207,128058
13.63018,142721
13.63830,136160
13.64643,115415
13.65455,86033
13.66268,65503
13.67080,55314
13.67892,42344
13.68705,45319
13.69517,42927
13.70330,42107
13.71142,38907
13.71953,39956
13.72767,43845
13.73578,60922
13.74392,116055
13.75203,248133
13.76015,509491
13.76828,888867
13.77640,1305070
13.78452,1497055
13.79265,1426160
13.80077,1170392
13.80890,854936
13.81702,651147
13.82513,528789
13.83327,485477
13.84138,468833
13.84952,419452
13.85763,348468
13.86575,296444
13.87388,241055
13.88200,204476
13.89012,180266
13.89825,170689
13.90637,149505
13.91450,140088
13.92262,133488
13.93073,123664
13.93887,122271
13.94698,121689
13.95512,110162
13.96323,114496
13.97135,114748
13.97948,115637
13.98760,116020
13.99573,116201
14.00385,109283
14.01197,106117
14.02010,99174
14.02822,105551
14.03633,91772
14.04447,98750
14.05258,91463
14.06072,94284
14.06883,87198
14.07695,87846
14.08508,83533
14.09320,82046
14.10133,93593
14.10945,80840
14.11757,82005
14.12570,79086
14.13382,81854
14.14195,82855
14.15007,85457
14.15818,92780
14.16632,94251
14.17443,118941
14.18255,154764
14.19068,197879
14.19880,241049
14.20693,240398
14.21505,235434
14.22317,210843
14.23130,180693
14.23942,170481
14.24755,164269
14.25567,151740
14.26378,144694
14.27192,125955
14.28003,122491
14.28815,113434
14.29628,101983
14.30440,96065
14.31253,93416
14.32065,83738
14.32877,81285
14.33690,79321
14.34502,72882
14.35315,63910
14.36127,63162
14.36938,57881
14.37752,52886
14.38563,63877
14.39377,82259
14.40188,116617
14.41000,202006
14.41813,307202
14.42625,391616
14.43437,391431
14.44250,324690
14.45062,243078
14.45875,170547
14.46687,121388
14.47498,102484
14.48312,89291
14.49123,81556
14.49937,77891
14.50748,76641
14.51560,72301
14.52373,67079
14.53185,70344
14.53997,65638
14.54810,59188
14.55622,57110
14.56435,57942
14.57247,56458
14.58058,54646
14.58872,50856
14.59683,52222
14.60497,48899
14.61308,47503
14.62120,53688
14.62933,51749
14.63745,45170
14.64558,46909
14.65370,48739
14.66182,46830
14.66995,50127
14.67807,48785
14.68618,47691
14.69432,47170
14.70243,46228
14.71057,46243
14.71868,47629
14.72680,49847
14.73493,48330
14.74305,47883
14.75118,49375
14.75930,48078
14.76742,44004
14.77555,50162
14.78367,56687
14.79180,92886
14.79992,201078
14.80803,474947
14.81617,1023846
14.82428,1756976
14.83240,2319264
14.84053,2463647
14.84865,2203611
14.85678,1627360
14.86490,1033701
14.87302,653910
14.88115,423401
14.88927,311069
14.89740,250103
14.90552,216184
14.91363,182261
14.92177,158834
14.92988,145664
14.93802,140509
14.94613,128902
14.95425,118563
14.96238,112841
14.97050,111828
14.97862,105991
14.98675,99000
14.99487,96018
15.00300,91898
15.01112,93672
15.01923,92487
15.02737,87261
15.03548,83733
15.04362,79028
15.05173,78057
15.05985,74726
15.06798,74879
15.07610,72153
15.08422,74274
15.09235,64583
15.10047,64731
15.10860,65113
15.11672,66826
15.12483,68351
15.13297,75434
15.14108,72255
15.14922,79290
15.15733,77722
15.16545,69953
15.17358,67513
15.18170,59628
15.18983,53640
15.19795,51185
15.20607,49096
15.21420,54558
15.22232,49016
15.23043,48830
15.23857,47803
15.24668,48951
15.25482,46392
15.26293,44729
15.27105,43436
15.27918,42063
15.28730,39998
15.29543,41331
15.30355,42756
15.31167,44340
15.31980,40888
15.32792,42268
15.33603,38780
15.34417,40671
15.35228,40957
15.36042,40519
15.36853,42388
15.37665,42434
15.38478,40920
15.39290,40465
15.40103,40126
15.40915,40317
15.41727,42762
15.42540,43493
15.43352,38153
15.44165,37639
15.44977,37188
15.45788,43024
15.46602,48064
15.47413,59744
15.48225,74130
15.49038,100212
15.49850,115505
15.50663,116168
15.51475,116123
15.52287,107958
15.53100,97815
15.53912,86553
15.54725,75266
15.55537,66566
15.56348,62266
15.57162,61890
15.57973,55030
15.58787,48311
15.59598,47639
15.60410,46341
15.61223,44777
15.62035,43812
15.62847,44222
15.63660,45569
15.64472,40196
15.65285,43759
15.66097,39979
15.66908,39973
15.67722,38996
15.68533,39449
15.69347,40462
15.70158,40968
15.70970,39447
15.71783,38467
15.72595,39595
15.73407,39659
15.74220,42103
15.75032,51850
15.75845,63580
15.76657,92079
15.77468,143949
15.78282,210416
15.79093,253194
15.79907,260797
15.80718,231105
15.81530,172260
15.82343,125676
15.83155,96739
15.83968,75364
15.84780,70686
15.85592,65765
15.86405,62414
15.87217,61927
15.88028,60723
15.88842,55824
15.89653,54622
15.90467,51062
15.91278,51597
15.92090,50099
15.92903,48303
15.93715,51702
15.94528,56062
15.95340,58167
15.96152,69459
15.96965,80136
15.97777,97075
15.98590,95892
15.99402,96390
16.00213,91163
16.01027,82012
16.01838,74514
16.02650,71905
16.03463,70367
16.04275,67061
16.05088,63852
16.05900,54680
16.06712,54237
16.07525,50671
16.08337,50634
16.09150,53456
16.09962,51394
16.10773,49841
16.11587,51112
16.12398,52573
16.13210,51575
16.14023,49328
16.14835,54826
16.15648,56346
16.16460,57125
16.17272,49848
16.18085,47699
16.18897,45226
16.19710,44861
16.20522,44931
16.21333,50363
16.22147,42104
16.22958,44339
16.23772,43270
16.24583,44519
16.25395,45021
16.26208,44402
16.27020,42029
16.27832,45325
16.28645,45643
16.29457,46157
16.30270,50134
16.31082,52588
16.31893,52146
16.32707,48507
16.33518,46012
16.34332,47150
16.35143,54907
16.35955,58095
16.36768,72264
16.37580,80123
16.38392,81446
16.39205,75734
16.40017,72884
16.40830,66955
16.41642,52574
16.42453,55249
16.43267,48737
16.44078,53630
16.44892,68997
16.45703,102014
16.46515,162688
16.47328,249974
16.48140,326067
16.48953,367926
16.49765,340312
16.50577,265852
16.51390,187422
16.52202,127302
16.53013,90610
16.53827,76854
16.54638,72704
16.55452,70624
16.56263,62646
16.57075,63569
16.57888,61162
16.58700,67857
16.59513,73352
16.60325,73584
16.61137,84507
16.61950,88184
16.62762,83766
16.63575,75426
16.64387,67930
16.65198,66956
16.66012,61991
16.66823,55671
16.67635,53079
16.68448,51675
16.69260,46208
16.70073,47348
16.70885,47729
16.71697,47953
16.72510,46066
16.73322,47018
16.74135,44332
16.74947,48026
16.75758,47177
16.76572,46105
16.77383,51928
16.78195,48400
16.79008,44172
16.79820,44550
16.80633,45844
16.81445,39642
16.82257,41086
16.83070,45268
16.83882,42054
16.84695,42151
16.85507,45226
16.86318,39686
16.87132,44941
16.87943,40325
16.88757,38595
16.89568,39584
16.90380,40958
16.91193,40372
16.92005,38577
16.92817,40389
16.93630,39523
16.94442,42324
16.95255,39528
16.96067,43977
16.96878,37841
16.97692,39432
16.98503,42393
16.99317,42762
17.00128,41405
17.00940,42521
17.01753,37473
17.02565,40611
17.03378,43203
17.04190,44263
17.05002,46564
17.05815,49300
17.06627,49362
17.07438,47981
17.08252,47675
17.09063,43637
17.09877,41606
17.10688,49607
17.11500,41950
17.12313,43568
17.13125,42470
17.13938,42781
17.14750,44546
17.15562,41822
17.16375,43115
17.17187,43447
17.17998,43728
17.18812,41050
17.19623,41964
17.20437,41684
17.21248,37416
17.22060,39625
17.22873,38918
17.23685,35398
17.24498,38772
17.25310,40371
17.26122,43403
17.26935,37471
17.27747,38230
17.28560,38636
17.29372,39254
17.30183,38697
17.30997,35300
17.31808,40337
17.32620,44561
17.33433,51503
17.34245,54344
17.35058,53776
17.35870,56407
17.36682,55804
17.37495,53820
17.38307,52388
17.39120,48689
17.39932,49522
17.40743,52846
17.41557,48759
17.42368,49098
17.43182,50338
17.43993,50426
17.44805,48167
17.45618,48638
17.46430,45200
17.47242,47546
17.48055,43615
17.48867,40472
17.49680,40711
17.50492,44888
17.51303,43536
17.52117,41976
17.52928,43238
17.53742,41076
17.54553,42618
17.55365,51590
17.56178,69187
17.56990,101398
17.57802,173442
17.58615,288452
17.59427,464242
17.60240,666091
17.61052,808062
17.61863,825153
17.62677,714410
17.63488,545156
17.64302,397896
17.65113,295161
17.65925,222991
17.66738,181863
17.67550,155843
17.68363,145283
17.69175,128519
17.69987,119399
17.70800,107379
17.71612,96617
17.72423,87947
17.73237,82286
17.74048,83832
17.74862,72435
17.75673,74907
17.76485,70101
17.77298,65666
17.78110,70788
17.78923,69020
17.79735,80517
17.80547,117756
17.81360,159656
17.82172,209532
17.82983,253512
17.83797,260579
17.84608,236070
17.85422,192974
17.86233,153797
17.87045,124831
17.87858,113556
17.88670,98689
17.89483,90445
17.90295,77732
17.91107,70397
17.91920,66102
17.92732,63578
17.93545,65793
17.94357,61089
17.95168,54182
17.95982,56077
17.96793,56258
17.97605,56254
17.98418,53110
17.99230,53973
18.00043,55083
18.00855,57671
18.01667,57763
18.02480,71484
18.03292,77095
18.04105,88140
18.04917,111205
18.05728,176812
18.06542,363244
18.07353,724645
18.08167,1281415
18.08978,1838871
18.09790,2155581
18.10603,2135030
18.11415,1775143
18.12227,1242970
18.13040,872989
18.13852,613373
18.14665,475536
18.15477,409462
18.16288,349576
18.17102,311417
18.17913,274783
18.18727,249776
18.19538,226404
18.20350,209511
18.21163,191664
18.21975,184095
18.22787,165992
18.23600,161062
18.24412,151780
18.25225,140231
18.26037,136153
18.26848,120017
18.27662,108153
18.28473,91696
18.29287,84835
18.30098,74608
18.30910,66525
18.31723,61935
18.32535,57997
18.33348,55905
18.34160,50044
18.34972,55331
18.35785,52728
18.36597,52761
18.37408,54334
18.38222,51084
18.39033,53666
18.39847,49835
18.40658,50323
18.41470,53653
18.42283,60511
18.43095,58456
18.43908,65804
18.44720,81437
18.45532,103528
18.46345,147487
18.47157,189944
18.47970,230300
18.48782,249431
18.49593,242320
18.50407,210095
18.51218,174002
18.52030,140319
18.52843,111449
18.53655,96273
18.54468,85492
18.55280,79003
18.56092,69209
18.56905,64375
18.57717,66690
18.58530,61914
18.59342,64431
18.60153,67917
18.60967,66735
18.61778,71030
18.62590,67013
18.63403,68779
18.64215,72435
18.65028,84703
18.65840,109068
18.66652,124948
18.67465,136709
18.68277,150496
18.69090,159158
18.69902,156927
18.70713,164900
18.71527,168309
18.72338,170407
18.73152,170538
18.73963,177302
18.74775,170534
18.75588,175449
18.76400,175215
18.77212,174497
18.78025,171864
18.78837,170740
18.79650,175047
18.80462,181950
18.81273,181648
18.82087,175852
18.82898,167896
18.83712,167199
18.84523,176552
18.85335,173892
18.86148,162728
18.86960,166925
18.87772,163072
18.88585,164789
18.89397,160022
18.90210,165353
18.91022,163732
18.91833,166092
18.92647,167427
18.93458,164728
18.94272,167650
18.95083,163996
18.95895,164188
18.96708,168974
18.97520,166157
18.98333,156866
18.99145,155722
18.99957,155631
19.00770,151878
19.01582,152713
19.02393,147218
19.03207,147376
19.04018,147571
19.04832,145407
19.05643,151680
19.06455,158652
19.07268,167694
19.08080,190289
19.08893,229623
19.09705,274917
19.10517,315830
19.11330,323011
19.12142,302590
19.12955,269343
19.13767,234003
19.14578,193677
19.15392,171867
19.16203,160652
19.17015,157176
19.17828,150012
19.18640,146339
19.19453,146158
19.20265,136812
19.21077,134617
19.21890,139995
19.22702,129296
19.23515,129345
19.24327,128085
19.25138,127326
19.25952,132489
19.26763,133253
19.27575,133606
19.28388,131549
19.29200,126914
19.30013,135623
19.30825,135277
19.31637,125470
19.32450,124496
19.33262,121420
19.34075,127393
19.34887,140939
19.35698,149019
19.36512,177394
19.37323,196211
19.38137,193467
19.38948,188823
19.39760,170637
19.40573,150513
19.41385,136524
19.42197,132017
19.43010,127708
19.43822,124817
19.44635,128516
19.45447,136436
19.46258,143051
19.47072,148099
19.47883,170569
19.48697,203264
19.49508,238693
19.50320,255346
19.51133,244955
19.51945,219209
19.52758,184900
19.53570,157088
19.54382,143040
19.55195,133785
19.56007,122059
19.56818,120137
19.57632,118106
19.58443,110383
19.59257,107113
19.60068,104592
19.60880,104717
19.61693,105622
19.62505,103062
19.63318,108694
19.64130,124433
19.64942,150875
19.65755,190781
19.66567,224347
19.67378,258133
19.68192,279879
19.69003,267845
19.69817,260129
19.70628,234807
19.71440,209190
19.72253,185013
19.73065,166691
19.73878,159080
19.74690,142816
19.75502,131901
19.76315,129711
19.77127,126117
19.77940,128108
19.78752,128943
19.79563,134686
19.80377,142212
19.81188,134467
19.82000,134327
19.82813,126603
19.83625,116355
19.84438,136831
19.85250,216280
19.86062,472168
19.86875,1125092
19.87687,2357309
19.88500,4353170
19.89312,6686489
19.90123,8247782
19.90937,8501444
19.91748,7441288
19.92560,5544177
19.93373,3740552
19.94185,2446444
19.94998,1650329
19.95810,1237774
19.96622,1011975
19.97435,876932
19.98247,779525
19.99060,715116
19.99872,664274
20.00683,611728
20.01497,596114
20.02308,551901
20.03122,496450
20.03933,459064
20.04745,398314
20.05558,339980
20.06370,285974
20.07182,245881
20.07995,213171
20.08807,196533
20.09620,183553
20.10432,165429
20.11243,157540
20.12057,152415
20.12868,141272
20.13682,139688
20.14493,133574
20.15305,134439
20.16118,137598
20.16930,146685
20.17743,152580
20.18555,170591
20.19367,167926
20.20180,183689
20.20992,169606
20.21803,168207
20.22617,160313
20.23428,150969
20.24242,156199
20.25053,160436
20.25865,184963
20.26678,210659
20.27490,236227
20.28303,251855
20.29115,254145
20.29927,222857
20.30740,210868
20.31552,182866
20.32365,161464
20.33177,136356
20.33988,128893
20.34802,110774
20.35613,101537
20.36425,94753
20.37238,92354
20.38050,85579
20.38863,79591
20.39675,84254
20.40487,78454
20.41300,80281
20.42112,85567
20.42925,88376
20.43737,86108
20.44548,96775
20.45362,96117
20.46173,93202
20.46985,91316
20.47798,88392
20.48610,80238
20.49423,79285
20.50235,77021
20.51047,77366
20.51860,74685
20.52672,66361
20.53485,71518
20.54297,69982
20.55108,71973
20.55922,68519
20.56733,72408
20.57547,68380
20.58358,66410
20.59170,66893
20.59983,66586
20.60795,63783
20.61607,63328
20.62420,63506
20.63232,66211
20.64045,67307
20.64857,71877
20.65668,67995
20.66482,67814
20.67293,67385
20.68107,68497
20.68918,65229
20.69730,63100
20.70543,62568
20.71355,59107
20.72167,64079
20.72980,62702
20.73792,62684
20.74605,62780
20.75417,65080
20.76228,70263
20.77042,74549
20.77853,83544
20.78667,102258
20.79478,146345
20.80290,202897
20.81103,271550
20.81915,333086
20.82728,342416
20.83540,309082
20.84352,239437
20.85165,179215
20.85977,130826
20.86788,101026
20.87602,86842
20.88413,87030
20.89227,79691
20.90038,79058
20.90850,74962
20.91663,76538
20.92475,74428
20.93288,74709
20.94100,78114
20.94912,71677
20.95725,70229
20.96537,69235
20.97350,65154
20.98162,65384
20.98973,65068
20.99787,68844
21.00598,65737
21.01410,62628
21.02223,65941
21.03035,67050
21.03848,69191
21.04660,63453
21.05472,63768
21.06285,65163
21.07097,67697
21.07910,63058
21.08722,67342
21.09533,59704
21.10347,57553
21.11158,62374
21.11970,60788
21.12783,59854
21.13595,67533
21.14408,77534
21.15220,86836
21.16032,97796
21.16845,93636
21.17657,96149
21.18470,89625
21.19282,83590
21.20093,79645
21.20907,69694
21.21718,63891
21.22532,67745
21.23343,68246
21.24155,61924
21.24968,62404
21.25780,65711
21.26592,58068
21.27405,61418
21.28217,60513
21.29030,57671
21.29842,59235
21.30653,57078
21.31467,54584
21.32278,58147
21.33092,54857
21.33903,53896
21.34715,52643
21.35528,54848
21.36340,58586
21.37153,59014
21.37965,62965
21.38777,64788
21.39590,80146
21.40402,85644
21.41213,97253
21.42027,99555
21.42838,86790
21.43652,75457
21.44463,68720
21.45275,65378
21.46088,62330
21.46900,57218
21.47713,58156
21.48525,58907
21.49337,54045
21.50150,52394
21.50962,54774
21.51773,53624
21.52587,54460
21.53398,49687
21.54212,52525
21.55023,48984
21.55835,46708
21.56648,49623
21.57460,58215
21.58273,64019
21.59085,71329
21.59897,75550
21.60710,74108
21.61522,80920
21.62335,82732
21.63147,80776
21.63958,85868
21.64772,83292
21.65583,85369
21.66395,88396
21.67208,89640
21.68020,89339
21.68833,84089
21.69645,84816
21.70457,76122
21.71270,72170
21.72082,62178
21.72895,61634
21.73707,58300
21.74518,56854
21.75332,53851
21.76143,52092
21.76955,55403
21.77768,58509
21.78580,58556
21.79393,56189
21.80205,56762
21.81017,64883
21.81830,65075
21.82642,68649
21.83455,74087
21.84267,74100
21.85078,72969
21.85892,66479
21.86703,63608
21.87517,61147
21.88328,56944
21.89140,56463
21.89953,54499
21.90765,53173
21.91577,54005
21.92390,52382
21.93202,45944
21.94015,52604
21.94827,49426
21.95638,49391
21.96452,44806
21.97263,43643
21.98077,42671
21.98888,41813
21.99700,42833
22.00513,45097
22.01325,44961
22.02138,44992
22.02950,50554
22.03762,47235
22.04575,50092
22.05387,46843
22.06198,48501
22.07012,47757
22.07823,47054
22.08637,45376
22.09448,47387
22.10260,44496
22.11073,44092
22.11885,47324
22.12698,42767
22.13510,47117
22.14322,49570
22.15135,57544
22.15947,59047
22.16758,62661
22.17572,63926
22.18383,64600
22.19197,66025
22.20008,67850
22.20820,68974
22.21633,69654
22.22445,73307
22.23258,73487
22.24070,76097
22.24882,73312
22.25695,76499
22.26507,74760
22.27320,80753
22.28132,82794
22.28943,84836
22.29757,87461
22.30568,89685
22.31380,86617
22.32193,84223
22.33005,92635
22.33818,84010
22.34630,80946
22.35442,82087
22.36255,72070
22.37067,74654
22.37880,73114
22.38692,75358
22.39503,83027
22.40317,96173
22.41128,124438
22.41942,139019
22.42753,146583
22.43565,132883
22.44378,116059
22.45190,103135
22.46002,88957
22.46815,85925
22.47627,80780
22.48440,93565
22.49252,104687
22.50063,105846
22.50877,105735
22.51688,101328
22.52502,90697
22.53313,78262
22.54125,74391
22.54938,69322
22.55750,64984
22.56562,61507
22.57375,58603
22.58187,53031
22.59000,54895
22.59812,47902
22.60623,47822
22.61437,51616
22.62248,49085
22.63062,45800
22.63873,48082
22.64685,49777
22.65498,50480
22.66310,51241
22.67123,63422
22.67935,73997
22.68747,94110
22.69560,100309
22.70372,114247
22.71183,120499
22.71997,126869
22.72808,135669
22.73622,130429
22.74433,131295
22.75245,123895
22.76058,129680
22.76870,129590
22.77683,137778
22.78495,147156
22.79307,157365
22.80120,177967
22.80932,188783
22.81745,188552
22.82557,181034
22.83368,175005
22.84182,158462
22.84993,148932
22.85805,147024
22.86618,142490
22.87430,148420
22.88243,155377
22.89055,158647
22.89867,176831
22.90680,191724
22.91492,231247
22.92305,249167
22.93117,270836
22.93928,252832
22.94742,227770
22.95553,196936
22.96365,172340
22.97178,158060
22.97990,145250
22.98803,137390
22.99615,125671
23.00427,121257
23.01240,125408
23.02052,115036
23.02865,113754
23.03677,113446
23.04488,109810
23.05302,110036
23.06113,109279
23.06927,114074
23.07738,110331
23.08550,111597
23.09363,106017
23.10175,102384
23.10987,103153
23.11800,99139
23.12612,97390
23.13425,101060
23.14237,104391
23.15048,96688
23.15862,95520
23.16673,96535
23.17487,91853
23.18298,92413
23.19110,94296
23.19923,92799
23.20735,89850
23.21547,90381
23.22360,91776
23.23172,90655
23.23985,97040
23.24797,94705
23.25608,99564
23.26422,107492
23.27233,102126
23.28047,101652
23.28858,94287
23.29670,94969
23.30483,96750
23.31295,89260
23.32108,91907
23.32920,101296
23.33732,109609
23.34545,134003
23.35357,172192
23.36168,214923
23.36982,272245
23.37793,356501
23.38607,410774
23.39418,477314
23.40230,528707
23.41043,559717
23.41855,599686
23.42668,583788
23.43480,574572
23.44292,552197
23.45105,529055
23.45917,492851
23.46730,456441
23.47542,442153
23.48353,394987
23.49167,361209
23.49978,334479
23.50790,313389
23.51603,283016
23.52415,269633
23.53228,254291
23.54040,246169
23.54852,249499
23.55665,239302
23.56477,243804
23.57290,262038
23.58102,270320
23.58913,290456
23.59727,308101
23.60538,328228
23.61350,321188
23.62163,295376
23.62975,257317
23.63788,228535
23.64600,201018
23.65412,203740
23.66225,206780
23.67037,196742
23.67850,195197
23.68662,169112
23.69473,162702
23.70287,139469
23.71098,133463
23.71912,128138
23.72723,120530
23.73535,129480
23.74348,159103
23.75160,247792
23.75972,462871
23.76785,908433
23.77597,1516156
23.78410,2230110
23.79222,2773437
23.80033,2971659
23.80847,2746432
23.81658,2242215
23.82472,1813687
23.83283,1416258
23.84095,1067774
23.84908,824770
23.85720,675203
23.86533,570630
23.87345,472431
23.88157,430254
23.88970,380322
23.89782,353565
23.90593,323657
23.91407,308601
23.92218,292036
23.93032,271116
23.93843,250883
23.94655,231449
23.95468,218788
23.96280,200321
23.97093,195695
23.97905,193195
23.98717,175929
23.99530,172330
24.00342,167678
24.01153,170949
24.01967,177210
24.02778,175620
24.03592,178808
24.04403,181410
24.05215,167935
24.06028,156373
24.06840,148223
24.07653,134802
24.08465,124509
24.09277,127901
24.10090,119108
24.10902,119853
24.11715,117368
24.12527,119144
24.13338,118425
24.14152,115768
24.14963,124721
24.15775,118230
24.16588,118614
24.17400,119339
24.18213,116421
24.19025,113409
24.19837,123533
24.20650,117804
24.21462,114040
24.22275,104395
24.23087,102708
24.23898,100753
24.24712,91371
24.25523,90225
24.26335,87637
24.27148,85342
24.27960,84420
24.28773,85642
24.29585,86103
24.30397,81930
24.31210,87495
24.32022,85051
24.32835,83991
24.33647,85437
24.34458,76599
24.35272,80084
24.36083,87549
24.36897,100193
24.37708,124265
24.38520,138043
24.39333,145205
24.40145,137362
24.40957,125874
24.41770,125499
24.42582,131129
24.43395,135989
24.44207,150198
24.45018,163141
24.45832,169958
24.46643,185388
24.47457,210414
24.48268,221104
24.49080,235700
24.49893,241795
24.50705,246404
24.51518,251361
24.52330,246927
24.53142,256676
24.53955,262716
24.54767,270054
24.55578,280242
24.56392,286466
24.57203,268567
24.58017,245945
24.58828,230894
24.59640,207601
24.60453,209836
24.61265,194097
24.62078,193524
24.62890,180793
24.63702,187856
24.64515,189416
24.65327,188641
24.66138,189259
24.66952,182240
24.67763,184879
24.68577,185221
24.69388,178790
24.70200,179931
24.71013,177078
24.71825,181055
24.72638,172647
24.73450,176118
24.74262,173947
24.75075,179940
24.75887,179509
24.76700,178150
24.77512,188409
24.78323,194407
24.79137,201711
24.79948,194196
24.80760,189147
24.81573,196766
24.82385,195809
24.83198,224166
24.84010,237455
24.84822,269352
24.85635,324857
24.86447,410319
24.87260,497191
24.88072,601255
24.88883,687809
24.89697,717320
24.90508,682280
24.91322,584266
24.92133,456412
24.92945,365702
24.93758,288775
24.94570,241314
24.95382,209126
24.96195,189049
24.97007,173827
24.97820,174799
24.98632,178819
24.99443,170253
25.00257,165608
25.01068,159161
25.01882,156937
25.02693,148552
25.03505,146507
25.04318,153443
25.05130,148050
25.05942,141577
25.06755,144051
25.07567,153159
25.08380,151152
25.09192,159049
25.10003,209730
25.10817,339404
25.11628,660139
25.12442,1187415
25.13253,1900827
25.14065,2532460
25.14878,2921111
25.15690,2793015
25.16503,2311928
25.17315,1670548
25.18127,1054219
25.18940,618173
25.19752,391787
25.20563,259647
25.21377,189601
25.22188,153507
25.23002,153748
25.23813,152990
25.24625,180987
25.25438,213199
25.26250,260081
25.27063,297621
25.27875,294299
25.28687,281310
25.29500,229858
25.30312,203607
25.31123,154635
25.31937,124780
25.32748,108477
25.33562,95662
25.34373,89676
25.35185,83598
25.35998,79187
25.36810,74928
25.37623,75935
25.38435,71178
25.39247,69429
25.40060,74443
25.40872,70354
25.41685,70543
25.42497,70714
25.43308,66326
25.44122,67635
25.44933,67116
25.45745,69224
25.46558,61918
25.47370,70649
25.48183,66152
25.48995,67872
25.49807,63094
25.50620,61511
25.51432,61499
25.52245,60068
25.53057,62134
25.53868,61593
25.54682,66964
25.55493,62192
25.56307,68161
25.57118,81134
25.57930,111608
25.58743,134896
25.59555,155426
25.60367,167930
25.61180,183313
25.61992,190662
25.62805,191880
25.63617,203170
25.64428,199454
25.65242,205057
25.66053,213492
25.66867,208744
25.67678,210871
25.68490,219062
25.69303,206849
25.70115,209737
25.70928,213314
25.71740,213988
25.72552,214428
25.73365,213633
25.74177,210349
25.74988,207893
25.75802,208659
25.76613,206437
25.77427,206860
25.78238,204094
25.79050,201068
25.79863,201053
25.80675,204621
25.81488,200557
25.82300,201732
25.83112,203141
25.83925,198761
25.84737,201432
25.85548,197411
25.86362,196044
25.87173,187161
25.87987,189815
25.88798,185789
25.89610,184612
25.90423,179855
25.91235,174474
25.92048,173893
25.92860,176681
25.93672,166680
25.94485,169665
25.95297,175080
25.96110,169408
25.96922,165989
25.97733,163641
25.98547,158012
25.99358,157006
26.00170,152512
26.00983,159071
26.01795,158832
26.02608,150829
26.03420,150102
26.04232,149103
26.05045,149933
26.05857,147829
26.06670,149696
26.07482,143236
26.08293,145344
26.09107,143440
26.09918,147155
26.10730,141673
26.11543,142549
26.12355,144359
26.13168,143487
26.13980,144276
26.14792,135125
26.15605,133207
26.16417,143929
26.17230,135151
26.18042,133812
26.18853,129602
26.19667,132033
26.20478,124244
26.21292,120069
26.22103,120963
26.22915,120550
26.23728,120308
26.24540,119029
26.25352,110323
26.26165,112993
26.26977,111899
26.27790,114487
26.28602,112890
26.29413,102493
26.30227,109246
26.31038,111557
26.31852,102438
26.32663,101444
26.33475,101072
26.34288,98646
26.35100,98279
26.35913,101864
26.36725,99510
26.37537,99120
26.38350,103615
26.39162,107995
26.39973,105712
26.40787,109537
26.41598,103850
26.42412,102408
26.43223,102995
26.44035,97050
26.44848,94402
26.45660,92241
26.46473,91671
26.47285,89587
26.48097,91281
26.48910,88133
26.49722,85604
26.50533,80371
26.51347,81951
26.52158,82853
26.52972,82792
26.53783,78000
26.54595,78003
26.55408,74064
26.56220,78800
26.57033,73628
26.57845,80327
26.58657,77369
26.59470,74769
26.60282,74309
26.61095,73336
26.61907,73811
26.62718,74356
26.63532,74062
26.64343,69209
26.65155,80484
26.65968,72581
26.66780,74748
26.67593,75015
26.68405,73087
26.69217,72547
26.70030,71074
26.70842,75083
26.71655,65275
26.72467,67316
26.73278,70967
26.74092,66954
26.74903,66790
26.75717,63294
26.76528,60054
26.77340,69304
26.78153,68668
26.78965,72168
26.79777,73129
26.80590,74627
26.81402,74464
26.82215,74866
26.83027,72175
26.83838,64905
26.84652,69416
26.85463,66225
26.86277,67956
26.87088,59255
26.87900,63565
26.88713,65260
26.89525,59472
26.90337,59482
26.91150,63693
26.91962,58385
26.92775,60978
26.93587,60868
26.94398,59036
26.95212,61102
26.96023,63738
26.96837,75221
26.97648,90254
26.98460,120551
26.99273,177684
27.00085,249446
27.00898,336831
27.01710,413972
27.02522,466540
27.03335,493012
27.04147,478834
27.04958,457162
27.05772,392405
27.06583,337045
27.07397,283690
27.08208,245432
27.09020,205461
27.09833,181873
27.10645,167733
27.11458,160094
27.12270,144063
27.13082,139399
27.13895,130528
27.14707,125306
27.15518,117532
27.16332,118502
27.17143,117029
27.17957,116847
27.18768,115921
27.19580,115530
27.20393,107919
27.21205,102680
27.22018,93957
27.22830,97945
27.23642,100795
27.24455,87773
27.25267,87371
27.26080,87938
27.26892,80803
27.27703,76839
27.28517,78231
27.29328,75956
27.30140,71713
27.30953,68014
27.31765,68982
27.32578,70615
27.33390,70185
27.34202,71051
27.35015,69041
27.35827,68740
27.36640,71545
27.37452,71779
27.38263,68970
27.39077,66564
27.39888,67027
27.40702,64494
27.41513,62596
27.42325,64318
27.43138,61425
27.43950,57753
27.44762,61157
27.45575,61410
27.46387,62248
27.47200,58163
27.48012,57116
27.48823,62051
27.49637,64380
27.50448,63837
27.51262,66416
27.52073,69878
27.52885,63930
27.53698,63642
27.54510,57168
27.55322,61149
27.56135,59325
27.56947,63694
27.57760,71778
27.58572,79971
27.59383,87497
27.60197,87888
27.61008,88007
27.61822,81499
27.62633,70634
27.63445,68298
27.64258,59502
27.65070,62714
27.65883,58884
27.66695,61247
27.67507,60661
27.68320,64714
27.69132,64854
27.69943,65485
27.70757,64138
27.71568,56250
27.72382,59395
27.73193,57437
27.74005,57020
27.74818,55356
27.75630,53892
27.76443,50443
27.77255,51633
27.78067,53032
27.78880,55803
27.79692,57531
27.80505,55334
27.81317,54097
27.82128,56467
27.82942,51158
27.83753,47621
27.84565,50199
27.85378,50667
27.86190,54043
27.87003,53011
27.87815,49463
27.88627,49508
27.89440,50001
27.90252,49176
27.91065,45521
27.91877,47908
27.92688,48002
27.93502,47264
27.94313,51449
27.95125,49587
27.95938,49793
27.96750,48596
27.97563,48712
27.98375,47206
27.99187,49036
28.00000,47368
28.00812,51125
28.01625,59788
28.02437,61938
28.03248,70067
28.04062,77476
28.04873,88913
28.05687,89227
28.06498,85893
28.07310,81983
28.08123,71791
28.08935,66734
28.09747,62783
28.10560,60181
28.11372,53753
28.12185,52905
28.12997,50664
28.13808,51340
28.14622,49055
28.15433,43929
28.16247,49557
28.17058,51128
28.17870,53095
28.18683,62476
28.19495,71091
28.20308,72345
28.21120,76693
28.21932,79467
28.22745,82461
28.23557,83507
28.24368,70797
28.25182,68210
28.25993,63847
28.26807,55259
28.27618,52213
28.28430,54439
28.29243,49409
28.30055,57429
28.30868,60551
28.31680,71524
28.32492,78195
28.33305,87934
28.34117,103726
28.34928,111388
28.35742,116354
28.36553,134082
28.37367,149387
28.38178,156788
28.38990,160080
28.39803,159385
28.40615,159038
28.41428,164760
28.42240,151802
28.43052,146091
28.43865,136268
28.44677,131913
28.45490,120337
28.46302,116738
28.47113,108802
28.47927,105571
28.48738,97446
28.49550,90723
28.50363,91839
28.51175,84149
28.51988,83568
28.52800,79279
28.53612,77801
28.54425,71415
28.55237,75884
28.56050,71937
28.56862,69934
28.57673,69507
28.58487,63965
28.59298,66547
28.60110,67425
28.60923,66307
28.61735,64301
28.62548,64280
28.63360,61705
28.64172,63179
28.64985,65796
28.65797,66841
28.66610,66812
28.67422,64299
28.68233,62689
28.69047,63554
28.69858,62462
28.70672,60894
28.71483,61846
28.72295,61821
28.73108,64472
28.73920,65383
28.74732,74205
28.75545,79508
28.76357,78078
28.77170,80037
28.77982,73101
28.78793,66681
28.79607,58864
28.80418,64543
28.81232,67201
28.82043,63195
28.82855,64142
28.83668,59902
28.84480,58689
28.85293,57030
28.86105,58323
28.86917,57765
28.87730,62644
28.88542,63698
28.89353,70374
28.90167,71634
28.90978,69947
28.91792,69434
28.92603,61762
28.93415,58107
28.94228,59668
28.95040,55089
28.95853,56622
28.96665,58671
28.97477,56339
28.98290,52324
28.99102,54391
28.99913,53846
29.00727,50207
29.01538,48280
29.02352,49799
29.03163,54123
29.03975,47363
29.04788,51485
29.05600,48828
29.06413,54524
29.07225,56081
29.08037,53291
29.08850,53529
29.09662,54749
29.10475,53856
29.11287,52520
29.12098,47183
29.12912,50888
29.13723,47291
29.14535,49120
29.15348,51816
29.16160,50579
29.16973,49975
29.17785,53388
29.18597,59688
29.19410,68144
29.20222,84321
29.21035,96660
29.21847,100375
29.22658,97096
29.23472,92911
29.24283,85414
29.25097,82302
29.25908,78983
29.26720,72739
29.27533,73443
29.28345,68289
29.29157,67301
29.29970,62151
29.30782,56506
29.31595,50460
29.32407,46335
29.33218,50394
29.34032,47865
29.34843,49405
29.35657,45794
29.36468,47010
29.37280,42808
29.38093,42800
29.38905,44322
29.39717,46289
29.40530,50064
29.41342,47061
29.42155,46154
29.42967,45029
29.43778,45153
29.44592,49516
29.45403,46633
29.46217,47346
29.47028,49564
29.47840,48914
29.48653,47250
29.49465,45878
29.50278,49249
29.51090,49943
29.51902,47118
29.52715,44461
29.53527,46184
29.54338,47803
29.55152,42025
29.55963,41432
29.56777,40744
29.57588,44285
29.58400,42761
29.59213,43488
29.60025,43205
29.60838,44389
29.61650,43094
29.62462,42551
29.63275,41321
29.64087,43889
29.64898,41047
29.65712,43329
29.66523,44090
29.67337,44268
29.68148,46577
29.68960,49100
29.69773,51363
29.70585,52349
29.71398,49512
29.72210,47679
29.73022,45562
29.73835,42059
29.74647,44919
29.75460,48000
29.76272,39716
29.77083,43099
29.77897,40304
29.78708,39037
29.79520,40552
29.80333,39402
29.81145,39879
29.81958,42823
29.82770,36445
29.83582,36805
29.84395,40765
29.85207,42720
29.86020,40254
29.86832,48491
29.87643,52882
29.88457,60970
29.89268,73027
29.90082,76803
29.90893,80205
29.91705,71132
29.92518,67952
29.93330,57741
29.94142,56520
29.94955,57648
29.95767,54942
29.96580,60203
29.97392,64075
29.98203,71809
29.99017,73074
29.99828,79228
30.00642,85987
30.01453,87536
30.02265,94573
30.03078,98846
30.03890,95249
30.04702,96954
30.05515,91750
30.06327,97281
30.07140,99165
30.07952,94743
30.08763,87903
30.09577,89908
30.10388,90003
30.11202,92295
30.12013,88556
30.12825,86814
30.13638,80341
30.14450,84279
30.15263,79860
30.16075,75143
30.16887,67948
30.17700,67383
30.18512,67468
30.19323,69380
30.20137,65409
30.20948,66604
30.21762,63697
30.22573,60451
30.23385,62548
30.24198,56458
30.25010,59149
30.25823,56264
30.26635,53805
30.27447,53755
30.28260,56005
30.29072,55537
30.29885,50291
30.30697,54525
30.31508,53598
30.32322,48042
30.33133,48969
30.33945,46450
30.34758,49336
30.35570,49148
30.36383,48364
30.37195,48445
30.38007,47157
30.38820,48369
30.39632,48972
30.40445,52985
30.41257,45854
30.42068,48344
30.42882,46938
30.43693,43822
30.44505,44687
30.45318,45189
30.46130,42870
30.46943,44064
30.47755,45531
30.48567,41185
30.49380,42898
30.50192,41275
30.51005,43536
30.51817,43279
30.52628,41905
30.53442,44429
30.54253,45786
30.55067,44659
30.55878,47803
30.56690,41584
30.57503,46020
30.58315,47082
30.59127,44499
30.59940,45842
30.60752,41464
30.61565,41679
30.62377,39729
30.63188,40841
30.64002,40125
30.64813,37453
30.65627,45665
30.66438,41636
30.67250,38509
30.68063,41064
30.68875,40226
30.69687,40034
30.70500,41044
30.71312,40103
30.72125,42309
30.72937,41924
30.73748,43810
30.74562,42285
30.75373,38171
30.76187,41466
30.76998,46916
30.77810,51893
30.78623,58944
30.79435,67266
30.80248,81869
30.81060,87817
30.81872,87380
30.82685,87058
30.83497,76878
30.84308,63690
30.85122,56628
30.85933,52496
30.86747,47204
30.87558,42918
30.88370,48533
30.89183,41060
30.89995,44393
30.90808,47508
30.91620,41184
30.92432,42778
30.93245,41004
30.94057,42418
30.94870,38155
30.95682,41154
30.96493,40879
30.97307,37941
30.98118,40976
30.98930,41764
30.99743,41615
31.00555,44261
31.01368,42231
31.02180,47408
31.02992,45637
31.03805,48907
31.04617,51463
31.05430,54030
31.06242,52031
31.07053,58571
31.07867,64024
31.08678,60788
31.09492,70507
31.10303,72735
31.11115,75183
31.11928,70159
31.12740,67862
31.13552,66481
31.14365,66872
31.15177,63557
31.15990,67795
31.16802,67157
31.17613,74706
31.18427,80622
31.19238,94219
31.20052,120493
31.20863,149236
31.21675,175325
31.22488,190239
31.23300,198212
31.24112,190170
31.24925,150360
31.25737,118031
31.26550,95860
31.27362,81379
31.28173,63747
31.28987,65366
31.29798,65526
31.30612,64411
31.31423,60255
31.32235,61192
31.33048,60632
31.33860,63581
31.34673,60746
31.35485,66256
31.36297,61505
31.37110,62962
31.37922,62982
31.38733,59128
31.39547,59763
31.40358,64991
31.41172,61294
31.41983,56775
31.42795,56229
31.43608,57062
31.44420,58612
31.45233,50233
31.46045,51024
31.46857,57219
31.47670,54924
31.48482,53181
31.49293,52282
31.50107,59817
31.50918,55201
31.51732,59291
31.52543,55575
31.53355,54528
31.54168,52893
31.54980,61347
31.55793,54770
31.56605,53928
31.57417,53616
31.58230,50748
31.59042,51329
31.59855,52578
31.60667,51648
31.61478,49228
31.62292,49759
31.63103,48462
31.63915,48475
31.64728,51314
31.65540,55738
31.66353,52702
31.67165,55538
31.67977,55751
31.68790,56349
31.69602,51195
31.70415,53363
31.71227,48770
31.72038,51037
31.72852,50799
31.73663,47720
31.74477,55376
31.75288,45860
31.76100,48356
31.76913,44878
31.77725,47565
31.78537,46661
31.79350,49345
31.80162,48189
31.80975,46959
31.81787,47849
31.82598,46291
31.83412,50200
31.84223,42334
31.85037,47073
31.85848,51565
31.86660,50731
31.87473,54504
31.88285,54330
31.89097,55703
31.89910,60324
31.90722,68076
31.91535,68762
31.92347,76490
31.93158,77198
31.93972,83696
31.94783,86989
31.95597,87554
31.96408,89920
31.97220,93725
31.98033,91999
31.98845,94502
31.99658,91464
32.00470,92059
32.01282,94285
32.02095,86409
32.02907,83506
32.03718,87467
32.04532,83251
32.05343,78600
32.06157,78056
32.06968,77680
32.07780,71964
32.08593,65095
32.09405,63724
32.10218,62816
32.11030,62720
32.11842,59971
32.12655,60373
32.13467,56525
32.14280,58322
32.15092,53467
32.15903,56241
32.16717,56756
32.17528,48759
32.18340,52339
32.19153,51059
32.19965,55181
32.20778,51224
32.21590,51300
32.22402,55483
32.23215,57734
32.24027,52334
32.24840,53419
32.25652,52064
32.26463,52608
32.27277,51314
32.28088,49134
32.28900,50272
32.29713,52207
32.30525,50951
32.31338,49895
32.32150,47706
32.32962,48584
32.33775,45446
32.34587,48301
32.35400,50410
32.36212,52415
32.37023,52571
32.37837,47808
32.38648,43842
32.39462,47878
32.40273,43873
32.41085,48027
32.41898,44024
32.42710,44420
32.43522,44201
32.44335,46745
32.45147,46489
32.45960,44135
32.46772,43855
32.47583,46265
32.48397,45187
32.49208,46969
32.50022,46309
32.50833,46354
32.51645,45458
32.52458,44898
32.53270,45294
32.54082,43429
32.54895,47059
32.55707,44221
32.56520,49070
32.57332,46217
32.58143,42972
32.58957,46474
32.59768,40715
32.60582,44407
32.61393,42108
32.62205,45847
32.63018,48050
32.63830,53290
32.64643,59161
32.65455,60116
32.66267,57735
32.67080,55487
32.67892,50412
32.68703,45940
32.69517,53608
32.70328,46785
32.71142,44784
32.71953,50042
32.72765,47747
32.73578,47951
32.74390,45103
32.75203,43632
32.76015,45900
32.76827,43261
32.77640,41821
32.78452,42134
32.79265,37266
32.80077,44196
32.80888,38425
32.81702,37808
32.82513,38923
32.83325,43678
32.84138,37103
32.84950,38505
32.85763,39613
32.86575,42710
32.87387,43884
32.88200,45616
32.89012,44989
32.89825,45774
32.90637,39985
32.91448,44992
32.92262,46428
32.93073,47043
32.93885,44994
32.94698,44914
32.95510,40873
32.96323,41246
32.97135,45151
32.97947,49132
32.98760,53199
32.99572,55432
33.00385,58525
33.01197,60477
33.02008,61559
33.02822,55790
33.03633,52875
33.04447,49459
33.05258,51313
33.06070,49071
33.06883,52210
33.07695,56357
33.08507,56260
33.09320,58782
33.10132,66381
33.10945,66683
33.11757,65567
33.12568,67966
33.13382,63974
33.14193,55660
33.15007,56090
33.15818,50193
33.16630,49511
33.17443,51386
33.18255,49920
33.19068,46051
33.19880,49976
33.20692,43707
33.21505,43388
33.22317,47558
33.23128,42067
33.23942,46485
33.24753,44023
33.25567,40961
33.26378,45914
33.27190,45070
33.28003,42910
33.28815,40794
33.29628,40895
33.30440,39501
33.31252,41586
33.32065,47761
33.32877,40464
33.33688,42039
33.34502,44225
33.35313,48614
33.36127,48438
33.36938,47255
33.37750,47267
33.38563,43872
33.39375,46613
33.40188,42692
33.41000,41551
33.41812,41172
33.42625,41119
33.43437,41708
33.44250,38842
33.45062,38398
33.45873,41480
33.46687,42267
33.47498,41295
33.48310,38004
33.49123,39588
33.49935,40904
33.50748,42632
33.51560,45401
33.52372,42760
33.53185,42471
33.53997,46983
33.54810,50304
33.55622,48602
33.56433,44957
33.57247,50849
33.58058,44131
33.58870,45523
33.59683,44003
33.60495,44070
33.61308,41827
33.62120,42268
33.62932,45641
33.63745,44331
33.64557,44782
33.65370,46217
33.66182,46151
33.66993,44637
33.67807,42028
33.68618,46287
33.69432,44637
33.70243,41482
33.71055,44779
33.71868,42976
33.72680,40300
33.73492,39026
33.74305,42036
33.75117,39068
33.75930,41827
33.76742,39517
33.77553,43743
33.78367,41053
33.79178,41927
33.79992,39583
33.80803,38648
33.81615,42610
33.82428,40315
33.83240,43335
33.84053,44497
33.84865,41609
33.85677,40912
33.86490,44639
33.87302,41285
33.88113,47029
33.88927,45298
33.89738,40396
33.90552,43040
33.91363,45467
33.92175,43527
33.92988,42548
33.93800,47180
33.94613,40962
33.95425,39117
33.96237,39678
33.97050,41743
33.97862,38728
33.98673,41376
33.99487,44727
34.00298,43052
34.01112,38777
34.01923,41152
34.02735,38782
34.03548,38355
34.04360,44461
34.05173,40586
34.05985,41402
34.06797,39220
34.07610,38645
34.08422,42639
34.09235,41904
34.10047,40785
34.10858,38245
34.11672,37410
34.12483,45234
34.13295,41733
34.14108,43083
34.14920,42648
34.15733,45806
34.16545,42994
34.17357,44601
34.18170,40347
34.18982,43315
34.19795,40157
34.20607,39793
34.21418,44652
34.22232,40574
34.23043,40834
34.23857,40976
34.24668,43784
34.25480,41710
34.26293,39558
34.27105,39066
34.27917,41330
34.28730,40473
34.29542,40362
34.30355,38171
34.31167,41295
34.31978,40196
34.32792,39468
34.33603,42757
34.34417,42822
34.35228,41765
34.36040,39124
34.36853,39098
34.37665,40272
34.38477,41922
34.39290,39967
34.40102,39812
34.40915,40277
34.41727,40315
34.42538,40209
34.43352,37016
34.44163,41307
34.44977,44066
34.45788,40093
34.46600,38791
34.47413,42999
34.48225,44225
34.49038,43399
34.49850,50777
34.50662,56609
34.51475,63157
34.52287,69322
34.53098,72861
34.53912,78505
34.54723,77917
34.55537,79275
34.56348,81863
34.57160,79366
34.57973,73925
34.58785,75584
34.59598,64852
34.60410,60895
34.61222,60230
34.62035,58347
34.62847,61827
34.63660,53086
34.64472,52297
34.65283,54313
34.66097,50925
34.66908,48581
34.67720,49810
34.68533,51896
34.69345,45962
34.70158,46041
34.70970,46972
34.71782,50456
34.72595,47446
34.73407,48543
34.74220,48649
34.75032,50486
34.75843,52207
34.76657,51966
34.77468,47472
34.78280,48585
34.79093,49203
34.79905,51983
34.80718,49464
34.81530,48784
34.82342,47760
34.83155,45676
34.83967,47283
34.84780,45597
34.85592,47653
34.86403,46920
34.87217,47598
34.88028,47901
34.88842,43787
34.89653,42416
34.90465,46811
34.91278,48760
34.92090,50244
34.92902,43724
34.93715,49632
34.94527,49794
34.95340,50225
34.96152,54309
34.96963,54384
34.97777,53523
34.98588,49513
34.99402,51051
35.00213,48380
35.01025,45466
35.01838,47405
35.02650,44939
35.03462,44911
35.04275,47242
35.05087,41063
35.05900,44640
35.06712,47559
35.07523,50052
35.08337,46746
35.09148,45000
35.09962,42998
35.10773,44169
35.11585,45013
35.12398,45173
35.13210,46082
35.14023,46335
35.14835,45934
35.15647,47001
35.16460,46879
35.17272,46927
35.18083,44466
35.18897,42780
35.19708,44323
35.20522,47735
35.21333,45602
35.22145,43702
35.22958,41885
35.23770,42430
35.24583,46199
35.25395,45230
35.26207,43351
35.27020,43398
35.27832,45200
35.28645,44190
35.29457,42859
35.30268,42758
35.31082,46522
35.31893,44645
35.32705,39556
35.33518,42411
35.34330,39229
35.35143,44791
35.35955,45115
35.36767,44432
35.37580,44112
35.38392,46430
35.39205,45941
35.40017,45127
35.40828,50936
35.41642,51033
35.42453,52109
35.43265,50077
35.44078,49864
35.44890,51814
35.45703,53013
35.46515,50507
35.47327,46289
35.48140,48935
35.48952,47123
35.49765,45241
35.50577,46513
35.51388,49388
35.52202,52745
35.53013,48793
35.53827,44323
35.54638,47670
35.55450,45601
35.56263,46411
35.57075,45314
35.57887,46346
35.58700,47861
35.59512,49041
35.60325,45144
35.61137,45353
35.61948,44295
35.62762,43890
35.63573,45338
35.64387,46191
35.65198,44094
35.66010,49750
35.66823,46331
35.67635,48643
35.68448,48228
35.69260,45424
35.70072,45793
35.70885,47173
35.71697,47684
35.72508,44938
35.73322,44784
35.74133,50022
35.74947,49669
35.75758,58143
35.76570,52663
35.77383,55495
35.78195,51467
35.79008,47062
35.79820,48796
35.80632,51009
35.81445,45965
35.82257,45833
35.83068,42917
35.83882,43603
35.84693,44005
35.85507,47467
35.86318,45010
35.87130,48463
35.87943,45713
35.88755,43558
35.89568,43875
35.90380,48643
35.91192,47789
35.92005,45250
35.92817,41507
35.93630,40481
35.94442,41489
35.95253,47762
35.96067,45662
35.96878,46638
35.97690,44785
35.98503,45123
35.99315,44569
36.00128,48857
36.00940,49348
36.01752,48413
36.02565,44065
36.03377,48509
36.04190,49323
36.05002,48489
36.05813,50582
36.06627,48494
36.07438,48615
36.08250,43454
36.09063,51327
36.09875,46355
36.10688,48960
36.11500,46705
36.12312,44818
36.13125,48571
36.13937,49531
36.14750,46038
36.15562,48911
36.16373,49316
36.17187,47392
36.17998,47915
36.18812,42894
36.19623,48534
36.20435,47770
36.21248,45514
36.22060,40253
36.22872,44413
36.23685,45733
36.24497,45789
36.25310,45527
36.26122,44831
36.26933,45789
36.27747,60011
36.28558,57260
36.29372,58076
36.30183,58325
36.30995,58047
36.31808,58969
36.32620,59815
36.33433,53073
36.34245,48197
36.35057,44345
36.35870,46242
36.36682,45701
36.37493,45110
36.38307,49159
36.39118,48181
36.39932,48242
36.40743,52389
36.41555,49385
36.42368,52575
36.43180,45925
36.43993,42658
36.44805,46762
36.45617,46237
36.46430,44930
36.47242,42604
36.48053,44064
36.48867,46751
36.49678,47570
36.50492,45933
36.51303,45057
36.52115,47005
36.52928,48507
36.53740,46980
36.54553,46843
36.55365,48376
36.56177,47029
36.56990,50043
36.57802,47019
36.58615,45830
36.59427,51355
36.60238,51757
36.61052,54749
36.61863,49905
36.62675,49569
36.63488,48711
36.64300,51980
36.65113,51889
36.65925,52722
36.66737,52111
36.67550,55519
36.68362,51385
36.69175,50775
36.69987,52101
36.70798,52274
36.71612,53450
36.72423,50290
36.73237,52175
36.74048,52198
36.74860,49467
36.75673,53140
36.76485,50515
36.77297,50365
36.78110,52891
36.78922,48719
36.79735,52540
36.80547,51170
36.81358,50529
36.82172,50850
36.82983,50745
36.83797,51534
36.84608,51745
36.85420,48863
36.86233,48025
36.87045,51311
36.87857,53103
36.88670,52163
36.89482,51451
36.90295,52837
36.91107,54421
36.91918,54935
36.92732,52514
36.93543,57960
36.94357,59122
36.95168,63032
36.95980,63628
36.96793,70567
36.97605,66869
36.98418,62492
36.99230,61785
37.00042,56103
37.00855,53610
37.01667,52686
37.02478,55053
37.03292,54318
37.04103,52904
37.04917,51632
37.05728,57020
37.06540,57111
37.07353,53357
37.08165,51031
37.08978,52173
37.09790,52994
37.10602,51761
37.11415,53179
37.12227,49884
37.13038,54068
37.13852,51243
37.14663,49922
37.15477,54959
37.16288,54580
37.17100,51705
37.17913,52253
37.18725,54659
37.19538,52383
37.20350,56269
37.21162,54256
37.21975,53941
37.22787,54486
37.23600,53681
37.24412,53021
37.25223,53432
37.26037,55124
37.26848,50687
37.27660,52786
37.28473,52159
37.29285,54988
37.30098,60276
37.30910,57700
37.31722,71188
37.32535,78128
37.33347,75857
37.34160,74390
37.34972,83290
37.35783,80821
37.36597,77580
37.37408,74903
37.38222,76060
37.39033,67420
37.39845,64351
37.40658,67309
37.41470,62044
37.42282,64802
37.43095,60507
37.43907,64967
37.44720,65489
37.45532,64503
37.46343,60833
37.47157,61690
37.47968,60557
37.48782,61361
