C:\MassHunter\GCMS\1\data\JTB-E02\BACandBLUE\JTB-E18-017-10.D Wed Jul 03 14:29:55 2019
Start of data points
2.09523	72787
2.10335	74519
2.11148	74561
2.11960	72622
2.12772	71893
2.13585	72866
2.14397	71040
2.15210	71379
2.16022	70993
2.16833	69402
2.17647	69977
2.18458	63854
2.19272	68781
2.20083	66869
2.20895	64943
2.21708	62910
2.22520	60664
2.23333	58240
2.24145	60083
2.24957	68298
2.25770	103834
2.26582	797864
2.27393	1852468
2.28207	935268
2.29018	398759
2.29832	297500
2.30643	246491
2.31455	222036
2.32268	263959
2.33080	502364
2.33893	280601
2.34705	196356
2.35517	172161
2.36330	160067
2.37142	149684
2.37953	143213
2.38767	141588
2.39578	133546
2.40392	125095
2.41203	125384
2.42015	128731
2.42828	121975
2.43640	117626
2.44453	117911
2.45265	120448
2.46077	106656
2.46890	108332
2.47702	110989
2.48515	136578
2.49327	145776
2.50138	117348
2.50952	113973
2.51763	107756
2.52575	105071
2.53388	108428
2.54200	115736
2.55013	177864
2.55825	249718
2.56637	188733
2.57450	154527
2.58262	136436
2.59075	139451
2.59887	293349
2.60698	665589
2.61512	625603
2.62323	405994
2.63137	258259
2.63948	204590
2.64760	169213
2.65573	153782
2.66385	136522
2.67197	133550
2.68010	125310
2.68822	118984
2.69635	116207
2.70447	117996
2.71258	110754
2.72072	108807
2.72883	102906
2.73697	106289
2.74508	103497
2.75320	101734
2.76133	101164
2.76945	111376
2.77757	178669
2.78570	218896
2.79382	165570
2.80195	142826
2.81007	169663
2.81818	180563
2.82632	187394
2.83443	176204
2.84257	144632
2.85068	124202
2.85880	121722
2.86693	114453
2.87505	109951
2.88318	109990
2.89130	106702
2.89942	102910
2.90755	100890
2.91567	104400
2.92378	97724
2.93192	99661
2.94003	101458
2.94817	97250
2.95628	101650
2.96440	108992
2.97253	103802
2.98065	102901
2.98878	103208
2.99690	99912
3.00502	106499
3.01315	100047
3.02127	91913
3.02940	90842
3.03752	91755
3.04563	98976
3.05377	98870
3.06188	107873
3.07000	131500
3.07813	435767
3.08625	1347692
3.09438	2485163
3.10250	4095511
3.11062	4103992
3.11875	2499361
3.12687	1593878
3.13500	1237321
3.14312	983057
3.15123	810172
3.15937	715505
3.16748	695748
3.17560	779193
3.18373	1376095
3.19185	2001101
3.19998	1627441
3.20810	1100934
3.21622	865403
3.22435	729071
3.23247	614145
3.24060	536790
3.24872	477468
3.25683	434352
3.26497	390980
3.27308	385894
3.28122	466794
3.28933	1022261
3.29745	2513286
3.30558	4025806
3.31370	4136031
3.32182	3187639
3.32995	2303725
3.33807	1810455
3.34620	1466301
3.35432	1268629
3.36243	1104446
3.37057	969163
3.37868	868642
3.38682	792303
3.39493	712645
3.40305	682139
3.41118	650719
3.41930	607996
3.42742	592133
3.43555	565210
3.44367	533700
3.45180	514204
3.45992	521968
3.46803	552635
3.47617	553639
3.48428	513227
3.49242	483311
3.50053	456535
3.50865	422667
3.51678	415678
3.52490	424570
3.53303	425892
3.54115	419694
3.54927	407314
3.55740	406319
3.56552	396798
3.57363	417490
3.58177	405750
3.58988	378292
3.59802	369089
3.60613	362739
3.61425	360281
3.62238	394728
3.63050	444722
3.63863	444665
3.64675	434986
3.65487	580495
3.66300	1974310
3.67112	5735881
3.67925	8222127
3.68737	6282177
3.69548	3630072
3.70362	2424499
3.71173	1914001
3.71985	1601006
3.72798	1420447
3.73610	1254912
3.74423	1140588
3.75235	1059346
3.76047	963018
3.76860	923114
3.77672	857842
3.78485	840659
3.79297	839270
3.80108	1163199
3.80922	1852542
3.81733	2073663
3.82545	1630917
3.83358	1238314
3.84170	1009560
3.84983	893930
3.85795	809547
3.86607	768425
3.87420	723832
3.88232	671464
3.89045	639463
3.89857	612644
3.90668	639825
3.91482	744531
3.92293	943501
3.93107	978400
3.93918	959115
3.94730	1439435
3.95543	2945842
3.96355	4311051
3.97167	3988245
3.97980	2666985
3.98792	2317297
3.99605	5238140
4.00417	1.273981E+07
4.01228	1.926282E+07
4.02042	1.769957E+07
4.02853	1.068002E+07
4.03667	5727336
4.04478	3595918
4.05290	2614492
4.06103	2060850
4.06915	1692041
4.07728	1434100
4.08540	1256092
4.09352	1128560
4.10165	1016055
4.10977	926553
4.11788	865576
4.12602	853011
4.13413	993522
4.14227	1347799
4.15038	1649545
4.15850	1479277
4.16663	1189131
4.17475	1000161
4.18288	846316
4.19100	772941
4.19912	834121
4.20725	1997830
4.21537	6102625
4.22348	1.300218E+07
4.23162	1.762161E+07
4.23973	1.661183E+07
4.24787	1.105808E+07
4.25598	6591245
4.26410	4560077
4.27223	3411887
4.28035	2654766
4.28848	2194933
4.29660	1835528
4.30472	1617616
4.31285	1429597
4.32097	1272631
4.32910	1190332
4.33722	1108751
4.34533	1093612
4.35347	1070594
4.36158	1052241
4.36970	1013445
4.37783	936002
4.38595	850007
4.39408	789940
4.40220	762128
4.41032	718072
4.41845	704617
4.42657	677360
4.43470	643214
4.44282	610676
4.45093	605353
4.45907	592766
4.46718	572119
4.47530	555347
4.48343	538941
4.49155	527671
4.49968	513310
4.50780	495833
4.51592	496964
4.52405	485721
4.53217	477950
4.54030	469292
4.54842	468711
4.55653	454996
4.56467	432797
4.57278	420901
4.58092	415165
4.58903	416779
4.59715	410440
4.60528	411131
4.61340	424290
4.62152	545461
4.62965	830169
4.63777	1121647
4.64590	1176895
4.65402	959933
4.66213	718865
4.67027	578062
4.67838	528058
4.68652	484915
4.69463	452600
4.70275	422209
4.71088	407124
4.71900	379636
4.72713	377115
4.73525	369523
4.74337	369918
4.75150	357801
4.75962	340527
4.76773	345667
4.77587	336726
4.78398	391450
4.79212	577189
4.80023	869221
4.80835	991365
4.81648	867201
4.82460	685905
4.83273	587164
4.84085	560300
4.84897	535308
4.85710	493505
4.86522	457460
4.87335	423062
4.88147	390993
4.88958	380978
4.89772	363794
4.90583	355705
4.91395	354066
4.92208	360995
4.93020	412560
4.93833	605358
4.94645	1022461
4.95457	1594864
4.96270	1921442
4.97082	1900262
4.97895	1606888
4.98707	1297378
4.99518	1081373
5.00332	915625
5.01143	817399
5.01955	854581
5.02768	1106291
5.03580	1455025
5.04393	1591680
5.05205	1396043
5.06017	1137408
5.06830	948610
5.07642	825199
5.08455	769148
5.09267	708097
5.10078	668005
5.10892	639023
5.11703	618436
5.12517	587909
5.13328	566975
5.14140	550691
5.14953	573496
5.15765	630312
5.16577	672280
5.17390	674231
5.18202	619560
5.19015	601737
5.19827	626383
5.20638	673414
5.21452	670946
5.22263	646196
5.23077	572035
5.23888	532256
5.24700	497203
5.25513	463221
5.26325	440195
5.27137	404613
5.27950	399801
5.28762	383804
5.29575	383948
5.30387	379805
5.31198	378299
5.32012	385771
5.32823	411166
5.33637	447619
5.34448	444859
5.35260	426956
5.36073	402794
5.36885	383744
5.37698	375758
5.38510	394571
5.39322	407764
5.40135	418656
5.40947	403823
5.41758	393729
5.42572	367385
5.43383	367858
5.44197	363253
5.45008	373006
5.45820	370431
5.46633	358706
5.47445	336214
5.48258	325263
5.49070	310589
5.49882	311272
5.50695	311066
5.51507	324472
5.52320	316172
5.53132	316730
5.53943	308521
5.54757	313133
5.55568	343621
5.56380	399581
5.57193	448161
5.58005	464013
5.58818	412931
5.59630	367716
5.60442	326121
5.61255	312603
5.62067	310907
5.62880	319094
5.63692	320683
5.64503	314805
5.65317	303083
5.66128	300322
5.66940	319179
5.67753	331299
5.68565	377933
5.69378	385025
5.70190	366429
5.71002	353811
5.71815	305208
5.72627	293534
5.73440	288041
5.74252	272449
5.75063	267056
5.75877	260010
5.76688	271428
5.77502	265372
5.78313	269825
5.79125	257139
5.79938	259759
5.80750	261591
5.81562	250208
5.82375	258329
5.83187	255208
5.84000	259023
5.84812	258507
5.85623	257939
5.86437	247114
5.87248	247041
5.88062	249460
5.88873	240073
5.89685	237394
5.90498	230293
5.91310	199581
5.92123	190972
5.92935	182522
5.93747	189502
5.94560	198069
5.95372	219051
5.96183	254227
5.96997	281576
5.97808	324354
5.98622	363855
5.99433	354895
6.00245	318802
6.01058	264095
6.01870	246844
6.02683	216710
6.03495	198358
6.04307	187735
6.05120	192795
6.05932	184294
6.06743	183851
6.07557	176803
6.08368	180894
6.09182	178746
6.09993	191102
6.10805	208870
6.11618	232891
6.12430	289252
6.13243	399867
6.14055	581654
6.14867	666656
6.15680	603607
6.16492	466466
6.17305	358244
6.18117	304015
6.18928	278815
6.19742	263867
6.20553	260556
6.21365	254398
6.22178	240559
6.22990	235938
6.23803	236109
6.24615	228906
6.25427	252720
6.26240	262042
6.27052	256905
6.27865	231745
6.28677	228197
6.29488	227188
6.30302	219754
6.31113	228714
6.31925	232724
6.32738	241752
6.33550	259947
6.34363	261643
6.35175	253049
6.35987	236504
6.36800	232927
6.37612	228022
6.38425	225510
6.39237	223463
6.40048	223217
6.40862	218264
6.41673	220311
6.42487	221236
6.43298	211928
6.44110	217922
6.44923	220765
6.45735	215143
6.46547	212804
6.47360	218506
6.48172	219016
6.48985	219961
6.49797	222271
6.50608	221308
6.51422	235732
6.52233	230060
6.53047	230037
6.53858	235293
6.54670	229962
6.55483	234920
6.56295	275126
6.57108	325497
6.57920	371729
6.58732	387958
6.59545	367633
6.60357	319826
6.61168	284581
6.61982	261836
6.62793	267428
6.63607	257036
6.64418	314889
6.65230	501115
6.66043	867348
6.66855	1300575
6.67668	1411617
6.68480	1144873
6.69292	789439
6.70105	546339
6.70917	415821
6.71728	373822
6.72542	352204
6.73353	329660
6.74167	322291
6.74978	304927
6.75790	303164
6.76603	301901
6.77415	268455
6.78228	239533
6.79040	225399
6.79852	214402
6.80665	203282
6.81477	202691
6.82290	190598
6.83102	188698
6.83913	204974
6.84727	213469
6.85538	232703
6.86350	226603
6.87163	208810
6.87975	173295
6.88788	154012
6.89600	131938
6.90412	119375
6.91225	114077
6.92037	116997
6.92850	108687
6.93662	112573
6.94473	115587
6.95287	116061
6.96098	127103
6.96912	145154
6.97723	162628
6.98535	161770
6.99348	151835
7.00160	130625
7.00972	113280
7.01785	108845
7.02597	111899
7.03410	111870
7.04222	120091
7.05033	123755
7.05847	130168
7.06658	126859
7.07472	128878
7.08283	114094
7.09095	106541
7.09908	109536
7.10720	111272
7.11532	101445
7.12345	100926
7.13157	107637
7.13970	130244
7.14782	179971
7.15593	259282
7.16407	307265
7.17218	296104
7.18032	250419
7.18843	185085
7.19655	150379
7.20468	139335
7.21280	168904
7.22093	321687
7.22905	677729
7.23717	1222662
7.24530	1572497
7.25342	1490870
7.26153	1060741
7.26967	641675
7.27778	421514
7.28592	319590
7.29403	271642
7.30215	214398
7.31028	167098
7.31840	150146
7.32653	138823
7.33465	130912
7.34277	123364
7.35090	117605
7.35902	110753
7.36715	117237
7.37527	110449
7.38338	115609
7.39152	116939
7.39963	119117
7.40775	104950
7.41588	101326
7.42400	98916
7.43213	103733
7.44025	102830
7.44837	101188
7.45650	103476
7.46462	108149
7.47275	108321
7.48087	98532
7.48898	96251
7.49712	100536
7.50523	122400
7.51335	185171
7.52148	327486
7.52960	566188
7.53773	873750
7.54585	1179330
7.55397	1308438
7.56210	1250752
7.57022	1033922
7.57835	751243
7.58647	507421
7.59458	330444
7.60272	244091
7.61083	191466
7.61897	166569
7.62708	143932
7.63520	129385
7.64333	121271
7.65145	114599
7.65957	107165
7.66770	95999
7.67582	96675
7.68395	96491
7.69207	92537
7.70018	96891
7.70832	97351
7.71643	92660
7.72457	90884
7.73268	91947
7.74080	87126
7.74893	87590
7.75705	90295
7.76517	85953
7.77330	96141
7.78142	101056
7.78955	116584
7.79767	126720
7.80578	132446
7.81392	130064
7.82203	126533
7.83017	113164
7.83828	105693
7.84640	105887
7.85453	115483
7.86265	115474
7.87078	130635
7.87890	141623
7.88702	152374
7.89515	141304
7.90327	130850
7.91138	107528
7.91952	108873
7.92763	115015
7.93577	142246
7.94388	158990
7.95200	157166
7.96013	147048
7.96825	127154
7.97638	107864
7.98450	95357
7.99262	90501
8.00075	83188
8.00887	74887
8.01700	77848
8.02512	78636
8.03323	84777
8.04137	80482
8.04948	80788
8.05760	75869
8.06573	77649
8.07385	76844
8.08198	72690
8.09010	72001
8.09822	75236
8.10635	81302
8.11447	79599
8.12260	91543
8.13072	99879
8.13883	124535
8.14697	148845
8.15508	144141
8.16320	136565
8.17133	115458
8.17945	101703
8.18758	85998
8.19570	85911
8.20382	79324
8.21195	90386
8.22007	86806
8.22820	84420
8.23632	85858
8.24443	83354
8.25257	82326
8.26068	74708
8.26882	72927
8.27693	74497
8.28505	75320
8.29318	76777
8.30130	72761
8.30942	78835
8.31755	83616
8.32567	86177
8.33380	79416
8.34192	73741
8.35003	76888
8.35817	75276
8.36628	80755
8.37442	86169
8.38253	90744
8.39065	90105
8.39878	83695
8.40690	77671
8.41503	74778
8.42315	73201
8.43127	73320
8.43940	65567
8.44752	71990
8.45563	72039
8.46377	69969
8.47188	69650
8.48002	68068
8.48813	69952
8.49625	69406
8.50438	67798
8.51250	70070
8.52063	80512
8.52875	109994
8.53687	182341
8.54500	313041
8.55312	418239
8.56123	446229
8.56937	388104
8.57748	263778
8.58562	179506
8.59373	148049
8.60185	124819
8.60998	120590
8.61810	111575
8.62623	108481
8.63435	95682
8.64247	88525
8.65060	84394
8.65872	87966
8.66685	80615
8.67497	80128
8.68308	83259
8.69122	92997
8.69933	94920
8.70745	96528
8.71558	91150
8.72370	86437
8.73183	80833
8.73995	94342
8.74807	144910
8.75620	286426
8.76432	529552
8.77245	862850
8.78057	1129318
8.78868	1121891
8.79682	897336
8.80493	641692
8.81305	418064
8.82118	285643
8.82930	240621
8.83743	211655
8.84555	209812
8.85367	215350
8.86180	211252
8.86992	212009
8.87805	207442
8.88617	181253
8.89428	189120
8.90242	176035
8.91053	165016
8.91867	157069
8.92678	163315
8.93490	167252
8.94303	180286
8.95115	199492
8.95927	191439
8.96740	189107
8.97552	183379
8.98365	185741
8.99177	179564
8.99988	178483
9.00802	162305
9.01613	156179
9.02427	148350
9.03238	136028
9.04050	131023
9.04863	125838
9.05675	126803
9.06488	129245
9.07300	123034
9.08112	126162
9.08925	135586
9.09737	151638
9.10548	175608
9.11362	198518
9.12173	209708
9.12987	202090
9.13798	180141
9.14610	151969
9.15423	138665
9.16235	131457
9.17048	125451
9.17860	123758
9.18672	115962
9.19485	112057
9.20297	108223
9.21110	115994
9.21922	108346
9.22733	111293
9.23547	111273
9.24358	106243
9.25170	106559
9.25983	100602
9.26795	105701
9.27608	105475
9.28420	109691
9.29232	104599
9.30045	100624
9.30857	99968
9.31670	99810
9.32482	106295
9.33293	98014
9.34107	93248
9.34918	92835
9.35730	89736
9.36543	91394
9.37355	94096
9.38168	96529
9.38980	98739
9.39792	109642
9.40605	133164
9.41417	163308
9.42230	208675
9.43042	254038
9.43853	270975
9.44667	266299
9.45478	231272
9.46292	177038
9.47103	143475
9.47915	125632
9.48728	113952
9.49540	108049
9.50352	119015
9.51165	132090
9.51977	145576
9.52790	158450
9.53602	145910
9.54413	136255
9.55227	118726
9.56038	101579
9.56852	87244
9.57663	82839
9.58475	84214
9.59288	82171
9.60100	76757
9.60912	69392
9.61725	67072
9.62537	63849
9.63350	60369
9.64162	63185
9.64973	63766
9.65787	59280
9.66598	61649
9.67412	64585
9.68223	63874
9.69035	65755
9.69848	57794
9.70660	60326
9.71473	56920
9.72285	62029
9.73097	57590
9.73910	58429
9.74722	55162
9.75533	57160
9.76347	55177
9.77158	57147
9.77972	57309
9.78783	56912
9.79595	57443
9.80408	59199
9.81220	63741
9.82033	55218
9.82845	54342
9.83657	52686
9.84470	55000
9.85282	55867
9.86095	60516
9.86907	60871
9.87718	65161
9.88532	60172
9.89343	62051
9.90155	58116
9.90968	73650
9.91780	68791
9.92593	83376
9.93405	101601
9.94217	127989
9.95030	162957
9.95842	185102
9.96655	190366
9.97467	168503
9.98278	144669
9.99092	120559
9.99903	97186
10.00715	91757
10.01528	81995
10.02340	75136
10.03153	70268
10.03965	69595
10.04777	66580
10.05590	66389
10.06402	65646
10.07215	66228
10.08027	68240
10.08838	65234
10.09652	74918
10.10463	80261
10.11277	76830
10.12088	74257
10.12900	71065
10.13713	70744
10.14525	68400
10.15337	69060
10.16150	63621
10.16962	67855
10.17775	62308
10.18587	61039
10.19398	61153
10.20212	60940
10.21023	60482
10.21837	60371
10.22648	65073
10.23460	80149
10.24273	84162
10.25085	92228
10.25898	111059
10.26710	197530
10.27522	382218
10.28335	819497
10.29147	1463380
10.29958	2239896
10.30772	3055203
10.31583	4276225
10.32397	6202272
10.33208	8297207
10.34020	9447433
10.34833	9096212
10.35645	7664395
10.36458	6063428
10.37270	4846037
10.38082	3770046
10.38895	2723762
10.39707	1835597
10.40518	1207482
10.41332	816243
10.42143	610980
10.42957	506334
10.43768	477807
10.44580	479094
10.45393	461896
10.46205	456607
10.47018	429029
10.47830	392789
10.48642	371097
10.49455	347279
10.50267	324555
10.51080	296739
10.51892	279122
10.52703	265997
10.53517	255335
10.54328	246066
10.55140	233089
10.55953	222764
10.56765	219401
10.57578	222739
10.58390	210931
10.59202	201575
10.60015	191907
10.60827	184905
10.61640	175305
10.62452	176306
10.63263	163704
10.64077	166427
10.64888	154024
10.65700	157516
10.66513	151333
10.67325	150823
10.68138	155427
10.68950	151875
10.69762	150017
10.70575	148687
10.71387	146620
10.72200	144086
10.73012	138941
10.73823	141649
10.74637	132267
10.75448	142651
10.76262	130856
10.77073	129388
10.77885	125175
10.78698	116527
10.79510	119018
10.80322	121328
10.81135	133794
10.81947	133711
10.82760	124973
10.83572	122812
10.84383	113950
10.85197	107562
10.86008	101208
10.86822	101721
10.87633	98578
10.88445	102782
10.89258	103585
10.90070	95696
10.90883	92510
10.91695	99585
10.92507	96665
10.93320	91460
10.94132	87846
10.94943	91598
10.95757	87637
10.96568	89182
10.97382	86156
10.98193	97393
10.99005	97901
10.99818	104034
11.00630	102202
11.01443	101510
11.02255	97694
11.03067	92604
11.03880	88549
11.04692	83709
11.05503	85707
11.06317	84186
11.07128	85592
11.07942	92846
11.08753	105500
11.09565	104891
11.10378	105088
11.11190	99260
11.12003	91870
11.12815	86795
11.13627	81874
11.14440	76054
11.15252	79794
11.16065	84500
11.16877	79447
11.17688	80269
11.18502	77097
11.19313	80400
11.20125	84284
11.20938	82238
11.21750	79292
11.22563	75222
11.23375	76233
11.24187	74616
11.25000	74319
11.25812	63393
11.26625	62430
11.27437	68346
11.28248	72633
11.29062	94733
11.29873	145194
11.30687	285711
11.31498	567194
11.32310	1058762
11.33123	1695354
11.33935	2146708
11.34747	2306268
11.35560	2082089
11.36372	1598337
11.37185	1089488
11.37997	703871
11.38808	457814
11.39622	348004
11.40433	313056
11.41247	309667
11.42058	297095
11.42870	276536
11.43683	267432
11.44495	246417
11.45307	219028
11.46120	214556
11.46932	180310
11.47745	179215
11.48557	183760
11.49368	194066
11.50182	204288
11.50993	198080
11.51807	188602
11.52618	172038
11.53430	160330
11.54243	150411
11.55055	146959
11.55868	147491
11.56680	148509
11.57492	135716
11.58305	140198
11.59117	141497
11.59928	142600
11.60742	155271
11.61553	171732
11.62367	177968
11.63178	184239
11.63990	157541
11.64803	140498
11.65615	122118
11.66428	116640
11.67240	113485
11.68052	124486
11.68865	126831
11.69677	134151
11.70488	141066
11.71302	144935
11.72113	134186
11.72927	123456
11.73738	111411
11.74550	96633
11.75363	92363
11.76175	82205
11.76988	83756
11.77800	81258
11.78612	86682
11.79425	84257
11.80237	80862
11.81050	83054
11.81862	83835
11.82673	83101
11.83487	83449
11.84298	82520
11.85110	84043
11.85923	80446
11.86735	79510
11.87548	74036
11.88360	74906
11.89172	71166
11.89985	72824
11.90797	74246
11.91610	76940
11.92422	81505
11.93233	82157
11.94047	85152
11.94858	81412
11.95672	76054
11.96483	81517
11.97295	96341
11.98108	147129
11.98920	278195
11.99732	510284
12.00545	767465
12.01357	934031
12.02170	945429
12.02982	777929
12.03793	556188
12.04607	374205
12.05418	262288
12.06232	213334
12.07043	179518
12.07855	176791
12.08668	174133
12.09480	169822
12.10292	167078
12.11105	163441
12.11917	166365
12.12730	167897
12.13542	175109
12.14353	162232
12.15167	152465
12.15978	135641
12.16792	118883
12.17603	109074
12.18415	104956
12.19228	107784
12.20040	104320
12.20853	99711
12.21665	101842
12.22477	99707
12.23290	106259
12.24102	102006
12.24913	102801
12.25727	96533
12.26538	98764
12.27352	96209
12.28163	87058
12.28975	89373
12.29788	85835
12.30600	87663
12.31413	85001
12.32225	84632
12.33037	79729
12.33850	76559
12.34662	76995
12.35475	76445
12.36287	80065
12.37098	76732
12.37912	82480
12.38723	79780
12.39535	87593
12.40348	93784
12.41160	105073
12.41973	115084
12.42785	133829
12.43597	139252
12.44410	135268
12.45222	133228
12.46035	115593
12.46847	108991
12.47658	103149
12.48472	96016
12.49283	90524
12.50095	84589
12.50908	87951
12.51720	80889
12.52533	100478
12.53345	135359
12.54157	243422
12.54970	482829
12.55782	861602
12.56595	1223888
12.57407	1345541
12.58218	1187294
12.59032	851676
12.59843	541279
12.60657	326014
12.61468	232206
12.62280	176193
12.63093	159999
12.63905	146928
12.64717	134135
12.65530	126504
12.66342	116553
12.67155	107844
12.67967	105412
12.68778	98970
12.69592	94972
12.70403	92450
12.71217	87464
12.72028	89698
12.72840	95410
12.73653	98731
12.74465	95931
12.75278	93950
12.76090	89461
12.76902	87154
12.77715	79931
12.78527	76566
12.79338	77539
12.80152	77522
12.80963	73674
12.81777	72494
12.82588	70973
12.83400	65884
12.84213	68254
12.85025	68062
12.85838	64904
12.86650	66958
12.87462	69575
12.88275	68325
12.89087	67933
12.89898	71192
12.90712	68192
12.91523	66935
12.92337	65877
12.93148	67666
12.93960	66392
12.94773	72253
12.95585	94380
12.96398	141284
12.97210	220196
12.98022	320145
12.98835	378080
12.99647	353742
13.00460	287601
13.01272	220192
13.02083	156094
13.02897	128421
13.03708	114965
13.04520	119039
13.05333	123416
13.06145	132061
13.06958	144380
13.07770	145884
13.08582	129587
13.09395	115039
13.10207	102501
13.11020	88358
13.11832	85999
13.12643	83752
13.13457	82963
13.14268	79911
13.15080	77939
13.15893	77712
13.16705	80013
13.17518	82192
13.18330	81543
13.19142	75972
13.19955	81723
13.20767	83402
13.21580	87409
13.22392	84252
13.23203	83638
13.24017	76306
13.24828	76679
13.25642	76075
13.26453	69360
13.27265	71557
13.28078	65546
13.28890	66859
13.29702	67342
13.30515	61553
13.31327	63933
13.32140	61475
13.32952	56070
13.33763	57934
13.34577	59354
13.35388	56654
13.36202	59372
13.37013	59955
13.37825	63202
13.38638	61964
13.39450	56432
13.40263	53058
13.41075	61909
13.41887	51781
13.42700	51485
13.43512	51021
13.44323	59069
13.45137	62709
13.45948	59537
13.46762	64074
13.47573	67347
13.48385	65982
13.49198	68761
13.50010	63301
13.50823	64918
13.51635	61460
13.52447	65980
13.53260	61696
13.54072	66256
13.54883	60791
13.55697	61925
13.56508	61246
13.57322	64206
13.58133	65522
13.58945	68236
13.59758	79978
13.60570	100446
13.61383	131141
13.62195	166815
13.63007	170482
13.63820	166942
13.64632	136391
13.65445	106227
13.66257	88696
13.67068	75822
13.67882	66803
13.68693	63677
13.69505	68232
13.70318	60635
13.71130	62462
13.71943	65793
13.72755	72460
13.73567	135119
13.74380	288641
13.75192	685986
13.76005	1482020
13.76817	2629943
13.77628	3688887
13.78442	4325265
13.79253	3790814
13.80067	2938977
13.80878	2043436
13.81690	1442712
13.82503	1157671
13.83315	1072276
13.84127	1037678
13.84940	937799
13.85752	796369
13.86565	660079
13.87377	540665
13.88188	458742
13.89002	390348
13.89813	363212
13.90627	321846
13.91438	300765
13.92250	281177
13.93063	260396
13.93875	243550
13.94687	246022
13.95500	243913
13.96312	266542
13.97125	306156
13.97937	360162
13.98748	358732
13.99562	342646
14.00373	311072
14.01187	273436
14.01998	244124
14.02810	208283
14.03623	199197
14.04435	193872
14.05248	180262
14.06060	181058
14.06872	176632
14.07685	169359
14.08497	179883
14.09308	166948
14.10122	167082
14.10933	163737
14.11747	165399
14.12558	167248
14.13370	180974
14.14183	209629
14.14995	225136
14.15808	259064
14.16620	253745
14.17432	263146
14.18245	278743
14.19057	323004
14.19868	376505
14.20682	400827
14.21493	389308
14.22307	359987
14.23118	328783
14.23930	297978
14.24743	273686
14.25555	257903
14.26368	236525
14.27180	209113
14.27992	183651
14.28805	166547
14.29617	155604
14.30430	153087
14.31242	147049
14.32053	137845
14.32867	136618
14.33678	129045
14.34490	130680
14.35303	115969
14.36115	107394
14.36928	96578
14.37740	94253
14.38552	96731
14.39365	115745
14.40177	161504
14.40990	238032
14.41802	350358
14.42613	414936
14.43427	429284
14.44238	362436
14.45052	270096
14.45863	196066
14.46675	155909
14.47488	145234
14.48300	130196
14.49112	123931
14.49925	127483
14.50737	119975
14.51550	125312
14.52362	118364
14.53173	124739
14.53987	124827
14.54798	122259
14.55612	102391
14.56423	101644
14.57235	86697
14.58048	82004
14.58860	79945
14.59673	78195
14.60485	84089
14.61297	77614
14.62110	73831
14.62922	74196
14.63733	76303
14.64547	74629
14.65358	71084
14.66172	73934
14.66983	72340
14.67795	68290
14.68608	68712
14.69420	70585
14.70233	66008
14.71045	73700
14.71857	74215
14.72670	77032
14.73482	85217
14.74293	84501
14.75107	86179
14.75918	83567
14.76732	83747
14.77543	84124
14.78355	88754
14.79168	126577
14.79980	234103
14.80793	518844
14.81605	1067990
14.82417	1813134
14.83230	2455275
14.84042	2685585
14.84855	2415973
14.85667	1729293
14.86478	1132261
14.87292	722234
14.88103	476594
14.88915	351329
14.89728	286867
14.90540	253050
14.91353	227697
14.92165	209254
14.92977	193040
14.93790	185376
14.94602	175043
14.95415	166842
14.96227	162610
14.97038	152904
14.97852	145367
14.98663	143624
14.99475	135230
15.00288	130647
15.01100	129726
15.01913	126641
15.02725	123663
15.03537	119595
15.04350	112654
15.05162	114855
15.05975	112972
15.06787	103249
15.07598	104372
15.08412	96982
15.09223	94689
15.10037	93609
15.10848	90470
15.11660	88088
15.12473	89659
15.13285	93155
15.14097	100752
15.14910	99331
15.15722	96050
15.16535	93797
15.17347	91681
15.18158	86018
15.18972	78711
15.19783	76238
15.20597	74645
15.21408	72869
15.22220	70317
15.23033	69412
15.23845	69460
15.24658	70810
15.25470	68646
15.26282	68416
15.27095	63800
15.27907	59846
15.28718	63987
15.29532	63491
15.30343	65470
15.31157	61653
15.31968	57726
15.32780	58261
15.33593	57320
15.34405	59962
15.35218	53559
15.36030	54806
15.36842	56309
15.37655	59188
15.38467	58707
15.39278	55959
15.40092	64843
15.40903	66026
15.41717	73564
15.42528	76386
15.43340	74578
15.44153	73230
15.44965	68006
15.45778	78943
15.46590	97905
15.47402	145400
15.48215	225161
15.49027	328817
15.49840	434818
15.50652	477002
15.51463	476599
15.52277	408419
15.53088	320424
15.53900	265316
15.54713	213135
15.55525	183527
15.56338	150905
15.57150	134221
15.57962	115816
15.58775	100843
15.59587	100059
15.60400	87084
15.61212	81007
15.62023	78201
15.62837	80914
15.63648	75730
15.64462	72976
15.65273	74971
15.66085	70064
15.66898	72767
15.67710	61046
15.68522	67176
15.69335	60848
15.70147	62120
15.70960	59332
15.71772	60132
15.72583	60966
15.73397	63177
15.74208	66151
15.75022	71712
15.75833	85186
15.76645	122820
15.77458	165742
15.78270	238287
15.79082	290220
15.79895	297619
15.80707	264465
15.81520	206635
15.82332	160421
15.83143	124812
15.83957	104573
15.84768	91611
15.85582	85727
15.86393	86815
15.87205	83648
15.88018	86213
15.88830	86098
15.89643	89114
15.90455	83698
15.91267	86757
15.92080	80066
15.92892	76398
15.93703	77650
15.94517	93598
15.95328	121015
15.96142	159328
15.96953	210418
15.97765	246144
15.98578	264087
15.99390	248601
16.00203	213798
16.01015	175126
16.01827	148780
16.02640	126462
16.03452	116948
16.04263	109055
16.05077	96746
16.05888	94696
16.06702	83572
16.07513	73705
16.08325	78836
16.09138	72478
16.09950	73781
16.10763	74022
16.11575	80044
16.12387	79802
16.13200	86319
16.14012	88563
16.14825	90077
16.15637	90719
16.16448	86664
16.17262	85398
16.18073	79099
16.18885	74533
16.19698	73946
16.20510	68777
16.21323	78718
16.22135	80101
16.22947	84878
16.23760	83773
16.24572	76798
16.25385	77549
16.26197	74467
16.27008	71936
16.27822	76524
16.28633	78864
16.29447	86312
16.30258	86160
16.31070	88065
16.31883	83129
16.32695	82710
16.33507	79085
16.34320	82782
16.35132	98757
16.35945	130758
16.36757	170133
16.37568	223860
16.38382	230080
16.39193	221561
16.40007	192758
16.40818	149602
16.41630	116238
16.42443	96956
16.43255	83610
16.44067	86109
16.44880	99931
16.45692	128009
16.46505	194510
16.47317	276086
16.48128	362020
16.48942	401322
16.49753	370150
16.50567	297416
16.51378	215215
16.52190	152076
16.53003	116681
16.53815	101385
16.54628	90615
16.55440	91193
16.56252	84177
16.57065	85002
16.57877	90509
16.58688	93817
16.59502	105401
16.60313	124782
16.61127	144908
16.61938	157828
16.62750	154340
16.63563	147755
16.64375	124592
16.65188	106997
16.66000	90604
16.66812	81561
16.67625	78134
16.68437	74964
16.69250	69644
16.70062	73249
16.70873	69736
16.71687	63648
16.72498	63019
16.73310	65241
16.74123	60784
16.74935	64174
16.75748	61214
16.76560	59893
16.77372	61111
16.78185	60627
16.78997	64237
16.79810	59578
16.80622	60634
16.81433	60058
16.82247	56855
16.83058	58894
16.83870	58204
16.84683	55902
16.85495	55089
16.86308	60385
16.87120	49620
16.87932	53809
16.88745	56238
16.89557	56594
16.90370	54745
16.91182	51821
16.91993	49636
16.92807	50699
16.93618	54833
16.94432	53854
16.95243	48072
16.96055	50543
16.96868	50748
16.97680	58979
16.98492	52914
16.99305	53671
17.00117	52206
17.00930	53282
17.01742	59042
17.02553	54822
17.03367	56178
17.04178	61688
17.04992	67222
17.05803	69296
17.06615	70111
17.07428	73641
17.08240	83178
17.09053	97466
17.09865	107715
17.10677	129942
17.11490	142972
17.12302	156160
17.13113	149734
17.13927	144553
17.14738	137413
17.15552	123829
17.16363	111724
17.17175	98890
17.17988	94266
17.18800	78836
17.19613	72739
17.20425	66041
17.21237	65248
17.22050	61301
17.22862	62134
17.23673	57948
17.24487	59882
17.25298	57925
17.26112	58185
17.26923	55964
17.27735	60737
17.28548	55527
17.29360	53249
17.30173	56440
17.30985	57539
17.31797	62461
17.32610	69874
17.33422	84576
17.34235	97996
17.35047	96285
17.35858	98004
17.36672	96340
17.37483	91061
17.38295	88000
17.39108	84766
17.39920	81476
17.40733	84688
17.41545	80794
17.42357	81135
17.43170	84393
17.43982	80293
17.44795	79968
17.45607	73804
17.46418	70288
17.47232	67624
17.48043	67811
17.48855	59078
17.49668	57752
17.50480	60119
17.51293	60088
17.52105	54954
17.52917	58192
17.53730	59330
17.54542	59271
17.55355	67084
17.56167	81023
17.56978	117951
17.57792	191903
17.58603	314762
17.59417	482504
17.60228	687881
17.61040	828823
17.61853	843643
17.62665	748147
17.63477	582123
17.64290	443618
17.65102	367873
17.65915	337395
17.66727	325140
17.67538	296303
17.68352	283896
17.69163	232336
17.69977	200040
17.70788	161458
17.71600	140456
17.72413	125064
17.73225	118165
17.74038	112990
17.74850	108211
17.75662	110052
17.76475	99771
17.77287	99320
17.78098	93825
17.78912	90581
17.79723	96847
17.80537	113332
17.81348	150766
17.82160	179758
17.82973	216451
17.83785	221529
17.84598	212455
17.85410	181554
17.86222	164055
17.87035	149385
17.87847	124994
17.88658	123230
17.89472	98526
17.90283	86946
17.91097	78441
17.91908	75979
17.92720	73864
17.93533	70785
17.94345	69381
17.95158	66651
17.95970	63715
17.96782	65939
17.97595	62742
17.98407	62690
17.99220	59589
18.00032	62797
18.00843	65701
18.01657	71508
18.02468	81921
18.03280	91874
18.04093	112440
18.04905	126002
18.05718	168814
18.06530	291394
18.07342	544291
18.08155	949779
18.08967	1383782
18.09780	1694859
18.10592	1676286
18.11403	1415729
18.12217	1071466
18.13028	769555
18.13842	561524
18.14653	450675
18.15465	382218
18.16278	327843
18.17090	306662
18.17902	274783
18.18715	254740
18.19527	225920
18.20340	216750
18.21152	204812
18.21963	190502
18.22777	177398
18.23588	171326
18.24402	152505
18.25213	148605
18.26025	140270
18.26838	134457
18.27650	116997
18.28462	110699
18.29275	110764
18.30087	141348
18.30900	191749
18.31712	248538
18.32523	291855
18.33337	323968
18.34148	328925
18.34962	342672
18.35773	353862
18.36585	352784
18.37398	364673
18.38210	371571
18.39023	371094
18.39835	389025
18.40647	404058
18.41460	444351
18.42272	474392
18.43083	498431
18.43897	520301
18.44708	530395
18.45522	536854
18.46333	548844
18.47145	594880
18.47958	638442
18.48770	644633
18.49583	631514
18.50395	563517
18.51207	506117
18.52020	450000
18.52832	403394
18.53643	372441
18.54457	356338
18.55268	343294
18.56082	327755
18.56893	327036
18.57705	317327
18.58518	310281
18.59330	312441
18.60143	319834
18.60955	326144
18.61767	326469
18.62580	340278
18.63392	338263
18.64205	330347
18.65017	317728
18.65828	312112
18.66642	296218
18.67453	294077
18.68265	273787
18.69078	274165
18.69890	275427
18.70703	278408
18.71515	263155
18.72327	261121
18.73140	254156
18.73952	255364
18.74765	252626
18.75577	241074
18.76388	240790
18.77202	236664
18.78013	231177
18.78827	227375
18.79638	233462
18.80450	232693
18.81263	228226
18.82075	216850
18.82887	214932
18.83700	218834
18.84512	211527
18.85325	214319
18.86137	213983
18.86948	214897
18.87762	214305
18.88573	214224
18.89387	207619
18.90198	207470
18.91010	210828
18.91823	206020
18.92635	205279
18.93447	210905
18.94260	210928
18.95072	211212
18.95885	209639
18.96697	215183
18.97508	208608
18.98322	206498
18.99133	203110
18.99947	192513
19.00758	194896
19.01570	183083
19.02383	179994
19.03195	183229
19.04008	173749
19.04820	175183
19.05632	176088
19.06445	185737
19.07257	196884
19.08068	232611
19.08882	282279
19.09693	347857
19.10507	409440
19.11318	437541
19.12130	399842
19.12943	352047
19.13755	307033
19.14568	263198
19.15380	228879
19.16192	211639
19.17005	206623
19.17817	189238
19.18630	186400
19.19442	174650
19.20253	171572
19.21067	172378
19.21878	165005
19.22690	162703
19.23503	159008
19.24315	158883
19.25128	148753
19.25940	148399
19.26752	151873
19.27565	150082
19.28377	151518
19.29190	159164
19.30002	155892
19.30813	164542
19.31627	156161
19.32438	164153
19.33250	157111
19.34063	150676
19.34875	165676
19.35688	179188
19.36500	209482
19.37312	221801
19.38125	245150
19.38937	235843
19.39750	220140
19.40562	192556
19.41373	174760
19.42187	154841
19.42998	152423
19.43812	148295
19.44623	141541
19.45435	139741
19.46248	141974
19.47060	145776
19.47872	161366
19.48685	191709
19.49497	246098
19.50310	292615
19.51122	311394
19.51933	308385
19.52747	266573
19.53558	232165
19.54372	196991
19.55183	177183
19.55995	161270
19.56808	145710
19.57620	139313
19.58432	136395
19.59245	132355
19.60057	124647
19.60870	120856
19.61682	123982
19.62493	121179
19.63307	127476
19.64118	150907
19.64932	175905
19.65743	224618
19.66555	273327
19.67368	325939
19.68180	356004
19.68993	359484
19.69805	334515
19.70617	298531
19.71430	269237
19.72242	232595
19.73053	213735
19.73867	197188
19.74678	175887
19.75492	170209
19.76303	155075
19.77115	162746
19.77928	187448
19.78740	205646
19.79553	229442
19.80365	246004
19.81177	244886
19.81990	234829
19.82802	211838
19.83615	188269
19.84427	163238
19.85238	198474
19.86052	331173
19.86863	708166
19.87675	1421995
19.88488	2592992
19.89300	3964138
19.90113	5136293
19.90925	5412801
19.91737	4896720
19.92550	3777591
19.93362	2652175
19.94175	1814568
19.94987	1330461
19.95798	1040732
19.96612	875752
19.97423	797233
19.98237	727492
19.99048	659329
19.99860	620157
20.00673	587022
20.01485	564325
20.02297	542104
20.03110	496534
20.03922	461686
20.04735	425202
20.05547	397056
20.06358	367886
20.07172	352963
20.07983	364070
20.08797	368995
20.09608	357350
20.10420	327253
20.11233	293134
20.12045	252051
20.12857	219152
20.13670	215384
20.14482	214764
20.15295	266932
20.16107	340798
20.16918	480741
20.17732	654859
20.18543	835485
20.19357	953441
20.20168	1028588
20.20980	994025
20.21793	878720
20.22605	739782
20.23418	627046
20.24230	558154
20.25042	550351
20.25855	608045
20.26667	701647
20.27478	781111
20.28292	789263
20.29103	776861
20.29917	672621
20.30728	576445
20.31540	463022
20.32353	360954
20.33165	283349
20.33978	230812
20.34790	182829
20.35602	161693
20.36415	140672
20.37227	128180
20.38038	114110
20.38852	110175
20.39663	107055
20.40477	108788
20.41288	112809
20.42100	111096
20.42913	112033
20.43725	126345
20.44538	129948
20.45350	133380
20.46162	144810
20.46975	149659
20.47787	143625
20.48600	138782
20.49412	135749
20.50223	114225
20.51037	108903
20.51848	101863
20.52660	94343
20.53473	94428
20.54285	94455
20.55098	89251
20.55910	91501
20.56722	90591
20.57535	86046
20.58347	83828
20.59160	78163
20.59972	84226
20.60783	82688
20.61597	82096
20.62408	86326
20.63222	84655
20.64033	91183
20.64845	96802
20.65658	101988
20.66470	98310
20.67282	92715
20.68095	87657
20.68907	87472
20.69720	82750
20.70532	75172
20.71343	76560
20.72157	77124
20.72968	74857
20.73782	77829
20.74593	78727
20.75405	78778
20.76218	83139
20.77030	92623
20.77842	108614
20.78655	140155
20.79467	220686
20.80280	342225
20.81092	498591
20.81903	616118
20.82717	659301
20.83528	589803
20.84342	459727
20.85153	324487
20.85965	217887
20.86778	163081
20.87590	130555
20.88403	112774
20.89215	108017
20.90027	106286
20.90840	110215
20.91652	113599
20.92463	115190
20.93277	124943
20.94088	115389
20.94902	117675
20.95713	114207
20.96525	103407
20.97338	96480
20.98150	96583
20.98963	88192
20.99775	85564
21.00587	84083
21.01400	80033
21.02212	83137
21.03025	91983
21.03837	83773
21.04648	83962
21.05462	83226
21.06273	84122
21.07085	76965
21.07898	74729
21.08710	77475
21.09523	70565
21.10335	73074
21.11147	74500
21.11960	74593
21.12772	75859
21.13585	92123
21.14397	113161
21.15208	140471
21.16022	167860
21.16833	179384
21.17645	171858
21.18458	146636
21.19270	127197
21.20083	104450
21.20895	96957
21.21707	87520
21.22520	87456
21.23332	81071
21.24145	85643
21.24957	79245
21.25768	79902
21.26582	74908
21.27393	76999
21.28207	77117
21.29018	74225
21.29830	73181
21.30643	66992
21.31455	72965
21.32267	69418
21.33080	68716
21.33892	65757
21.34705	70299
21.35517	67685
21.36328	66457
21.37142	70419
21.37953	70785
21.38767	82211
21.39578	84732
21.40390	95007
21.41203	102253
21.42015	104815
21.42827	98941
21.43640	93634
21.44452	88373
21.45265	80359
21.46077	78152
21.46888	79364
21.47702	69452
21.48513	75316
21.49327	70303
21.50138	67991
21.50950	65810
21.51763	68227
21.52575	69389
21.53388	65381
21.54200	66465
21.55012	64854
21.55825	66267
21.56637	68815
21.57448	73466
21.58262	78233
21.59073	82668
21.59887	88010
21.60698	95155
21.61510	92729
21.62323	103341
21.63135	102327
21.63948	103728
21.64760	110025
21.65572	113648
21.66385	112517
21.67197	114458
21.68010	117737
21.68822	111650
21.69633	106325
21.70447	104188
21.71258	90078
21.72070	82457
21.72883	79052
21.73695	73021
21.74508	72280
21.75320	73434
21.76132	73854
21.76945	73807
21.77757	80788
21.78570	82062
21.79382	85907
21.80193	89529
21.81007	89695
21.81818	97531
21.82630	95630
21.83443	102090
21.84255	99600
21.85068	97122
21.85880	94955
21.86692	92336
21.87505	83240
21.88317	78938
21.89130	79756
21.89942	73718
21.90753	73410
21.91567	67952
21.92378	70886
21.93192	66015
21.94003	62942
21.94815	60555
21.95628	63090
21.96440	61877
21.97252	56666
21.98065	60670
21.98877	57233
21.99690	60686
22.00502	62031
22.01313	57355
22.02127	65835
22.02938	69341
22.03752	64028
22.04563	60821
22.05375	62375
22.06188	59993
22.07000	61604
22.07813	57978
22.08625	58462
22.09437	59704
22.10250	53530
22.11062	60209
22.11873	57505
22.12687	63604
22.13498	56556
22.14312	61036
22.15123	57645
22.15935	58848
22.16748	53770
22.17560	53678
22.18373	57722
22.19185	54681
22.19997	59218
22.20810	56723
22.21622	58847
22.22433	60346
22.23247	58274
22.24058	63009
22.24872	59511
22.25683	60872
22.26495	62002
22.27308	69096
22.28120	69693
22.28933	81568
22.29745	83251
22.30557	83613
22.31370	83881
22.32182	81285
22.32995	78148
22.33807	76398
22.34618	72099
22.35432	67337
22.36243	67436
22.37055	67228
22.37868	69150
22.38680	74499
22.39493	88250
22.40305	120491
22.41117	139474
22.41930	166648
22.42742	175104
22.43555	168950
22.44367	152613
22.45178	130322
22.45992	110935
22.46803	97139
22.47617	97287
22.48428	111060
22.49240	121655
22.50053	140056
22.50865	143053
22.51677	152454
22.52490	141430
22.53302	130541
22.54115	122371
22.54927	105674
22.55738	99486
22.56552	92099
22.57363	81921
22.58177	79506
22.58988	80721
22.59800	73208
22.60613	69529
22.61425	68995
22.62237	64326
22.63050	68701
22.63862	70091
22.64675	68983
22.65487	68145
22.66298	72447
22.67112	71841
22.67923	73039
22.68737	80992
22.69548	90073
22.70360	99196
22.71173	107533
22.71985	112739
22.72798	110122
22.73610	104504
22.74422	91929
22.75235	84017
22.76047	75662
22.76858	71680
22.77672	72714
22.78483	89267
22.79297	94402
22.80108	106283
22.80920	123215
22.81733	128267
22.82545	121530
22.83358	109816
22.84170	103225
22.84982	89125
22.85795	91835
22.86607	95042
22.87418	109997
22.88232	126370
22.89043	152098
22.89857	161831
22.90668	179572
22.91480	200198
22.92293	214110
22.93105	214298
22.93918	210553
22.94730	173689
22.95542	151457
22.96355	123296
22.97167	110611
22.97980	95076
22.98792	93088
22.99603	81039
23.00417	87179
23.01228	80770
23.02040	81177
23.02853	77365
23.03665	84343
23.04478	84525
23.05290	86573
23.06102	84649
23.06915	84420
23.07727	92206
23.08540	87170
23.09352	90662
23.10163	90766
23.10977	86286
23.11788	86860
23.12602	81312
23.13413	84003
23.14225	77873
23.15038	78425
23.15850	84556
23.16662	78604
23.17475	87677
23.18287	87481
23.19100	85897
23.19912	81721
23.20723	85247
23.21537	81633
23.22348	77273
23.23162	80782
23.23973	81131
23.24785	89150
23.25598	85887
23.26410	88970
23.27222	92188
23.28035	93787
23.28847	93867
23.29660	86936
23.30472	84353
23.31283	83143
23.32097	87409
23.32908	95750
23.33722	103987
23.34533	123377
23.35345	147513
23.36158	174459
23.36970	189698
23.37783	204622
23.38595	212845
23.39407	208951
23.40220	202244
23.41032	202007
23.41843	187545
23.42657	176969
23.43468	181198
23.44282	168654
23.45093	172687
23.45905	162436
23.46718	153735
23.47530	145945
23.48343	143833
23.49155	136402
23.49967	139583
23.50780	128269
23.51592	123619
23.52405	118351
23.53217	120866
23.54028	116729
23.54842	109398
23.55653	119869
23.56465	124345
23.57278	146396
23.58090	175939
23.58903	218895
23.59715	263782
23.60527	300732
23.61340	297056
23.62152	270448
23.62965	231498
23.63777	211796
23.64588	184370
23.65402	194943
23.66213	206600
23.67025	210431
23.67838	209822
23.68650	178668
23.69463	150071
23.70275	123656
23.71087	116162
23.71900	96341
23.72712	95641
23.73525	96472
23.74337	117297
23.75148	179380
23.75962	363986
23.76773	757854
23.77587	1391439
23.78398	2233596
23.79210	2874250
23.80023	3169317
23.80835	3014009
23.81647	2519859
23.82460	1940931
23.83272	1531919
23.84085	1132908
23.84897	900626
23.85708	709289
23.86522	601329
23.87333	510808
23.88147	448165
23.88958	391872
23.89770	363305
23.90583	328617
23.91395	323996
23.92207	301613
23.93020	280406
23.93832	253156
23.94645	235785
23.95457	225714
23.96268	208148
23.97082	201896
23.97893	188548
23.98707	186848
23.99518	193551
24.00330	232748
24.01143	324108
24.01955	505809
24.02768	744711
24.03580	938796
24.04392	993218
24.05205	865228
24.06017	666444
24.06828	455111
24.07642	323295
24.08453	239239
24.09267	188154
24.10078	165413
24.10890	156211
24.11703	146449
24.12515	137977
24.13328	141497
24.14140	150126
24.14952	152040
24.15765	156092
24.16577	153637
24.17390	154017
24.18202	156667
24.19013	152397
24.19827	149718
24.20638	150131
24.21450	140163
24.22263	137505
24.23075	127185
24.23888	115864
24.24700	107041
24.25512	101650
24.26325	97898
24.27137	91799
24.27950	89513
24.28762	91354
24.29573	88215
24.30387	90041
24.31198	87200
24.32012	88694
24.32823	90409
24.33635	84851
24.34448	91056
24.35260	90065
24.36072	92886
24.36885	101104
24.37697	113657
24.38510	137939
24.39322	153311
24.40133	160638
24.40947	144454
24.41758	126165
24.42572	105798
24.43383	92508
24.44195	84630
24.45008	88442
24.45820	89013
24.46632	92128
24.47445	98240
24.48257	112564
24.49070	121823
24.49882	134067
24.50693	151913
24.51507	162957
24.52318	183439
24.53132	217392
24.53943	248507
24.54755	287857
24.55568	315962
24.56380	350217
24.57193	325502
24.58005	303540
24.58817	260153
24.59630	229985
24.60442	195990
24.61253	185014
24.62067	182851
24.62878	172626
24.63692	168260
24.64503	166315
24.65315	168579
24.66128	166191
24.66940	163441
24.67753	174218
24.68565	168795
24.69377	168658
24.70190	170302
24.71002	166325
24.71813	166923
24.72627	167858
24.73438	175256
24.74252	173279
24.75063	171587
24.75875	175444
24.76688	174714
24.77500	183771
24.78313	186097
24.79125	193788
24.79937	190415
24.80750	186137
24.81562	196257
24.82375	197588
24.83187	213517
24.83998	234840
24.84812	264183
24.85623	306040
24.86435	378391
24.87248	475737
24.88060	578543
24.88873	677202
24.89685	711082
24.90497	694439
24.91310	601136
24.92122	482921
24.92935	361668
24.93747	286403
24.94558	234285
24.95372	202671
24.96183	185349
24.96995	170462
24.97808	167700
24.98620	156378
24.99433	158140
25.00245	152126
25.01057	154455
25.01870	146825
25.02682	149134
25.03495	138944
25.04307	138660
25.05118	140238
25.05932	133938
25.06743	125387
25.07557	121008
25.08368	114028
25.09180	125537
25.09993	164778
25.10805	283628
25.11617	565778
25.12430	1056573
25.13242	1836255
25.14055	2609129
25.14867	3177960
25.15678	3221646
25.16492	2723424
25.17303	1968511
25.18117	1290073
25.18928	779184
25.19740	489094
25.20553	301240
25.21365	222287
25.22178	172216
25.22990	156142
25.23802	167633
25.24615	190829
25.25427	235727
25.26238	285374
25.27052	322823
25.27863	349117
25.28677	327544
25.29488	285754
25.30300	239637
25.31113	188753
25.31925	146671
25.32738	124136
25.33550	110583
25.34362	103922
25.35175	96934
25.35987	84762
25.36800	90523
25.37612	82587
25.38423	79254
25.39237	80251
25.40048	76300
25.40860	80293
25.41673	73292
25.42485	69853
25.43298	76820
25.44110	75903
25.44922	71510
25.45735	73220
25.46547	79855
25.47360	78405
25.48172	92248
25.48983	109436
25.49797	135346
25.50608	168414
25.51420	196974
25.52233	208167
25.53045	220327
25.53858	223578
25.54670	232684
25.55482	235622
25.56295	243844
25.57107	249312
25.57920	255920
25.58732	260180
25.59543	256909
25.60357	247012
25.61168	253325
25.61982	250483
25.62793	250375
25.63605	247356
25.64418	241379
25.65230	239308
25.66042	239799
25.66855	244585
25.67667	246124
25.68480	253749
25.69292	253062
25.70103	247260
25.70917	243764
25.71728	236830
25.72542	239432
25.73353	235450
25.74165	225134
25.74978	224965
25.75790	225708
25.76602	228702
25.77415	227846
25.78227	218498
25.79040	220604
25.79852	225815
25.80663	227178
25.81477	221775
25.82288	226712
25.83102	224014
25.83913	241017
25.84725	250727
25.85538	251087
25.86350	241797
25.87163	231945
25.87975	214321
25.88787	208405
25.89600	194582
25.90412	191670
25.91223	185621
25.92037	188819
25.92848	183973
25.93662	179887
25.94473	178097
25.95285	177974
25.96098	174930
25.96910	172715
25.97723	169721
25.98535	161858
25.99347	167703
26.00160	162779
26.00972	149650
26.01785	151653
26.02597	154274
26.03408	147204
26.04222	151328
26.05033	150639
26.05845	146585
26.06658	144251
26.07470	149710
26.08283	148377
26.09095	149768
26.09907	146645
26.10720	149332
26.11532	144875
26.12345	149474
26.13157	156787
26.13968	146685
26.14782	154602
26.15593	150202
26.16405	152982
26.17218	150515
26.18030	143391
26.18843	137480
26.19655	135971
26.20467	131312
26.21280	128852
26.22092	123268
26.22905	120497
26.23717	127134
26.24528	119491
26.25342	120593
26.26153	115709
26.26967	113461
26.27778	116177
26.28590	113212
26.29403	110124
26.30215	113039
26.31027	107424
26.31840	102205
26.32652	101346
26.33465	103347
26.34277	104822
26.35088	112125
26.35902	119649
26.36713	139240
26.37527	170163
26.38338	208195
26.39150	252169
26.39963	280207
26.40775	287959
26.41588	272693
26.42400	245578
26.43212	212028
26.44025	167034
26.44837	134245
26.45648	127060
26.46462	111698
26.47273	104116
26.48087	105051
26.48898	101045
26.49710	96556
26.50523	92894
26.51335	96431
26.52148	89994
26.52960	84615
26.53772	86643
26.54585	80026
26.55397	82536
26.56208	84373
26.57022	84221
26.57833	81468
26.58647	81037
26.59458	76048
26.60270	78367
26.61083	79895
26.61895	73055
26.62708	75203
26.63520	74154
26.64332	74994
26.65145	77814
26.65957	76619
26.66770	80398
26.67582	79853
26.68393	82254
26.69207	75807
26.70018	75789
26.70830	76394
26.71643	72500
26.72455	73432
26.73268	76854
26.74080	77370
26.74892	72645
26.75705	70611
26.76517	73922
26.77330	81518
26.78142	75786
26.78953	80661
26.79767	88329
26.80578	85142
26.81390	84871
26.82203	80964
26.83015	74767
26.83828	74263
26.84640	72396
26.85452	71034
26.86265	70951
26.87077	67925
26.87890	60987
26.88702	64924
26.89513	67571
26.90327	68566
26.91138	64105
26.91952	67351
26.92763	65382
26.93575	65683
26.94388	64515
26.95200	63757
26.96012	69950
26.96825	81318
26.97637	98472
26.98450	144964
26.99262	217419
27.00073	313950
27.00887	441957
27.01698	567758
27.02512	690247
27.03323	733481
27.04135	762119
27.04948	676364
27.05760	589583
27.06573	498781
27.07385	407560
27.08197	343464
27.09010	281210
27.09822	248761
27.10633	217059
27.11447	201233
27.12258	187346
27.13072	174196
27.13883	175879
27.14695	164656
27.15508	159531
27.16320	159090
27.17133	161612
27.17945	159296
27.18757	165409
27.19570	161952
27.20382	151431
27.21193	145371
27.22007	135284
27.22818	127650
27.23632	123800
27.24443	121593
27.25255	114019
27.26068	109686
27.26880	103631
27.27693	104849
27.28505	101880
27.29317	97578
27.30130	95470
27.30942	94601
27.31755	101943
27.32567	93664
27.33378	97720
27.34192	92417
27.35003	94035
27.35815	96447
27.36628	92595
27.37440	88868
27.38253	86546
27.39065	96295
27.39877	84273
27.40690	80582
27.41502	80024
27.42315	84686
27.43127	79948
27.43938	84648
27.44752	79095
27.45563	78635
27.46377	74080
27.47188	75333
27.48000	70830
27.48813	71232
27.49625	76086
27.50437	76178
27.51250	81790
27.52062	76406
27.52875	86437
27.53687	87530
27.54498	83800
27.55312	84988
27.56123	78594
27.56937	87255
27.57748	89144
27.58560	93384
27.59373	98654
27.60185	103307
27.60997	103754
27.61810	103440
27.62622	99186
27.63435	89863
27.64247	86684
27.65058	76940
27.65872	81411
27.66683	84579
27.67497	91567
27.68308	104269
27.69120	116286
27.69933	112394
27.70745	106776
27.71558	104283
27.72370	90329
27.73182	77226
27.73995	72408
27.74807	64022
27.75618	65266
27.76432	64602
27.77243	62574
27.78057	66826
27.78868	66121
27.79680	70268
27.80493	63243
27.81305	65590
27.82118	68762
27.82930	65287
27.83742	60801
27.84555	66745
27.85367	63715
27.86180	61729
27.86992	61604
27.87803	59550
27.88617	61838
27.89428	57957
27.90240	58097
27.91053	61317
27.91865	57489
27.92678	60964
27.93490	58911
27.94302	58061
27.95115	54934
27.95927	59520
27.96740	54403
27.97552	62302
27.98363	60225
27.99177	59979
27.99988	65832
28.00800	71356
28.01613	87875
28.02425	115480
28.03238	149819
28.04050	188772
28.04862	222892
28.05675	232068
28.06487	221381
28.07300	191137
28.08112	145997
28.08923	118614
28.09737	101068
28.10548	88395
28.11362	79603
28.12173	75474
28.12985	71671
28.13798	68503
28.14610	65759
28.15422	62960
28.16235	63807
28.17047	60961
28.17860	65020
28.18672	72695
28.19483	80451
28.20297	87437
28.21108	90754
28.21922	103023
28.22733	95629
28.23545	97857
28.24358	92491
28.25170	79629
28.25982	76150
28.26795	72096
28.27607	60791
28.28420	68109
28.29232	65744
28.30043	75267
28.30857	80375
28.31668	90279
28.32482	104805
28.33293	128929
28.34105	142119
28.34918	161116
28.35730	188191
28.36543	193036
28.37355	215277
28.38167	233550
28.38980	240953
28.39792	235123
28.40603	237347
28.41417	226548
28.42228	220507
28.43042	203071
28.43853	194870
28.44665	187968
28.45478	166765
28.46290	161751
28.47103	152497
28.47915	139869
28.48727	148080
28.49540	139855
28.50352	132012
28.51165	130765
28.51977	124342
28.52788	116321
28.53602	108871
28.54413	102998
28.55225	97654
28.56038	88826
28.56850	85883
28.57663	83171
28.58475	84433
28.59287	84276
28.60100	82618
28.60912	81061
28.61725	83346
28.62537	86636
28.63348	85616
28.64162	88980
28.64973	92318
28.65785	88292
28.66598	94413
28.67410	85749
28.68223	89121
28.69035	83884
28.69847	76682
28.70660	80670
28.71472	73246
28.72285	73563
28.73097	71824
28.73908	75940
28.74722	87194
28.75533	94805
28.76347	105535
28.77158	103868
28.77970	99933
28.78783	90047
28.79595	88061
28.80407	81128
28.81220	78975
28.82032	79952
28.82845	74171
28.83657	78143
28.84468	71905
28.85282	71625
28.86093	72284
28.86907	71851
28.87718	74653
28.88530	73141
28.89343	82788
28.90155	91372
28.90968	95962
28.91780	86186
28.92592	81616
28.93405	73800
28.94217	78123
28.95028	74657
28.95842	77492
28.96653	73744
28.97467	72468
28.98278	69971
28.99090	66892
28.99903	64916
29.00715	63909
29.01528	58656
29.02340	58067
29.03152	61515
29.03965	60968
29.04777	58540
29.05588	58705
29.06402	61150
29.07213	59810
29.08027	62230
29.08838	67062
29.09650	64176
29.10463	68033
29.11275	62918
29.12088	60535
29.12900	59738
29.13712	57791
29.14525	63340
29.15337	58940
29.16150	53460
29.16962	61343
29.17773	64851
29.18587	63947
29.19398	80123
29.20210	90731
29.21023	102185
29.21835	113962
29.22648	134067
29.23460	172447
29.24272	249367
29.25085	341595
29.25897	454499
29.26710	564662
29.27522	562932
29.28333	492160
29.29147	384775
29.29958	265670
29.30770	175127
29.31583	111281
29.32395	81806
29.33208	71926
29.34020	66890
29.34832	66651
29.35645	62605
29.36457	56491
29.37270	63053
29.38082	55808
29.38893	61962
29.39707	60409
29.40518	59902
29.41332	61958
29.42143	65782
29.42955	66226
29.43768	63137
29.44580	59844
29.45392	63461
29.46205	57869
29.47017	55935
29.47830	60937
29.48642	59192
29.49453	59320
29.50267	66636
29.51078	62216
29.51892	59693
29.52703	60210
29.53515	57671
29.54328	54937
29.55140	55915
29.55953	54205
29.56765	52295
29.57577	57876
29.58390	52449
29.59202	49354
29.60013	53729
29.60827	49465
29.61638	53173
29.62452	51866
29.63263	50334
29.64075	53399
29.64888	58600
29.65700	51008
29.66513	54084
29.67325	53965
29.68137	57934
29.68950	59264
29.69762	59088
29.70573	61999
29.71387	57400
29.72198	60002
29.73012	61423
29.73823	56510
29.74635	59469
29.75448	56744
29.76260	51912
29.77073	52854
29.77885	49528
29.78697	51900
29.79510	49551
29.80322	49859
29.81135	48131
29.81947	46744
29.82758	45802
29.83572	49490
29.84383	47972
29.85195	47334
29.86008	52455
29.86820	56645
29.87633	59482
29.88445	68201
29.89257	77286
29.90070	82420
29.90882	91928
29.91695	87672
29.92507	77833
29.93318	68331
29.94132	70318
29.94943	66790
29.95757	71377
29.96568	77221
29.97380	88671
29.98193	95490
29.99005	107154
29.99817	121685
30.00630	131321
30.01442	136580
30.02255	141714
30.03067	140213
30.03878	139309
30.04692	137273
30.05503	137300
30.06317	138899
30.07128	132875
30.07940	127111
30.08753	128270
30.09565	125503
30.10377	121110
30.11190	125851
30.12002	120645
30.12815	112864
30.13627	104120
30.14438	104343
30.15252	106516
30.16063	100842
30.16877	100919
30.17688	97954
30.18500	96382
30.19313	104872
30.20125	103628
30.20938	102770
30.21750	99778
30.22562	96648
30.23375	87197
30.24187	79413
30.24998	82498
30.25812	73296
30.26623	70984
30.27437	65658
30.28248	64687
30.29060	71023
30.29873	64208
30.30685	73296
30.31498	66347
30.32310	64886
30.33122	66487
30.33935	65326
30.34747	64182
30.35558	64079
30.36372	66726
30.37183	63198
30.37997	62355
30.38808	58655
30.39620	62157
30.40433	55163
30.41245	56978
30.42058	56106
30.42870	54386
30.43682	55472
30.44495	60615
30.45307	54890
30.46120	60702
30.46932	57749
30.47743	55932
30.48557	54742
30.49368	57559
30.50180	52703
30.50993	53701
30.51805	53524
30.52618	51730
30.53430	58894
30.54242	52163
30.55055	53231
30.55867	51698
30.56680	56552
30.57492	56611
30.58303	54587
30.59117	58750
30.59928	54545
30.60742	56126
30.61553	53119
30.62365	54020
30.63178	52542
30.63990	51546
30.64802	50344
30.65615	48976
30.66427	52473
30.67240	52850
30.68052	53021
30.68863	46704
30.69677	48288
30.70488	45582
30.71302	49924
30.72113	52509
30.72925	58925
30.73738	65668
30.74550	70353
30.75363	72300
30.76175	79445
30.76987	81410
30.77800	91880
30.78612	95951
30.79423	115201
30.80237	127257
30.81048	141547
30.81862	144145
30.82673	134462
30.83485	121499
30.84298	119421
30.85110	108055
30.85923	105398
30.86735	101892
30.87547	102570
30.88360	100002
30.89172	108067
30.89983	108521
30.90797	101779
30.91608	101471
30.92422	98370
30.93233	95423
30.94045	100471
30.94858	91396
30.95670	95091
30.96483	96309
30.97295	96226
30.98107	96164
30.98920	95920
30.99732	89357
31.00545	91221
31.01357	92894
31.02168	96121
31.02982	93197
31.03793	96985
31.04605	98954
31.05418	97371
31.06230	94682
31.07043	96457
31.07855	101484
31.08667	108680
31.09480	113670
31.10292	117606
31.11105	119651
31.11917	117815
31.12728	112445
31.13542	98600
31.14353	98416
31.15165	101529
31.15978	101019
31.16790	98873
31.17603	103436
31.18415	121067
31.19227	135362
31.20040	167547
31.20852	207993
31.21665	250135
31.22477	275516
31.23288	280630
31.24102	254117
31.24913	216842
31.25727	174994
31.26538	129824
31.27350	110862
31.28163	99527
31.28975	89061
31.29787	85468
31.30600	80477
31.31412	83918
31.32225	79564
31.33037	81705
31.33848	81302
31.34662	82701
31.35473	79968
31.36287	82132
31.37098	80800
31.37910	81147
31.38723	86924
31.39535	86068
31.40348	82447
31.41160	76802
31.41972	76653
31.42785	80157
31.43597	78262
31.44408	76446
31.45222	68878
31.46033	71181
31.46847	73670
31.47658	69570
31.48470	75166
31.49283	72822
31.50095	73463
31.50908	80005
31.51720	79426
31.52532	86391
31.53345	80414
31.54157	84552
31.54968	76641
31.55782	80935
31.56593	81711
31.57407	74124
31.58218	75412
31.59030	71515
31.59843	66658
31.60655	68741
31.61468	65239
31.62280	68112
31.63092	67132
31.63905	66923
31.64717	64448
31.65530	68428
31.66342	74354
31.67153	72554
31.67967	69508
31.68778	69612
31.69590	66858
31.70403	67786
31.71215	65639
31.72028	63788
31.72840	61695
31.73652	61528
31.74465	60999
31.75277	61604
31.76090	59215
31.76902	59963
31.77713	61842
31.78527	63781
31.79338	61346
31.80152	61500
31.80963	61261
31.81775	61981
31.82588	65878
31.83400	63267
31.84212	62314
31.85025	64129
31.85837	60994
31.86650	67407
31.87462	64160
31.88273	66678
31.89087	71618
31.89898	79280
31.90712	78643
31.91523	87413
31.92335	93591
31.93148	99922
31.93960	95746
31.94772	110355
31.95585	112570
31.96397	119876
31.97210	119845
31.98022	127234
31.98833	119200
31.99647	123142
32.00458	118377
32.01272	121090
32.02083	116250
32.02895	114744
32.03708	114350
32.04520	112493
32.05333	106975
32.06145	103389
32.06957	94682
32.07770	96138
32.08582	94909
32.09393	92016
32.10207	87175
32.11018	81596
32.11832	79643
32.12643	74070
32.13455	74163
32.14268	71920
32.15080	70882
32.15893	69849
32.16705	73571
32.17517	66639
32.18330	65918
32.19142	69207
32.19953	67630
32.20767	71069
32.21578	69165
32.22392	66204
32.23203	69916
32.24015	65591
32.24828	65976
32.25640	64062
32.26453	62332
32.27265	69850
32.28077	72841
32.28890	68118
32.29702	66116
32.30515	63388
32.31327	58008
32.32138	60075
32.32952	63004
32.33763	63348
32.34575	60400
32.35388	64380
32.36200	68534
32.37013	65551
32.37825	64248
32.38637	64199
32.39450	60279
32.40262	55369
32.41075	60482
32.41887	58619
32.42698	55605
32.43512	61231
32.44323	55530
32.45137	57270
32.45948	59472
32.46760	56240
32.47573	56030
32.48385	56729
32.49197	51648
32.50010	61515
32.50822	54464
32.51635	57450
32.52447	53115
32.53258	54359
32.54072	58284
32.54883	55565
32.55697	55399
32.56508	52831
32.57320	55984
32.58133	56145
32.58945	57113
32.59757	54333
32.60570	52297
32.61382	56325
32.62195	56441
32.63007	54284
32.63818	65184
32.64632	68315
32.65443	71709
32.66257	77235
32.67068	76260
32.67880	73159
32.68693	62993
32.69505	58183
32.70318	58165
32.71130	60895
32.71942	59432
32.72755	62724
32.73567	54469
32.74378	54985
32.75192	57252
32.76003	51748
32.76817	55760
32.77628	55399
32.78440	51530
32.79253	49436
32.80065	53757
32.80878	55957
32.81690	52655
32.82502	53973
32.83315	51326
32.84127	54440
32.84940	52262
32.85752	53489
32.86563	52003
32.87377	55622
32.88188	60422
32.89000	63333
32.89813	74739
32.90625	73650
32.91438	75289
32.92250	75847
32.93062	68467
32.93875	69475
32.94687	60232
32.95500	57191
32.96312	60260
32.97123	59807
32.97937	60427
32.98748	66002
32.99560	74964
33.00373	77658
33.01185	74734
33.01998	72223
33.02810	70853
33.03622	67179
33.04435	63274
33.05247	56732
33.06060	62964
33.06872	66146
33.07683	73990
33.08497	76434
33.09308	83239
33.10122	86141
33.10933	92605
33.11745	94343
33.12558	89492
33.13370	80339
33.14182	77613
33.14995	72958
33.15807	68132
33.16620	64722
33.17432	61495
33.18243	62935
33.19057	61039
33.19868	56059
33.20682	57101
33.21493	60398
33.22305	55977
33.23118	56377
33.23930	58515
33.24743	55646
33.25555	50610
33.26367	55581
33.27180	53901
33.27992	61642
33.28803	56199
33.29617	56970
33.30428	57912
33.31242	51811
33.32053	58993
33.32865	53261
33.33678	59095
33.34490	62341
33.35303	67047
33.36115	60817
33.36927	61835
33.37740	57183
33.38552	64968
33.39363	60636
33.40177	58882
33.40988	54933
33.41802	51985
33.42613	53002
33.43425	50516
33.44238	55919
33.45050	56370
33.45863	54098
33.46675	52916
33.47487	52259
33.48300	50315
33.49112	48910
33.49925	52942
33.50737	51946
33.51548	53484
33.52362	54751
33.53173	54161
33.53985	57913
33.54798	59599
33.55610	62629
33.56423	63246
33.57235	63548
33.58047	56677
33.58860	58464
33.59672	54928
33.60485	53574
33.61297	53964
33.62108	57780
33.62922	52533
33.63733	54647
33.64545	57559
33.65358	57288
33.66170	61724
33.66983	60187
33.67795	65552
33.68607	58833
33.69420	53558
33.70232	52966
33.71045	50841
33.71857	50012
33.72668	52541
33.73482	51997
33.74293	50643
33.75107	47478
33.75918	52940
33.76730	52259
33.77543	50184
33.78355	50353
33.79167	49677
33.79980	47410
33.80792	53348
33.81605	53884
33.82417	54844
33.83228	54344
33.84042	51196
33.84853	52188
33.85667	52095
33.86478	53779
33.87290	54019
33.88103	55706
33.88915	57776
33.89728	59172
33.90540	63935
33.91352	63595
33.92165	65328
33.92977	58281
33.93788	58927
33.94602	57553
33.95413	54950
33.96227	50901
33.97038	50895
33.97850	51072
33.98663	52323
33.99475	52935
34.00288	50208
34.01100	47200
34.01912	52334
34.02725	51172
34.03537	59445
34.04348	51772
34.05162	54795
34.05973	55408
34.06787	58400
34.07598	54164
34.08410	56795
34.09223	58223
34.10035	54529
34.10848	53485
34.11660	55439
34.12472	56216
34.13285	52815
34.14097	58928
34.14910	57619
34.15722	56129
34.16533	61302
34.17347	59412
34.18158	56011
34.18970	60415
34.19783	55450
34.20595	56589
34.21408	59874
34.22220	56572
34.23032	54935
34.23845	54443
34.24657	57350
34.25470	57155
34.26282	59009
34.27093	57513
34.27907	52577
34.28718	53420
34.29532	58494
34.30343	54185
34.31155	58701
34.31968	55856
34.32780	52624
34.33592	55762
34.34405	53205
34.35217	54999
34.36030	52258
34.36842	56470
34.37653	52767
34.38467	52525
34.39278	56116
34.40092	53048
34.40903	51007
34.41715	51961
34.42528	52053
34.43340	52732
34.44152	51859
34.44965	53689
34.45777	53377
34.46590	53969
34.47402	51815
34.48213	52372
34.49027	53588
34.49838	58777
34.50652	65906
34.51463	77433
34.52275	87127
34.53088	95431
34.53900	109199
34.54713	112538
34.55525	121732
34.56337	114939
34.57150	109518
34.57962	105378
34.58773	97881
34.59587	97927
34.60398	93670
34.61212	81420
34.62023	76723
34.62835	79574
34.63648	72025
34.64460	75704
34.65273	70696
34.66085	64467
34.66897	68576
34.67710	66749
34.68522	67277
34.69333	64707
34.70147	67062
34.70958	65332
34.71772	61736
34.72583	60307
34.73395	62005
34.74208	61983
34.75020	58798
34.75833	66033
34.76645	65760
34.77457	63858
34.78270	63066
34.79082	65237
34.79895	65172
34.80707	64640
34.81518	66188
34.82332	65495
34.83143	63406
34.83955	73655
34.84768	66830
34.85580	64279
34.86393	65373
34.87205	61062
34.88017	65627
34.88830	61946
34.89642	63956
34.90455	61569
34.91267	65454
34.92078	66888
34.92892	67831
34.93703	64958
34.94517	72220
34.95328	73569
34.96140	73064
34.96953	72328
34.97765	73439
34.98577	75258
34.99390	70802
35.00202	72250
35.01015	64597
35.01827	63104
35.02638	61308
35.03452	61312
35.04263	62710
35.05077	59967
35.05888	61408
35.06700	58586
35.07513	60127
35.08325	58848
35.09137	54830
35.09950	57009
35.10762	60965
35.11575	55149
35.12387	55381
35.13198	58857
35.14012	63609
35.14823	60235
35.15637	59907
35.16448	65683
35.17260	63312
35.18073	60658
35.18885	57162
35.19698	57266
35.20510	56061
35.21322	58228
35.22135	58536
35.22947	54432
35.23758	56333
35.24572	50802
35.25383	57399
35.26197	53579
35.27008	55966
35.27820	56022
35.28633	58706
35.29445	57041
35.30258	55069
35.31070	54288
35.31882	52663
35.32695	54187
35.33507	58380
35.34320	58513
35.35132	57202
35.35943	53449
35.36757	56700
35.37568	59733
35.38380	61943
35.39193	71373
35.40005	76990
35.40818	81755
35.41630	97469
35.42442	102563
35.43255	112996
35.44067	107212
35.44880	100907
35.45692	100227
35.46503	79591
35.47317	74117
35.48128	70965
35.48940	67706
35.49753	62942
35.50565	62897
35.51378	59781
35.52190	60326
35.53002	57527
35.53815	57789
35.54627	55384
35.55440	58175
35.56252	57674
35.57063	57665
35.57877	56875
35.58688	57757
35.59502	59638
35.60313	59211
35.61125	57990
35.61938	57289
35.62750	54212
35.63562	56721
35.64375	55980
35.65187	54303
35.66000	60483
35.66812	62594
35.67623	60207
35.68437	64238
35.69248	61947
35.70062	58592
35.70873	61258
35.71685	61859
35.72498	62816
35.73310	65877
35.74122	66271
35.74935	66916
35.75747	66284
35.76560	67619
35.77372	64076
35.78183	63749
35.78997	65856
35.79808	63130
35.80622	66139
35.81433	62624
35.82245	54219
35.83058	54901
35.83870	57112
35.84683	51524
35.85495	55733
35.86307	56782
35.87120	57141
35.87932	59371
35.88743	54620
35.89557	55880
35.90368	54564
35.91182	56370
35.91993	57109
35.92805	55042
35.93618	55995
35.94430	57279
35.95243	56891
35.96055	58256
35.96867	55021
35.97680	56227
35.98492	59176
35.99305	56239
36.00117	58373
36.00928	64671
36.01742	61346
36.02553	59614
36.03365	62076
36.04178	62618
36.04990	61481
36.05803	56540
36.06615	64961
36.07427	57947
36.08240	57984
36.09052	62193
36.09865	56030
36.10677	58623
36.11488	56775
36.12302	59657
36.13113	61607
36.13927	63901
36.14738	64641
36.15550	64873
36.16363	62917
36.17175	64844
36.17987	55448
36.18800	58352
36.19612	56054
36.20425	60514
36.21237	55666
36.22048	58563
36.22862	57649
36.23673	62719
36.24487	63191
36.25298	72844
36.26110	73585
36.26923	80059
36.27735	83846
36.28547	90764
36.29360	93482
36.30172	101495
36.30985	101013
36.31797	100060
36.32608	95123
36.33422	91238
36.34233	86409
36.35047	83269
36.35858	82045
36.36670	85472
36.37483	89937
36.38295	91267
36.39108	86560
36.39920	88762
36.40732	86400
36.41545	87909
36.42357	89033
36.43168	87925
36.43982	86486
36.44793	86800
36.45607	79041
36.46418	85855
36.47230	85333
36.48043	81911
36.48855	85767
36.49668	84182
36.50480	87732
36.51292	82692
36.52105	87547
36.52917	83691
36.53728	82500
36.54542	81561
36.55353	81346
36.56167	80067
36.56978	80929
36.57790	82443
36.58603	83096
36.59415	76956
36.60228	82537
36.61040	79685
36.61852	79316
36.62665	79736
36.63477	81928
36.64290	77128
36.65102	85085
36.65913	81585
36.66727	79238
36.67538	82721
36.68350	75857
36.69163	81426
36.69975	79230
36.70788	81162
36.71600	75577
36.72412	78385
36.73225	79353
36.74037	75473
36.74850	72947
36.75662	73620
36.76473	74206
36.77287	78760
36.78098	80034
36.78912	76012
36.79723	74512
36.80535	79861
36.81348	73001
36.82160	72256
36.82972	69280
36.83785	72459
36.84597	75333
36.85410	69403
36.86222	75089
36.87033	70127
36.87847	70876
36.88658	70243
36.89472	70511
36.90283	74872
36.91095	67902
36.91908	72792
36.92720	73297
36.93532	74697
36.94345	81468
36.95157	95532
36.95970	95910
36.96782	87369
36.97593	97923
36.98407	86706
36.99218	81577
37.00032	78544
37.00843	76667
37.01655	78601
37.02468	76223
37.03280	73579
37.04093	69102
37.04905	73103
37.05717	75645
37.06530	75807
37.07342	79490
37.08153	72702
37.08967	76775
37.09778	72658
37.10592	72614
37.11403	72065
37.12215	70717
37.13028	71049
37.13840	66283
37.14653	74183
37.15465	72141
37.16277	73195
37.17090	76761
37.17902	76180
37.18715	67545
37.19527	71467
37.20338	77180
37.21152	76172
37.21963	76591
37.22775	73673
37.23588	68515
37.24400	69212
37.25213	71680
37.26025	66003
37.26837	69879
37.27650	65784
37.28462	69528
37.29275	68091
37.30087	78627
37.30898	76003
37.31712	90214
37.32523	95459
37.33335	104740
37.34148	115884
37.34960	118793
37.35773	116010
37.36585	118378
37.37397	110488
37.38210	105413
37.39022	97574
37.39835	98386
37.40647	94531
37.41458	89628
37.42272	87280
37.43083	90374
37.43897	86192
37.44708	89674
37.45520	90402
37.46333	87120
37.47145	94418
37.47957	83120
37.48770	81605
