C:\MassHunter\GCMS\1\data\JTB-E02\BACandBLUE\JTB-E18-008-06.D Wed May 15 08:32:52 2019
Start of data points
2.09525,114470
2.10337,117248
2.11150,132583
2.11962,141697
2.12773,164660
2.13587,191202
2.14398,214964
2.15212,232088
2.16023,256361
2.16835,271607
2.17648,270301
2.18460,279002
2.19272,274739
2.20085,268876
2.20897,263674
2.21710,261294
2.22522,250443
2.23333,239564
2.24147,227434
2.24958,223104
2.25772,216662
2.26583,246335
2.27395,1647063
2.28208,6418188
2.29020,5624369
2.29833,2589614
2.30645,1507990
2.31457,1189641
2.32270,1020516
2.33082,903019
2.33893,965796
2.34707,1034998
2.35518,867336
2.36332,765245
2.37143,684557
2.37955,620965
2.38768,669853
2.39580,655733
2.40393,625579
2.41205,787939
2.42017,926785
2.42830,1766181
2.43642,1599011
2.44455,1169103
2.45267,984795
2.46078,880384
2.46892,781839
2.47703,710706
2.48515,653852
2.49328,798151
2.50140,1052686
2.50953,907992
2.51765,776010
2.52577,735879
2.53390,679895
2.54202,638144
2.55015,668056
2.55827,687786
2.56638,727616
2.57452,699275
2.58263,589689
2.59075,534977
2.59888,488312
2.60700,475558
2.61513,536804
2.62325,550847
2.63137,499886
2.63950,459167
2.64762,421462
2.65575,413876
2.66387,398194
2.67198,389353
2.68012,380199
2.68823,374753
2.69637,350325
2.70448,342794
2.71260,337895
2.72073,321662
2.72885,317709
2.73697,301561
2.74510,299282
2.75322,288006
2.76135,281534
2.76947,279421
2.77758,288456
2.78572,273238
2.79383,264539
2.80197,278622
2.81008,308299
2.81820,310169
2.82633,295731
2.83445,280595
2.84257,274030
2.85070,258476
2.85882,267575
2.86695,286004
2.87507,276170
2.88318,264463
2.89132,259532
2.89943,260130
2.90757,254799
2.91568,238194
2.92380,230568
2.93193,220670
2.94005,214089
2.94818,220328
2.95630,224038
2.96442,223957
2.97255,224250
2.98067,229881
2.98878,220767
2.99692,218679
3.00503,225794
3.01317,247294
3.02128,235748
3.02940,237775
3.03753,223392
3.04565,234755
3.05378,227485
3.06190,232395
3.07002,231813
3.07815,225698
3.08627,233309
3.09440,231224
3.10252,263610
3.11063,340468
3.11877,434208
3.12688,430826
3.13500,395786
3.14313,366238
3.15125,345067
3.15938,325512
3.16750,318066
3.17562,312314
3.18375,300409
3.19187,291764
3.20000,298608
3.20812,289466
3.21623,292028
3.22437,281255
3.23248,288418
3.24060,277558
3.24873,277548
3.25685,273180
3.26498,267625
3.27310,271365
3.28122,486046
3.28935,4006543
3.29747,2.734671E+07
3.30560,6.629454E+07
3.31372,9.121042E+07
3.32183,1.115232E+08
3.32997,8.207616E+07
3.33808,6.325454E+07
3.34622,4.66511E+07
3.35433,3.423762E+07
3.36245,2.622429E+07
3.37058,2.048738E+07
3.37870,1.633042E+07
3.38682,1.328529E+07
3.39495,1.108587E+07
3.40307,9466414
3.41120,8181116
3.41932,7224211
3.42743,6465535
3.43557,5836758
3.44368,5385516
3.45182,4981033
3.45993,4615333
3.46805,4356734
3.47618,4103543
3.48430,3901220
3.49243,3720345
3.50055,3597839
3.50867,3441113
3.51680,3258530
3.52492,3156953
3.53303,3015109
3.54117,2887261
3.54928,2778314
3.55742,2673661
3.56553,2608405
3.57365,2499941
3.58178,2447563
3.58990,2411910
3.59803,2371472
3.60615,2288779
3.61427,2235447
3.62240,2268216
3.63052,2281688
3.63863,2216869
3.64677,2166327
3.65488,2109325
3.66302,2038239
3.67113,1983387
3.67925,1957271
3.68738,1955605
3.69550,1917385
3.70363,1885600
3.71175,1861764
3.71987,1830566
3.72800,1774708
3.73612,1768724
3.74425,1714329
3.75237,1664617
3.76048,1644219
3.76862,1612351
3.77673,1618751
3.78485,1584883
3.79298,1558033
3.80110,1568190
3.80923,1558709
3.81735,1567251
3.82547,1552573
3.83360,1539203
3.84172,1530892
3.84985,1491547
3.85797,1484010
3.86608,1422237
3.87422,1399169
3.88233,1375007
3.89045,1365905
3.89858,1349471
3.90670,1338520
3.91483,1322872
3.92295,1296410
3.93107,1287529
3.93920,1263517
3.94732,1251362
3.95545,1248770
3.96357,1252009
3.97168,1216899
3.97982,1212230
3.98793,1244976
3.99607,1210514
4.00418,1208361
4.01230,1183886
4.02043,1212561
4.02855,1192258
4.03667,1193721
4.04480,1144312
4.05292,1146451
4.06105,1149553
4.06917,1098255
4.07728,1075914
4.08542,1070186
4.09353,1052954
4.10167,1049164
4.10978,1056246
4.11790,1013274
4.12603,1037156
4.13415,1015153
4.14228,1087448
4.15040,1238390
4.15852,1376119
4.16665,1385388
4.17477,1298196
4.18288,1210140
4.19102,1106288
4.19913,1060020
4.20727,1028036
4.21538,1006134
4.22350,991005
4.23163,986414
4.23975,975104
4.24788,977133
4.25600,971287
4.26412,949046
4.27225,922739
4.28037,902928
4.28848,884344
4.29662,889520
4.30473,861333
4.31287,864562
4.32098,885942
4.32910,918403
4.33723,949677
4.34535,966567
4.35348,950749
4.36160,960038
4.36972,1058108
4.37785,1097447
4.38597,1086853
4.39410,1056870
4.40222,981988
4.41033,932863
4.41847,908347
4.42658,858924
4.43470,854312
4.44283,829595
4.45095,823375
4.45908,809047
4.46720,805270
4.47532,777485
4.48345,804284
4.49157,768482
4.49970,768090
4.50782,776008
4.51593,779905
4.52407,752386
4.53218,750777
4.54032,740702
4.54843,737563
4.55655,725987
4.56468,713517
4.57280,721090
4.58092,717154
4.58905,708358
4.59717,722775
4.60530,728557
4.61342,700923
4.62153,705432
4.62967,711966
4.63778,675294
4.64592,674623
4.65403,666480
4.66215,656512
4.67028,656849
4.67840,658181
4.68652,655634
4.69465,651098
4.70277,640114
4.71090,627102
4.71902,636795
4.72713,629495
4.73527,623688
4.74338,627537
4.75152,610492
4.75963,609153
4.76775,607799
4.77588,605705
4.78400,601331
4.79213,592772
4.80025,602650
4.80837,601794
4.81650,586167
4.82462,609145
4.83273,594654
4.84087,604782
4.84898,600423
4.85712,596364
4.86523,596121
4.87335,607325
4.88148,608430
4.88960,607956
4.89773,591082
4.90585,601184
4.91397,596032
4.92210,605625
4.93022,832909
4.93833,2552563
4.94647,1.029998E+07
4.95458,2.94256E+07
4.96272,5.191594E+07
4.97083,6.670114E+07
4.97895,6.912766E+07
4.98708,6.16993E+07
4.99520,4.829684E+07
5.00333,3.462673E+07
5.01145,2.402689E+07
5.01957,1.67102E+07
5.02770,1.207788E+07
5.03582,9083916
5.04395,7194830
5.05207,5920852
5.06018,5006372
5.06832,4397810
5.07643,3941485
5.08455,3533216
5.09268,3256110
5.10080,2994745
5.10893,2802361
5.11705,2632962
5.12517,2469565
5.13330,2367503
5.14142,2264363
5.14955,2166805
5.15767,2097488
5.16578,2033206
5.17392,1986790
5.18203,1916464
5.19017,1862845
5.19828,1850447
5.20640,1798960
5.21453,1772663
5.22265,1753485
5.23077,1814952
5.23890,2084170
5.24702,2391552
5.25515,2444436
5.26327,2266469
5.27138,1972929
5.27952,1757517
5.28763,1669329
5.29577,1584388
5.30388,1532038
5.31200,1444137
5.32013,1431534
5.32825,1409508
5.33638,1372277
5.34450,1345563
5.35262,1355057
5.36075,1295116
5.36887,1285218
5.37698,1305041
5.38512,1242015
5.39323,1244657
5.40137,1223845
5.40948,1197062
5.41760,1181115
5.42573,1185280
5.43385,1153518
5.44198,1137179
5.45010,1110729
5.45822,1118382
5.46635,1109307
5.47447,1062533
5.48258,1056541
5.49072,1047860
5.49883,1045674
5.50697,1033747
5.51508,1009282
5.52320,1014098
5.53133,999685
5.53945,989197
5.54758,983339
5.55570,968032
5.56382,961951
5.57195,948877
5.58007,948836
5.58820,937510
5.59632,940188
5.60443,946285
5.61257,964482
5.62068,969052
5.62880,992113
5.63693,1062844
5.64505,1081844
5.65318,1116453
5.66130,1055524
5.66942,993403
5.67755,967643
5.68567,976036
5.69380,990621
5.70192,1024154
5.71003,987221
5.71817,947972
5.72628,928438
5.73440,895148
5.74253,887705
5.75065,875746
5.75878,882453
5.76690,861669
5.77502,863527
5.78315,843185
5.79127,829871
5.79940,811553
5.80752,785040
5.81563,764194
5.82377,773227
5.83188,761073
5.84002,737382
5.84813,726571
5.85625,735768
5.86438,721552
5.87250,707268
5.88062,695406
5.88875,689074
5.89687,679898
5.90500,683076
5.91312,613469
5.92123,524113
5.92937,485729
5.93748,477092
5.94562,471373
5.95373,470600
5.96185,467417
5.96998,497620
5.97810,559900
5.98623,681005
5.99435,774435
6.00247,796497
6.01060,756572
6.01872,668804
6.02683,620171
6.03497,560303
6.04308,559803
6.05122,535399
6.05933,515983
6.06745,499284
6.07558,499252
6.08370,481258
6.09183,478837
6.09995,461382
6.10807,455559
6.11620,448060
6.12432,453794
6.13243,451844
6.14057,448355
6.14868,443225
6.15682,451242
6.16493,440115
6.17305,428156
6.18118,421525
6.18930,418246
6.19743,410013
6.20555,414642
6.21367,415258
6.22180,406218
6.22992,398736
6.23805,403593
6.24617,397298
6.25428,401064
6.26242,387594
6.27053,403386
6.27865,376164
6.28678,384112
6.29490,387528
6.30303,378374
6.31115,371730
6.31927,366134
6.32740,368139
6.33552,382552
6.34365,364614
6.35177,371304
6.35988,362544
6.36802,367993
6.37613,358547
6.38427,356458
6.39238,351546
6.40050,344054
6.40863,349052
6.41675,338907
6.42487,350352
6.43300,355966
6.44112,370036
6.44925,405313
6.45737,459476
6.46548,439690
6.47362,422916
6.48173,380774
6.48987,372315
6.49798,362530
6.50610,361100
6.51423,346998
6.52235,339285
6.53047,332619
6.53860,357779
6.54672,356625
6.55485,350840
6.56297,349025
6.57108,341512
6.57922,345858
6.58733,333407
6.59547,337873
6.60358,327570
6.61170,325503
6.61983,343201
6.62795,345424
6.63608,339744
6.64420,336869
6.65232,334591
6.66045,325255
6.66857,325941
6.67668,326954
6.68482,327916
6.69293,324029
6.70107,332045
6.70918,311200
6.71730,305633
6.72543,310007
6.73355,304196
6.74168,304074
6.74980,302687
6.75792,305749
6.76605,303134
6.77417,289223
6.78228,299165
6.79042,291167
6.79853,296042
6.80667,286433
6.81478,285150
6.82290,290304
6.83103,296303
6.83915,289025
6.84728,296022
6.85540,283088
6.86352,249674
6.87165,232484
6.87977,225776
6.88790,242880
6.89602,267883
6.90413,239627
6.91227,215593
6.92038,198531
6.92850,185372
6.93663,171559
6.94475,161279
6.95288,168564
6.96100,152109
6.96912,151083
6.97725,154201
6.98537,146364
6.99350,153791
7.00162,148149
7.00973,149221
7.01787,154347
7.02598,144289
7.03412,144864
7.04223,155928
7.05035,148727
7.05848,152844
7.06660,143603
7.07472,144691
7.08285,144043
7.09097,141568
7.09910,141976
7.10722,141915
7.11533,141730
7.12347,132113
7.13158,139355
7.13972,138593
7.14783,139556
7.15595,133804
7.16408,138255
7.17220,144010
7.18032,141233
7.18845,151852
7.19657,146478
7.20470,140260
7.21282,143699
7.22093,141323
7.22907,150489
7.23718,153537
7.24532,149319
7.25343,138827
7.26155,131250
7.26968,129542
7.27780,133183
7.28593,131846
7.29405,134644
7.30217,137316
7.31030,130582
7.31842,143607
7.32653,135512
7.33467,137028
7.34278,136472
7.35092,129835
7.35903,129386
7.36715,129444
7.37528,130469
7.38340,128900
7.39153,129026
7.39965,136226
7.40777,140297
7.41590,134751
7.42402,141302
7.43215,154118
7.44027,180791
7.44838,199626
7.45652,234805
7.46463,249878
7.47275,240207
7.48088,208172
7.48900,180322
7.49713,166629
7.50525,144419
7.51337,132775
7.52150,139606
7.52962,129335
7.53775,128564
7.54587,133289
7.55398,130969
7.56212,139465
7.57023,132382
7.57835,136858
7.58648,129034
7.59460,126902
7.60273,129197
7.61085,129671
7.61897,125420
7.62710,126999
7.63522,125930
7.64335,124681
7.65147,121713
7.65958,124889
7.66772,125904
7.67583,128568
7.68397,129169
7.69208,132340
7.70020,121044
7.70833,122930
7.71645,124561
7.72457,128605
7.73270,122533
7.74082,120516
7.74895,123134
7.75707,118342
7.76518,122661
7.77332,126016
7.78143,124042
7.78957,125258
7.79768,127193
7.80580,126579
7.81393,130359
7.82205,131429
7.83017,130808
7.83830,122733
7.84642,125193
7.85455,118489
7.86267,119944
7.87078,118753
7.87892,129637
7.88703,119198
7.89517,113720
7.90328,127324
7.91140,126937
7.91953,121678
7.92765,119440
7.93578,122823
7.94390,122038
7.95202,119169
7.96015,125173
7.96827,137866
7.97638,157434
7.98452,174345
7.99263,183069
8.00077,180995
8.00888,174281
8.01700,151041
8.02513,135616
8.03325,129432
8.04138,125451
8.04950,123224
8.05762,133642
8.06575,129228
8.07387,132119
8.08200,130820
8.09012,133234
8.09823,134667
8.10637,133592
8.11448,135475
8.12260,130466
8.13073,132484
8.13885,128306
8.14698,126723
8.15510,138026
8.16322,137662
8.17135,150620
8.17947,173063
8.18760,181849
8.19572,189662
8.20383,177260
8.21197,167980
8.22008,153268
8.22820,143208
8.23633,142022
8.24445,135310
8.25258,133286
8.26070,137329
8.26882,137607
8.27695,136827
8.28507,140552
8.29320,131332
8.30132,129241
8.30943,127463
8.31757,122797
8.32568,134996
8.33382,147054
8.34193,165447
8.35005,207798
8.35818,250515
8.36630,267885
8.37442,261791
8.38255,221906
8.39067,197928
8.39880,170899
8.40692,149904
8.41503,152481
8.42317,160574
8.43128,163447
8.43942,160728
8.44753,155634
8.45565,152989
8.46378,143572
8.47190,143459
8.48003,140744
8.48815,136489
8.49627,143091
8.50440,161579
8.51252,301149
8.52063,1015884
8.52877,1356385
8.53688,746327
8.54502,441411
8.55313,352786
8.56125,318648
8.56938,304865
8.57750,262353
8.58563,245006
8.59375,258782
8.60187,327021
8.61000,428352
8.61812,365228
8.62623,304452
8.63437,290011
8.64248,306734
8.65062,301225
8.65873,284496
8.66685,264666
8.67498,262140
8.68310,261842
8.69123,251177
8.69935,256280
8.70747,230491
8.71560,221100
8.72372,206028
8.73185,194983
8.73997,195017
8.74808,192276
8.75622,268751
8.76433,623105
8.77245,1963338
8.78058,5906223
8.78870,1.337211E+07
8.79683,2.183047E+07
8.80495,2.644784E+07
8.81307,2.492059E+07
8.82120,1.970663E+07
8.82932,1.356351E+07
8.83745,8891679
8.84557,5935064
8.85368,4102024
8.86182,2979363
8.86993,2295919
8.87807,1829218
8.88618,1517693
8.89430,1338095
8.90243,1190623
8.91055,1153925
8.91867,3777374
8.92680,2.487525E+07
8.93492,3.901167E+07
8.94305,2.774327E+07
8.95117,1.580561E+07
8.95928,1.004539E+07
8.96742,7085413
8.97553,5324745
8.98367,4155126
8.99178,3389466
8.99990,2843669
9.00803,2425926
9.01615,2126800
9.02427,1936501
9.03240,1697756
9.04052,1564052
9.04865,1432413
9.05677,1328322
9.06488,1237376
9.07302,1156453
9.08113,1119771
9.08927,1023861
9.09738,976235
9.10550,932587
9.11363,903836
9.12175,869992
9.12988,849228
9.13800,831671
9.14612,820180
9.15425,812222
9.16237,778542
9.17048,767645
9.17862,771766
9.18673,767860
9.19487,776607
9.20298,757590
9.21110,714379
9.21923,689281
9.22735,641622
9.23548,630065
9.24360,599160
9.25172,578312
9.25985,562956
9.26797,551737
9.27608,526990
9.28422,523092
9.29233,504017
9.30047,496381
9.30858,529344
9.31670,521777
9.32483,505045
9.33295,508386
9.34108,513886
9.34920,509839
9.35732,470757
9.36545,460189
9.37357,444673
9.38170,433278
9.38982,430733
9.39793,413279
9.40607,424743
9.41418,639922
9.42230,3311043
9.43043,1.176524E+07
9.43855,1.715141E+07
9.44668,1.303325E+07
9.45480,7896069
9.46292,5232624
9.47105,3848126
9.47917,2988933
9.48730,2417164
9.49542,2021596
9.50353,1738332
9.51167,1507952
9.51978,1355817
9.52792,1238588
9.53603,1141005
9.54415,1100983
9.55228,1041441
9.56040,972585
9.56852,924386
9.57665,819730
9.58477,752559
9.59290,695109
9.60102,658851
9.60913,655954
9.61727,633021
9.62538,605352
9.63352,568844
9.64163,531651
9.64975,516237
9.65788,477787
9.66600,465428
9.67412,439974
9.68225,433589
9.69037,418885
9.69850,406981
9.70662,400649
9.71473,370850
9.72287,371405
9.73098,362274
9.73912,355118
9.74723,348679
9.75535,336677
9.76348,323953
9.77160,326171
9.77973,318464
9.78785,316841
9.79597,305067
9.80410,307206
9.81222,301877
9.82033,298168
9.82847,298619
9.83658,298147
9.84472,296653
9.85283,313646
9.86095,387186
9.86908,452764
9.87720,426352
9.88533,367716
9.89345,313078
9.90157,305337
9.90970,289875
9.91782,282239
9.92595,285201
9.93407,300754
9.94218,311410
9.95032,294702
9.95843,277363
9.96655,278803
9.97468,295384
9.98280,311339
9.99093,336582
9.99905,365058
10.00717,457701
10.01530,573504
10.02342,697538
10.03155,848848
10.03967,862810
10.04778,838208
10.05592,752382
10.06403,628792
10.07215,532104
10.08028,450218
10.08840,406444
10.09653,367163
10.10465,355319
10.11277,340233
10.12090,323106
10.12902,308303
10.13715,305080
10.14527,292292
10.15338,285270
10.16152,273357
10.16963,278005
10.17777,284975
10.18588,273371
10.19400,262960
10.20213,269864
10.21025,287000
10.21837,307305
10.22650,356101
10.23462,440104
10.24275,529874
10.25087,566835
10.25898,521534
10.26712,446939
10.27523,381930
10.28337,349927
10.29148,342076
10.29960,319927
10.30773,341295
10.31585,352641
10.32397,371680
10.33210,357653
10.34022,337900
10.34835,333582
10.35647,310321
10.36458,299842
10.37272,292777
10.38083,285454
10.38897,267720
10.39708,265720
10.40520,259487
10.41333,262810
10.42145,244361
10.42958,249100
10.43770,246249
10.44582,250778
10.45395,248484
10.46207,238506
10.47018,238582
10.47832,239913
10.48643,234577
10.49457,233111
10.50268,235966
10.51080,228292
10.51893,228679
10.52705,225212
10.53518,238366
10.54330,235164
10.55142,236031
10.55955,238530
10.56767,244764
10.57580,243032
10.58392,245192
10.59203,244416
10.60017,243757
10.60828,222881
10.61640,226402
10.62453,221732
10.63265,215263
10.64078,213784
10.64890,217552
10.65702,211086
10.66515,225761
10.67327,210206
10.68140,223841
10.68952,234185
10.69763,229145
10.70577,230084
10.71388,236544
10.72202,237202
10.73013,227369
10.73825,230360
10.74638,219376
10.75450,223654
10.76262,236873
10.77075,241152
10.77887,251098
10.78700,260779
10.79512,260029
10.80323,255593
10.81137,236014
10.81948,244406
10.82762,239137
10.83573,231626
10.84385,222238
10.85198,218067
10.86010,211108
10.86822,207436
10.87635,206282
10.88447,208806
10.89260,207509
10.90072,196682
10.90883,200460
10.91697,203327
10.92508,206762
10.93322,205412
10.94133,215618
10.94945,231210
10.95758,239415
10.96570,246891
10.97383,242197
10.98195,238793
10.99007,224961
10.99820,224831
11.00632,214478
11.01443,229259
11.02257,385851
11.03068,918938
11.03882,1987443
11.04693,2952223
11.05505,3022240
11.06318,2313064
11.07130,1592188
11.07943,1153738
11.08755,897066
11.09567,739802
11.10380,625397
11.11192,552850
11.12003,499260
11.12817,432446
11.13628,398737
11.14442,370174
11.15253,361339
11.16065,351126
11.16878,388507
11.17690,454441
11.18503,580144
11.19315,743992
11.20127,896910
11.20940,964798
11.21752,941319
11.22565,841025
11.23377,690289
11.24188,536803
11.25002,428103
11.25813,362678
11.26625,304824
11.27438,270103
11.28250,263431
11.29063,247554
11.29875,248011
11.30687,241166
11.31500,242461
11.32312,252040
11.33125,272104
11.33937,272655
11.34748,269994
11.35562,259918
11.36373,261173
11.37187,246428
11.37998,235258
11.38810,230913
11.39623,226026
11.40435,220546
11.41247,222808
11.42060,226672
11.42872,226664
11.43685,224973
11.44497,219090
11.45308,220438
11.46122,211581
11.46933,206899
11.47747,209197
11.48558,202378
11.49370,210999
11.50183,208259
11.50995,203617
11.51807,201323
11.52620,202949
11.53432,208677
11.54245,221397
11.55057,220040
11.55868,215795
11.56682,207092
11.57493,204364
11.58307,199281
11.59118,196448
11.59930,203655
11.60743,199737
11.61555,198208
11.62368,206949
11.63180,203338
11.63992,194554
11.64805,198586
11.65617,200666
11.66428,203031
11.67242,201981
11.68053,205675
11.68867,204942
11.69678,205839
11.70490,215844
11.71303,226543
11.72115,239092
11.72928,250085
11.73740,259183
11.74552,252701
11.75365,278179
11.76177,298295
11.76990,320265
11.77802,341598
11.78613,341334
11.79427,314564
11.80238,276066
11.81050,246782
11.81863,231350
11.82675,223326
11.83488,220498
11.84300,227544
11.85112,229884
11.85925,242800
11.86737,242545
11.87550,242349
11.88362,232920
11.89173,226723
11.89987,225376
11.90798,217015
11.91610,213064
11.92423,206924
11.93235,206115
11.94048,216855
11.94860,227224
11.95672,252662
11.96485,263050
11.97297,265393
11.98110,259040
11.98922,240357
11.99733,236747
12.00547,240462
12.01358,247613
12.02172,248545
12.02983,248488
12.03795,239630
12.04608,245173
12.05420,232441
12.06232,240203
12.07045,247046
12.07857,236217
12.08670,238565
12.09482,235020
12.10293,240002
12.11107,237214
12.11918,228552
12.12732,236426
12.13543,235593
12.14355,243635
12.15168,254672
12.15980,260689
12.16792,262162
12.17605,254176
12.18417,246699
12.19230,249502
12.20042,245066
12.20853,247032
12.21667,234645
12.22478,232750
12.23292,241678
12.24103,248503
12.24915,269920
12.25728,260659
12.26540,263599
12.27353,250211
12.28165,232282
12.28977,239927
12.29790,227258
12.30602,228452
12.31413,230553
12.32227,224469
12.33038,231907
12.33852,220380
12.34663,229584
12.35475,236145
12.36288,232623
12.37100,238815
12.37913,242099
12.38725,227913
12.39537,228500
12.40350,239250
12.41162,243414
12.41975,238598
12.42787,234126
12.43598,243022
12.44412,251906
12.45223,255612
12.46035,272157
12.46848,297754
12.47660,309877
12.48473,300756
12.49285,302817
12.50097,291594
12.50910,281933
12.51722,274471
12.52535,257489
12.53347,262967
12.54158,249792
12.54972,241842
12.55783,236121
12.56595,240946
12.57408,233216
12.58220,228353
12.59033,223291
12.59845,222391
12.60657,223296
12.61470,222552
12.62282,222597
12.63095,223163
12.63907,222974
12.64718,223935
12.65532,222732
12.66343,214943
12.67157,220049
12.67968,214875
12.68780,214166
12.69593,224634
12.70405,223602
12.71217,236347
12.72030,235887
12.72842,264988
12.73655,301308
12.74467,346054
12.75278,405612
12.76092,447071
12.76903,454713
12.77717,425913
12.78528,364333
12.79340,332596
12.80153,290598
12.80965,276346
12.81778,259194
12.82590,248266
12.83402,255489
12.84215,244636
12.85027,257343
12.85838,254059
12.86652,237612
12.87463,241039
12.88277,230816
12.89088,230606
12.89900,220763
12.90713,225325
12.91525,218816
12.92338,216463
12.93150,223974
12.93962,218729
12.94775,228019
12.95587,229922
12.96398,242679
12.97212,233869
12.98023,237318
12.98837,240060
12.99648,236566
13.00460,229496
13.01273,231566
13.02085,228822
13.02898,231212
13.03710,231597
13.04522,223487
13.05335,226680
13.06147,224314
13.06960,215651
13.07772,225644
13.08583,215687
13.09397,226625
13.10208,228573
13.11020,227628
13.11833,230556
13.12645,231586
13.13458,233637
13.14270,228819
13.15082,241197
13.15895,230653
13.16707,239264
13.17520,252283
13.18332,299224
13.19143,361059
13.19957,458713
13.20768,552717
13.21582,596127
13.22393,571650
13.23205,483382
13.24018,397293
13.24830,328934
13.25642,294226
13.26455,275787
13.27267,247561
13.28080,258668
13.28892,242507
13.29703,253481
13.30517,241567
13.31328,246829
13.32142,240172
13.32953,234883
13.33765,240113
13.34578,234182
13.35390,241311
13.36202,239010
13.37015,242344
13.37827,243073
13.38640,242287
13.39452,238830
13.40263,250817
13.41077,244066
13.41888,239757
13.42702,243889
13.43513,242817
13.44325,235805
13.45138,248899
13.45950,246406
13.46763,238786
13.47575,241175
13.48387,241084
13.49200,241379
13.50012,246963
13.50823,236928
13.51637,253861
13.52448,240408
13.53262,242322
13.54073,249003
13.54885,247356
13.55698,247493
13.56510,252642
13.57323,253521
13.58135,254927
13.58947,254450
13.59760,250035
13.60572,258582
13.61383,255618
13.62197,257401
13.63008,251450
13.63822,250932
13.64633,258669
13.65445,256404
13.66258,255113
13.67070,258412
13.67883,241422
13.68695,243359
13.69507,246459
13.70320,252019
13.71132,252148
13.71945,244740
13.72757,239758
13.73568,247629
13.74382,239138
13.75193,251180
13.76005,253560
13.76818,265034
13.77630,278482
13.78443,294607
13.79255,310269
13.80067,314852
13.80880,322152
13.81692,315418
13.82505,323273
13.83317,311819
13.84128,318163
13.84942,323087
13.85753,323888
13.86567,328063
13.87378,335932
13.88190,321065
13.89003,319945
13.89815,324211
13.90627,334772
13.91440,356990
13.92252,398326
13.93065,432779
13.93877,475788
13.94688,464315
13.95502,431687
13.96313,404452
13.97127,376105
13.97938,346103
13.98750,331070
13.99563,330681
14.00375,330261
14.01187,335515
14.02000,345350
14.02812,352394
14.03625,348438
14.04437,362958
14.05248,394901
14.06062,414060
14.06873,448627
14.07687,484795
14.08498,460329
14.09310,444937
14.10123,395278
14.10935,356371
14.11748,341282
14.12560,330038
14.13372,327737
14.14185,313189
14.14997,314590
14.15808,329783
14.16622,361157
14.17433,500435
14.18247,972695
14.19058,2119347
14.19870,4315732
14.20683,6720089
14.21495,8060030
14.22308,7754836
14.23120,6031600
14.23932,4084247
14.24745,2622770
14.25557,1715369
14.26370,1263214
14.27182,1023720
14.27993,879434
14.28807,792410
14.29618,713216
14.30430,673110
14.31243,614412
14.32055,586357
14.32868,547872
14.33680,539542
14.34492,497317
14.35305,472841
14.36117,431474
14.36930,392151
14.37742,350111
14.38553,331326
14.39367,315074
14.40178,309728
14.40990,303394
14.41803,297509
14.42615,300900
14.43428,297673
14.44240,291964
14.45052,280851
14.45865,286259
14.46677,275339
14.47490,281649
14.48302,278285
14.49113,274345
14.49927,260444
14.50738,272458
14.51552,284618
14.52363,288226
14.53175,301794
14.53988,307895
14.54800,300494
14.55612,297893
14.56425,286079
14.57237,287168
14.58050,274905
14.58862,286476
14.59673,274399
14.60487,273160
14.61298,263069
14.62112,261743
14.62923,265007
14.63735,263829
14.64548,262287
14.65360,261704
14.66172,258235
14.66985,253156
14.67797,251166
14.68610,244636
14.69422,244413
14.70233,245001
14.71047,251733
14.71858,257950
14.72672,253230
14.73483,252792
14.74295,245881
14.75108,244627
14.75920,252660
14.76733,274260
14.77545,355459
14.78357,509487
14.79170,691772
14.79982,831919
14.80793,801835
14.81607,695885
14.82418,561236
14.83232,464652
14.84043,401643
14.84855,372594
14.85668,342044
14.86480,330435
14.87293,319756
14.88105,311421
14.88917,307255
14.89730,305413
14.90542,282909
14.91355,274971
14.92167,281719
14.92978,265083
14.93792,270957
14.94603,265657
14.95415,272483
14.96228,259893
14.97040,253421
14.97853,245769
14.98665,252607
14.99477,241009
15.00290,243546
15.01102,237146
15.01915,242400
15.02727,235359
15.03538,238737
15.04352,237217
15.05163,236252
15.05977,231149
15.06788,229840
15.07600,231121
15.08413,228618
15.09225,221882
15.10037,217300
15.10850,219123
15.11662,228726
15.12475,213418
15.13287,218609
15.14098,215401
15.14912,219215
15.15723,217753
15.16537,223716
15.17348,227766
15.18160,222756
15.18973,234967
15.19785,227818
15.20597,228337
15.21410,231746
15.22222,227766
15.23035,219518
15.23847,218262
15.24658,229465
15.25472,222319
15.26283,234779
15.27097,220271
15.27908,211897
15.28720,210871
15.29533,214060
15.30345,216321
15.31158,211621
15.31970,208150
15.32782,211800
15.33595,210195
15.34407,210658
15.35218,210812
15.36032,210839
15.36843,204764
15.37657,209601
15.38468,201701
15.39280,207082
15.40093,206309
15.40905,201619
15.41718,202485
15.42530,204760
15.43342,198612
15.44155,207049
15.44967,207582
15.45778,201498
15.46592,211041
15.47403,220032
15.48217,219427
15.49028,249352
15.49840,268908
15.50653,294570
15.51465,312459
15.52278,303031
15.53090,271009
15.53902,258748
15.54715,241473
15.55527,225788
15.56340,212148
15.57152,214605
15.57963,213064
15.58777,211573
15.59588,213247
15.60400,206213
15.61213,212173
15.62025,202939
15.62838,205308
15.63650,208954
15.64462,203018
15.65275,207825
15.66087,209988
15.66900,210371
15.67712,209445
15.68523,212370
15.69337,204709
15.70148,207734
15.70962,209493
15.71773,212485
15.72585,206402
15.73398,215110
15.74210,204361
15.75022,212717
15.75835,210221
15.76647,215500
15.77460,217641
15.78272,208428
15.79083,219760
15.79897,223095
15.80708,222957
15.81522,228359
15.82333,221042
15.83145,226966
15.83958,217524
15.84770,221298
15.85582,215577
15.86395,225155
15.87207,229394
15.88020,219452
15.88832,216468
15.89643,222263
15.90457,223565
15.91268,225837
15.92082,219033
15.92893,228288
15.93705,225423
15.94518,225936
15.95330,222079
15.96143,217491
15.96955,217200
15.97767,220457
15.98580,220007
15.99392,237627
16.00203,260432
16.01017,289248
16.01828,339632
16.02642,414078
16.03453,482923
16.04265,535981
16.05078,553830
16.05890,507182
16.06703,465552
16.07515,411208
16.08327,357186
16.09140,347217
16.09952,308145
16.10765,298147
16.11577,292858
16.12388,274295
16.13202,276407
16.14013,258654
16.14825,256381
16.15638,260609
16.16450,241919
16.17263,241733
16.18075,252813
16.18887,249687
16.19700,256295
16.20512,248584
16.21325,242176
16.22137,246095
16.22948,249270
16.23762,248709
16.24573,249593
16.25385,251291
16.26198,239860
16.27010,251005
16.27823,250793
16.28635,245227
16.29447,245429
16.30260,248346
16.31072,249069
16.31885,241840
16.32697,239312
16.33508,237622
16.34322,243024
16.35133,244121
16.35947,237800
16.36758,228465
16.37570,229435
16.38383,224934
16.39195,221325
16.40007,225723
16.40820,227702
16.41632,214935
16.42445,217828
16.43257,216965
16.44068,218599
16.44882,216131
16.45693,213666
16.46507,217302
16.47318,207524
16.48130,209683
16.48943,215659
16.49755,225724
16.50567,217754
16.51380,220109
16.52192,213035
16.53005,210284
16.53817,211093
16.54628,204703
16.55442,208545
16.56253,211243
16.57067,208086
16.57878,198985
16.58690,195894
16.59503,191912
16.60315,192948
16.61128,188294
16.61940,199402
16.62752,193208
16.63565,200943
16.64377,198884
16.65188,193669
16.66002,196334
16.66813,191444
16.67627,196096
16.68438,187686
16.69250,187013
16.70063,185782
16.70875,189425
16.71688,186071
16.72500,182911
16.73312,188912
16.74125,186338
16.74937,186615
16.75750,177923
16.76562,177209
16.77373,176309
16.78187,173125
16.78998,178564
16.79810,187575
16.80623,174870
16.81435,177257
16.82248,175580
16.83060,174690
16.83872,174315
16.84685,168377
16.85497,164017
16.86310,171411
16.87122,178306
16.87933,175469
16.88747,179179
16.89558,185802
16.90370,194716
16.91183,201597
16.91995,211627
16.92808,203054
16.93620,205423
16.94432,197184
16.95245,200817
16.96057,190128
16.96870,188160
16.97682,179078
16.98493,186802
16.99307,181163
17.00118,186708
17.00932,184228
17.01743,191287
17.02555,192367
17.03368,196060
17.04180,183605
17.04992,182859
17.05805,181572
17.06617,177392
17.07430,184896
17.08242,184532
17.09053,181421
17.09867,186536
17.10678,180639
17.11492,185086
17.12303,191897
17.13115,192695
17.13928,186637
17.14740,180035
17.15553,179289
17.16365,180903
17.17177,178292
17.17990,170003
17.18802,169183
17.19613,165649
17.20427,165428
17.21238,160982
17.22052,156777
17.22863,163700
17.23675,163534
17.24488,161071
17.25300,165317
17.26113,171271
17.26925,169206
17.27737,178058
17.28550,174174
17.29362,177655
17.30173,170156
17.30987,177008
17.31798,167534
17.32612,167873
17.33423,177388
17.34235,189669
17.35048,214973
17.35860,255159
17.36673,318951
17.37485,361625
17.38297,382298
17.39110,370403
17.39922,326891
17.40735,288975
17.41547,251095
17.42358,234938
17.43172,212945
17.43983,206160
17.44795,208963
17.45608,201118
17.46420,199756
17.47233,208248
17.48045,190652
17.48857,185855
17.49670,198082
17.50482,194014
17.51295,194050
17.52107,194810
17.52918,196440
17.53732,197266
17.54543,208475
17.55355,201933
17.56168,204363
17.56980,197924
17.57793,197670
17.58605,195794
17.59417,202410
17.60230,196767
17.61042,188119
17.61855,171271
17.62667,178544
17.63478,171234
17.64292,170372
17.65103,171948
17.65917,178131
17.66728,186328
17.67540,200393
17.68353,215147
17.69165,235991
17.69977,247437
17.70790,253556
17.71602,273350
17.72415,283306
17.73227,286264
17.74038,271193
17.74852,242520
17.75663,222290
17.76477,208278
17.77288,199009
17.78100,191426
17.78913,177289
17.79725,181185
17.80538,186665
17.81350,184496
17.82162,184111
17.82975,182862
17.83787,196893
17.84598,193621
17.85412,200437
17.86223,205547
17.87037,197655
17.87848,190642
17.88660,183794
17.89473,183424
17.90285,172941
17.91098,177789
17.91910,172410
17.92722,157743
17.93535,160551
17.94347,154704
17.95158,163520
17.95972,157926
17.96783,152103
17.97597,154707
17.98408,152324
17.99220,150445
18.00033,151369
18.00845,152852
18.01658,157729
18.02470,156917
18.03282,154447
18.04095,156146
18.04907,167324
18.05720,181771
18.06532,196399
18.07343,226434
18.08157,249305
18.08968,276966
18.09780,289411
18.10593,296090
18.11405,289679
18.12218,267150
18.13030,260235
18.13842,248141
18.14655,246164
18.15467,236285
18.16280,226037
18.17092,226286
18.17903,221426
18.18717,212538
18.19528,204365
18.20342,204107
18.21153,191799
18.21965,195356
18.22778,223587
18.23590,299608
18.24402,395616
18.25215,509949
18.26027,573068
18.26840,621079
18.27652,640534
18.28463,650567
18.29277,641478
18.30088,628507
18.30902,621383
18.31713,591795
18.32525,609235
18.33338,600566
18.34150,611880
18.34962,599532
18.35775,586488
18.36587,592773
18.37400,586746
18.38212,589627
18.39023,580007
18.39837,558298
18.40648,563238
18.41462,545227
18.42273,536361
18.43085,522237
18.43898,520579
18.44710,514976
18.45523,517470
18.46335,506658
18.47147,494213
18.47960,504048
18.48772,488385
18.49583,486309
18.50397,493759
18.51208,474302
18.52022,471585
18.52833,469648
18.53645,461500
18.54458,450917
18.55270,446978
18.56083,448998
18.56895,455822
18.57707,453984
18.58520,452194
18.59332,453266
18.60145,471697
18.60957,473120
18.61768,485721
18.62582,486996
18.63393,478738
18.64205,454720
18.65018,458672
18.65830,455854
18.66643,450208
18.67455,441519
18.68267,431360
18.69080,414595
18.69892,413935
18.70705,403479
18.71517,387331
18.72328,384940
18.73142,382052
18.73953,380272
18.74765,369181
18.75578,372928
18.76390,367337
18.77203,375139
18.78015,371555
18.78827,365631
18.79640,363781
18.80452,355420
18.81265,354605
18.82077,347088
18.82888,361901
18.83702,347300
18.84513,344516
18.85327,348583
18.86138,348773
18.86950,334873
18.87763,329913
18.88575,345239
18.89387,349817
18.90200,334206
18.91012,342971
18.91825,338075
18.92637,330535
18.93448,316887
18.94262,324421
18.95073,323315
18.95887,326388
18.96698,325912
18.97510,346991
18.98323,339551
18.99135,338900
18.99947,344913
19.00760,331906
19.01572,318392
19.02385,316658
19.03197,309543
19.04008,308831
19.04822,296680
19.05633,297366
19.06447,304777
19.07258,323369
19.08070,331857
19.08883,386291
19.09695,457479
19.10508,543592
19.11320,614295
19.12132,636091
19.12945,606778
19.13757,557126
19.14568,509152
19.15382,472545
19.16193,451097
19.17007,411359
19.17818,408361
19.18630,399191
19.19443,392147
19.20255,391847
19.21068,400693
19.21880,372104
19.22692,368810
19.23505,356449
19.24317,352592
19.25130,353221
19.25942,360765
19.26753,368076
19.27567,398925
19.28378,452698
19.29190,496651
19.30003,555696
19.30815,586149
19.31628,588068
19.32440,560717
19.33252,530280
19.34065,502726
19.34877,484078
19.35690,467325
19.36502,468870
19.37313,448123
19.38127,414775
19.38938,390902
19.39750,370485
19.40563,349483
19.41375,361111
19.42188,332999
19.43000,331549
19.43812,319395
19.44625,318319
19.45437,317663
19.46250,325840
19.47062,357140
19.47873,459905
19.48687,796187
19.49498,1533734
19.50312,2657114
19.51123,3677902
19.51935,3951145
19.52748,3392501
19.53560,2429763
19.54372,1516163
19.55185,910341
19.55997,571539
19.56810,419218
19.57622,375523
19.58433,347747
19.59247,348313
19.60058,374946
19.60872,436269
19.61683,519669
19.62495,654782
19.63308,924693
19.64120,1493803
19.64933,2707244
19.65745,4926760
19.66557,7737178
19.67370,1.021947E+07
19.68182,1.07897E+07
19.68993,9542550
19.69807,7346916
19.70618,5046220
19.71432,3386313
19.72243,2336654
19.73055,1689004
19.73868,1328487
19.74680,1060652
19.75493,918573
19.76305,803008
19.77117,708475
19.77930,632870
19.78742,575813
19.79553,547513
19.80367,504308
19.81178,473130
19.81992,462218
19.82803,438347
19.83615,417633
19.84428,404623
19.85240,399171
19.86053,404718
19.86865,393718
19.87677,419348
19.88490,470777
19.89302,591751
19.90115,729599
19.90927,913604
19.91738,1137267
19.92552,1383725
19.93363,1644092
19.94175,1799552
19.94988,1833900
19.95800,1657111
19.96613,1400636
19.97425,1157095
19.98237,950899
19.99050,803379
19.99862,727176
20.00675,667661
20.01487,639862
20.02298,604766
20.03112,572471
20.03923,538899
20.04735,511444
20.05548,469138
20.06360,436893
20.07173,408345
20.07985,372666
20.08797,366344
20.09610,353068
20.10422,341046
20.11235,354973
20.12047,338779
20.12858,329426
20.13672,322142
20.14483,310914
20.15297,310251
20.16108,305511
20.16920,295786
20.17733,299014
20.18545,286571
20.19357,286320
20.20170,283540
20.20982,289426
20.21795,290992
20.22607,304366
20.23418,383275
20.24232,601953
20.25043,1170884
20.25857,2413377
20.26668,4620507
20.27480,7296894
20.28293,9316547
20.29105,9876753
20.29918,8523069
20.30730,6466548
20.31542,4479039
20.32355,2911122
20.33167,1929014
20.33978,1311802
20.34792,993433
20.35603,798866
20.36417,686580
20.37228,646374
20.38040,609403
20.38853,570803
20.39665,561549
20.40478,593948
20.41290,724319
20.42102,1024788
20.42915,1535830
20.43727,2206611
20.44540,2926735
20.45352,3389049
20.46163,3373127
20.46977,3019176
20.47788,2399460
20.48600,1801666
20.49413,1308154
20.50225,966512
20.51038,766303
20.51850,626470
20.52662,564886
20.53475,512997
20.54287,469090
20.55100,444419
20.55912,420265
20.56723,405774
20.57537,399512
20.58348,398907
20.59160,404753
20.59973,431526
20.60785,468905
20.61598,503875
20.62410,512755
20.63222,486230
20.64035,455725
20.64847,423351
20.65660,410878
20.66472,367971
20.67283,355630
20.68097,343101
20.68908,341393
20.69722,326797
20.70533,311081
20.71345,304766
20.72158,296895
20.72970,288014
20.73782,287246
20.74595,280780
20.75407,281689
20.76220,275217
20.77032,263394
20.77843,272153
20.78657,270765
20.79468,255374
20.80282,252439
20.81093,257099
20.81905,253548
20.82718,253126
20.83530,253246
20.84342,248234
20.85155,242614
20.85967,240877
20.86780,239808
20.87592,236996
20.88403,243008
20.89217,239050
20.90028,231393
20.90842,221661
20.91653,221598
20.92465,225955
20.93278,220210
20.94090,225534
20.94903,212699
20.95715,217123
20.96527,217054
20.97340,215740
20.98152,207428
20.98963,214577
20.99777,212410
21.00588,208074
21.01402,204505
21.02213,207430
21.03025,206508
21.03838,199546
21.04650,210932
21.05463,202425
21.06275,194907
21.07087,197194
21.07900,205451
21.08712,196545
21.09525,192028
21.10337,201526
21.11148,200380
21.11962,197985
21.12773,197769
21.13585,203346
21.14398,209070
21.15210,210505
21.16023,219413
21.16835,227836
21.17647,224633
21.18460,228135
21.19272,224238
21.20085,225161
21.20897,216986
21.21708,216733
21.22522,215139
21.23333,212431
21.24145,217169
21.24958,234055
21.25770,237121
21.26583,244977
21.27395,254339
21.28207,253342
21.29020,248405
21.29832,247256
21.30645,238739
21.31457,236299
21.32268,227528
21.33082,208403
21.33893,207620
21.34707,207174
21.35518,205285
21.36330,193305
21.37143,204503
21.37955,212548
21.38767,217118
21.39580,230181
21.40392,229490
21.41205,228563
21.42017,230031
21.42828,222342
21.43642,215467
21.44453,208732
21.45267,216679
21.46078,209753
21.46890,207019
21.47703,203611
21.48515,205274
21.49328,210453
21.50140,207433
21.50952,193778
21.51765,206974
21.52577,197189
21.53388,223546
21.54202,232408
21.55013,251496
21.55827,250664
21.56638,259823
21.57450,244491
21.58263,235335
21.59075,233148
21.59888,278466
21.60700,392490
21.61512,620603
21.62325,1036348
21.63137,1664350
21.63948,2370958
21.64762,2851442
21.65573,2859746
21.66387,2373881
21.67198,1756887
21.68010,1260054
21.68823,908533
21.69635,704760
21.70448,591358
21.71260,544680
21.72072,556660
21.72885,587326
21.73697,596817
21.74510,590110
21.75322,544640
21.76133,492571
21.76947,444351
21.77758,410619
21.78570,378019
21.79383,397528
21.80195,441620
21.81008,599986
21.81820,882114
21.82632,1312256
21.83445,1793714
21.84257,2080062
21.85070,2063206
21.85882,1717114
21.86693,1274522
21.87507,940100
21.88318,689837
21.89130,527870
21.89943,459066
21.90755,432689
21.91568,441923
21.92380,457803
21.93192,488712
21.94005,485500
21.94817,473971
21.95630,419467
21.96442,383742
21.97253,333544
21.98067,299566
21.98878,285872
21.99692,273470
22.00503,264927
22.01315,261273
22.02128,258314
22.02940,252587
22.03752,242207
22.04565,242765
22.05377,251277
22.06190,242860
22.07002,247568
22.07813,257760
22.08627,250807
22.09438,249198
22.10252,246552
22.11063,245750
22.11875,246939
22.12688,260524
22.13500,263865
22.14313,281055
22.15125,300391
22.15937,300226
22.16750,300901
22.17562,300832
22.18373,284957
22.19187,287531
22.19998,313777
22.20812,358828
22.21623,428794
22.22435,487423
22.23248,542623
22.24060,555790
22.24873,503614
22.25685,452063
22.26497,377779
22.27310,343651
22.28122,308877
22.28933,290176
22.29747,296639
22.30558,302604
22.31372,304394
22.32183,312889
22.32995,310720
22.33808,312077
22.34620,303749
22.35433,310648
22.36245,298997
22.37057,293008
22.37870,275755
22.38682,276918
22.39495,256365
22.40307,253010
22.41118,236939
22.41932,241792
22.42743,244224
22.43555,233065
22.44368,239882
22.45180,239945
22.45993,248702
22.46805,256614
22.47617,252147
22.48430,244589
22.49242,235085
22.50055,236300
22.50867,213479
22.51678,218949
22.52492,207328
22.53303,210026
22.54117,213895
22.54928,216750
22.55740,205628
22.56553,209704
22.57365,222458
22.58177,226235
22.58990,217955
22.59802,213234
22.60615,211164
22.61427,205401
22.62238,200231
22.63052,208021
22.63863,205798
22.64677,204061
22.65488,212188
22.66300,203144
22.67113,200767
22.67925,210822
22.68737,209689
22.69550,211251
22.70362,202481
22.71175,207737
22.71987,205859
22.72798,202596
22.73612,200216
22.74423,194119
22.75237,193052
22.76048,196804
22.76860,192400
22.77673,190468
22.78485,188596
22.79298,183356
22.80110,180681
22.80922,185272
22.81735,188113
22.82547,198011
22.83358,207527
22.84172,219804
22.84983,237035
22.85797,258387
22.86608,272739
22.87420,264186
22.88233,258400
22.89045,253101
22.89858,254270
22.90670,271485
22.91482,301243
22.92295,344515
22.93107,386823
22.93918,421830
22.94732,427062
22.95543,420163
22.96357,396775
22.97168,376571
22.97980,352416
22.98793,333115
22.99605,325555
23.00418,312108
23.01230,296445
23.02042,275957
23.02855,241790
23.03667,236769
23.04480,225024
23.05292,221575
23.06103,219848
23.06917,224786
23.07728,240845
23.08540,250654
23.09353,255154
23.10165,237213
23.10978,229104
23.11790,226168
23.12602,213071
23.13415,209462
23.14227,208848
23.15040,213320
23.15852,227478
23.16663,233640
23.17477,242634
23.18288,258506
23.19102,254184
23.19913,252828
23.20725,258062
23.21538,236086
23.22350,221082
23.23162,220796
23.23975,220289
23.24787,204955
23.25600,212797
23.26412,205450
23.27223,203219
23.28037,201397
23.28848,204957
23.29662,214464
23.30473,203870
23.31285,201496
23.32098,206536
23.32910,203310
23.33722,216878
23.34535,215784
23.35347,225058
23.36160,226612
23.36972,225669
23.37783,221636
23.38597,227473
23.39408,224294
23.40222,225501
23.41033,220691
23.41845,222005
23.42658,221727
23.43470,218403
23.44283,214925
23.45095,218163
23.45907,211837
23.46720,205901
23.47532,211394
23.48343,222026
23.49157,211131
23.49968,207991
23.50782,212011
23.51593,207034
23.52405,206226
23.53218,208139
23.54030,212076
23.54843,215013
23.55655,226133
23.56467,230970
23.57280,235250
23.58092,223820
23.58905,231367
23.59717,229722
23.60528,216384
23.61342,215595
23.62153,215520
23.62965,214219
23.63778,219626
23.64590,231475
23.65403,241969
23.66215,261659
23.67027,272067
23.67840,281901
23.68652,285182
23.69465,272701
23.70277,265901
23.71088,245784
23.71902,242848
23.72713,236972
23.73525,253675
23.74338,361029
23.75150,682009
23.75963,1568237
23.76775,3297385
23.77587,5520922
23.78400,7506811
23.79212,8585765
23.80025,8394381
23.80837,7124811
23.81648,5488093
23.82462,4082048
23.83273,2998146
23.84087,2192645
23.84898,1719750
23.85710,1418957
23.86523,1312334
23.87335,1343694
23.88147,1542246
23.88960,1841801
23.89772,2032963
23.90585,2091255
23.91397,1987112
23.92208,1730242
23.93022,1435738
23.93833,1200098
23.94647,995303
23.95458,861821
23.96270,772629
23.97083,711481
23.97895,651189
23.98708,616229
23.99520,594710
24.00332,557738
24.01145,538937
24.01957,521634
24.02768,524159
24.03582,518484
24.04393,521965
24.05207,502790
24.06018,492507
24.06830,476468
24.07643,452130
24.08455,442315
24.09268,429954
24.10080,438904
24.10892,456898
24.11705,537822
24.12517,633754
24.13328,773866
24.14142,882602
24.14953,920674
24.15767,888692
24.16578,800259
24.17390,702914
24.18203,640459
24.19015,630676
24.19828,699972
24.20640,806379
24.21452,951631
24.22265,1036979
24.23077,1060332
24.23890,986115
24.24702,868167
24.25513,727816
24.26327,625943
24.27138,545885
24.27950,498253
24.28763,461264
24.29575,435566
24.30388,411813
24.31200,397141
24.32012,392410
24.32825,374854
24.33637,372575
24.34450,373986
24.35262,373672
24.36073,399980
24.36887,464799
24.37698,642759
24.38510,1055590
24.39323,1755889
24.40135,2540688
24.40948,2955594
24.41760,2705971
24.42572,2053059
24.43385,1422523
24.44197,953299
24.45010,655414
24.45822,509098
24.46633,463194
24.47447,454097
24.48258,522786
24.49072,684186
24.49883,922437
24.50695,1275186
24.51508,1535363
24.52320,1616542
24.53132,1523481
24.53945,1328609
24.54757,1097355
24.55570,915035
24.56382,747030
24.57193,627409
24.58007,542904
24.58818,500344
24.59632,458180
24.60443,442775
24.61255,423644
24.62068,412426
24.62880,403995
24.63693,390791
24.64505,382068
24.65317,391839
24.66130,397065
24.66942,386932
24.67753,387596
24.68567,374212
24.69378,363802
24.70192,350542
24.71003,339680
24.71815,326643
24.72628,318692
24.73440,310616
24.74253,302474
24.75065,300548
24.75877,305938
24.76690,306303
24.77502,305788
24.78313,291627
24.79127,300959
24.79938,290675
24.80752,291085
24.81563,288896
24.82375,294834
24.83188,283742
24.84000,277731
24.84813,276426
24.85625,276047
24.86437,279344
24.87250,275911
24.88062,280761
24.88875,274467
24.89687,281209
24.90498,276211
24.91312,272274
24.92123,284013
24.92935,272093
24.93748,272972
24.94560,269238
24.95373,270542
24.96185,261166
24.96997,257415
24.97810,248914
24.98622,246040
24.99435,249253
25.00247,245921
25.01058,250534
25.01872,248658
25.02683,239373
25.03497,233841
25.04308,234510
25.05120,243190
25.05933,243195
25.06745,239676
25.07557,242721
25.08370,248204
25.09182,253522
25.09995,241352
25.10807,241942
25.11618,248249
25.12432,256066
25.13243,266875
25.14057,278177
25.14868,287689
25.15680,303529
25.16493,312035
25.17305,313870
25.18117,303982
25.18930,296038
25.19742,290248
25.20555,283920
25.21367,282712
25.22178,272879
25.22992,263894
25.23803,265730
25.24617,257122
25.25428,261872
25.26240,263132
25.27053,266389
25.27865,278849
25.28678,302946
25.29490,319040
25.30302,363768
25.31115,412919
25.31927,438210
25.32738,441934
25.33552,417716
25.34363,371476
25.35177,332650
25.35988,308689
25.36800,289785
25.37613,265690
25.38425,258054
25.39238,238182
25.40050,239357
25.40862,238878
25.41675,236320
25.42487,226126
25.43298,236609
25.44112,232278
25.44923,249664
25.45737,269502
25.46548,305890
25.47360,345926
25.48173,392585
25.48985,398488
25.49798,396688
25.50610,372235
25.51422,344954
25.52235,309676
25.53047,300153
25.53860,280124
25.54672,262678
25.55483,268968
25.56297,258182
25.57108,248102
25.57920,244127
25.58733,231348
25.59545,224424
25.60358,228583
25.61170,221759
25.61982,219202
25.62795,217171
25.63607,229330
25.64420,213453
25.65232,217195
25.66043,213555
25.66857,211515
25.67668,215854
25.68482,213114
25.69293,210748
25.70105,220226
25.70918,222707
25.71730,226245
25.72542,225605
25.73355,223775
25.74167,217888
25.74980,217594
25.75792,213090
25.76603,213448
25.77417,220093
25.78228,221267
25.79042,229028
25.79853,234134
25.80665,236478
25.81478,232343
25.82290,230145
25.83102,229254
25.83915,223053
25.84727,237128
25.85540,233857
25.86352,234085
25.87163,223183
25.87977,216654
25.88788,212883
25.89602,211078
25.90413,204160
25.91225,207176
25.92038,213386
25.92850,205192
25.93663,207009
25.94475,212439
25.95287,213469
25.96100,231320
25.96912,230215
25.97723,240337
25.98537,249236
25.99348,239255
26.00162,247661
26.00973,250445
26.01785,244196
26.02598,237920
26.03410,239276
26.04223,234767
26.05035,234681
26.05847,235708
26.06660,234379
26.07472,231593
26.08285,239640
26.09097,239412
26.09908,242736
26.10722,250036
26.11533,276064
26.12345,300513
26.13158,334249
26.13970,364656
26.14783,376534
26.15595,370492
26.16407,351075
26.17220,316396
26.18032,295246
26.18845,268838
26.19657,251092
26.20468,237745
26.21282,217095
26.22093,203085
26.22905,204012
26.23718,209845
26.24530,232620
26.25343,239695
26.26155,268785
26.26967,276998
26.27780,287666
26.28592,284828
26.29405,269927
26.30217,253341
26.31028,255491
26.31842,248438
26.32653,242673
26.33467,240072
26.34278,231495
26.35090,221725
26.35903,222055
26.36715,211939
26.37527,213163
26.38340,210444
26.39152,195088
26.39965,217783
26.40777,212661
26.41588,224276
26.42402,220483
26.43213,213807
26.44027,209629
26.44838,217610
26.45650,204658
26.46463,199731
26.47275,194966
26.48087,199340
26.48900,202367
26.49712,193950
26.50525,199748
26.51337,191080
26.52148,193927
26.52962,196842
26.53773,183571
26.54587,194224
26.55398,184359
26.56210,193076
26.57023,197180
26.57835,195593
26.58648,195674
26.59460,190889
26.60272,199464
26.61085,195780
26.61897,192274
26.62708,189403
26.63522,191158
26.64333,195416
26.65147,205858
26.65958,207827
26.66770,206578
26.67583,206856
26.68395,211839
26.69208,214054
26.70020,199478
26.70832,207300
26.71645,216672
26.72457,224277
26.73270,243544
26.74082,248024
26.74893,250808
26.75707,242032
26.76518,223317
26.77330,213598
26.78143,204762
26.78955,207767
26.79768,212944
26.80580,214140
26.81392,220660
26.82205,231876
26.83017,240253
26.83830,244649
26.84642,266007
26.85453,294257
26.86267,314397
26.87078,340614
26.87892,342817
26.88703,312174
26.89515,302640
26.90328,293328
26.91140,309329
26.91952,375540
26.92765,582227
26.93577,1254538
26.94390,3432154
26.95202,1.045893E+07
26.96013,2.640601E+07
26.96827,4.593012E+07
26.97638,6.168915E+07
26.98452,7.299619E+07
26.99263,7.74629E+07
27.00075,7.581845E+07
27.00888,7.112494E+07
27.01700,6.385875E+07
27.02512,5.582233E+07
27.03325,4.791234E+07
27.04137,4.084164E+07
27.04950,3.359753E+07
27.05762,2.642606E+07
27.06573,1.992359E+07
27.07387,1.460225E+07
27.08198,1.104982E+07
27.09012,8326891
27.09823,6599320
27.10635,5685147
27.11448,4908227
27.12260,4272546
27.13073,3893108
27.13885,3557142
27.14697,3287765
27.15510,3078124
27.16322,2875161
27.17133,2713783
27.17947,2538254
27.18758,2399188
27.19572,2282098
27.20383,2216482
27.21195,2134732
27.22008,1985289
27.22820,1877614
27.23633,1799749
27.24445,1747530
27.25257,1714257
27.26070,1624784
27.26882,1585226
27.27693,1517084
27.28507,1469275
27.29318,1383831
27.30132,1384901
27.30943,1328213
27.31755,1333443
27.32568,1291984
27.33380,1253295
27.34193,1212772
27.35005,1172774
27.35817,1140152
27.36630,1109691
27.37442,1099402
27.38255,1128589
27.39067,1093325
27.39878,1084702
27.40692,1048171
27.41503,1038242
27.42315,1022275
27.43128,1011267
27.43940,987170
27.44753,998338
27.45565,985787
27.46377,953820
27.47190,935101
27.48002,951036
27.48815,934562
27.49627,941637
27.50438,946350
27.51252,970414
27.52063,1036413
27.52877,1093438
27.53688,1142317
27.54500,1131622
27.55313,1075121
27.56125,1002886
27.56937,937840
27.57750,907863
27.58562,883422
27.59375,894038
27.60187,913790
27.60998,942872
27.61812,976447
27.62623,955907
27.63437,899633
27.64248,854460
27.65060,808666
27.65873,757207
27.66685,748784
27.67497,718750
27.68310,712837
27.69122,683148
27.69935,677122
27.70747,680523
27.71558,679237
27.72372,657357
27.73183,662244
27.73997,653927
27.74808,654060
27.75620,650283
27.76433,663796
27.77245,643494
27.78058,654815
27.78870,637048
27.79682,628935
27.80495,633654
27.81307,637058
27.82118,615750
27.82932,616168
27.83743,606901
27.84557,601792
27.85368,599728
27.86180,614938
27.86993,590711
27.87805,573533
27.88618,556425
27.89430,547167
27.90242,547482
27.91055,538838
27.91867,521609
27.92680,525916
27.93492,510192
27.94303,501328
27.95117,501924
27.95928,496453
27.96740,511321
27.97553,497723
27.98365,516243
27.99178,493976
27.99990,521199
28.00802,501014
28.01615,494360
28.02427,495359
28.03240,482522
28.04052,482960
28.04863,486144
28.05677,479380
28.06488,469807
28.07300,468853
28.08113,464848
28.08925,455233
28.09738,445471
28.10550,450918
28.11362,444337
28.12175,442172
28.12987,429539
28.13800,423183
28.14612,420079
28.15423,416757
28.16237,423126
28.17048,436752
28.17862,465093
28.18673,553142
28.19485,655827
28.20298,820801
28.21110,965878
28.21922,1014321
28.22735,975190
28.23547,907108
28.24360,908294
28.25172,1162399
28.25983,2060635
28.26797,4360790
28.27608,9226717
28.28422,1.747293E+07
28.29233,2.718113E+07
28.30045,3.482005E+07
28.30858,4.053258E+07
28.31670,4.449494E+07
28.32482,4.469879E+07
28.33295,4.336281E+07
28.34107,4.10994E+07
28.34920,3.789942E+07
28.35732,3.392347E+07
28.36543,3.05104E+07
28.37357,2.733681E+07
28.38168,2.424248E+07
28.38982,2.113394E+07
28.39793,1.813713E+07
28.40605,1.557076E+07
28.41418,1.305417E+07
28.42230,1.118777E+07
28.43043,9391890
28.43855,7934821
28.44667,6884263
28.45480,5825593
28.46292,4905870
28.47103,4279631
28.47917,3714474
28.48728,3312465
28.49542,3108766
28.50353,2847348
28.51165,2564885
28.51978,2333539
28.52790,2254110
28.53603,2131609
28.54415,2024847
28.55227,1934256
28.56040,1797708
28.56852,1743366
28.57665,1661553
28.58477,1625724
28.59288,1554361
28.60102,1485337
28.60913,1425597
28.61725,1384543
28.62538,1390204
28.63350,1361353
28.64163,1329835
28.64975,1342084
28.65787,1337506
28.66600,1320935
28.67412,1313994
28.68225,1294862
28.69037,1205684
28.69848,1185743
28.70662,1117309
28.71473,1079301
28.72285,1084833
28.73098,1066067
28.73910,1089776
28.74723,1166079
28.75535,1380116
28.76347,1708458
28.77160,2172248
28.77972,2424030
28.78785,2367566
28.79597,2000554
28.80408,1634446
28.81222,1310458
28.82033,1076187
28.82847,980678
28.83658,907722
28.84470,863563
28.85283,836706
28.86095,830142
28.86907,806957
28.87720,804326
28.88532,778107
28.89345,772974
28.90157,755881
28.90968,759958
28.91782,759101
28.92593,758600
28.93407,734605
28.94218,720477
28.95030,724657
28.95843,741527
28.96655,731511
28.97468,732785
28.98280,710216
28.99092,719918
28.99905,692280
29.00717,678910
29.01528,677917
29.02342,682848
29.03153,659139
29.03967,658421
29.04778,652898
29.05590,646645
29.06403,648358
29.07215,632525
29.08028,631098
29.08840,638744
29.09652,654086
29.10465,623295
29.11277,637157
29.12088,630702
29.12902,632451
29.13713,625594
29.14527,626897
29.15338,634444
29.16150,632426
29.16963,635657
29.17775,647319
29.18588,625784
29.19400,630353
29.20212,639725
29.21025,625331
29.21837,633455
29.22650,654642
29.23462,649173
29.24273,666706
29.25087,696479
29.25898,721130
29.26710,715137
29.27523,724718
29.28335,712706
29.29148,712412
29.29960,693958
29.30772,672141
29.31585,659384
29.32397,656368
29.33210,657888
29.34022,641491
29.34833,639730
29.35647,617268
29.36458,621492
29.37272,611543
29.38083,599655
29.38895,590425
29.39708,583001
29.40520,581612
29.41332,572587
29.42145,574886
29.42957,567543
29.43770,556953
29.44582,547993
29.45393,544373
29.46207,556999
29.47018,563258
29.47832,593985
29.48643,636600
29.49455,656583
29.50268,690555
29.51080,681711
29.51892,671279
29.52705,623744
29.53517,596632
29.54330,553484
29.55142,518854
29.55953,511813
29.56767,504596
29.57578,482716
29.58392,481836
29.59203,467623
29.60015,459643
29.60828,473908
29.61640,462317
29.62453,473705
29.63265,460522
29.64077,475604
29.64890,448351
29.65702,450029
29.66513,437664
29.67327,429075
29.68138,424531
29.68952,429813
29.69763,422583
29.70575,424628
29.71388,430827
29.72200,428396
29.73013,433566
29.73825,442458
29.74637,445682
29.75450,438622
29.76262,422876
29.77073,418114
29.77887,402699
29.78698,418122
29.79512,406389
29.80323,390242
29.81135,392660
29.81948,397321
29.82760,388364
29.83573,395095
29.84385,385330
29.85197,394355
29.86010,386413
29.86822,401298
29.87635,418659
29.88447,438948
29.89258,478390
29.90072,513177
29.90883,607446
29.91695,759571
29.92508,1060449
29.93320,1558789
29.94133,2391117
29.94945,3622012
29.95757,5365348
29.96570,7548977
29.97382,9924771
29.98195,1.225758E+07
29.99007,1.402428E+07
29.99818,1.521769E+07
30.00632,1.578898E+07
30.01443,1.595442E+07
30.02257,1.583231E+07
30.03068,1.581641E+07
30.03880,1.483736E+07
30.04693,1.377182E+07
30.05505,1.267589E+07
30.06317,1.141893E+07
30.07130,1.015213E+07
30.07942,9074248
30.08755,8200175
30.09567,7269836
30.10378,6421072
30.11192,5628291
30.12003,5084942
30.12817,4353128
30.13628,3792952
30.14440,3325131
30.15253,3065997
30.16065,2813389
30.16877,2519661
30.17690,2238810
30.18502,2013891
30.19315,1783313
30.20127,1665062
30.20938,1558192
30.21752,1442179
30.22563,1388646
30.23377,1294249
30.24188,1231066
30.25000,1154069
30.25813,1064527
30.26625,1001968
30.27438,962607
30.28250,940666
30.29062,894754
30.29875,869082
30.30687,838727
30.31498,813715
30.32312,802003
30.33123,782666
30.33937,794288
30.34748,769304
30.35560,747043
30.36373,730131
30.37185,710723
30.37998,695323
30.38810,667375
30.39622,665013
30.40435,647978
30.41247,640702
30.42060,633481
30.42872,619694
30.43683,607064
30.44497,599884
30.45308,608833
30.46120,602056
30.46933,584817
30.47745,596733
30.48558,606123
30.49370,597560
30.50182,590734
30.50995,593397
30.51807,586250
30.52620,568824
30.53432,568072
30.54243,550741
30.55057,549283
30.55868,532779
30.56680,531077
30.57493,517510
30.58305,507031
30.59118,507891
30.59930,508306
30.60742,495115
30.61555,487203
30.62367,486177
30.63180,475712
30.63992,479064
30.64803,469779
30.65617,474364
30.66428,459552
30.67242,459853
30.68053,451558
30.68865,461785
30.69678,453296
30.70490,450613
30.71302,464140
30.72115,452144
30.72927,438441
30.73740,436326
30.74552,445645
30.75363,436731
30.76177,439935
30.76988,442827
30.77802,450594
30.78613,447969
30.79425,471796
30.80238,507804
30.81050,491049
30.81862,518642
30.82675,495426
30.83487,494779
30.84300,465748
30.85112,459903
30.85923,438775
30.86737,434512
30.87548,424652
30.88362,417140
30.89173,426434
30.89985,405745
30.90798,404310
30.91610,408621
30.92423,399538
30.93235,403525
30.94047,390719
30.94860,405075
30.95672,415275
30.96483,401001
30.97297,398363
30.98108,401181
30.98922,394260
30.99733,398109
31.00545,404973
31.01358,401884
31.02170,400609
31.02983,398264
31.03795,391666
31.04607,409027
31.05420,396603
31.06232,404732
31.07045,403053
31.07857,444672
31.08668,491852
31.09482,534425
31.10293,565361
31.11105,592830
31.11918,565404
31.12730,523496
31.13543,498313
31.14355,474831
31.15167,454617
31.15980,454366
31.16792,456413
31.17605,479907
31.18417,499685
31.19228,540463
31.20042,594522
31.20853,615603
31.21667,688317
31.22478,718515
31.23290,740350
31.24103,723672
31.24915,691010
31.25727,644747
31.26540,619692
31.27352,573688
31.28165,515050
31.28977,465738
31.29788,448552
31.30602,422366
31.31413,410228
31.32227,403312
31.33038,388026
31.33850,393616
31.34663,383392
31.35475,390223
31.36287,389489
31.37100,377011
31.37912,370613
31.38725,383571
31.39537,384962
31.40348,414864
31.41162,436686
31.41973,478107
31.42787,488788
31.43598,493237
31.44410,478607
31.45223,454473
31.46035,425956
31.46848,393805
31.47660,384265
31.48472,376950
31.49285,370628
31.50097,371386
31.50908,363134
31.51722,361700
31.52533,351767
31.53347,348774
31.54158,337223
31.54970,339053
31.55783,342045
31.56595,338714
31.57408,348027
31.58220,344726
31.59032,340072
31.59845,342485
31.60657,334537
31.61468,335233
31.62282,342570
31.63093,341777
31.63907,342230
31.64718,344041
31.65530,338972
31.66343,350645
31.67155,346819
31.67968,339214
31.68780,321499
31.69592,324273
31.70405,327509
31.71217,318862
31.72030,319451
31.72842,320767
31.73653,310841
31.74467,327435
31.75278,311150
31.76090,308560
31.76903,316239
31.77715,317065
31.78528,328305
31.79340,335874
31.80152,348182
31.80965,363756
31.81777,360197
31.82590,341101
31.83402,340740
31.84213,336211
31.85027,340320
31.85838,347245
31.86652,366424
31.87463,419297
31.88275,514409
31.89088,696035
31.89900,1010669
31.90712,1455021
31.91525,2035064
31.92337,2846361
31.93150,3882841
31.93962,5001449
31.94773,6147927
31.95587,7212324
31.96398,8083444
31.97212,8333691
31.98023,8332595
31.98835,8412566
31.99648,8041585
32.00460,7731850
32.01272,7177558
32.02085,6541339
32.02897,5891399
32.03710,5132760
32.04522,4516386
32.05333,3980903
32.06147,3650798
32.06958,3337913
32.07772,3072721
32.08583,2940030
32.09395,2693352
32.10208,2369425
32.11020,2034590
32.11833,1767242
32.12645,1552146
32.13457,1356726
32.14270,1249800
32.15082,1155202
32.15893,1071051
32.16707,992585
32.17518,920533
32.18332,876742
32.19143,841061
32.19955,814625
32.20768,763625
32.21580,739993
32.22393,700422
32.23205,673330
32.24017,668678
32.24830,634823
32.25642,625792
32.26455,617138
32.27267,598417
32.28078,597530
32.28892,588854
32.29703,571536
32.30515,554135
32.31328,555301
32.32140,538312
32.32953,535195
32.33765,540473
32.34577,531808
32.35390,520356
32.36202,525001
32.37015,522503
32.37827,501801
32.38638,490602
32.39452,482544
32.40263,479248
32.41075,471952
32.41888,459661
32.42700,454444
32.43513,453791
32.44325,442886
32.45137,441633
32.45950,429625
32.46762,431370
32.47575,430048
32.48387,420336
32.49198,417404
32.50012,428086
32.50823,412557
32.51637,405502
32.52448,405071
32.53260,398973
32.54073,396606
32.54885,398717
32.55697,399070
32.56510,380302
32.57322,386803
32.58135,388218
32.58947,389703
32.59758,378392
32.60572,375599
32.61383,371513
32.62197,382361
32.63008,401520
32.63820,450277
32.64633,565547
32.65445,724717
32.66257,910497
32.67070,1101601
32.67882,1166822
32.68695,1088840
32.69507,923899
32.70318,765894
32.71132,637540
32.71943,557951
32.72757,508775
32.73568,477266
32.74380,434866
32.75193,428968
32.76005,408530
32.76818,401057
32.77630,396215
32.78442,377332
32.79255,372173
32.80067,361853
32.80878,347254
32.81692,357367
32.82503,352516
32.83317,345195
32.84128,343639
32.84940,342823
32.85753,344341
32.86565,343600
32.87378,338996
32.88190,335662
32.89002,338399
32.89815,325123
32.90627,335288
32.91440,336359
32.92252,329414
32.93063,335658
32.93877,332287
32.94688,343452
32.95500,319252
32.96313,314782
32.97125,326863
32.97938,331186
32.98750,322549
32.99562,325571
33.00375,333079
33.01187,321788
33.02000,327800
33.02812,328921
33.03623,313458
33.04437,322936
33.05248,316054
33.06060,311276
33.06873,317439
33.07685,321260
33.08498,321408
33.09310,345603
33.10122,356038
33.10935,383276
33.11747,405618
33.12560,403887
33.13372,416716
33.14183,397912
33.14997,381391
33.15808,358166
33.16622,344204
33.17433,345684
33.18245,354243
33.19058,354789
33.19870,377826
33.20682,403942
33.21495,392366
33.22307,409908
33.23120,390048
33.23932,379100
33.24743,354594
33.25557,351931
33.26368,329959
33.27182,321874
33.27993,332449
33.28805,326927
33.29618,331785
33.30430,318607
33.31243,319304
33.32055,315679
33.32867,310386
33.33680,304229
33.34492,315310
33.35303,318479
33.36117,312079
33.36928,307238
33.37742,303379
33.38553,305349
33.39365,298726
33.40178,299896
33.40990,304399
33.41803,312949
33.42615,305004
33.43427,305309
33.44240,306948
33.45052,299966
33.45863,297198
33.46677,309335
33.47488,296046
33.48302,293267
33.49113,298950
33.49925,295838
33.50738,298349
33.51550,297792
33.52363,296184
33.53175,290121
33.53987,298271
33.54800,290032
33.55612,307767
33.56425,295408
33.57237,288480
33.58048,287825
33.58862,294187
33.59673,289700
33.60485,284734
33.61298,287717
33.62110,296065
33.62923,295935
33.63735,307100
33.64547,300813
33.65360,297070
33.66172,300411
33.66985,307879
33.67797,299829
33.68608,302509
33.69422,292424
33.70233,296706
33.71045,296949
33.71858,290998
33.72670,293789
33.73483,282767
33.74295,284685
33.75107,290947
33.75920,288665
33.76732,287603
33.77545,279558
33.78357,293775
33.79168,292369
33.79982,290748
33.80793,298025
33.81607,295794
33.82418,306400
33.83230,314051
33.84043,338172
33.84855,347409
33.85667,344215
33.86480,347243
33.87292,334849
33.88105,322959
33.88917,309280
33.89728,313682
33.90542,318186
33.91353,317905
33.92167,323916
33.92978,327021
33.93790,346040
33.94603,343117
33.95415,325881
33.96228,325136
33.97040,302704
33.97852,310531
33.98665,294620
33.99477,295211
34.00288,287357
34.01102,294512
34.01913,288515
34.02727,280410
34.03538,285023
34.04350,285460
34.05163,275685
34.05975,288949
34.06788,286167
34.07600,281468
34.08412,275898
34.09225,287651
34.10037,278252
34.10848,281480
34.11662,279556
34.12473,283195
34.13287,275973
34.14098,286420
34.14910,280563
34.15723,273848
34.16535,285765
34.17348,286413
34.18160,279997
34.18972,283503
34.19785,282415
34.20597,279262
34.21410,282299
34.22222,279389
34.23033,278625
34.23847,274169
34.24658,283458
34.25470,281041
34.26283,274853
34.27095,280122
34.27908,279817
34.28720,285730
34.29532,278649
34.30345,275334
34.31157,267818
34.31970,273909
34.32782,274068
34.33593,279471
34.34407,268892
34.35218,273296
34.36032,278299
34.36843,262797
34.37655,270601
34.38468,269110
34.39280,270642
34.40092,276261
34.40905,273179
34.41717,272042
34.42530,273612
34.43342,271390
34.44153,257241
34.44967,268381
34.45778,259820
34.46592,264118
34.47403,270129
34.48215,301339
34.49028,352214
34.49840,481991
34.50652,750717
34.51465,1230867
34.52277,1990061
34.53090,2916395
34.53902,3959916
34.54713,4952369
34.55527,5712110
34.56338,6153050
34.57152,6241188
34.57963,5695371
34.58775,5072665
34.59588,4325946
34.60400,3680333
34.61213,3154912
34.62025,2647781
34.62837,2187799
34.63650,1873000
34.64462,1587780
34.65273,1389082
34.66087,1236958
34.66898,1138708
34.67712,1038946
34.68523,972644
34.69335,900102
34.70148,877095
34.70960,830048
34.71773,817883
34.72585,782142
34.73397,763492
34.74210,737891
34.75022,705848
34.75835,680158
34.76647,644905
34.77458,634191
34.78272,619997
34.79083,599045
34.79895,579549
34.80708,558646
34.81520,554375
34.82333,544267
34.83145,542016
34.83957,537645
34.84770,518806
34.85582,513861
34.86395,504878
34.87207,492515
34.88018,491147
34.88832,488714
34.89643,476693
34.90455,460268
34.91268,474190
34.92080,448600
34.92893,459253
34.93705,462855
34.94517,466906
34.95330,473362
34.96142,473157
34.96955,479084
34.97767,458738
34.98578,466154
34.99392,449149
35.00203,440468
35.01017,423793
35.01828,406850
35.02640,424349
35.03453,434325
35.04265,424703
35.05077,409245
35.05890,412341
35.06702,416207
35.07515,402503
35.08327,397833
35.09138,396343
35.09952,382031
35.10763,383037
35.11577,386572
35.12388,380067
35.13200,412857
35.14013,430849
35.14825,455622
35.15637,479932
35.16450,503362
35.17262,513186
35.18075,487525
35.18887,466823
35.19698,448443
35.20512,422595
35.21323,396883
35.22137,396185
35.22948,390719
35.23760,374960
35.24573,380121
35.25385,378543
35.26198,386300
35.27010,379391
35.27822,386086
35.28635,378722
35.29447,373543
35.30258,361321
35.31072,363309
35.31883,362411
35.32697,358800
35.33508,352871
35.34320,345305
35.35133,355520
35.35945,353891
35.36758,349838
35.37570,340014
35.38382,348410
35.39195,344363
35.40007,354639
35.40820,349837
35.41632,371834
35.42443,359008
35.43257,362416
35.44068,368328
35.44880,366985
35.45693,383398
35.46505,392007
35.47318,392977
35.48130,402478
35.48942,384817
35.49755,377423
35.50567,369405
35.51380,381440
35.52192,362532
35.53003,361163
35.53817,360148
35.54628,352168
35.55440,367021
35.56253,359143
35.57065,365790
35.57878,361510
35.58690,370815
35.59502,365356
35.60315,358841
35.61127,332771
35.61940,344435
35.62752,345774
35.63563,338838
35.64377,351794
35.65188,364610
35.66002,401461
35.66813,458047
35.67625,496905
35.68438,532613
35.69250,540831
35.70062,511197
35.70875,468350
35.71687,434822
35.72500,400944
35.73312,376630
35.74123,382344
35.74937,362938
35.75748,362911
35.76562,353677
35.77373,361861
35.78185,343721
35.78998,350183
35.79810,354309
35.80623,355643
35.81435,366639
35.82247,370594
35.83060,382602
35.83872,391920
35.84683,385160
35.85497,374671
35.86308,369045
35.87122,344402
35.87933,343577
35.88745,345608
35.89558,337622
35.90370,335488
35.91183,329567
35.91995,325174
35.92807,317146
35.93620,319857
35.94432,309317
35.95243,309390
35.96057,306023
35.96868,319079
35.97682,304967
35.98493,310234
35.99305,318700
36.00118,337354
36.00930,357858
36.01743,364277
36.02555,375380
36.03367,371484
36.04180,372905
36.04992,353798
36.05805,345364
36.06617,338092
36.07428,342214
36.08242,326549
36.09053,336584
36.09865,322674
36.10678,328776
36.11490,314579
36.12303,314371
36.13115,328643
36.13927,325894
36.14740,327900
36.15552,323785
36.16365,326351
36.17177,328151
36.17988,314109
36.18802,320907
36.19613,328375
36.20425,322933
36.21238,324623
36.22050,316961
36.22863,304142
36.23675,310870
36.24487,311944
36.25300,308452
36.26112,311237
36.26925,322203
36.27737,320248
36.28548,357683
36.29362,427823
36.30173,501220
36.30987,622082
36.31798,703451
36.32610,756463
36.33423,758519
36.34235,707153
36.35047,642760
36.35860,571144
36.36672,521045
36.37485,502122
36.38297,468805
36.39108,448721
36.39922,443171
36.40733,418850
36.41547,392111
36.42358,381299
36.43170,359820
36.43983,359637
36.44795,346352
36.45608,328660
36.46420,317484
36.47232,324603
36.48045,310867
36.48857,312849
36.49668,298372
36.50482,302741
36.51293,301247
36.52107,306109
36.52918,301961
36.53730,298725
36.54543,299663
36.55355,290802
36.56168,290608
36.56980,292956
36.57792,288711
36.58605,290643
36.59417,282150
36.60230,292529
36.61042,293330
36.61853,288838
36.62667,294705
36.63478,289528
36.64290,322523
36.65103,333704
36.65915,349411
36.66728,369287
36.67540,357369
36.68352,345028
36.69165,327313
36.69977,321472
36.70790,310847
36.71602,303818
36.72413,306651
36.73227,291215
36.74038,300845
36.74850,291217
36.75663,298165
36.76475,295769
36.77288,290463
36.78100,289736
36.78912,294623
36.79725,286160
36.80537,287440
36.81350,278653
36.82162,284596
36.82973,287091
36.83787,292605
36.84598,286409
36.85412,285006
36.86223,278349
36.87035,292963
36.87848,290544
36.88660,288565
36.89472,290877
36.90285,278884
36.91097,278761
36.91910,285426
36.92722,279666
36.93533,271234
36.94347,278974
36.95158,280318
36.95972,278836
36.96783,275861
36.97595,283721
36.98408,282071
36.99220,276000
37.00032,275964
37.00845,279941
37.01657,281202
37.02470,278419
37.03282,278753
37.04093,282590
37.04907,284438
37.05718,290292
37.06532,279825
37.07343,283679
37.08155,295044
37.08968,281979
37.09780,281215
37.10593,276360
37.11405,286265
37.12217,289841
37.13030,289001
37.13842,294828
37.14653,302557
37.15467,302652
37.16278,313770
37.17092,309057
37.17903,322418
37.18715,327391
37.19528,322835
37.20340,311894
37.21153,313543
37.21965,311256
37.22777,295712
37.23590,290700
37.24402,278793
37.25215,283216
37.26027,281046
37.26838,272374
37.27652,279558
37.28463,295505
37.29275,320747
37.30088,390258
37.30900,545994
37.31713,888564
37.32525,1439306
37.33337,2095018
37.34150,2765519
37.34962,3166038
37.35775,3273096
37.36587,3165027
37.37398,2902571
37.38212,2673281
37.39023,2333519
37.39835,1991619
37.40648,1691832
37.41460,1471614
37.42273,1277983
37.43085,1181037
37.43897,1074801
37.44710,999733
37.45522,947043
37.46335,913840
37.47147,878425
37.47958,845316
37.48772,808709
