C:\MassHunter\GCMS\1\data\JTB-E02\BACandBLUE\JTB-E18-019-07.D Fri Jul 05 10:32:14 2019
Start of data points
2.09540,55217
2.10352,61641
2.11165,55488
2.11977,50619
2.12790,54468
2.13602,56132
2.14413,55465
2.15227,54825
2.16038,55465
2.16852,53557
2.17663,50698
2.18475,50927
2.19288,49778
2.20100,50117
2.20912,52361
2.21725,46048
2.22537,46180
2.23350,45723
2.24162,46494
2.24973,46626
2.25787,49266
2.26598,130053
2.27412,843182
2.28223,1276245
2.29035,592284
2.29848,303718
2.30660,230055
2.31473,188585
2.32285,173059
2.33097,150705
2.33910,144460
2.34722,130744
2.35533,127175
2.36347,119503
2.37158,114961
2.37972,104165
2.38783,105315
2.39595,108000
2.40408,101375
2.41220,96749
2.42033,96077
2.42845,101882
2.43657,98315
2.44470,95679
2.45282,96706
2.46095,91205
2.46907,92579
2.47718,92071
2.48532,95238
2.49343,103719
2.50155,102125
2.50968,94544
2.51780,91245
2.52593,95459
2.53405,85927
2.54217,92138
2.55030,98439
2.55842,147039
2.56655,187617
2.57467,151255
2.58278,122704
2.59092,106040
2.59903,130788
2.60715,531201
2.61528,1360335
2.62340,1050937
2.63153,543310
2.63965,351050
2.64777,271938
2.65590,222414
2.66402,190263
2.67215,170200
2.68027,155869
2.68838,144439
2.69652,136756
2.70463,128653
2.71277,125788
2.72088,126128
2.72900,115655
2.73713,112073
2.74525,110575
2.75337,109675
2.76150,105082
2.76962,107740
2.77775,114531
2.78587,198643
2.79398,253795
2.80212,188416
2.81023,150229
2.81837,140831
2.82648,151176
2.83460,125153
2.84273,118550
2.85085,112010
2.85897,103793
2.86710,99500
2.87522,97191
2.88335,95701
2.89147,90476
2.89958,95179
2.90772,90871
2.91583,87287
2.92397,85371
2.93208,83076
2.94020,83287
2.94833,82600
2.95645,86228
2.96458,102808
2.97270,116804
2.98082,108445
2.98895,96983
2.99707,94911
3.00518,98926
3.01332,90970
3.02143,87556
3.02957,86338
3.03768,86529
3.04580,81318
3.05393,83539
3.06205,80999
3.07018,82747
3.07830,124201
3.08642,790007
3.09455,3314899
3.10267,5674193
3.11080,6566861
3.11892,6614194
3.12703,4490407
3.13517,2877157
3.14328,2144292
3.15140,1677597
3.15953,1334201
3.16765,1140021
3.17578,981976
3.18390,903229
3.19202,1086951
3.20015,1539194
3.20827,1484104
3.21640,1111704
3.22452,889603
3.23263,761874
3.24077,676884
3.24888,611265
3.25700,540425
3.26513,488149
3.27325,463524
3.28138,417954
3.28950,420504
3.29762,639237
3.30575,1401214
3.31387,2609534
3.32200,3174076
3.33012,2614860
3.33823,1835416
3.34637,1340875
3.35448,1051089
3.36262,907718
3.37073,797662
3.37885,724669
3.38698,650968
3.39510,609985
3.40322,569581
3.41135,524713
3.41947,509232
3.42760,497418
3.43572,469325
3.44383,469040
3.45197,444971
3.46008,434996
3.46822,437253
3.47633,456241
3.48445,457052
3.49258,425809
3.50070,402506
3.50883,380166
3.51695,352288
3.52507,333348
3.53320,332434
3.54132,321651
3.54943,303812
3.55757,281514
3.56568,269929
3.57382,290986
3.58193,350502
3.59005,367811
3.59818,336636
3.60630,302827
3.61443,312946
3.62255,318874
3.63067,325226
3.63880,340792
3.64692,325352
3.65503,326588
3.66317,341180
3.67128,616523
3.67942,1912707
3.68753,3958396
3.69565,4227988
3.70378,2870598
3.71190,1875911
3.72003,1408555
3.72815,1180759
3.73627,1007763
3.74440,897121
3.75252,806316
3.76065,737154
3.76877,702583
3.77688,667544
3.78502,636137
3.79313,610451
3.80125,596907
3.80938,727196
3.81750,1255946
3.82563,1892025
3.83375,1859163
3.84187,1376622
3.85000,1051357
3.85812,889678
3.86625,786774
3.87437,712307
3.88248,657746
3.89062,608325
3.89873,569829
3.90685,530800
3.91498,520491
3.92310,535020
3.93123,612395
3.93935,697382
3.94747,727733
3.95560,1325961
3.96372,4022480
3.97185,8811500
3.97997,1.138383E+07
3.98808,9220240
3.99622,5795569
4.00433,6226643
4.01247,1.572749E+07
4.02058,3.225854E+07
4.02870,4.1888E+07
4.03683,3.59924E+07
4.04495,2.122983E+07
4.05307,1.135927E+07
4.06120,7275507
4.06932,5321532
4.07745,4194621
4.08557,3412864
4.09368,2884346
4.10182,2493316
4.10993,2201251
4.11807,1977494
4.12618,1790944
4.13430,1632566
4.14243,1509545
4.15055,1461746
4.15868,1440978
4.16680,1361139
4.17492,1243524
4.18305,1156886
4.19117,1095137
4.19928,1001822
4.20742,933136
4.21553,1090462
4.22367,2536528
4.23178,6936214
4.23990,1.295679E+07
4.24803,1.580642E+07
4.25615,1.362739E+07
4.26428,8590536
4.27240,5528046
4.28052,3942981
4.28865,3043930
4.29677,2475199
4.30488,2093360
4.31302,1845267
4.32113,1657544
4.32927,1541954
4.33738,1403944
4.34550,1299841
4.35363,1227213
4.36175,1184353
4.36988,1144670
4.37800,1104086
4.38612,1024632
4.39425,954960
4.40237,891286
4.41050,834156
4.41862,796487
4.42673,765563
4.43487,712868
4.44298,692270
4.45110,659762
4.45923,605645
4.46735,564442
4.47548,554392
4.48360,534561
4.49172,523530
4.49985,509668
4.50797,506144
4.51610,504797
4.52422,481285
4.53233,490075
4.54047,487671
4.54858,475395
4.55672,475394
4.56483,475303
4.57295,472482
4.58108,459000
4.58920,443539
4.59732,431157
4.60545,424226
4.61357,408368
4.62170,406992
4.62982,413750
4.63793,491738
4.64607,618615
4.65418,734892
4.66232,716301
4.67043,610417
4.67855,508252
4.68668,454776
4.69480,434884
4.70292,412656
4.71105,407510
4.71917,388219
4.72730,373788
4.73542,370388
4.74353,361916
4.75167,342743
4.75978,337030
4.76792,328652
4.77603,326871
4.78415,330493
4.79228,328058
4.80040,350083
4.80853,441132
4.81665,577849
4.82477,645300
4.83290,567968
4.84102,482172
4.84913,443987
4.85727,437936
4.86538,416636
4.87352,407270
4.88163,395119
4.88975,382602
4.89788,353554
4.90600,339690
4.91413,340369
4.92225,322372
4.93037,324492
4.93850,322272
4.94662,398505
4.95475,625786
4.96287,1150355
4.97098,1850871
4.97912,2309837
4.98723,2204230
4.99535,1714192
5.00348,1253912
5.01160,936646
5.01973,775861
5.02785,700883
5.03597,718570
5.04410,866356
5.05222,1078675
5.06035,1158171
5.06847,1044382
5.07658,874749
5.08472,745739
5.09283,665699
5.10095,600786
5.10908,554785
5.11720,505639
5.12533,484411
5.13345,460245
5.14157,453549
5.14970,441975
5.15782,459192
5.16595,466560
5.17407,497826
5.18218,509076
5.19032,491443
5.19843,466882
5.20657,441941
5.21468,456074
5.22280,468101
5.23093,448143
5.23905,427861
5.24717,404448
5.25530,387894
5.26342,370607
5.27155,356608
5.27967,337791
5.28778,343274
5.29592,320941
5.30403,322235
5.31217,316571
5.32028,310309
5.32840,313387
5.33653,320795
5.34465,336877
5.35277,351606
5.36090,351741
5.36902,344336
5.37715,316410
5.38527,298435
5.39338,299789
5.40152,297270
5.40963,307151
5.41777,296777
5.42588,296439
5.43400,282044
5.44213,281287
5.45025,277087
5.45838,282629
5.46650,283902
5.47462,271246
5.48275,267352
5.49087,264520
5.49898,264477
5.50712,258054
5.51523,253595
5.52337,251146
5.53148,259362
5.53960,248986
5.54773,254643
5.55585,253605
5.56398,246847
5.57210,243745
5.58022,262775
5.58835,274692
5.59647,270396
5.60460,265873
5.61272,248944
5.62083,245119
5.62897,243538
5.63708,252316
5.64520,260939
5.65333,277776
5.66145,279451
5.66958,274351
5.67770,263471
5.68582,261982
5.69395,280963
5.70207,304326
5.71020,318659
5.71832,306342
5.72643,277639
5.73457,255181
5.74268,244589
5.75080,233248
5.75893,228700
5.76705,229890
5.77518,223128
5.78330,220353
5.79142,209251
5.79955,223593
5.80767,218520
5.81580,215834
5.82392,217589
5.83203,210820
5.84017,205470
5.84828,204878
5.85642,212574
5.86453,212820
5.87265,204299
5.88078,195631
5.88890,199872
5.89702,201838
5.90515,200075
5.91327,174228
5.92140,159398
5.92952,150993
5.93763,149549
5.94577,144653
5.95388,153090
5.96202,168817
5.97013,187165
5.97825,207685
5.98638,234902
5.99450,262355
6.00263,287621
6.01075,297732
6.01887,265077
6.02700,232576
6.03512,209347
6.04323,191718
6.05137,173559
6.05948,165264
6.06762,159618
6.07573,158719
6.08385,158458
6.09198,150551
6.10010,142891
6.10823,149969
6.11635,145140
6.12447,143697
6.13260,160594
6.14072,186385
6.14883,259278
6.15697,379033
6.16508,420465
6.17322,406650
6.18133,327765
6.18945,274286
6.19758,245497
6.20570,222153
6.21383,207274
6.22195,201875
6.23007,197486
6.23820,200100
6.24632,191838
6.25445,192578
6.26257,189982
6.27068,193439
6.27882,192887
6.28693,188742
6.29505,190168
6.30318,187437
6.31130,185962
6.31943,191404
6.32755,186173
6.33567,194175
6.34380,195746
6.35192,207623
6.36005,218129
6.36817,217321
6.37628,205898
6.38442,204341
6.39253,202770
6.40065,193209
6.40878,188635
6.41690,188478
6.42503,195523
6.43315,195761
6.44127,192204
6.44940,185568
6.45752,188565
6.46565,180954
6.47377,185380
6.48188,192707
6.49002,190760
6.49813,185618
6.50627,197348
6.51438,194031
6.52250,189911
6.53063,193709
6.53875,209253
6.54687,200223
6.55500,196562
6.56312,197749
6.57125,189677
6.57937,199808
6.58748,211884
6.59562,212507
6.60373,220741
6.61187,218753
6.61998,206032
6.62810,197034
6.63623,206398
6.64435,209094
6.65248,213081
6.66060,210527
6.66872,253486
6.67685,333780
6.68497,415119
6.69308,451487
6.70122,402824
6.70933,335615
6.71747,280528
6.72558,259292
6.73370,245698
6.74183,244632
6.74995,213949
6.75808,196562
6.76620,176687
6.77432,176742
6.78245,158850
6.79057,153952
6.79870,145625
6.80682,148204
6.81493,141780
6.82307,134461
6.83118,134832
6.83930,138958
6.84743,142976
6.85555,141744
6.86368,154043
6.87180,167958
6.87992,210676
6.88805,214491
6.89617,190440
6.90430,151571
6.91242,126047
6.92053,105087
6.92867,103772
6.93678,96611
6.94490,90827
6.95303,86911
6.96115,94452
6.96928,89715
6.97740,99965
6.98552,106647
6.99365,122933
7.00177,119593
7.00990,113928
7.01802,103508
7.02613,98252
7.03427,90443
7.04238,87993
7.05052,88775
7.05863,87822
7.06675,88279
7.07488,84217
7.08300,84055
7.09112,84442
7.09925,85162
7.10737,77182
7.11550,79931
7.12362,77891
7.13173,71769
7.13987,81806
7.14798,86705
7.15612,113914
7.16423,159942
7.17235,232763
7.18048,287280
7.18860,284771
7.19672,239958
7.20485,193983
7.21297,167936
7.22110,210840
7.22922,416103
7.23733,815799
7.24547,1253245
7.25358,1360421
7.26172,1119763
7.26983,735464
7.27795,457643
7.28608,322385
7.29420,239640
7.30233,174474
7.31045,128338
7.31857,113965
7.32670,105581
7.33482,110030
7.34293,107399
7.35107,113477
7.35918,102928
7.36732,105484
7.37543,104157
7.38355,93848
7.39168,99359
7.39980,95733
7.40793,108306
7.41605,110065
7.42417,107915
7.43230,100215
7.44042,96713
7.44855,90989
7.45667,88460
7.46478,84485
7.47292,90460
7.48103,81886
7.48915,80909
7.49728,79123
7.50540,78683
7.51353,75155
7.52165,78609
7.52977,79570
7.53790,88048
7.54602,102797
7.55415,131725
7.56227,170255
7.57038,211653
7.57852,226002
7.58663,221137
7.59475,188827
7.60288,152778
7.61100,123402
7.61913,103089
7.62725,98142
7.63537,86171
7.64350,83730
7.65162,81064
7.65975,77076
7.66787,73941
7.67598,73795
7.68412,77089
7.69223,76182
7.70037,70113
7.70848,71555
7.71660,69639
7.72473,73109
7.73285,76838
7.74097,72725
7.74910,70485
7.75722,73145
7.76535,73225
7.77347,76000
7.78158,74560
7.78972,78622
7.79783,77221
7.80597,82896
7.81408,80225
7.82220,85371
7.83033,84350
7.83845,82782
7.84658,74998
7.85470,71767
7.86282,67522
7.87095,73424
7.87907,66630
7.88718,70867
7.89532,73878
7.90343,70992
7.91157,77020
7.91968,79163
7.92780,74039
7.93593,80468
7.94405,83297
7.95218,110941
7.96030,117282
7.96842,115360
7.97655,111067
7.98467,104784
7.99278,88833
8.00092,77342
8.00903,74542
8.01717,71866
8.02528,68293
8.03340,64915
8.04153,62874
8.04965,62444
8.05778,66125
8.06590,62037
8.07402,65072
8.08215,62404
8.09027,63075
8.09840,63198
8.10652,59050
8.11463,62801
8.12277,56243
8.13088,61247
8.13900,66728
8.14713,70422
8.15525,82948
8.16338,90169
8.17150,96748
8.17962,91775
8.18775,79384
8.19587,68920
8.20400,72203
8.21212,63423
8.22023,64411
8.22837,62651
8.23648,59067
8.24460,59595
8.25273,62134
8.26085,57475
8.26898,56078
8.27710,58571
8.28522,58403
8.29335,57098
8.30147,57614
8.30960,58085
8.31772,56340
8.32583,62009
8.33397,61593
8.34208,62974
8.35022,60985
8.35833,64192
8.36645,65682
8.37458,62923
8.38270,57255
8.39082,60171
8.39895,65988
8.40707,62380
8.41520,59922
8.42332,57670
8.43143,63385
8.43957,54298
8.44768,52023
8.45582,54878
8.46393,55009
8.47205,53052
8.48018,52919
8.48830,49265
8.49643,52379
8.50455,51636
8.51267,54785
8.52080,51063
8.52892,62466
8.53703,78996
8.54517,136084
8.55328,231184
8.56142,331469
8.56953,384763
8.57765,319648
8.58578,229547
8.59390,145589
8.60203,101876
8.61015,83849
8.61827,83242
8.62640,85972
8.63452,79267
8.64263,77991
8.65077,71391
8.65888,64426
8.66702,61154
8.67513,61038
8.68325,66656
8.69138,63265
8.69950,61175
8.70763,57848
8.71575,65017
8.72387,61631
8.73200,57128
8.74012,64004
8.74825,61731
8.75637,64689
8.76448,91053
8.77262,165406
8.78073,308208
8.78885,493613
8.79698,660470
8.80510,694704
8.81323,578107
8.82135,424596
8.82947,286114
8.83760,206880
8.84572,166729
8.85385,153968
8.86197,155593
8.87008,155254
8.87822,155709
8.88633,151673
8.89447,139586
8.90258,136066
8.91070,128437
8.91883,117859
8.92695,131056
8.93507,117213
8.94320,116934
8.95132,132107
8.95945,136755
8.96757,144172
8.97568,131803
8.98382,127071
8.99193,123924
9.00007,120310
9.00818,118393
9.01630,114428
9.02443,112211
9.03255,108544
9.04067,101457
9.04880,101637
9.05692,96082
9.06505,93623
9.07317,88650
9.08128,97996
9.08942,94033
9.09753,92786
9.10567,97041
9.11378,98505
9.12190,102341
9.13003,105123
9.13815,108175
9.14628,108401
9.15440,102934
9.16252,93688
9.17065,95084
9.17877,85384
9.18688,90379
9.19502,81811
9.20313,84796
9.21127,85221
9.21938,82915
9.22750,82511
9.23563,83188
9.24375,85291
9.25188,79443
9.26000,77675
9.26812,77386
9.27625,75208
9.28437,78506
9.29248,76863
9.30062,75249
9.30873,81494
9.31687,70706
9.32498,76221
9.33310,73875
9.34123,72504
9.34935,72050
9.35748,75846
9.36560,78485
9.37372,72480
9.38185,70802
9.38997,72669
9.39810,67985
9.40622,69089
9.41433,74162
9.42247,80885
9.43058,85105
9.43870,90264
9.44683,99430
9.45495,103504
9.46308,108019
9.47120,98839
9.47932,89648
9.48745,81158
9.49557,76936
9.50370,74704
9.51182,72512
9.51993,74387
9.52807,81313
9.53618,87021
9.54432,87548
9.55243,85126
9.56055,79333
9.56868,72258
9.57680,65824
9.58492,59235
9.59305,64231
9.60117,65273
9.60930,66564
9.61742,67762
9.62553,63063
9.63367,56792
9.64178,50143
9.64992,47108
9.65803,47570
9.66615,53801
9.67428,50905
9.68240,49605
9.69052,43830
9.69865,48593
9.70677,51603
9.71490,46709
9.72302,46588
9.73113,47738
9.73927,46093
9.74738,44618
9.75552,45992
9.76363,48052
9.77175,43138
9.77988,46016
9.78800,41746
9.79613,43499
9.80425,42829
9.81237,43502
9.82050,37520
9.82862,42845
9.83673,43076
9.84487,44175
9.85298,42754
9.86112,43021
9.86923,48499
9.87735,51558
9.88548,47022
9.89360,48356
9.90173,48585
9.90985,45915
9.91797,44363
9.92610,46922
9.93422,49733
9.94235,60095
9.95047,78719
9.95858,116808
9.96672,147198
9.97483,174794
9.98295,167405
9.99108,144571
9.99920,119719
10.00733,93697
10.01545,80546
10.02357,72503
10.03170,68096
10.03982,65912
10.04795,62367
10.05607,57501
10.06418,52196
10.07232,55948
10.08043,52040
10.08855,56431
10.09668,58754
10.10480,55730
10.11293,55626
10.12105,53566
10.12917,56742
10.13730,57605
10.14542,56373
10.15355,58818
10.16167,50413
10.16978,51947
10.17792,50207
10.18603,47755
10.19417,48224
10.20228,47964
10.21040,47098
10.21853,49137
10.22665,47786
10.23477,47504
10.24290,49441
10.25102,53064
10.25915,56953
10.26727,65164
10.27538,100483
10.28352,209935
10.29163,477792
10.29977,931226
10.30788,1476890
10.31600,2121791
10.32413,3005566
10.33225,4462813
10.34038,6133615
10.34850,7418696
10.35662,7227570
10.36475,5787994
10.37287,4031591
10.38098,2814928
10.38912,2117007
10.39723,1600378
10.40537,1183705
10.41348,866738
10.42160,635893
10.42973,486546
10.43785,415595
10.44598,363709
10.45410,329418
10.46222,299609
10.47035,291307
10.47847,272837
10.48658,247517
10.49472,238513
10.50283,217185
10.51097,212969
10.51908,203121
10.52720,186254
10.53533,176935
10.54345,174642
10.55158,165948
10.55970,169154
10.56782,161992
10.57595,159297
10.58407,153280
10.59220,163886
10.60032,148959
10.60843,142498
10.61657,133548
10.62468,125265
10.63280,120510
10.64093,117319
10.64905,113867
10.65718,114182
10.66530,109810
10.67342,108146
10.68155,106610
10.68967,103429
10.69780,96724
10.70592,101812
10.71403,95815
10.72217,95663
10.73028,96777
10.73840,90889
10.74653,92685
10.75465,96237
10.76278,93977
10.77090,97064
10.77902,91832
10.78715,87631
10.79527,88723
10.80340,81523
10.81152,80243
10.81963,83645
10.82777,81493
10.83588,81887
10.84402,74208
10.85213,76200
10.86025,69681
10.86838,70940
10.87650,70598
10.88462,68990
10.89275,71675
10.90087,69496
10.90900,66305
10.91712,69015
10.92523,68282
10.93337,66263
10.94148,64629
10.94962,66685
10.95773,62446
10.96585,65784
10.97398,63690
10.98210,64843
10.99023,68301
10.99835,65432
11.00647,62775
11.01460,67002
11.02272,64253
11.03083,59875
11.03897,62056
11.04708,60611
11.05522,55650
11.06333,60180
11.07145,64063
11.07958,57869
11.08770,57157
11.09583,60296
11.10395,61153
11.11207,64175
11.12020,57479
11.12832,53106
11.13643,49983
11.14457,47891
11.15268,51787
11.16082,47131
11.16893,47897
11.17705,50736
11.18518,48593
11.19330,51760
11.20143,51915
11.20955,55474
11.21767,50398
11.22580,49326
11.23392,50435
11.24205,48574
11.25017,46751
11.25828,44761
11.26642,45159
11.27453,41700
11.28265,42058
11.29078,40237
11.29890,41221
11.30703,45147
11.31515,51086
11.32327,66422
11.33140,95819
11.33952,143571
11.34765,192544
11.35577,229312
11.36388,245164
11.37202,223208
11.38013,176527
11.38827,133190
11.39638,109767
11.40450,89435
11.41263,78008
11.42075,74633
11.42887,66936
11.43700,66492
11.44512,59989
11.45325,62918
11.46137,60949
11.46948,57556
11.47762,58613
11.48573,58231
11.49387,71493
11.50198,83273
11.51010,92148
11.51823,98274
11.52635,96006
11.53447,89619
11.54260,83363
11.55072,71691
11.55885,70469
11.56697,64884
11.57508,59555
11.58322,60867
11.59133,56903
11.59947,59272
11.60758,65132
11.61570,81848
11.62383,100617
11.63195,116339
11.64008,114604
11.64820,102935
11.65632,84109
11.66445,71860
11.67257,62567
11.68068,57982
11.68882,56710
11.69693,53798
11.70507,53432
11.71318,55499
11.72130,52303
11.72943,53763
11.73755,49634
11.74568,53890
11.75380,51151
11.76192,47585
11.77005,52062
11.77817,48995
11.78628,50719
11.79442,47447
11.80253,45840
11.81067,51215
11.81878,44694
11.82690,47889
11.83503,50643
11.84315,48855
11.85128,47130
11.85940,51343
11.86752,51218
11.87565,50677
11.88377,47052
11.89190,46825
11.90002,44635
11.90813,43630
11.91627,43894
11.92438,41958
11.93250,51487
11.94063,53153
11.94875,50403
11.95688,53409
11.96500,49891
11.97312,48198
11.98125,50439
11.98937,82255
11.99750,163931
12.00562,317427
12.01373,526734
12.02187,724338
12.02998,795586
12.03812,730564
12.04623,537952
12.05435,362357
12.06248,232446
12.07060,176111
12.07872,143410
12.08685,129408
12.09497,111050
12.10310,113644
12.11122,104127
12.11933,100854
12.12747,96505
12.13558,96967
12.14372,95351
12.15183,92164
12.15995,92050
12.16808,88113
12.17620,82511
12.18433,73584
12.19245,76502
12.20057,73819
12.20870,72683
12.21682,69258
12.22493,66329
12.23307,70977
12.24118,70881
12.24932,66579
12.25743,66545
12.26555,68262
12.27368,65055
12.28180,63067
12.28993,58942
12.29805,63768
12.30617,63572
12.31430,57822
12.32242,58369
12.33053,55593
12.33867,53016
12.34678,57396
12.35492,54332
12.36303,50708
12.37115,51730
12.37928,54064
12.38740,53271
12.39553,50709
12.40365,53725
12.41177,65302
12.41990,68496
12.42802,73606
12.43615,83758
12.44427,87162
12.45238,87726
12.46052,72283
12.46863,73716
12.47675,65820
12.48488,62805
12.49300,58562
12.50113,57022
12.50925,57386
12.51737,56072
12.52550,51118
12.53362,53525
12.54175,59569
12.54987,62965
12.55798,83468
12.56612,106828
12.57423,132347
12.58235,139691
12.59048,129171
12.59860,110265
12.60673,89049
12.61485,66812
12.62297,62189
12.63110,60849
12.63922,54758
12.64735,56958
12.65547,52430
12.66358,53029
12.67172,49451
12.67983,49163
12.68797,45360
12.69608,46157
12.70420,46585
12.71233,44440
12.72045,45702
12.72857,50938
12.73670,50555
12.74482,57682
12.75295,62734
12.76107,58087
12.76918,60494
12.77732,55592
12.78543,43550
12.79357,45765
12.80168,46391
12.80980,40048
12.81793,45719
12.82605,40652
12.83418,39967
12.84230,37554
12.85042,35932
12.85855,36780
12.86667,36607
12.87478,36078
12.88292,34667
12.89103,35834
12.89917,36029
12.90728,36883
12.91540,31424
12.92353,36658
12.93165,36254
12.93978,33571
12.94790,38207
12.95602,43063
12.96415,59171
12.97227,88279
12.98038,158112
12.98852,221334
12.99663,284283
13.00477,283013
13.01288,222429
13.02100,154915
13.02913,113901
13.03725,81645
13.04538,68594
13.05350,60092
13.06162,54685
13.06975,56742
13.07787,54846
13.08600,54098
13.09412,54421
13.10223,48305
13.11037,47416
13.11848,47162
13.12660,45316
13.13473,42892
13.14285,46495
13.15098,45541
13.15910,44793
13.16722,43279
13.17535,41651
13.18347,43197
13.19160,44942
13.19972,45235
13.20783,44244
13.21597,42273
13.22408,42502
13.23222,43263
13.24033,44215
13.24845,42353
13.25658,39128
13.26470,40792
13.27282,40168
13.28095,43176
13.28907,34697
13.29720,40231
13.30532,40485
13.31343,36182
13.32157,32745
13.32968,38160
13.33782,35853
13.34593,36456
13.35405,34404
13.36218,37112
13.37030,37322
13.37842,34589
13.38655,31416
13.39467,32981
13.40280,32874
13.41092,34280
13.41903,32941
13.42717,34185
13.43528,33300
13.44342,32343
13.45153,32208
13.45965,32585
13.46778,36173
13.47590,32703
13.48403,34098
13.49215,33234
13.50027,36161
13.50840,35899
13.51652,37014
13.52463,37215
13.53277,33770
13.54088,35849
13.54902,35337
13.55713,36179
13.56525,34931
13.57338,32083
13.58150,32439
13.58963,35973
13.59775,38780
13.60587,48874
13.61400,60361
13.62212,94218
13.63023,116599
13.63837,136026
13.64648,131720
13.65462,106474
13.66273,80620
13.67085,56793
13.67898,50715
13.68710,47167
13.69523,44579
13.70335,39182
13.71147,38787
13.71960,36908
13.72772,40127
13.73585,52722
13.74397,85947
13.75208,199626
13.76022,506135
13.76833,1163093
13.77645,2219071
13.78458,3280213
13.79270,3850431
13.80083,3733514
13.80895,2928278
13.81707,2000780
13.82520,1251809
13.83332,827218
13.84145,646635
13.84957,564340
13.85768,519152
13.86582,462542
13.87393,421975
13.88207,352474
13.89018,307535
13.89830,274207
13.90643,259144
13.91455,229965
13.92267,225257
13.93080,206748
13.93892,198725
13.94705,197880
13.95517,185269
13.96328,194173
13.97142,214928
13.97953,253218
13.98767,286532
13.99578,317359
14.00390,299654
14.01203,276289
14.02015,244963
14.02827,197778
14.03640,180165
14.04452,161682
14.05265,151946
14.06077,143020
14.06888,147547
14.07702,138049
14.08513,133690
14.09327,139635
14.10138,129262
14.10950,126593
14.11763,126498
14.12575,119835
14.13388,124230
14.14200,136974
14.15012,151873
14.15825,172529
14.16637,193960
14.17448,198420
14.18262,217346
14.19073,240411
14.19887,280470
14.20698,325112
14.21510,349581
14.22323,329093
14.23135,280038
14.23948,235131
14.24760,207909
14.25572,185396
14.26385,178829
14.27197,155732
14.28010,141458
14.28822,126943
14.29633,117652
14.30447,110658
14.31258,102965
14.32070,93803
14.32883,92436
14.33695,86019
14.34508,80610
14.35320,77680
14.36132,68089
14.36945,64538
14.37757,62439
14.38570,60460
14.39382,69633
14.40193,79216
14.41007,119647
14.41818,189697
14.42630,284117
14.43443,365740
14.44255,378465
14.45068,316275
14.45880,231420
14.46692,159537
14.47505,118633
14.48317,96890
14.49130,82764
14.49942,78870
14.50753,73889
14.51567,78507
14.52378,82102
14.53192,86735
14.54003,87891
14.54815,83280
14.55628,75959
14.56440,74859
14.57252,60441
14.58065,61609
14.58877,55687
14.59690,58136
14.60502,54698
14.61313,54056
14.62127,51621
14.62938,50566
14.63752,51631
14.64563,50543
14.65375,48793
14.66188,51495
14.67000,49329
14.67812,51286
14.68625,45926
14.69437,44231
14.70250,39710
14.71062,46634
14.71873,51021
14.72687,45575
14.73498,45990
14.74312,48726
14.75123,46571
14.75935,49162
14.76748,54584
14.77560,53732
14.78373,55699
14.79185,61302
14.79997,80249
14.80810,165532
14.81622,358854
14.82433,764662
14.83247,1311584
14.84058,1811371
14.84872,2037385
14.85683,1780058
14.86495,1333341
14.87308,872177
14.88120,545447
14.88933,363404
14.89745,267097
14.90557,211250
14.91370,177165
14.92182,152876
14.92995,145153
14.93807,126675
14.94618,117811
14.95432,112253
14.96243,110255
14.97055,101471
14.97868,95746
14.98680,96299
14.99493,89744
15.00305,84436
15.01117,86344
15.01930,80105
15.02742,81104
15.03555,80287
15.04367,76208
15.05178,72297
15.05992,76701
15.06803,68388
15.07615,71473
15.08428,66714
15.09240,63899
15.10053,66789
15.10865,62393
15.11677,57428
15.12490,60707
15.13302,61795
15.14115,64545
15.14927,66687
15.15738,70485
15.16552,67310
15.17363,59724
15.18177,59769
15.18988,55480
15.19800,48929
15.20613,46364
15.21425,44790
15.22237,45793
15.23050,46516
15.23862,46048
15.24675,40955
15.25487,39380
15.26298,42368
15.27112,45517
15.27923,40941
15.28737,41296
15.29548,39961
15.30360,37316
15.31173,45269
15.31985,38769
15.32798,39480
15.33610,38355
15.34422,39769
15.35235,38363
15.36047,38433
15.36858,38246
15.37672,36215
15.38483,41703
15.39297,42636
15.40108,40737
15.40920,38825
15.41733,35025
15.42545,39735
15.43358,38561
15.44170,38545
15.44982,38141
15.45795,35702
15.46607,36921
15.47418,38593
15.48232,41879
15.49043,50044
15.49857,56959
15.50668,69346
15.51480,75786
15.52293,81686
15.53105,88531
15.53918,90966
15.54730,106579
15.55542,114429
15.56355,122157
15.57167,117061
15.57980,99550
15.58792,77897
15.59603,69519
15.60417,57042
15.61228,49763
15.62040,48800
15.62853,45561
15.63665,40478
15.64478,42733
15.65290,39378
15.66102,39301
15.66915,40333
15.67727,40608
15.68540,38367
15.69352,37752
15.70163,36100
15.70977,36532
15.71788,36018
15.72602,38823
15.73413,37276
15.74225,36656
15.75038,40430
15.75850,48042
15.76662,61605
15.77475,85481
15.78287,129397
15.79100,184778
15.79912,228103
15.80723,226177
15.81537,199936
15.82348,156686
15.83162,113731
15.83973,89833
15.84785,70737
15.85598,58964
15.86410,56876
15.87222,55668
15.88035,55685
15.88847,47995
15.89660,49623
15.90472,49492
15.91283,46818
15.92097,41689
15.92908,44270
15.93722,46831
15.94533,46514
15.95345,57475
15.96158,81105
15.96970,113787
15.97783,155164
15.98595,190779
15.99407,209795
16.00220,200121
16.01032,171524
16.01843,133724
16.02657,116559
16.03468,106445
16.04282,96037
16.05093,92056
16.05905,82218
16.06718,78358
16.07530,69838
16.08343,63721
16.09155,55421
16.09967,56692
16.10780,53638
16.11592,52245
16.12403,53095
16.13217,51068
16.14028,53623
16.14842,53140
16.15653,54835
16.16465,52912
16.17278,58229
16.18090,49845
16.18903,48273
16.19715,49948
16.20527,45791
16.21340,48204
16.22152,45925
16.22965,49442
16.23777,45778
16.24588,45538
16.25402,43362
16.26213,43040
16.27025,41827
16.27838,44331
16.28650,44222
16.29463,45740
16.30275,44793
16.31087,47006
16.31900,47723
16.32712,44759
16.33525,43462
16.34337,47455
16.35148,58143
16.35962,84266
16.36773,112064
16.37587,150221
16.38398,188303
16.39210,213471
16.40023,205181
16.40835,168462
16.41647,134591
16.42460,100734
16.43272,80348
16.44085,70729
16.44897,70099
16.45708,78121
16.46522,97842
16.47333,159823
16.48147,219691
16.48958,295599
16.49770,323906
16.50583,299022
16.51395,232499
16.52207,166030
16.53020,116723
16.53832,92579
16.54645,79915
16.55457,73524
16.56268,58994
16.57082,62815
16.57893,63772
16.58707,63962
16.59518,75861
16.60330,73550
16.61143,88952
16.61955,96736
16.62768,107305
16.63580,103411
16.64392,93462
16.65205,87040
16.66017,77505
16.66828,63264
16.67642,56408
16.68453,53651
16.69267,48743
16.70078,48993
16.70890,48244
16.71703,49253
16.72515,46148
16.73328,45874
16.74140,42552
16.74952,43802
16.75765,46274
16.76577,45972
16.77390,49602
16.78202,45771
16.79013,45381
16.79827,42297
16.80638,42509
16.81450,48481
16.82263,43589
16.83075,39911
16.83888,38590
16.84700,40076
16.85512,36054
16.86325,37115
16.87137,39240
16.87950,41015
16.88762,42707
16.89573,36647
16.90387,35828
16.91198,36870
16.92010,36829
16.92823,35986
16.93635,37527
16.94448,35151
16.95260,36147
16.96072,35614
16.96885,35510
16.97697,36240
16.98510,33476
16.99322,37934
17.00133,34180
17.00947,37624
17.01758,41807
17.02572,39481
17.03383,36321
17.04195,38421
17.05008,39721
17.05820,47789
17.06632,43827
17.07445,50977
17.08257,43180
17.09070,43217
17.09882,39429
17.10693,38065
17.11507,39146
17.12318,39022
17.13132,39169
17.13943,38688
17.14755,40332
17.15568,40133
17.16380,38076
17.17192,36186
17.18005,41345
17.18817,38112
17.19630,38017
17.20442,34521
17.21253,39345
17.22067,38205
17.22878,36677
17.23692,36630
17.24503,39259
17.25315,36633
17.26128,36249
17.26940,33749
17.27753,36331
17.28565,34517
17.29377,33065
17.30190,33289
17.31002,33202
17.31813,35079
17.32627,43884
17.33438,45005
17.34252,55378
17.35063,55181
17.35875,57804
17.36688,59970
17.37500,55022
17.38313,50841
17.39125,50591
17.39937,46448
17.40750,48481
17.41562,46776
17.42375,46374
17.43187,44405
17.43998,44441
17.44812,45781
17.45623,44383
17.46435,37597
17.47248,45371
17.48060,42168
17.48873,40196
17.49685,39345
17.50497,40353
17.51310,39605
17.52122,39153
17.52935,38565
17.53747,34697
17.54558,38033
17.55372,43383
17.56183,48572
17.56997,60266
17.57808,95377
17.58620,155984
17.59433,258902
17.60245,407954
17.61057,570615
17.61870,699006
17.62682,693823
17.63495,605084
17.64307,463402
17.65118,354666
17.65932,293240
17.66743,267960
17.67557,261183
17.68368,248470
17.69180,233492
17.69993,189172
17.70805,152967
17.71617,127583
17.72430,105594
17.73242,97078
17.74055,89037
17.74867,78531
17.75678,73342
17.76492,71954
17.77303,69984
17.78117,67228
17.78928,75956
17.79740,98278
17.80553,151505
17.81365,282017
17.82178,479094
17.82990,739353
17.83802,906569
17.84615,956171
17.85427,842928
17.86238,639569
17.87052,448175
17.87863,318558
17.88677,233257
17.89488,191747
17.90300,163907
17.91113,142730
17.91925,131128
17.92738,115024
17.93550,112564
17.94362,101130
17.95175,95454
17.95987,93989
17.96798,89815
17.97612,88737
17.98423,86916
17.99237,77929
18.00048,81463
18.00860,77938
18.01673,81364
18.02485,79290
18.03298,83447
18.04110,92345
18.04922,96230
18.05735,116353
18.06547,181625
18.07360,369570
18.08172,737749
18.08983,1277009
18.09797,1868770
18.10608,2236879
18.11420,2150935
18.12233,1814775
18.13045,1339470
18.13858,962025
18.14670,728400
18.15482,566050
18.16295,476532
18.17107,417669
18.17920,361404
18.18732,336993
18.19543,305835
18.20357,288811
18.21168,283884
18.21982,317493
18.22793,377394
18.23605,446868
18.24418,494298
18.25230,510364
18.26042,527419
18.26855,523772
18.27667,501200
18.28480,490345
18.29292,470647
18.30103,469818
18.30917,445605
18.31728,444077
18.32542,421870
18.33353,426734
18.34165,420680
18.34978,418061
18.35790,406631
18.36602,389664
18.37415,395436
18.38227,401471
18.39040,386084
18.39852,384455
18.40663,377409
18.41477,385005
18.42288,378974
18.43102,375027
18.43913,378206
18.44725,369192
18.45538,388750
18.46350,418197
18.47163,471520
18.47975,540933
18.48787,558633
18.49600,586410
18.50412,563648
18.51223,519423
18.52037,455555
18.52848,420082
18.53662,389693
18.54473,355362
18.55285,338212
18.56098,328356
18.56910,321571
18.57723,309955
18.58535,311549
18.59347,306705
18.60160,301778
18.60972,292909
18.61785,289004
18.62597,290232
18.63408,290589
18.64222,280799
18.65033,277839
18.65845,278685
18.66658,265891
18.67470,269397
18.68283,268362
18.69095,260158
18.69907,245971
18.70720,244268
18.71532,243464
18.72345,245480
18.73157,241585
18.73968,233295
18.74782,229256
18.75593,230086
18.76405,224418
18.77218,224232
18.78030,224600
18.78843,224905
18.79655,221282
18.80467,218505
18.81280,216044
18.82092,211295
18.82905,215523
18.83717,209912
18.84528,202697
18.85342,208855
18.86153,202682
18.86967,198386
18.87778,202795
18.88590,197189
18.89403,195105
18.90215,193167
18.91027,195624
18.91840,191511
18.92652,190386
18.93465,197536
18.94277,200143
18.95088,189371
18.95902,196801
18.96713,198164
18.97527,188381
18.98338,189408
18.99150,175625
18.99963,180455
19.00775,176614
19.01587,174626
19.02400,178660
19.03212,172684
19.04025,167450
19.04837,165934
19.05648,163652
19.06462,166042
19.07273,165815
19.08087,174431
19.08898,195733
19.09710,211354
19.10523,234183
19.11335,252045
19.12148,252843
19.12960,244578
19.13772,226035
19.14585,209660
19.15397,200877
19.16208,182379
19.17022,177574
19.17833,169556
19.18647,167497
19.19458,154182
19.20270,156533
19.21083,155545
19.21895,148136
19.22708,144255
19.23520,143742
19.24332,141476
19.25145,141253
19.25957,137920
19.26770,139751
19.27582,135468
19.28393,145705
19.29207,148933
19.30018,149586
19.30830,160768
19.31643,149515
19.32455,150533
19.33268,143289
19.34080,151618
19.34892,135912
19.35705,150909
19.36517,168166
19.37330,187747
19.38142,206653
19.38953,223530
19.39767,208154
19.40578,188042
19.41390,166964
19.42203,149074
19.43015,137740
19.43828,131598
19.44640,124664
19.45452,123878
19.46265,121368
19.47077,129295
19.47890,145310
19.48702,163105
19.49513,196138
19.50327,225367
19.51138,249557
19.51952,233560
19.52763,213480
19.53575,180270
19.54388,155871
19.55200,134727
19.56012,121564
19.56825,119697
19.57637,120499
19.58450,113859
19.59262,105777
19.60073,110120
19.60887,103694
19.61698,104038
19.62512,105815
19.63323,103387
19.64135,105060
19.64948,120562
19.65760,140094
19.66573,165726
19.67385,189396
19.68197,214310
19.69010,228729
19.69822,223664
19.70633,212165
19.71447,196392
19.72258,182433
19.73072,171964
19.73883,147222
19.74695,143325
19.75508,134318
19.76320,124140
19.77133,117382
19.77945,121279
19.78757,113951
19.79570,117773
19.80382,120449
19.81193,123602
19.82007,113475
19.82818,116152
19.83632,111886
19.84443,113116
19.85255,124268
19.86068,186293
19.86880,420261
19.87693,949036
19.88505,2025294
19.89317,3616690
19.90130,5344427
19.90942,6563052
19.91755,6680828
19.92567,5890173
19.93378,4485350
19.94192,3075310
19.95003,2035889
19.95815,1459583
19.96628,1146451
19.97440,988653
19.98253,866722
19.99065,774043
19.99877,704802
20.00690,667563
20.01502,624525
20.02315,569880
20.03127,543196
20.03938,496119
20.04752,448627
20.05563,385388
20.06377,323306
20.07188,265986
20.08000,217938
20.08813,202349
20.09625,172981
20.10437,168899
20.11250,165615
20.12062,158524
20.12875,145669
20.13687,126112
20.14498,134334
20.15312,129143
20.16123,126482
20.16937,135375
20.17748,133899
20.18560,143312
20.19373,143717
20.20185,151688
20.20997,145475
20.21810,142227
20.22622,140982
20.23435,133424
20.24247,126401
20.25058,132791
20.25872,139368
20.26683,160149
20.27497,185219
20.28308,201432
20.29120,213161
20.29933,209795
20.30745,200198
20.31558,179040
20.32370,163794
20.33182,139812
20.33995,130406
20.34807,114479
20.35618,104957
20.36432,98309
20.37243,90243
20.38057,86525
20.38868,78306
20.39680,81533
20.40493,76888
20.41305,77758
20.42118,77534
20.42930,79450
20.43742,82239
20.44555,90629
20.45367,96272
20.46178,97958
20.46992,98802
20.47803,102512
20.48617,105187
20.49428,96505
20.50240,92460
20.51053,84654
20.51865,79839
20.52678,76887
20.53490,76640
20.54302,78453
20.55115,74847
20.55927,71059
20.56740,72225
20.57552,70167
20.58363,67748
20.59177,71580
20.59988,68389
20.60800,66370
20.61613,66744
20.62425,63410
20.63238,63568
20.64050,67970
20.64862,66862
20.65675,67296
20.66487,71375
20.67300,70831
20.68112,66783
20.68923,64065
20.69737,70026
20.70548,63021
20.71362,58931
20.72173,57693
20.72985,60577
20.73798,62055
20.74610,64079
20.75422,63201
20.76235,64789
20.77047,65892
20.77860,69611
20.78672,72482
20.79483,90244
20.80297,111171
20.81108,152408
20.81922,196092
20.82733,221408
20.83545,225218
20.84358,191479
20.85170,155698
20.85982,125395
20.86795,101215
20.87607,79774
20.88420,71501
20.89232,70362
20.90043,69210
20.90857,63712
20.91668,64824
20.92482,69253
20.93293,70053
20.94105,62890
20.94918,64688
20.95730,65899
20.96543,61772
20.97355,60728
20.98167,60081
20.98980,61591
20.99792,55860
21.00603,58172
21.01417,55176
21.02228,60571
21.03042,60196
21.03853,57623
21.04665,64135
21.05478,62107
21.06290,62493
21.07103,59069
21.07915,59460
21.08727,58019
21.09540,66852
21.10352,61059
21.11165,61550
21.11977,56010
21.12788,52527
21.13602,57115
21.14413,59500
21.15225,65595
21.16038,75150
21.16850,78000
21.17663,82834
21.18475,73199
21.19287,78287
21.20100,67504
21.20912,62685
21.21725,63680
21.22537,60422
21.23348,59724
21.24162,58936
21.24973,58504
21.25785,53807
21.26598,59863
21.27410,56938
21.28223,54608
21.29035,55667
21.29847,53898
21.30660,55085
21.31472,53088
21.32285,53641
21.33097,53485
21.33908,50565
21.34722,50857
21.35533,49727
21.36347,55383
21.37158,58969
21.37970,56742
21.38783,62357
21.39595,65810
21.40407,76268
21.41220,78636
21.42032,88588
21.42845,84592
21.43657,83035
21.44468,76021
21.45282,67032
21.46093,64026
21.46907,67377
21.47718,59305
21.48530,63946
21.49343,59287
21.50155,57253
21.50967,53084
21.51780,54620
21.52592,54427
21.53405,54393
21.54217,53586
21.55028,48597
21.55842,52429
21.56653,55854
21.57467,56676
21.58278,58097
21.59090,63606
21.59903,66134
21.60715,68131
21.61528,69703
21.62340,77062
21.63152,72656
21.63965,74013
21.64777,73939
21.65588,81162
21.66402,83903
21.67213,83997
21.68027,80962
21.68838,75969
21.69650,78719
21.70463,78361
21.71275,70662
21.72088,66397
21.72900,63634
21.73712,64311
21.74525,62396
21.75337,59106
21.76150,59535
21.76962,58274
21.77773,58172
21.78587,61243
21.79398,58536
21.80210,59408
21.81023,66394
21.81835,65541
21.82648,62520
21.83460,70448
21.84272,69519
21.85085,67403
21.85897,65559
21.86710,62859
21.87522,60679
21.88333,58425
21.89147,56528
21.89958,50195
21.90770,56912
21.91583,54202
21.92395,54110
21.93208,54157
21.94020,47719
21.94832,49429
21.95645,47767
21.96457,45280
21.97270,48657
21.98082,47027
21.98893,44772
21.99707,41215
22.00518,44232
22.01332,44123
22.02143,44236
22.02955,49674
22.03768,47726
22.04580,46053
22.05392,46993
22.06205,44197
22.07017,44617
22.07830,45699
22.08642,46088
22.09453,46492
22.10267,40977
22.11078,45324
22.11892,45066
22.12703,43211
22.13515,46852
22.14328,45675
22.15140,46844
22.15953,45188
22.16765,48710
22.17577,49866
22.18390,45397
22.19202,49592
22.20013,41826
22.20827,43398
22.21638,38865
22.22452,46734
22.23263,45102
22.24075,45103
22.24888,46310
22.25700,45824
22.26513,44446
22.27325,42939
22.28137,46422
22.28950,47063
22.29762,47865
22.30573,50590
22.31387,52455
22.32198,53372
22.33012,52860
22.33823,54029
22.34635,48133
22.35448,52853
22.36260,50454
22.37073,48851
22.37885,52173
22.38697,48019
22.39510,55046
22.40322,61376
22.41135,79341
22.41947,90551
22.42758,94712
22.43572,92602
22.44383,90309
22.45195,83656
22.46008,72336
22.46820,62790
22.47633,67392
22.48445,69141
22.49257,78478
22.50070,82907
22.50882,82709
22.51695,91319
22.52507,82856
22.53318,84810
22.54132,70628
22.54943,64637
22.55755,63490
22.56568,69625
22.57380,64862
22.58193,53721
22.59005,55647
22.59817,56988
22.60630,51051
22.61442,49299
22.62255,49792
22.63067,52046
22.63878,48768
22.64692,47982
22.65503,49818
22.66317,48845
22.67128,52454
22.67940,53582
22.68753,57538
22.69565,55535
22.70377,56757
22.71190,63322
22.72002,68686
22.72815,71984
22.73627,69534
22.74438,59704
22.75252,57923
22.76063,56469
22.76877,56129
22.77688,57129
22.78500,54775
22.79313,62807
22.80125,74216
22.80938,86332
22.81750,89738
22.82562,92950
22.83375,83627
22.84187,75650
22.84998,68542
22.85812,60369
22.86623,58437
22.87437,64018
22.88248,64957
22.89060,70446
22.89873,76178
22.90685,90351
22.91498,123293
22.92310,143751
22.93122,162706
22.93935,171662
22.94747,154792
22.95560,135533
22.96372,109066
22.97183,86534
22.97997,75719
22.98808,69310
22.99620,65589
23.00433,60605
23.01245,57043
23.02058,54988
23.02870,51884
23.03682,52677
23.04495,47821
23.05307,52300
23.06120,59252
23.06932,54710
23.07743,61595
23.08557,61342
23.09368,65461
23.10180,60396
23.10993,60686
23.11805,62036
23.12618,63142
23.13430,65577
23.14242,63157
23.15055,67976
23.15867,65560
23.16680,65687
23.17492,61182
23.18303,65346
23.19117,60738
23.19928,62627
23.20742,62885
23.21553,65855
23.22365,60593
23.23178,65864
23.23990,64321
23.24802,64987
23.25615,67644
23.26427,72330
23.27240,78733
23.28052,75659
23.28863,70488
23.29677,69475
23.30488,66889
23.31302,65229
23.32113,67564
23.32925,72327
23.33738,79087
23.34550,96534
23.35362,122536
23.36175,177352
23.36987,260253
23.37800,369914
23.38612,511524
23.39423,663144
23.40237,824244
23.41048,933790
23.41862,983070
23.42673,1015730
23.43485,1037667
23.44298,1002382
23.45110,956402
23.45923,916570
23.46735,861738
23.47547,779164
23.48360,710885
23.49172,663349
23.49983,596610
23.50797,543617
23.51608,500419
23.52422,462868
23.53233,431170
23.54045,395097
23.54858,373979
23.55670,344872
23.56483,320988
23.57295,313914
23.58107,307018
23.58920,307151
23.59732,307057
23.60545,315836
23.61357,303961
23.62168,286358
23.62982,273492
23.63793,253094
23.64605,236154
23.65418,243344
23.66230,245598
23.67043,247056
23.67855,244060
23.68667,231616
23.69480,210986
23.70292,196585
23.71105,170754
23.71917,158754
23.72728,147062
23.73542,146808
23.74353,151991
23.75165,168997
23.75978,227485
23.76790,376051
23.77603,643610
23.78415,993278
23.79227,1383312
23.80040,1599090
23.80852,1689197
23.81665,1579318
23.82477,1307679
23.83288,1062496
23.84102,841160
23.84913,665161
23.85727,533916
23.86538,449380
23.87350,401699
23.88163,340372
23.88975,307565
23.89787,288377
23.90600,270549
23.91412,246975
23.92225,240980
23.93037,229884
23.93848,207621
23.94662,193372
23.95473,190803
23.96287,174359
23.97098,169538
23.97910,159822
23.98723,150183
23.99535,157973
24.00348,183171
24.01160,248772
24.01972,382741
24.02785,572098
24.03597,791606
24.04408,866156
24.05222,807672
24.06033,648569
24.06847,435025
24.07658,290751
24.08470,211569
24.09283,162824
24.10095,148778
24.10908,133855
24.11720,127280
24.12532,113351
24.13345,112126
24.14157,117253
24.14968,109542
24.15782,113450
24.16593,109553
24.17407,108390
24.18218,107496
24.19030,105480
24.19843,104435
24.20655,104061
24.21468,104828
24.22280,100514
24.23092,95895
24.23905,91690
24.24717,89756
24.25530,85838
24.26342,89092
24.27153,80979
24.27967,84037
24.28778,79241
24.29590,78825
24.30403,84936
24.31215,77514
24.32028,76021
24.32840,74025
24.33652,76554
24.34465,75142
24.35277,76313
24.36090,79549
24.36902,84917
24.37713,91961
24.38527,109915
24.39338,117386
24.40150,123358
24.40963,118036
24.41775,100084
24.42588,87509
24.43400,74895
24.44212,73940
24.45025,71374
24.45837,75872
24.46650,91599
24.47462,107081
24.48273,134898
24.49087,148320
24.49898,163735
24.50712,168246
24.51523,168176
24.52335,167490
24.53148,170892
24.53960,175051
24.54772,183606
24.55585,191141
24.56397,197697
24.57210,194887
24.58022,185190
24.58833,183539
24.59647,165865
24.60458,155811
24.61272,155843
24.62083,154762
24.62895,150442
24.63708,152448
24.64520,143306
24.65333,148211
24.66145,148357
24.66957,145762
24.67770,142867
24.68582,143784
24.69393,139760
24.70207,143684
24.71018,145351
24.71832,143242
24.72643,148879
24.73455,139938
24.74268,144011
24.75080,141645
24.75893,146916
24.76705,142673
24.77517,143236
24.78330,145423
24.79142,149263
24.79953,145831
24.80767,152645
24.81578,154383
24.82392,160175
24.83203,165419
24.84015,172877
24.84828,194760
24.85640,226461
24.86453,276020
24.87265,345271
24.88077,432483
24.88890,515479
24.89702,580752
24.90515,571670
24.91327,519707
24.92138,428082
24.92952,339262
24.93763,274109
24.94575,218030
24.95388,185736
24.96200,179023
24.97013,162445
24.97825,154608
24.98637,154014
24.99450,143459
25.00262,147153
25.01075,139747
25.01887,143644
25.02698,136241
25.03512,133731
25.04323,128771
25.05137,132018
25.05948,123275
25.06760,132709
25.07573,126009
25.08385,128578
25.09197,133003
25.10010,158978
25.10822,208670
25.11635,363613
25.12447,649145
25.13258,1077534
25.14072,1614450
25.14883,2040521
25.15697,2153828
25.16508,1935355
25.17320,1514649
25.18133,998523
25.18945,641722
25.19757,391563
25.20570,253598
25.21382,181606
25.22195,142713
25.23007,125796
25.23818,127620
25.24632,138222
25.25443,152765
25.26257,188674
25.27068,218060
25.27880,230438
25.28693,231988
25.29505,212681
25.30318,177079
25.31130,149207
25.31942,126676
25.32755,102416
25.33567,95594
25.34378,84353
25.35192,80650
25.36003,73238
25.36817,75418
25.37628,75828
25.38440,68638
25.39253,65901
25.40065,66296
25.40878,64465
25.41690,64979
25.42502,63461
25.43315,60705
25.44127,64859
25.44938,57220
25.45752,61710
25.46563,60969
25.47377,67757
25.48188,60236
25.49000,64162
25.49813,63790
25.50625,57400
25.51438,58495
25.52250,58701
25.53062,59321
25.53875,54394
25.54687,57575
25.55500,54088
25.56312,54871
25.57123,57284
25.57937,55276
25.58748,64805
25.59560,69515
25.60373,77881
25.61185,93601
25.61998,121141
25.62810,136771
25.63622,145713
25.64435,157380
25.65247,153243
25.66060,162324
25.66872,162473
25.67683,164670
25.68497,174301
25.69308,172673
25.70122,174887
25.70933,182636
25.71745,179209
25.72558,180319
25.73370,176289
25.74182,173763
25.74995,178942
25.75807,173806
25.76620,178502
25.77432,179910
25.78243,181711
25.79057,181858
25.79868,180888
25.80682,176557
25.81493,188305
25.82305,189006
25.83118,189899
25.83930,192688
25.84742,206971
25.85555,207577
25.86367,204217
25.87180,207074
25.87992,187050
25.88803,173933
25.89617,168156
25.90428,159491
25.91242,152221
25.92053,168435
25.92865,156415
25.93678,154169
25.94490,151159
25.95303,149586
25.96115,140292
25.96927,142378
25.97740,146929
25.98552,139382
25.99363,137772
26.00177,138964
26.00988,132161
26.01802,135943
26.02613,128068
26.03425,126573
26.04238,130151
26.05050,136243
26.05863,134105
26.06675,129575
26.07487,124723
26.08300,128792
26.09112,123300
26.09925,121675
26.10737,118914
26.11548,124090
26.12362,123179
26.13173,115402
26.13985,124174
26.14798,120373
26.15610,122455
26.16423,123448
26.17235,121268
26.18047,118701
26.18860,116048
26.19672,111482
26.20485,112603
26.21297,107432
26.22108,103443
26.22922,107539
26.23733,105496
26.24545,102742
26.25358,102890
26.26170,103662
26.26983,102462
26.27795,95230
26.28607,97202
26.29420,89863
26.30232,93991
26.31045,92666
26.31857,88419
26.32668,90313
26.33482,93293
26.34293,85356
26.35107,84122
26.35918,86633
26.36730,87500
26.37543,88224
26.38355,87278
26.39167,88987
26.39980,89853
26.40792,89289
26.41605,86610
26.42417,90599
26.43228,81115
26.44042,80815
26.44853,81237
26.45667,83439
26.46478,84522
26.47290,80799
26.48103,81580
26.48915,83430
26.49728,77080
26.50540,78975
26.51352,78875
26.52165,77946
26.52977,74227
26.53788,71006
26.54602,70390
26.55413,72699
26.56227,73446
26.57038,74703
26.57850,70022
26.58663,65062
26.59475,69902
26.60288,63351
26.61100,63672
26.61912,64276
26.62725,66255
26.63537,66614
26.64348,64517
26.65162,65563
26.65973,69697
26.66787,73016
26.67598,70959
26.68410,71174
26.69223,75072
26.70035,69171
26.70848,66711
26.71660,63116
26.72472,63780
26.73285,63803
26.74097,60011
26.74910,59185
26.75722,61500
26.76533,59971
26.77347,62860
26.78158,62820
26.78970,64896
26.79783,67030
26.80595,66845
26.81408,67084
26.82220,66807
26.83032,62749
26.83845,61836
26.84657,59983
26.85470,59416
26.86282,57093
26.87093,56906
26.87907,52074
26.88718,55184
26.89530,55163
26.90343,57558
26.91155,53040
26.91968,50782
26.92780,52388
26.93592,51695
26.94405,52690
26.95217,54653
26.96030,56793
26.96842,61604
26.97653,66547
26.98467,79777
26.99278,93994
27.00092,126196
27.00903,155626
27.01715,191506
27.02528,223778
27.03340,243582
27.04152,248738
27.04965,230637
27.05777,205563
27.06590,187538
27.07402,163929
27.08213,146776
27.09027,122959
27.09838,120841
27.10652,109732
27.11463,106253
27.12275,105994
27.13088,96941
27.13900,97585
27.14713,94301
27.15525,91224
27.16337,88080
27.17150,84474
27.17962,84722
27.18773,78256
27.19587,90532
27.20398,77060
27.21212,78684
27.22023,76749
27.22835,77679
27.23648,73743
27.24460,74129
27.25273,77443
27.26085,74077
27.26897,70788
27.27710,63834
27.28522,70942
27.29333,63261
27.30147,63028
27.30958,62808
27.31772,62498
27.32583,58804
27.33395,59157
27.34208,61274
27.35020,66329
27.35833,55456
27.36645,55708
27.37457,56461
27.38270,56393
27.39082,58772
27.39895,55201
27.40707,54060
27.41518,54013
27.42332,55860
27.43143,50826
27.43955,54785
27.44768,50345
27.45580,49530
27.46393,50173
27.47205,49470
27.48017,52969
27.48830,53111
27.49642,49951
27.50455,50917
27.51267,52472
27.52078,54592
27.52892,54285
27.53703,55762
27.54517,56388
27.55328,55692
27.56140,52327
27.56953,53974
27.57765,56206
27.58577,59926
27.59390,65297
27.60202,67278
27.61015,68876
27.61827,65514
27.62638,58962
27.63452,53348
27.64263,55401
27.65077,53884
27.65888,50972
27.66700,55388
27.67513,50321
27.68325,50029
27.69137,59179
27.69950,49901
27.70762,52336
27.71575,49488
27.72387,46313
27.73198,44816
27.74012,48020
27.74823,48766
27.75637,43609
27.76448,45477
27.77260,48051
27.78073,47947
27.78885,45657
27.79698,44482
27.80510,49005
27.81322,51625
27.82135,46839
27.82947,45676
27.83758,48972
27.84572,52016
27.85383,43804
27.86197,46772
27.87008,52565
27.87820,43603
27.88633,40378
27.89445,45655
27.90258,42424
27.91070,45304
27.91882,46281
27.92695,44229
27.93507,41216
27.94318,42463
27.95132,42715
27.95943,38817
27.96757,40646
27.97568,41854
27.98380,40916
27.99193,43712
28.00005,43495
28.00818,44184
28.01630,45923
28.02442,47824
28.03255,47756
28.04067,53402
28.04880,59298
28.05692,63813
28.06503,57385
28.07317,59042
28.08128,55632
28.08940,56588
28.09753,54307
28.10565,52460
28.11378,56324
28.12190,48284
28.13002,43819
28.13815,44917
28.14627,44871
28.15440,45402
28.16252,42881
28.17063,43134
28.17877,42886
28.18688,48321
28.19502,54328
28.20313,61786
28.21125,66262
28.21938,72051
28.22750,69473
28.23562,72860
28.24375,65691
28.25187,60308
28.26000,56554
28.26812,50527
28.27623,47094
28.28437,42117
28.29248,46846
28.30062,44122
28.30873,48673
28.31685,52062
28.32498,56643
28.33310,60550
28.34123,71465
28.34935,63878
28.35747,74287
28.36560,72750
28.37372,80225
28.38183,79157
28.38997,87200
28.39808,85968
28.40622,93168
28.41433,91242
28.42245,87783
28.43058,83846
28.43870,75901
28.44683,78932
28.45495,74199
28.46307,68353
28.47120,69573
28.47932,68902
28.48743,60767
28.49557,63456
28.50368,56684
28.51182,59782
28.51993,58447
28.52805,58635
28.53618,55887
28.54430,53510
28.55243,55019
28.56055,54044
28.56867,53189
28.57680,52749
28.58492,52275
28.59305,50815
28.60117,51869
28.60928,47671
28.61742,50036
28.62553,46210
28.63365,50709
28.64178,51300
28.64990,54929
28.65803,56816
28.66615,52641
28.67427,51686
28.68240,53603
28.69052,55575
28.69865,53689
28.70677,48295
28.71488,50079
28.72302,49037
28.73113,52621
28.73925,54155
28.74738,58210
28.75550,61215
28.76363,62522
28.77175,72024
28.77987,61852
28.78800,56348
28.79612,53454
28.80425,54615
28.81237,54816
28.82048,53445
28.82862,50097
28.83673,48754
28.84487,46408
28.85298,48663
28.86110,50750
28.86923,51973
28.87735,50387
28.88547,55722
28.89360,62578
28.90172,65016
28.90985,62761
28.91797,58632
28.92608,57025
28.93422,55179
28.94233,49110
28.95047,52587
28.95858,46364
28.96670,51348
28.97483,51104
28.98295,50214
28.99108,43032
28.99920,44276
29.00732,43338
29.01545,45051
29.02357,40377
29.03168,42470
29.03982,41809
29.04793,42076
29.05607,44398
29.06418,44878
29.07230,43067
29.08043,46023
29.08855,45151
29.09668,46695
29.10480,43463
29.11292,47234
29.12105,43961
29.12917,44518
29.13728,44231
29.14542,40234
29.15353,44911
29.16167,41155
29.16978,42477
29.17790,48701
29.18603,52448
29.19415,57055
29.20228,64507
29.21040,76622
29.21852,82860
29.22665,89101
29.23477,81247
29.24290,80416
29.25102,81559
29.25913,80897
29.26727,84367
29.27538,90837
29.28350,93513
29.29163,76142
29.29975,64660
29.30788,59842
29.31600,52895
29.32412,47825
29.33225,43547
29.34037,47177
29.34850,38522
29.35662,42597
29.36473,38508
29.37287,43757
29.38098,40339
29.38912,40297
29.39723,39675
29.40535,39790
29.41348,42389
29.42160,39721
29.42972,44262
29.43785,41462
29.44597,44717
29.45410,43091
29.46222,41777
29.47033,45320
29.47847,41497
29.48658,45145
29.49472,43369
29.50283,42983
29.51095,41330
29.51908,43976
29.52720,46792
29.53532,41639
29.54345,42135
29.55157,44242
29.55970,41975
29.56782,40260
29.57593,37442
29.58407,37099
29.59218,36785
29.60032,38249
29.60843,36339
29.61655,37309
29.62468,39357
29.63280,37036
29.64093,40927
29.64905,39297
29.65717,39341
29.66530,42452
29.67342,37655
29.68153,39892
29.68967,45294
29.69778,45344
29.70592,43892
29.71403,46507
29.72215,38266
29.73028,40206
29.73840,38541
29.74653,38201
29.75465,42580
29.76277,41449
29.77090,40305
29.77902,39130
29.78713,34872
29.79527,36872
29.80338,35185
29.81152,40689
29.81963,37551
29.82775,38675
29.83588,37846
29.84400,39028
29.85213,36647
29.86025,39575
29.86837,42098
29.87650,50002
29.88462,55169
29.89275,61729
29.90087,71463
29.90898,71321
29.91712,74127
29.92523,64397
29.93335,55775
29.94148,52295
29.94960,46863
29.95773,45078
29.96585,43456
29.97397,46211
29.98210,49440
29.99022,52149
29.99835,54775
30.00647,53900
30.01458,53742
30.02272,59284
30.03083,63100
30.03897,62827
30.04708,60951
30.05520,60886
30.06333,61997
30.07145,62911
30.07957,62810
30.08770,59922
30.09582,61518
30.10395,65373
30.11207,59801
30.12018,59886
30.12832,57566
30.13643,52003
30.14457,56928
30.15268,52713
30.16080,54631
30.16893,52723
30.17705,52860
30.18517,54627
30.19330,55018
30.20142,50790
30.20955,46464
30.21767,53473
30.22578,47685
30.23392,46833
30.24203,50753
30.25017,50261
30.25828,44247
30.26640,44992
30.27453,43625
30.28265,45982
30.29078,45496
30.29890,43884
30.30702,48313
30.31515,47307
30.32327,46625
30.33138,45241
30.33952,42878
30.34763,42858
30.35577,49230
30.36388,43686
30.37200,40878
30.38013,44450
30.38825,41619
30.39638,42777
30.40450,39848
30.41262,38441
30.42075,37314
30.42887,38757
30.43700,39197
30.44512,38165
30.45323,36824
30.46137,36321
30.46948,39645
30.47760,41334
30.48573,39865
30.49385,36306
30.50198,39327
30.51010,37932
30.51822,38290
30.52635,35646
30.53447,38595
30.54260,36231
30.55072,37938
30.55883,36253
30.56697,37938
30.57508,37845
30.58320,38803
30.59133,38143
30.59945,37832
30.60758,37116
30.61570,40963
30.62382,38834
30.63195,37713
30.64007,38664
30.64820,38719
30.65632,37503
30.66443,34649
30.67257,35927
30.68068,37594
30.68882,34396
30.69693,35925
30.70505,35368
30.71318,35706
30.72130,37577
30.72942,39467
30.73755,48962
30.74567,54335
30.75380,57045
30.76192,63729
30.77003,66110
30.77817,76439
30.78628,79760
30.79442,97332
30.80253,109871
30.81065,124665
30.81878,123271
30.82690,115610
30.83503,114982
30.84315,103185
30.85127,90036
30.85940,88515
30.86752,89732
30.87563,79546
30.88377,84515
30.89188,78984
30.90002,81540
30.90813,76784
30.91625,81329
30.92438,80011
30.93250,80709
30.94063,81201
30.94875,83606
30.95687,80395
30.96500,83471
30.97312,83644
30.98123,81777
30.98937,78629
30.99748,79246
31.00562,83297
31.01373,83504
31.02185,78504
31.02998,81803
31.03810,84589
31.04623,81869
31.05435,83482
31.06247,89981
31.07060,81575
31.07872,83232
31.08685,89134
31.09497,94917
31.10308,95277
31.11122,96574
31.11933,91848
31.12745,87568
31.13558,93269
31.14370,87734
31.15183,84072
31.15995,85423
31.16807,87869
31.17620,83507
31.18432,94168
31.19245,108954
31.20057,140882
31.20868,175357
31.21682,212203
31.22493,244864
31.23305,244379
31.24118,226709
31.24930,202241
31.25743,160047
31.26555,120043
31.27367,98041
31.28180,89370
31.28992,74540
31.29805,72991
31.30617,73366
31.31428,73604
31.32242,82609
31.33053,68098
31.33867,72898
31.34678,69608
31.35490,70512
31.36303,69048
31.37115,73967
31.37927,72096
31.38740,73479
31.39552,70209
31.40365,67200
31.41177,70326
31.41988,67859
31.42802,66921
31.43613,68825
31.44427,63258
31.45238,64504
31.46050,62890
31.46863,58631
31.47675,59137
31.48488,62438
31.49300,60138
31.50112,64566
31.50925,60126
31.51737,62854
31.52548,60832
31.53362,60064
31.54173,59140
31.54987,60888
31.55798,55339
31.56610,58666
31.57423,62089
31.58235,60474
31.59048,57489
31.59860,59846
31.60672,61443
31.61485,55237
31.62297,59071
31.63108,54645
31.63922,57366
31.64733,56569
31.65547,57666
31.66358,54392
31.67170,62932
31.67983,60872
31.68795,60317
31.69608,60864
31.70420,55278
31.71232,55610
31.72045,55256
31.72857,51857
31.73670,52961
31.74482,51042
31.75293,52537
31.76107,49617
31.76918,49240
31.77730,56290
31.78543,50539
31.79355,52853
31.80168,50250
31.80980,51080
31.81792,54307
31.82605,50775
31.83417,51604
31.84230,51058
31.85042,50441
31.85853,50152
31.86667,53333
31.87478,51290
31.88292,56522
31.89103,57610
31.89915,60965
31.90728,65119
31.91540,72492
31.92352,68476
31.93165,68168
31.93977,72585
31.94790,67241
31.95602,70441
31.96413,71055
31.97227,72836
31.98038,74087
31.98852,68766
31.99663,73436
32.00475,72261
32.01288,71575
32.02100,69660
32.02912,69342
32.03725,64041
32.04537,65337
32.05350,62885
32.06162,66687
32.06973,62506
32.07787,62760
32.08598,56313
32.09412,58171
32.10223,58455
32.11035,59787
32.11848,57282
32.12660,52665
32.13473,53561
32.14285,52109
32.15097,51509
32.15910,51441
32.16722,45377
32.17533,50165
32.18347,51811
32.19158,50497
32.19972,49387
32.20783,49062
32.21595,51350
32.22408,49423
32.23220,47813
32.24033,49488
32.24845,49088
32.25657,52661
32.26470,55999
32.27282,51881
32.28093,51346
32.28907,50512
32.29718,48033
32.30532,49368
32.31343,45787
32.32155,47162
32.32968,47027
32.33780,53463
32.34593,45116
32.35405,47595
32.36217,46870
32.37030,44504
32.37842,43034
32.38655,44197
32.39467,47448
32.40278,41551
32.41092,43840
32.41903,45505
32.42715,45043
32.43528,45414
32.44340,48527
32.45153,42347
32.45965,45731
32.46777,43296
32.47590,43099
32.48402,46972
32.49215,41368
32.50027,41292
32.50838,44524
32.51652,43910
32.52463,43788
32.53277,47656
32.54088,43662
32.54900,43024
32.55713,40301
32.56525,43410
32.57337,40101
32.58150,41906
32.58962,39469
32.59775,40804
32.60587,41623
32.61398,42462
32.62212,42812
32.63023,46064
32.63837,49771
32.64648,52967
32.65460,54528
32.66273,56040
32.67085,50904
32.67897,51390
32.68710,48617
32.69522,47745
32.70335,50520
32.71147,47353
32.71958,50361
32.72772,45240
32.73583,45602
32.74397,44808
32.75208,45398
32.76020,45092
32.76833,44374
32.77645,43931
32.78458,39743
32.79270,38783
32.80082,45682
32.80895,39399
32.81707,41627
32.82518,44556
32.83332,42905
32.84143,44192
32.84957,39861
32.85768,42902
32.86580,41679
32.87393,41736
32.88205,46776
32.89018,44281
32.89830,45928
32.90642,43498
32.91455,45233
32.92267,50595
32.93080,45638
32.93892,43719
32.94703,48123
32.95517,42602
32.96328,43693
32.97140,43446
32.97953,45621
32.98765,49277
32.99578,54131
33.00390,54907
33.01202,59966
33.02015,58390
33.02827,56881
33.03640,55142
33.04452,51544
33.05263,51771
33.06077,48824
33.06888,45130
33.07700,46368
33.08513,50550
33.09325,53822
33.10138,55142
33.10950,58147
33.11762,55638
33.12575,59519
33.13387,59680
33.14200,56109
33.15012,54585
33.15823,49482
33.16637,48587
33.17448,44651
33.18262,50416
33.19073,45175
33.19885,43899
33.20698,44378
33.21510,41750
33.22322,46412
33.23135,43381
33.23947,41861
33.24760,44362
33.25572,42628
33.26383,41785
33.27197,39822
33.28008,42428
33.28822,41117
33.29633,43684
33.30445,43906
33.31258,41658
33.32070,44210
33.32882,39923
33.33695,43189
33.34507,39754
33.35320,42616
33.36132,45643
33.36943,46601
33.37757,45904
33.38568,45005
33.39382,47541
33.40193,41352
33.41005,39770
33.41818,42296
33.42630,42123
33.43443,43293
33.44255,43562
33.45067,38007
33.45880,42100
33.46692,43584
33.47503,44257
33.48317,39418
33.49128,41412
33.49942,42974
33.50753,38778
33.51565,40817
33.52378,37797
33.53190,44742
33.54003,46732
33.54815,48803
33.55627,45977
33.56440,48052
33.57252,50065
33.58065,47594
33.58877,45987
33.59688,43140
33.60502,41776
33.61313,42052
33.62125,40793
33.62938,41236
33.63750,45996
33.64563,47538
33.65375,47943
33.66187,43043
33.67000,45708
33.67812,49177
33.68625,46628
33.69437,43009
33.70248,38271
33.71062,38422
33.71873,42294
33.72687,41944
33.73498,39546
33.74310,42034
33.75123,43077
33.75935,42818
33.76747,42021
33.77560,41871
33.78372,42080
33.79185,39760
33.79997,38843
33.80808,46715
33.81622,40622
33.82433,39895
33.83247,41696
33.84058,40871
33.84870,44609
33.85683,43328
33.86495,43932
33.87307,42080
33.88120,43117
33.88932,42927
33.89745,45433
33.90557,44857
33.91368,47163
33.92182,45562
33.92993,43980
33.93807,42678
33.94618,44856
33.95430,45805
33.96243,45271
33.97055,46916
33.97868,44235
33.98680,49655
33.99492,50707
34.00305,45620
34.01117,48014
34.01928,49863
34.02742,46510
34.03553,50791
34.04367,53884
34.05178,54633
34.05990,57750
34.06803,57646
34.07615,50377
34.08428,54367
34.09240,56606
34.10052,57962
34.10865,59133
34.11677,59568
34.12488,58393
34.13302,59695
34.14113,57058
34.14927,61522
34.15738,58775
34.16550,58670
34.17363,61196
34.18175,54320
34.18988,60600
34.19800,55137
34.20612,56705
34.21425,56446
34.22237,56756
34.23050,58220
34.23862,59635
34.24673,58044
34.25487,53599
34.26298,52921
34.27110,53276
34.27923,56042
34.28735,47957
34.29548,52138
34.30360,47314
34.31172,52089
34.31985,50653
34.32797,48216
34.33610,54245
34.34422,52807
34.35233,51786
34.36047,50471
34.36858,50180
34.37672,50677
34.38483,47073
34.39295,53375
34.40108,48454
34.40920,43961
34.41732,46879
34.42545,48994
34.43357,46363
34.44170,46517
34.44982,49242
34.45793,47097
34.46607,48715
34.47418,46027
34.48232,50773
34.49043,46014
34.49855,48777
34.50668,54500
34.51480,53226
34.52292,54828
34.53105,59674
34.53917,65474
34.54730,71032
34.55542,63615
34.56353,69181
34.57167,64061
34.57978,63744
34.58792,61438
34.59603,62631
34.60415,56147
34.61228,54744
34.62040,55323
34.62853,54974
34.63665,54488
34.64477,54016
34.65290,54275
34.66102,50344
34.66913,48511
34.67727,51955
34.68538,52787
34.69352,50642
34.70163,51485
34.70975,52620
34.71788,50293
34.72600,50475
34.73413,45806
34.74225,46547
34.75037,49030
34.75850,53544
34.76662,50107
34.77475,51550
34.78287,48665
34.79098,58300
34.79912,53146
34.80723,48731
34.81535,49976
34.82348,53783
34.83160,54759
34.83973,57093
34.84785,54557
34.85597,57185
34.86410,54603
34.87222,58725
34.88035,52980
34.88847,54656
34.89658,58197
34.90472,55454
34.91283,58279
34.92095,55059
34.92908,59731
34.93720,61500
34.94533,59177
34.95345,57306
34.96157,61692
34.96970,63821
34.97782,65440
34.98595,59664
34.99407,56045
35.00218,54490
35.01032,56842
35.01843,52393
35.02657,50628
35.03468,50451
35.04280,50857
35.05093,48825
35.05905,47187
35.06717,45264
35.07530,43864
35.08342,48233
35.09155,50567
35.09967,52825
35.10778,47520
35.11592,50367
35.12403,48700
35.13217,49626
35.14028,51047
35.14840,50878
35.15653,52473
35.16465,49250
35.17277,48570
35.18090,50258
35.18902,47036
35.19715,44296
35.20527,43100
35.21338,45423
35.22152,45462
35.22963,45873
35.23777,46739
35.24588,43665
35.25400,47099
35.26213,44721
35.27025,47497
35.27838,46911
35.28650,48596
35.29462,44911
35.30275,45450
35.31087,48094
35.31898,46510
35.32712,46692
35.33523,46218
35.34337,51571
35.35148,45387
35.35960,46979
35.36773,49217
35.37585,48565
35.38398,50131
35.39210,49334
35.40022,45329
35.40835,48352
35.41647,46389
35.42460,53266
35.43272,49328
35.44083,49908
35.44897,52026
35.45708,50020
35.46520,46370
35.47333,51024
35.48145,50642
35.48958,48398
35.49770,48740
35.50582,46867
35.51395,42549
35.52207,45044
35.53020,48754
35.53832,48582
35.54643,47307
35.55457,44727
35.56268,46482
35.57080,47137
35.57893,45555
35.58705,44810
35.59518,45608
35.60330,44667
35.61142,44678
35.61955,46805
35.62767,51110
35.63580,48683
35.64392,47919
35.65203,47254
35.66017,49842
35.66828,47632
35.67642,48888
35.68453,49175
35.69265,51757
35.70078,46649
35.70890,50840
35.71702,47237
35.72515,44006
35.73327,47852
35.74140,50154
35.74952,48376
35.75763,54093
35.76577,51430
35.77388,50814
35.78202,51421
35.79013,46401
35.79825,52561
35.80638,46212
35.81450,49930
35.82263,47842
35.83075,48746
35.83887,49092
35.84700,49505
35.85512,47315
35.86323,46808
35.87137,45323
35.87948,43011
35.88762,47516
35.89573,43711
35.90385,46710
35.91198,45100
35.92010,46216
35.92823,47271
35.93635,46571
35.94447,47354
35.95260,46191
35.96072,48833
35.96883,48485
35.97697,47300
35.98508,51938
35.99322,50924
36.00133,47498
36.00945,50317
36.01758,47835
36.02570,48392
36.03383,47890
36.04195,48794
36.05007,48171
36.05820,48333
36.06632,48669
36.07445,48586
36.08257,52114
36.09068,45327
36.09882,49813
36.10693,51499
36.11505,48398
36.12318,48712
36.13130,53466
36.13943,49948
36.14755,50727
36.15567,46625
36.16380,52617
36.17192,50426
36.18005,48058
36.18817,47484
36.19628,43441
36.20442,44430
36.21253,49155
36.22067,52547
36.22878,45506
36.23690,47287
36.24503,44687
36.25315,49880
36.26127,47579
36.26940,51924
36.27752,50229
36.28565,52631
36.29377,60557
36.30188,63775
36.31002,68007
36.31813,72840
36.32627,75192
36.33438,65349
36.34250,68919
36.35063,67456
36.35875,67695
36.36687,67527
36.37500,66709
36.38312,65642
36.39125,75551
36.39937,70230
36.40748,67290
36.41562,71062
36.42373,68824
36.43187,69796
36.43998,68493
36.44810,70893
36.45623,70620
36.46435,73668
36.47248,65679
36.48060,67807
36.48872,70119
36.49685,68632
36.50497,72270
36.51308,67376
36.52122,68705
36.52933,72796
36.53747,67836
36.54558,72223
36.55370,70711
36.56183,66705
36.56995,69045
36.57808,71619
36.58620,70025
36.59432,68125
36.60245,70467
36.61057,68910
36.61868,71112
36.62682,66591
36.63493,66491
36.64307,66475
36.65118,67877
36.65930,70195
36.66743,67445
36.67555,70188
36.68368,68245
36.69180,65625
36.69992,65985
36.70805,67383
36.71617,67129
36.72430,61616
36.73242,69422
36.74053,67031
36.74867,69309
36.75678,65313
36.76490,65940
36.77303,58878
36.78115,63416
36.78928,68652
36.79740,63992
36.80552,62224
36.81365,61026
36.82177,61747
36.82990,60962
36.83802,64467
36.84613,59086
36.85427,61590
36.86238,64200
36.87052,62047
36.87863,62227
36.88675,60845
36.89488,64730
36.90300,63529
36.91112,60465
36.91925,59543
36.92737,58856
36.93550,65679
36.94362,66712
36.95173,70271
36.95987,75209
36.96798,80208
36.97612,77702
36.98423,78746
36.99235,71984
37.00048,69339
37.00860,64258
37.01672,61315
37.02485,58799
37.03297,64100
37.04110,67560
37.04922,64015
37.05733,60808
37.06547,59074
37.07358,65279
37.08172,65383
37.08983,57869
37.09795,58285
37.10608,61400
37.11420,61378
37.12233,60017
37.13045,59980
37.13857,61940
37.14670,64737
37.15482,58688
37.16293,61351
37.17107,59401
37.17918,59412
37.18732,62624
37.19543,61326
37.20355,64038
37.21168,59152
37.21980,60158
37.22793,57930
37.23605,56802
37.24417,59244
37.25230,56783
37.26042,59397
37.26855,61460
37.27667,60176
37.28478,60973
37.29292,59354
37.30103,62497
37.30915,65196
37.31728,65460
37.32540,71848
37.33353,70020
37.34165,79867
37.34977,76837
37.35790,77266
37.36602,77977
37.37415,75342
37.38227,72239
37.39038,69135
37.39852,65709
37.40663,71606
37.41475,66856
37.42288,70274
37.43100,69144
37.43913,66785
37.44725,70047
37.45537,66740
37.46350,68005
37.47162,67553
37.47975,65292
37.48787,67001
