C:\MassHunter\GCMS\1\data\20191125_ALKANES\Burnoff 11262019.D Tue Nov 26 10:16:21 2019
Start of data points
2.09532	6299585
2.10345	5932563
2.11157	5555398
2.11970	5312388
2.12782	4917629
2.13593	4464791
2.14407	4027494
2.15218	3573959
2.16030	3163565
2.16843	2752387
2.17655	2379614
2.18468	2084393
2.19280	1825041
2.20092	1598610
2.20905	1391622
2.21717	1223213
2.22530	1095517
2.23342	987216
2.24153	878509
2.24967	779986
2.25778	709433
2.26590	634163
2.27403	590518
2.28215	531935
2.29028	497133
2.29840	454950
2.30652	424420
2.31465	393578
2.32277	374638
2.33090	344365
2.33902	324645
2.34713	312609
2.35527	288502
2.36338	282477
2.37152	273100
2.37963	250154
2.38775	255780
2.39588	234934
2.40400	227232
2.41212	218740
2.42025	213961
2.42837	207593
2.43650	199559
2.44462	191938
2.45273	187896
2.46087	183157
2.46898	181588
2.47712	172807
2.48523	168831
2.49335	164926
2.50148	171299
2.50960	161589
2.51773	164693
2.52585	151561
2.53397	154629
2.54210	149824
2.55022	150503
2.55833	148431
2.56647	144686
2.57458	142843
2.58272	141537
2.59083	137367
2.59895	141420
2.60708	137825
2.61520	133561
2.62333	136580
2.63145	132265
2.63957	133494
2.64770	133593
2.65582	126940
2.66393	124377
2.67207	130778
2.68018	126493
2.68832	127985
2.69643	121899
2.70455	123471
2.71268	120757
2.72080	120460
2.72893	123398
2.73705	121222
2.74517	122590
2.75330	120573
2.76142	112699
2.76955	115050
2.77767	115105
2.78578	117541
2.79392	114113
2.80203	111647
2.81015	111005
2.81828	117391
2.82640	112716
2.83453	108246
2.84265	112816
2.85077	115201
2.85890	114010
2.86702	106365
2.87515	110709
2.88327	105659
2.89138	107830
2.89952	102371
2.90763	110470
2.91575	110065
2.92388	107379
2.93200	107084
2.94013	114423
2.94825	104094
2.95637	101253
2.96450	102019
2.97262	102937
2.98075	101305
2.98887	100936
2.99698	107579
3.00512	103093
3.01323	107404
3.02137	104208
3.02948	104449
3.03760	101206
3.04573	105459
3.05385	102778
3.06197	105038
3.07010	99097
3.07822	106053
3.08635	101749
3.09447	101706
3.10258	97928
3.11072	98733
3.11883	99800
3.12697	103542
3.13508	97691
3.14320	100631
3.15133	97500
3.15945	99952
3.16758	95254
3.17570	98654
3.18382	99122
3.19195	98902
3.20007	100584
3.20818	97045
3.21632	94454
3.22443	99106
3.23257	96418
3.24068	92763
3.24880	93656
3.25693	100008
3.26505	95477
3.27318	97341
3.28130	92380
3.28942	97706
3.29755	97239
3.30567	95866
3.31378	93389
3.32192	91180
3.33003	96469
3.33817	98446
3.34628	96590
3.35440	88982
3.36253	94096
3.37065	91704
3.37878	94330
3.38690	90394
3.39502	91946
3.40315	94302
3.41127	98239
3.41940	94884
3.42752	93061
3.43563	89452
3.44377	88333
3.45188	87842
3.46000	95722
3.46813	95084
3.47625	92347
3.48438	92779
3.49250	98167
3.50062	99103
3.50875	87494
3.51687	90101
3.52500	91032
3.53312	88346
3.54123	88037
3.54937	86761
3.55748	86463
3.56562	86945
3.57373	90417
3.58185	93765
3.58998	91167
3.59810	86859
3.60622	90228
3.61435	87610
3.62247	91263
3.63060	86271
3.63872	85295
3.64683	84740
3.65497	85406
3.66308	90348
3.67122	84297
3.67933	88945
3.68745	86153
3.69558	87017
3.70370	87723
3.71182	88293
3.71995	85268
3.72807	85405
3.73620	86143
3.74432	88817
3.75243	84979
3.76057	85795
3.76868	89204
3.77682	85218
3.78493	82004
3.79305	82193
3.80118	87405
3.80930	84271
3.81743	85974
3.82555	83151
3.83367	86939
3.84180	87278
3.84992	82718
3.85803	82655
3.86617	80706
3.87428	83825
3.88242	82472
3.89053	85650
3.89865	84425
3.90678	90169
3.91490	91418
3.92303	84133
3.93115	82560
3.93927	87517
3.94740	85721
3.95552	81143
3.96365	82798
3.97177	95649
3.97988	83001
3.98802	85122
3.99613	84691
4.00425	82271
4.01238	85009
4.02050	79802
4.02863	84005
4.03675	86205
4.04487	82235
4.05300	91603
4.06112	81614
4.06925	85565
4.07737	83614
4.08548	82479
4.09362	84171
4.10173	81528
4.10985	84206
4.11798	85244
4.12610	80766
4.13423	87011
4.14235	81139
4.15047	90098
4.15860	85086
4.16672	81628
4.17485	83613
4.18297	82070
4.19108	83821
4.19922	80777
4.20733	85385
4.21547	86364
4.22358	82218
4.23170	87038
4.23983	79970
4.24795	84183
4.25607	84017
4.26420	82199
4.27232	83413
4.28045	81153
4.28857	83432
4.29668	82488
4.30482	82877
4.31293	83322
4.32107	94005
4.32918	85620
4.33730	82373
4.34543	81098
4.35355	82265
4.36168	83586
4.36980	84906
4.37792	85203
4.38605	89272
4.39417	82536
4.40228	85952
4.41042	89616
4.41853	94455
4.42667	82508
4.43478	85773
4.44290	86462
4.45103	86041
4.45915	82516
4.46728	79713
4.47540	81293
4.48352	82265
4.49165	85113
4.49977	79565
4.50788	82784
4.51602	80761
4.52413	82920
4.53227	83952
4.54038	83863
4.54850	81128
4.55663	84995
4.56475	81808
4.57288	84099
4.58100	82302
4.58912	84298
4.59725	88776
4.60537	79241
4.61350	83259
4.62162	80013
4.62973	80620
4.63787	78382
4.64598	80292
4.65410	81621
4.66223	79223
4.67035	83086
4.67848	79977
4.68660	80669
4.69472	83463
4.70285	79836
4.71097	81196
4.71910	81014
4.72722	85758
4.73533	82926
4.74347	78283
4.75158	77283
4.75970	77579
4.76783	78388
4.77595	83812
4.78408	93693
4.79220	87653
4.80032	90932
4.80845	84133
4.81657	72731
4.82470	80138
4.83282	78607
4.84093	75338
4.84907	81278
4.85718	82863
4.86532	79393
4.87343	82850
4.88155	82332
4.88968	82127
4.89780	83296
4.90592	83096
4.91405	77053
4.92217	76129
4.93030	81546
4.93842	82240
4.94653	83635
4.95467	79137
4.96278	80104
4.97092	77524
4.97903	80967
4.98715	90432
4.99528	74377
5.00340	82919
5.01153	81844
5.01965	79717
5.02777	78952
5.03590	80738
5.04402	80637
5.05213	78604
5.06027	79920
5.06838	80023
5.07652	78389
5.08463	74947
5.09275	80355
5.10088	80394
5.10900	77927
5.11713	77932
5.12525	77715
5.13337	80163
5.14150	77874
5.14962	77280
5.15773	77630
5.16587	76952
5.17398	75438
5.18212	80855
5.19023	77532
5.19835	79266
5.20648	81814
5.21460	75755
5.22273	74970
5.23085	77986
5.23897	76372
5.24710	77825
5.25522	82981
5.26335	73740
5.27147	73977
5.27958	76274
5.28772	71198
5.29583	68218
5.30395	73982
5.31208	73022
5.32020	77867
5.32833	78654
5.33645	71110
5.34457	71218
5.35270	75733
5.36082	72800
5.36895	73647
5.37707	67471
5.38518	67769
5.39332	66639
5.40143	62539
5.40957	67093
5.41768	67058
5.42580	66303
5.43393	69200
5.44205	61643
5.45017	63658
5.45830	66439
5.46642	64348
5.47455	63155
5.48267	60926
5.49078	65748
5.49892	65287
5.50703	62866
5.51517	59698
5.52328	60669
5.53140	61445
5.53953	66486
5.54765	63735
5.55577	65601
5.56390	60805
5.57202	63567
5.58015	65475
5.58827	61399
5.59638	63109
5.60452	62766
5.61263	61470
5.62077	62408
5.62888	63025
5.63700	64110
5.64513	64880
5.65325	61804
5.66138	63908
5.66950	68820
5.67762	61458
5.68575	59518
5.69387	64137
5.70198	61919
5.71012	61669
5.71823	60369
5.72637	59810
5.73448	61215
5.74260	58537
5.75073	64359
5.75885	62483
5.76698	63240
5.77510	65163
5.78322	57578
5.79135	62712
5.79947	62950
5.80758	66417
5.81572	62730
5.82383	61360
5.83197	63681
5.84008	64711
5.84820	62489
5.85633	65775
5.86445	58333
5.87258	61940
5.88070	65497
5.88882	62700
5.89695	63429
5.90507	58172
5.91320	57370
5.92132	50681
5.92943	52898
5.93757	53373
5.94568	51602
5.95380	53983
5.96193	54003
5.97005	51695
5.97818	59493
5.98630	55490
5.99442	56318
6.00255	52482
6.01067	51034
6.01880	56768
6.02692	51759
6.03503	49200
6.04317	49427
6.05128	49624
6.05942	58064
6.06753	51198
6.07565	55341
6.08378	51653
6.09190	53012
6.10002	51223
6.10815	51399
6.11627	51105
6.12440	49362
6.13252	49983
6.14063	48926
6.14877	49200
6.15688	50851
6.16502	47738
6.17313	48765
6.18125	51344
6.18938	55002
6.19750	57213
6.20562	51909
6.21375	52788
6.22187	56438
6.23000	47389
6.23812	48452
6.24623	48807
6.25437	52789
6.26248	53343
6.27062	50275
6.27873	51529
6.28685	46439
6.29498	53783
6.30310	51455
6.31123	50718
6.31935	50808
6.32747	49855
6.33560	53615
6.34372	51423
6.35183	54261
6.35997	49617
6.36808	48962
6.37622	50144
6.38433	48975
6.39245	49698
6.40058	49804
6.40870	49142
6.41683	50078
6.42495	50304
6.43307	51710
6.44120	44795
6.44932	47921
6.45745	49491
6.46557	51480
6.47368	47981
6.48182	55647
6.48993	49501
6.49805	50082
6.50618	51270
6.51430	51117
6.52243	48622
6.53055	52101
6.53867	51229
6.54680	49333
6.55492	49977
6.56305	49378
6.57117	48367
6.57928	46585
6.58742	47407
6.59553	50286
6.60365	51359
6.61178	51633
6.61990	46360
6.62803	51298
6.63615	49360
6.64427	52389
6.65240	49467
6.66052	49445
6.66865	49027
6.67677	49168
6.68488	48082
6.69302	52160
6.70113	47819
6.70927	48989
6.71738	47099
6.72550	52366
6.73363	47027
6.74175	45191
6.74987	52440
6.75800	47563
6.76612	47168
6.77425	52238
6.78237	47311
6.79048	49782
6.79862	47643
6.80673	48586
6.81487	51961
6.82298	47248
6.83110	49326
6.83923	46617
6.84735	44085
6.85548	46787
6.86360	43382
6.87172	44018
6.87985	45700
6.88797	47317
6.89608	45694
6.90422	43034
6.91233	45139
6.92047	46727
6.92858	43930
6.93670	44739
6.94483	46953
6.95295	45575
6.96108	44445
6.96920	48083
6.97732	45331
6.98545	40789
6.99357	42355
7.00168	48555
7.00982	46151
7.01793	41832
7.02607	45231
7.03418	47490
7.04230	46989
7.05043	44517
7.05855	43851
7.06668	46246
7.07480	47397
7.08292	45108
7.09105	46423
7.09917	44128
7.10730	48052
7.11542	47502
7.12353	45271
7.13167	40396
7.13978	41674
7.14790	45188
7.15603	49192
7.16415	40504
7.17228	44095
7.18040	47149
7.18852	44349
7.19665	42317
7.20477	43556
7.21290	42864
7.22102	43473
7.22913	44436
7.23727	42959
7.24538	39392
7.25350	43903
7.26163	44358
7.26975	44639
7.27788	44007
7.28600	42693
7.29412	49157
7.30225	41107
7.31037	41379
7.31850	43052
7.32662	41188
7.33473	40986
7.34287	44365
7.35098	45646
7.35912	45841
7.36723	44028
7.37535	41925
7.38348	41300
7.39160	45581
7.39972	44986
7.40785	41471
7.41597	43970
7.42410	42785
7.43222	42233
7.44033	43168
7.44847	41894
7.45658	45750
7.46472	44138
7.47283	41823
7.48095	44524
7.48908	44261
7.49720	42762
7.50533	46962
7.51345	41959
7.52157	39601
7.52970	44560
7.53782	42183
7.54593	45609
7.55407	45787
7.56218	44796
7.57032	42073
7.57843	43279
7.58655	41212
7.59468	39985
7.60280	47387
7.61093	41867
7.61905	45461
7.62717	43945
7.63530	45303
7.64342	41134
7.65153	40565
7.65967	42170
7.66778	44602
7.67592	44187
7.68403	41346
7.69215	43978
7.70028	46339
7.70840	43551
7.71653	42585
7.72465	45240
7.73277	45412
7.74090	40853
7.74902	40255
7.75715	40709
7.76527	39760
7.77338	44290
7.78152	40971
7.78963	45275
7.79775	42112
7.80588	44907
7.81400	44199
7.82213	40639
7.83025	42233
7.83837	43155
7.84650	40238
7.85462	40983
7.86275	42061
7.87087	41831
7.87898	42605
7.88712	40188
7.89523	42135
7.90337	41002
7.91148	42829
7.91960	42786
7.92773	45691
7.93585	42966
7.94397	42110
7.95210	41518
7.96022	39776
7.96835	44753
7.97647	44469
7.98458	39438
7.99272	42652
8.00083	38474
8.00897	40321
8.01708	41324
8.02520	40529
8.03333	45946
8.04145	41130
8.04957	40439
8.05770	42433
8.06582	44138
8.07395	43190
8.08207	42672
8.09018	39247
8.09832	41931
8.10643	42517
8.11457	41134
8.12268	38451
8.13080	41666
8.13893	39478
8.14705	40261
8.15518	41291
8.16330	39695
8.17142	44330
8.17955	40842
8.18767	41387
8.19578	39569
8.20392	42286
8.21203	41136
8.22017	40050
8.22828	42711
8.23640	41216
8.24453	37411
8.25265	42390
8.26078	37751
8.26890	39763
8.27702	42123
8.28515	38801
8.29327	39907
8.30138	41768
8.30952	39756
8.31763	41347
8.32577	38455
8.33388	40435
8.34200	37728
8.35013	42606
8.35825	39299
8.36638	38960
8.37450	39381
8.38262	43988
8.39075	36719
8.39887	38566
8.40700	40544
8.41512	38963
8.42323	39886
8.43137	37932
8.43948	40126
8.44760	42027
8.45573	37326
8.46385	40308
8.47198	42805
8.48010	41054
8.48822	43816
8.49635	39668
8.50447	43822
8.51260	38958
8.52072	39952
8.52883	39695
8.53697	46030
8.54508	40595
8.55322	38726
8.56133	42069
8.56945	41981
8.57758	38199
8.58570	42183
8.59382	44157
8.60195	41956
8.61007	41545
8.61820	39835
8.62632	44127
8.63443	42349
8.64257	39197
8.65068	42292
8.65882	39374
8.66693	41352
8.67505	40659
8.68318	43035
8.69130	38221
8.69943	37243
8.70755	42165
8.71567	41068
8.72380	41643
8.73192	45222
8.74003	39408
8.74817	42626
8.75628	45804
8.76442	40805
8.77253	40286
8.78065	39082
8.78878	42783
8.79690	39752
8.80503	36856
8.81315	39212
8.82127	41850
8.82940	41331
8.83752	41762
8.84563	41911
8.85377	39313
8.86188	37711
8.87002	40523
8.87813	40643
8.88625	42218
8.89438	38820
8.90250	43830
8.91063	40557
8.91875	36215
8.92687	40560
8.93500	37839
8.94312	41763
8.95125	40966
8.95937	38080
8.96748	38703
8.97562	37050
8.98373	41143
8.99185	40207
8.99998	36846
9.00810	39174
9.01623	37008
9.02435	41369
9.03247	39269
9.04060	41319
9.04872	37781
9.05685	37374
9.06497	46143
9.07308	40457
9.08122	44867
9.08933	42469
9.09745	39780
9.10558	40364
9.11370	40482
9.12183	42481
9.12995	42941
9.13807	40145
9.14620	39133
9.15432	39886
9.16245	37400
9.17057	35405
9.17868	39140
9.18682	34842
9.19493	38236
9.20307	40589
9.21118	42213
9.21930	37301
9.22743	39443
9.23555	38818
9.24367	37200
9.25180	42734
9.25992	37162
9.26805	37084
9.27617	38481
9.28428	37629
9.29242	38120
9.30053	38481
9.30867	38486
9.31678	42067
9.32490	42399
9.33303	37968
9.34115	38721
9.34928	38233
9.35740	36387
9.36552	41359
9.37365	36806
9.38177	37174
9.38988	38096
9.39802	39824
9.40613	38886
9.41427	38250
9.42238	37986
9.43050	38897
9.43863	36821
9.44675	41791
9.45488	40954
9.46300	35669
9.47112	40202
9.47925	37531
9.48737	35586
9.49548	38352
9.50362	39617
9.51173	34930
9.51987	34535
9.52798	38697
9.53610	40342
9.54423	38488
9.55235	36896
9.56048	36751
9.56860	39624
9.57672	33874
9.58485	37637
9.59297	34985
9.60110	38571
9.60922	36508
9.61733	41324
9.62547	38375
9.63358	37017
9.64170	36441
9.64983	39102
9.65795	36840
9.66608	37782
9.67420	36107
9.68232	35743
9.69045	33457
9.69857	33111
9.70670	35301
9.71482	37407
9.72293	36924
9.73107	37878
9.73918	35206
9.74732	41356
9.75543	37090
9.76355	41682
9.77168	36048
9.77980	35206
9.78792	35532
9.79605	39343
9.80417	38605
9.81230	39492
9.82042	38114
9.82853	35912
9.83667	34914
9.84478	34562
9.85292	35400
9.86103	38016
9.86915	38493
9.87728	39919
9.88540	38203
9.89352	32285
9.90165	38981
9.90977	37121
9.91790	36321
9.92602	36697
9.93413	37098
9.94227	43368
9.95038	38301
9.95852	37296
9.96663	37161
9.97475	37614
9.98288	37144
9.99100	39829
9.99913	36905
10.00725	35789
10.01537	33834
10.02350	36113
10.03162	37338
10.03973	34665
10.04787	34076
10.05598	37988
10.06412	35527
10.07223	36279
10.08035	37851
10.08848	37293
10.09660	35744
10.10473	34926
10.11285	36286
10.12097	38553
10.12910	36117
10.13722	35578
10.14533	39832
10.15347	36594
10.16158	35281
10.16972	34554
10.17783	35936
10.18595	35238
10.19408	37146
10.20220	35257
10.21033	35502
10.21845	36052
10.22657	33920
10.23470	37921
10.24282	33014
10.25095	39843
10.25907	34349
10.26718	33195
10.27532	38571
10.28343	36306
10.29155	32555
10.29968	35293
10.30780	36710
10.31593	37622
10.32405	38093
10.33217	35126
10.34030	37577
10.34842	34364
10.35655	37327
10.36467	38195
10.37278	35877
10.38092	34022
10.38903	35521
10.39717	37609
10.40528	35883
10.41340	34323
10.42153	32345
10.42965	36159
10.43777	34086
10.44590	37319
10.45402	35603
10.46215	33931
10.47027	35427
10.47838	36664
10.48652	41550
10.49463	36082
10.50277	37038
10.51088	39769
10.51900	33376
10.52713	35871
10.53525	35286
10.54337	36795
10.55150	36836
10.55962	35046
10.56775	38467
10.57587	36308
10.58398	35690
10.59212	33662
10.60023	38468
10.60837	37221
10.61648	43454
10.62460	33846
10.63273	37743
10.64085	36622
10.64898	32565
10.65710	36772
10.66522	37390
10.67335	32991
10.68147	32125
10.68958	35636
10.69772	31108
10.70583	34133
10.71397	38467
10.72208	35991
10.73020	38886
10.73833	36586
10.74645	34157
10.75458	34834
10.76270	36907
10.77082	32120
10.77895	36104
10.78707	34581
10.79520	33659
10.80332	36718
10.81143	36639
10.81957	34062
10.82768	35851
10.83580	33308
10.84393	34154
10.85205	33760
10.86018	35343
10.86830	33995
10.87642	33991
10.88455	36256
10.89267	36392
10.90080	31533
10.90892	33819
10.91703	32742
10.92517	33854
10.93328	39883
10.94140	33335
10.94953	36047
10.95765	35353
10.96578	40128
10.97390	33357
10.98202	34035
10.99015	34902
10.99827	35539
11.00640	32733
11.01452	39072
11.02263	37453
11.03077	35598
11.03888	34031
11.04702	31521
11.05513	33740
11.06325	34766
11.07138	35280
11.07950	35771
11.08762	38273
11.09575	35479
11.10387	34227
11.11200	35027
11.12012	34064
11.12823	35430
11.13637	34011
11.14448	34011
11.15262	39824
11.16073	31890
11.16885	30015
11.17698	32986
11.18510	33909
11.19323	33648
11.20135	33460
11.20947	32516
11.21760	34232
11.22572	33047
11.23383	34312
11.24197	35007
11.25008	34345
11.25822	33270
11.26633	34846
11.27445	39792
11.28258	34480
11.29070	36752
11.29883	34315
11.30695	32966
11.31507	32473
11.32320	34684
11.33132	32581
11.33943	32787
11.34757	33524
11.35568	32404
11.36382	33851
11.37193	37033
11.38005	33873
11.38818	33736
11.39630	34455
11.40443	31543
11.41255	34131
11.42067	32999
11.42880	37194
11.43692	33960
11.44505	34239
11.45317	31631
11.46128	36253
11.46942	32990
11.47753	33977
11.48565	34244
11.49378	34871
11.50190	30436
11.51003	32723
11.51815	31167
11.52627	36952
11.53440	30458
11.54252	35126
11.55065	32235
11.55877	32593
11.56688	33537
11.57502	33264
11.58313	34900
11.59125	31044
11.59938	29958
11.60750	36191
11.61563	35125
11.62375	36625
11.63187	34182
11.64000	31967
11.64812	33842
11.65625	36981
11.66437	31400
11.67248	33423
11.68062	35682
11.68873	34270
11.69687	33892
11.70498	31238
11.71310	32925
11.72123	33074
11.72935	32959
11.73747	35380
11.74560	31490
11.75372	33284
11.76185	32808
11.76997	34638
11.77808	33911
11.78622	35938
11.79433	29289
11.80247	32190
11.81058	34381
11.81870	32331
11.82683	34136
11.83495	34311
11.84308	30244
11.85120	34716
11.85932	35776
11.86745	40223
11.87557	32284
11.88368	33572
11.89182	37118
11.89993	30816
11.90807	35254
11.91618	36186
11.92430	33916
11.93243	33386
11.94055	31127
11.94868	29374
11.95680	33075
11.96492	31453
11.97305	33750
11.98117	31578
11.98928	36319
11.99742	33445
12.00553	28044
12.01367	34448
12.02178	33250
12.02990	33139
12.03803	31124
12.04615	34386
12.05428	31948
12.06240	35818
12.07052	34203
12.07865	32682
12.08677	33244
12.09490	31064
12.10302	31864
12.11113	33090
12.11927	34352
12.12738	36746
12.13550	33684
12.14363	31999
12.15175	33521
12.15988	32527
12.16800	31112
12.17612	32388
12.18425	34322
12.19237	36814
12.20050	34168
12.20862	32934
12.21673	33028
12.22487	34629
12.23298	32339
12.24112	31973
12.24923	31480
12.25735	33629
12.26548	31838
12.27360	31780
12.28172	35626
12.28985	30849
12.29797	33957
12.30610	34485
12.31422	34538
12.32233	34026
12.33047	31208
12.33858	34930
12.34672	34485
12.35483	36727
12.36295	31995
12.37108	35296
12.37920	29721
12.38732	34595
12.39545	31636
12.40357	32989
12.41170	31645
12.41982	33625
12.42793	30393
12.43607	30738
12.44418	34614
12.45232	30306
12.46043	30996
12.46855	31721
12.47668	32988
12.48480	34110
12.49293	33613
12.50105	28108
12.50917	31147
12.51730	30689
12.52542	35774
12.53353	32306
12.54167	34523
12.54978	33283
12.55792	39328
12.56603	33565
12.57415	30872
12.58228	34988
12.59040	34224
12.59853	34496
12.60665	33729
12.61477	34725
12.62290	30815
12.63102	32163
12.63913	31903
12.64727	31476
12.65538	30824
12.66352	32124
12.67163	33286
12.67975	34848
12.68788	32461
12.69600	34502
12.70413	29563
12.71225	32261
12.72037	32818
12.72850	32029
12.73662	33732
12.74475	33096
12.75287	32579
12.76098	28929
12.76912	36454
12.77723	32759
12.78535	28915
12.79348	36446
12.80160	33740
12.80973	32036
12.81785	31744
12.82597	33006
12.83410	33193
12.84222	31896
12.85035	34011
12.85847	33072
12.86658	33207
12.87472	33790
12.88283	31084
12.89097	38421
12.89908	32361
12.90720	33002
12.91533	29469
12.92345	31266
12.93157	32342
12.93970	33376
12.94782	31843
12.95595	32841
12.96407	31711
12.97218	32875
12.98032	30815
12.98843	32317
12.99657	30916
13.00468	32784
13.01280	31177
13.02093	32579
13.02905	31127
13.03717	31890
13.04530	30955
13.05342	32023
13.06155	33151
13.06967	35737
13.07778	33954
13.08592	35800
13.09403	33545
13.10217	38598
13.11028	33629
13.11840	34652
13.12653	31916
13.13465	33052
13.14278	33149
13.15090	32030
13.15902	31597
13.16715	32918
13.17527	29545
13.18338	32309
13.19152	34198
13.19963	32436
13.20777	38592
13.21588	32229
13.22400	34825
13.23213	36428
13.24025	30876
13.24838	32761
13.25650	34002
13.26462	35963
13.27275	32971
13.28087	29785
13.28900	33314
13.29712	30824
13.30523	31840
13.31337	33312
13.32148	31297
13.32960	32537
13.33773	33420
13.34585	31108
13.35398	34256
13.36210	32294
13.37022	32032
13.37835	31477
13.38647	32602
13.39460	34037
13.40272	33395
13.41083	30268
13.41897	33057
13.42708	33321
13.43520	34689
13.44333	30901
13.45145	34108
13.45958	33474
13.46770	36005
13.47582	33430
13.48395	30269
13.49207	33419
13.50020	36622
13.50832	34535
13.51643	33478
13.52457	34432
13.53268	32531
13.54082	30353
13.54893	29962
13.55705	31009
13.56518	35014
13.57330	31863
13.58142	31449
13.58955	35807
13.59767	29849
13.60580	32388
13.61392	34354
13.62203	30415
13.63017	32226
13.63828	32205
13.64642	30307
13.65453	33165
13.66265	34671
13.67078	32617
13.67890	30689
13.68702	33632
13.69515	32990
13.70327	32435
13.71140	36104
13.71952	34328
13.72763	37605
13.73577	31758
13.74388	30658
13.75202	32282
13.76013	30110
13.76825	32264
13.77638	31942
13.78450	32145
13.79263	29139
13.80075	32912
13.80887	32236
13.81700	36056
13.82512	30647
13.83323	31423
13.84137	31857
13.84948	29028
13.85762	31873
13.86573	30568
13.87385	30743
13.88198	31727
13.89010	32492
13.89823	31220
13.90635	29892
13.91447	31581
13.92260	31303
13.93072	30869
13.93885	32460
13.94697	30665
13.95508	32675
13.96322	29425
13.97133	31352
13.97945	33741
13.98758	31933
13.99570	29092
14.00383	33229
14.01195	30072
14.02007	31847
14.02820	31112
14.03632	30924
14.04445	31063
14.05257	32592
14.06068	33181
14.06882	33100
14.07693	38060
14.08507	30648
14.09318	35636
14.10130	37580
14.10943	33727
14.11755	32485
14.12567	35145
14.13380	34104
14.14192	34472
14.15005	33753
14.15817	34578
14.16628	33783
14.17442	30346
14.18253	33402
14.19067	33805
14.19878	32348
14.20690	32990
14.21503	34720
14.22315	32538
14.23127	31819
14.23940	33724
14.24752	34319
14.25565	30997
14.26377	31172
14.27188	35144
14.28002	33669
14.28813	35720
14.29627	29060
14.30438	32064
14.31250	34056
14.32063	32415
14.32875	35126
14.33688	31526
14.34500	30027
14.35312	36404
14.36125	31257
14.36937	31204
14.37748	30650
14.38562	32442
14.39373	29620
14.40187	32065
14.40998	30416
14.41810	31091
14.42623	29279
14.43435	30872
14.44248	29475
14.45060	30817
14.45872	30278
14.46685	32119
14.47497	32094
14.48308	30146
14.49122	29238
14.49933	28758
14.50747	32851
14.51558	30761
14.52370	29363
14.53183	30205
14.53995	29553
14.54808	31670
14.55620	33328
14.56432	30009
14.57245	34738
14.58057	29983
14.58870	31399
14.59682	32598
14.60493	30519
14.61307	33415
14.62118	32221
14.62930	34721
14.63743	31009
14.64555	32729
14.65368	31692
14.66180	36996
14.66992	31390
14.67805	32898
14.68617	32338
14.69430	29797
14.70242	29683
14.71053	36262
14.71867	28035
14.72678	30562
14.73492	31705
14.74303	30778
14.75115	30252
14.75928	29127
14.76740	32129
14.77552	32402
14.78365	30434
14.79177	29182
14.79990	30129
14.80802	27285
14.81613	30160
14.82427	32633
14.83238	30423
14.84052	33536
14.84863	29602
14.85675	29953
14.86488	30871
14.87300	30287
14.88112	29987
14.88925	32011
14.89737	30733
14.90550	32071
14.91362	31941
14.92173	31963
14.92987	29297
14.93798	30560
14.94612	34241
14.95423	30563
14.96235	32537
14.97048	31059
14.97860	30365
14.98673	28325
14.99485	29651
15.00297	32127
15.01110	33755
15.01922	36520
15.02733	36398
15.03547	32140
15.04358	33151
15.05172	32300
15.05983	33265
15.06795	30156
15.07608	30767
15.08420	31919
15.09233	32438
15.10045	30197
15.10857	28726
15.11670	32650
15.12482	32481
15.13295	31773
15.14107	32856
15.14918	32336
15.15732	32104
15.16543	30589
15.17355	30502
15.18168	30469
15.18980	29856
15.19793	33434
15.20605	29269
15.21417	31125
15.22230	32084
15.23042	36003
15.23855	28983
15.24667	31296
15.25478	32380
15.26292	32512
15.27103	30935
15.27915	31852
15.28728	31632
15.29540	27686
15.30353	28817
15.31165	27851
15.31977	30237
15.32790	31037
15.33602	33590
15.34415	31195
15.35227	29575
15.36038	31925
15.36852	31065
15.37663	31714
15.38477	31154
15.39288	27510
15.40100	28102
15.40913	31920
15.41725	28628
15.42537	30213
15.43350	28269
15.44162	33167
15.44975	29948
15.45787	29189
15.46598	29082
15.47412	33257
15.48223	31161
15.49037	34238
15.49848	30056
15.50660	31128
15.51473	30198
15.52285	32388
15.53097	29595
15.53910	31591
15.54722	30047
15.55535	30335
15.56347	26914
15.57158	30914
15.57972	29283
15.58783	33861
15.59597	33765
15.60408	31168
15.61220	29461
15.62033	33562
15.62845	31386
15.63658	29173
15.64470	31113
15.65282	31656
15.66095	29008
15.66907	30146
15.67718	34105
15.68532	33033
15.69343	31454
15.70157	31370
15.70968	27548
15.71780	29208
15.72593	28293
15.73405	33154
15.74218	32249
15.75030	32082
15.75842	30184
15.76655	30917
15.77467	32055
15.78280	31434
15.79092	30368
15.79903	30485
15.80717	30777
15.81528	34095
15.82340	29621
15.83153	33124
15.83965	30541
15.84778	29778
15.85590	34310
15.86402	31056
15.87215	30149
15.88027	31094
15.88840	31348
15.89652	32419
15.90463	30923
15.91277	34114
15.92088	30689
15.92900	29508
15.93713	32377
15.94525	31667
15.95338	28919
15.96150	31672
15.96962	31039
15.97775	31450
15.98587	32663
15.99400	32147
16.00212	29761
16.01023	32667
16.01837	29941
16.02648	29506
16.03462	28015
16.04273	34951
16.05085	31129
16.05898	31932
16.06710	33129
16.07522	35529
16.08335	31393
16.09147	32430
16.09960	27958
16.10772	30158
16.11583	31799
16.12397	31375
16.13208	33075
16.14022	33095
16.14833	31386
16.15645	27078
16.16458	34685
16.17270	30752
16.18083	33021
16.18895	30489
16.19707	33840
16.20520	33365
16.21332	34542
16.22143	35672
16.22957	30697
16.23768	33541
16.24582	31848
16.25393	35335
16.26205	35440
16.27018	35052
16.27830	35221
16.28643	33751
16.29455	30873
16.30267	29501
16.31080	36119
16.31892	30304
16.32703	31079
16.33517	30710
16.34328	30151
16.35142	28008
16.35953	30040
16.36765	33833
16.37578	32058
16.38390	30713
16.39203	32839
16.40015	30452
16.40827	30518
16.41640	30084
16.42452	32226
16.43265	33969
16.44077	28351
16.44888	33984
16.45702	30760
16.46513	28849
16.47325	30585
16.48138	35300
16.48950	30865
16.49763	32547
16.50575	29410
16.51387	28093
16.52200	31007
16.53012	32755
16.53825	29156
16.54637	31222
16.55448	29314
16.56262	29387
16.57073	27188
16.57887	30621
16.58698	32609
16.59510	27890
16.60323	31639
16.61135	29018
16.61947	32076
16.62760	29203
16.63572	29614
16.64385	30146
16.65197	29293
16.66008	34662
16.66822	31785
16.67633	29468
16.68447	33549
16.69258	29800
16.70070	32073
16.70883	31891
16.71695	31250
16.72507	26338
16.73320	30837
16.74132	30311
16.74945	30251
16.75757	33062
16.76568	33963
16.77382	30044
16.78193	35619
16.79007	33207
16.79818	38750
16.80630	27287
16.81443	27574
16.82255	27900
16.83068	29522
16.83880	27938
16.84692	34339
16.85505	29723
16.86317	30560
16.87128	31654
16.87942	32283
16.88753	30768
16.89567	34131
16.90378	32939
16.91190	29079
16.92003	31104
16.92815	31701
16.93628	30249
16.94440	33633
16.95252	33635
16.96065	29681
16.96877	34461
16.97688	31731
16.98502	31704
16.99313	33190
17.00127	30100
17.00938	30144
17.01750	32176
17.02563	32234
17.03375	32468
17.04188	31227
17.05000	30704
17.05812	30110
17.06625	31325
17.07437	30950
17.08250	31447
17.09062	33598
17.09873	32329
17.10687	33199
17.11498	31513
17.12310	37261
17.13123	30253
17.13935	29446
17.14748	28149
17.15560	27747
17.16372	31865
17.17185	31752
17.17997	29305
17.18810	33412
17.19622	31803
17.20433	33781
17.21247	32860
17.22058	27470
17.22872	31398
17.23683	30125
17.24495	31289
17.25308	27966
17.26120	27896
17.26932	31464
17.27745	29995
17.28557	26472
17.29370	33658
17.30182	31151
17.30993	29950
17.31807	30156
17.32618	29611
17.33432	33995
17.34243	35823
17.35055	31839
17.35868	27609
17.36680	29861
17.37492	28737
17.38305	34278
17.39117	31987
17.39930	30017
17.40742	29942
17.41553	29302
17.42367	30901
17.43178	30648
17.43992	33985
17.44803	29994
17.45615	29161
17.46428	29934
17.47240	33866
17.48053	31609
17.48865	29913
17.49677	31361
17.50490	31049
17.51302	32261
17.52113	30636
17.52927	31482
17.53738	30043
17.54552	34105
17.55363	28453
17.56175	30596
17.56988	29343
17.57800	33209
17.58613	27497
17.59425	29121
17.60237	28682
17.61050	29738
17.61862	29453
17.62675	31398
17.63487	31625
17.64298	29233
17.65112	28731
17.65923	30519
17.66735	29536
17.67548	33663
17.68360	31807
17.69173	28627
17.69985	32459
17.70797	31278
17.71610	31418
17.72422	29915
17.73235	32028
17.74047	31747
17.74858	33952
17.75672	30677
17.76483	29351
17.77295	27943
17.78108	31166
17.78920	29821
17.79733	32012
17.80545	29203
17.81357	28908
17.82170	29811
17.82982	30615
17.83795	30003
17.84607	29089
17.85418	35207
17.86232	32152
17.87043	36158
17.87857	30044
17.88668	28718
17.89480	30084
17.90293	28985
17.91105	30537
17.91917	31842
17.92730	32343
17.93542	30097
17.94355	26770
17.95167	30991
17.95978	28631
17.96792	33658
17.97603	29104
17.98417	33536
17.99228	32324
18.00040	31761
18.00853	33820
18.01665	30056
18.02477	28948
18.03290	31701
18.04102	35316
18.04915	34416
18.05727	31674
18.06538	31831
18.07352	32232
18.08163	32010
18.08977	30360
18.09788	30765
18.10600	28706
18.11413	29164
18.12225	31792
18.13038	29993
18.13850	30680
18.14662	31478
18.15475	34823
18.16287	32285
18.17098	30019
18.17912	31740
18.18723	29694
18.19537	36385
18.20348	31479
18.21160	31162
18.21973	32221
18.22785	33143
18.23598	33148
18.24410	34076
18.25222	30830
18.26035	32339
18.26847	29024
18.27660	31111
18.28472	28638
18.29283	33465
18.30097	31142
18.30908	30197
18.31720	30439
18.32533	31580
18.33345	34613
18.34158	28924
18.34970	31413
18.35782	32619
18.36595	33018
18.37407	36779
18.38220	30980
18.39032	32669
18.39843	33391
18.40657	29181
18.41468	33436
18.42280	30347
18.43093	32417
18.43905	29721
18.44718	29999
18.45530	30285
18.46342	29021
18.47155	33506
18.47967	32825
18.48780	31298
18.49592	30002
18.50403	29692
18.51217	33400
18.52028	30438
18.52842	29132
18.53653	29554
18.54465	31544
18.55278	32902
18.56090	34215
18.56902	29314
18.57715	31962
18.58527	28387
18.59340	31922
18.60152	33782
18.60963	30055
18.61777	32094
18.62588	30991
18.63402	28932
18.64213	30917
18.65025	27575
18.65838	30734
18.66650	33188
18.67463	27299
18.68275	29485
18.69087	31120
18.69900	29821
18.70712	28530
18.71523	31595
18.72337	28763
18.73148	33311
18.73962	33629
18.74773	27922
18.75585	28950
18.76398	27579
18.77210	32313
18.78023	30990
18.78835	32779
18.79647	31921
18.80460	28707
18.81272	28785
18.82083	30643
18.82897	31299
18.83708	34199
18.84522	28928
18.85333	30371
18.86145	33433
18.86958	29901
18.87770	27505
18.88583	29741
18.89395	31287
18.90207	33802
18.91020	29284
18.91832	32694
18.92645	34096
18.93457	32734
18.94268	29120
18.95082	31330
18.95893	30142
18.96705	31103
18.97518	31690
18.98330	31425
18.99143	32593
18.99955	28822
19.00767	33460
19.01580	30923
19.02392	31044
19.03205	29993
19.04017	29515
19.04828	34001
19.05642	31869
19.06453	33087
19.07265	29699
19.08078	32367
19.08890	29990
19.09703	29880
19.10515	32485
19.11327	32413
19.12140	32266
19.12952	28351
19.13765	35110
19.14577	30590
19.15388	31430
19.16202	29339
19.17013	31728
19.17827	32208
19.18638	32241
19.19450	33987
19.20263	30439
19.21075	28600
19.21887	28460
19.22700	31089
19.23512	37199
19.24325	33231
19.25137	31418
19.25948	35654
19.26762	31980
19.27573	31983
19.28387	32652
19.29198	31888
19.30010	34715
19.30823	30750
19.31635	34460
19.32448	33583
19.33260	36786
19.34072	32071
19.34885	33724
19.35697	33499
19.36508	29852
19.37322	29782
19.38133	32718
19.38947	30433
19.39758	29509
19.40570	31564
19.41383	34096
19.42195	33396
19.43008	33994
19.43820	32248
19.44632	30290
19.45445	34173
19.46257	32593
19.47070	31353
19.47882	30815
19.48693	32820
19.49507	33650
19.50318	34334
19.51130	29658
19.51943	34777
19.52755	30619
19.53568	29790
19.54380	31782
19.55192	30600
19.56005	30641
19.56817	31281
19.57630	35661
19.58442	30315
19.59253	32664
19.60067	34685
19.60878	36144
19.61690	33061
19.62503	34985
19.63315	34382
19.64128	32308
19.64940	34133
19.65752	32174
19.66565	31923
19.67377	34409
19.68190	33958
19.69002	32814
19.69813	27904
19.70627	31200
19.71438	26178
19.72252	30618
19.73063	29650
19.73875	37441
19.74688	30602
19.75500	31021
19.76312	31467
19.77125	32618
19.77937	32295
19.78750	29718
19.79562	28847
19.80373	31867
19.81187	31168
19.81998	31869
19.82812	33187
19.83623	31077
19.84435	31080
19.85248	31008
19.86060	35073
19.86872	32326
19.87685	31942
19.88497	28886
19.89310	31940
19.90122	31803
19.90933	32895
19.91747	28537
19.92558	29758
19.93372	30221
19.94183	29601
19.94995	31397
19.95808	30523
19.96620	29394
19.97433	31923
19.98245	29624
19.99057	31178
19.99870	34625
20.00682	30614
20.01493	30948
20.02307	29354
20.03118	27426
20.03932	31776
20.04743	30898
20.05555	30407
20.06368	33729
20.07180	30293
20.07993	36708
20.08805	30810
20.09617	30556
20.10430	28477
20.11242	32606
20.12055	29925
20.12867	27510
20.13678	29432
20.14492	30350
20.15303	31847
20.16115	32226
20.16928	33901
20.17740	29944
20.18553	29743
20.19365	35157
20.20177	31575
20.20990	33822
20.21802	33891
20.22615	31429
20.23427	28154
20.24238	38365
20.25052	33534
20.25863	36868
20.26675	32052
20.27488	28325
20.28300	31922
20.29113	32449
20.29925	34928
20.30737	31720
20.31550	30146
20.32362	29470
20.33175	34439
20.33987	33318
20.34798	28037
20.35612	31199
20.36423	29105
20.37237	28912
20.38048	38138
20.38860	31901
20.39673	30994
20.40485	30770
20.41297	26318
20.42110	32525
20.42922	34413
20.43735	32190
20.44547	30703
20.45358	28928
20.46172	30523
20.46983	30335
20.47797	31576
20.48608	33669
20.49420	30222
20.50233	31695
20.51045	29508
20.51858	30452
20.52670	30696
20.53482	30578
20.54295	30251
20.55107	28671
20.55918	32342
20.56732	30686
20.57543	32680
20.58357	32774
20.59168	32164
20.59980	31788
20.60793	32176
20.61605	31965
20.62418	29564
20.63230	32279
20.64042	29364
20.64855	30456
20.65667	33818
20.66478	29978
20.67292	32075
20.68103	29258
20.68917	31117
20.69728	35652
20.70540	28280
20.71353	29908
20.72165	31009
20.72978	30063
20.73790	33379
20.74602	33198
20.75415	31425
20.76227	29752
20.77040	30797
20.77852	28527
20.78663	31294
20.79477	32365
20.80288	32767
20.81100	31543
20.81913	31428
20.82725	36314
20.83538	31394
20.84350	33230
20.85162	28044
20.85975	31156
20.86787	29105
20.87600	32117
20.88412	37158
20.89223	30957
20.90037	30042
20.90848	30377
20.91660	34653
20.92473	29238
20.93285	30456
20.94098	30568
20.94910	29974
20.95722	31774
20.96535	32852
20.97347	32778
20.98160	30982
20.98972	31656
20.99783	36396
21.00597	30290
21.01408	32031
21.02222	30098
21.03033	31033
21.03845	31427
21.04658	29527
21.05470	27668
21.06282	32765
21.07095	34657
21.07907	31193
21.08720	30690
21.09532	33135
21.10343	36474
21.11157	29060
21.11968	29751
21.12782	29994
21.13593	31097
21.14405	35777
21.15218	29766
21.16030	31116
21.16843	30933
21.17655	32196
21.18467	32721
21.19280	30515
21.20092	30676
21.20903	27855
21.21717	32867
21.22528	30307
21.23342	31227
21.24153	30872
21.24965	32485
21.25778	31043
21.26590	30684
21.27403	29649
21.28215	34191
21.29027	31065
21.29840	29936
21.30652	34832
21.31463	31279
21.32277	34545
21.33088	29070
21.33902	32526
21.34713	34720
21.35525	32701
21.36338	30497
21.37150	30403
21.37963	34327
21.38775	32183
21.39587	32529
21.40400	33487
21.41212	32287
21.42025	32696
21.42837	31480
21.43648	30811
21.44462	30467
21.45273	29967
21.46085	31181
21.46898	29520
21.47710	32624
21.48523	30069
21.49335	33429
21.50147	31128
21.50960	29697
21.51772	32915
21.52585	30143
21.53397	28850
21.54208	32299
21.55022	32696
21.55833	32488
21.56647	28787
21.57458	31470
21.58270	29479
21.59083	29412
21.59895	29019
21.60707	32135
21.61520	30079
21.62332	29029
21.63145	30078
21.63957	31660
21.64768	34084
21.65582	29049
21.66393	31250
21.67207	32198
21.68018	29668
21.68830	31579
21.69643	32227
21.70455	30926
21.71267	29081
21.72080	30490
21.72892	32814
21.73705	32705
21.74517	31914
21.75328	32262
21.76142	30537
21.76953	28981
21.77767	29347
21.78578	31065
21.79390	29689
21.80203	30035
21.81015	31842
21.81828	33412
21.82640	33437
21.83452	30111
21.84265	32065
21.85077	36124
21.85888	32121
21.86702	30596
21.87513	33423
21.88327	32802
21.89138	33301
21.89950	27469
21.90763	36809
21.91575	28108
21.92388	29156
21.93200	28939
21.94012	31362
21.94825	29593
21.95637	32534
21.96450	31456
21.97262	31927
21.98073	33183
21.98887	29777
21.99698	33665
22.00510	30140
22.01323	32212
22.02135	29840
22.02948	31708
22.03760	31822
22.04572	32573
22.05385	30059
22.06197	34124
22.07010	30087
22.07822	30695
22.08633	33625
22.09447	33614
22.10258	32879
22.11070	31317
22.11883	32481
22.12695	33544
22.13508	32022
22.14320	30591
22.15132	33891
22.15945	33177
22.16757	31884
22.17570	29850
22.18382	30781
22.19193	34727
22.20007	31094
22.20818	31894
22.21632	35412
22.22443	32594
22.23255	34128
22.24068	32901
22.24880	29633
22.25692	35727
22.26505	31176
22.27317	31937
22.28130	31470
22.28942	31962
22.29753	34279
22.30567	31547
22.31378	30520
22.32192	31338
22.33003	30434
22.33815	32265
22.34628	34544
22.35440	33022
22.36252	32308
22.37065	33857
22.37877	33651
22.38690	33428
22.39502	34174
22.40313	34569
22.41127	32784
22.41938	31828
22.42752	30514
22.43563	33064
22.44375	31495
22.45188	31419
22.46000	33003
22.46813	32871
22.47625	34147
22.48437	29034
22.49250	30138
22.50062	30890
22.50873	31296
22.51687	28164
22.52498	29423
22.53312	34002
22.54123	33366
22.54935	30513
22.55748	31503
22.56560	32080
22.57373	31452
22.58185	36420
22.58997	35790
22.59810	32904
22.60622	30893
22.61435	32023
22.62247	31826
22.63058	34329
22.63872	31355
22.64683	31394
22.65495	32986
22.66308	33630
22.67120	31292
22.67933	33583
22.68745	32677
22.69557	31669
22.70370	37654
22.71182	33496
22.71995	28993
22.72807	29683
22.73618	35307
22.74432	30173
22.75243	31736
22.76055	32626
22.76868	33045
22.77680	32188
22.78493	27778
22.79305	29968
22.80117	30241
22.80930	31189
22.81742	29680
22.82555	33550
22.83367	33916
22.84178	30261
22.84992	31621
22.85803	30861
22.86617	29967
22.87428	28692
22.88240	30364
22.89053	33812
22.89865	32181
22.90677	32207
22.91490	32234
22.92302	29762
22.93115	29883
22.93927	28492
22.94738	33049
22.95552	30267
22.96363	32711
22.97177	28518
22.97988	28698
22.98800	32034
22.99613	33348
23.00425	32400
23.01238	32407
23.02050	32530
23.02862	30212
23.03675	33212
23.04487	31770
23.05298	31537
23.06112	35293
23.06923	28999
23.07737	33461
23.08548	32521
23.09360	31222
23.10173	31948
23.10985	31581
23.11798	31838
23.12610	33343
23.13422	30768
23.14235	28361
23.15047	33442
23.15858	31872
23.16672	34450
23.17483	33587
23.18297	32334
23.19108	30380
23.19920	31364
23.20733	33164
23.21545	28792
23.22358	30116
23.23170	36933
23.23982	34943
23.24795	33577
23.25607	29798
23.26420	30138
23.27232	34961
23.28043	30622
23.28857	31650
23.29668	32752
23.30480	31981
23.31293	27346
23.32105	27777
23.32918	30154
23.33730	31613
23.34542	32266
23.35355	29913
23.36167	27701
23.36980	30390
23.37792	30393
23.38603	30851
23.39417	30214
23.40228	34684
23.41040	29716
23.41853	31645
23.42665	35474
23.43478	29756
23.44290	29387
23.45102	31442
23.45915	32242
23.46727	28608
23.47540	29920
23.48352	32773
23.49163	35547
23.49977	29054
23.50788	31210
23.51602	30486
23.52413	35017
23.53225	30744
23.54038	36104
23.54850	30455
23.55662	33042
23.56475	32317
23.57287	31243
23.58100	31298
23.58912	32683
23.59723	31685
23.60537	32429
23.61348	32215
23.62162	35939
23.62973	32794
23.63785	31847
23.64598	34576
23.65410	32803
23.66223	31873
23.67035	31434
23.67847	30274
23.68660	30522
23.69472	31334
23.70283	31854
23.71097	31086
23.71908	33304
23.72722	32623
23.73533	29946
23.74345	32323
23.75158	30092
23.75970	29215
23.76783	38056
23.77595	34138
23.78407	31438
23.79220	32004
23.80032	34035
23.80843	31876
23.81657	32606
23.82468	31924
23.83282	35608
23.84093	31097
23.84905	33056
23.85718	31484
23.86530	28298
23.87343	32054
23.88155	30241
23.88967	30255
23.89780	31234
23.90592	31932
23.91405	32057
23.92217	31594
23.93028	30013
23.93842	33329
23.94653	35678
23.95465	31270
23.96278	32228
23.97090	28326
23.97903	28781
23.98715	34289
23.99527	28576
24.00340	29293
24.01152	31562
24.01965	30927
24.02777	27863
24.03588	35712
24.04402	30243
24.05213	30104
24.06027	30469
24.06838	29100
24.07650	33411
24.08463	31291
24.09275	32516
24.10087	30547
24.10900	30827
24.11712	30731
24.12525	30843
24.13337	31348
24.14148	28737
24.14962	29283
24.15773	30543
24.16587	30910
24.17398	31720
24.18210	33784
24.19023	32153
24.19835	30893
24.20647	29336
24.21460	29953
24.22272	29964
24.23085	27799
24.23897	28936
24.24708	30049
24.25522	27557
24.26333	31647
24.27147	31734
24.27958	33257
24.28770	32622
24.29583	30979
24.30395	33675
24.31208	32053
24.32020	31246
24.32832	31006
24.33645	29797
24.34457	32774
24.35268	31853
24.36082	30116
24.36893	30941
24.37707	33905
24.38518	29141
24.39330	29939
24.40143	35003
24.40955	29170
24.41768	31413
24.42580	33439
24.43392	32764
24.44205	30846
24.45017	31455
24.45828	31003
24.46642	28893
24.47453	29433
24.48267	30801
24.49078	30104
24.49890	30281
24.50703	27197
24.51515	31643
24.52328	27366
24.53140	29798
24.53952	29594
24.54765	26197
24.55577	28204
24.56390	35112
24.57202	29828
24.58013	30288
24.58827	28042
24.59638	29074
24.60450	32186
24.61263	32735
24.62075	34079
24.62888	32419
24.63700	32252
24.64512	30065
24.65325	29432
24.66137	28441
24.66950	29778
24.67762	29828
24.68573	30320
24.69387	31057
24.70198	28706
24.71012	28902
24.71823	29296
24.72635	33850
24.73448	29406
24.74260	28352
24.75072	31538
24.75885	28360
24.76697	28089
24.77510	30933
24.78322	28755
24.79133	29113
24.79947	28963
24.80758	27954
24.81572	32931
24.82383	26497
24.83195	34320
24.84008	34665
24.84820	28565
24.85633	28533
24.86445	25641
24.87257	27089
24.88070	29579
24.88882	27756
24.89693	29619
24.90507	28732
24.91318	28842
24.92132	29071
24.92943	30772
24.93755	29617
24.94568	27667
24.95380	29577
24.96193	28779
24.97005	27994
24.97817	25676
24.98630	31658
24.99442	31299
25.00253	28104
25.01067	31102
25.01878	27083
25.02692	27257
25.03503	28956
25.04315	27447
25.05128	28003
25.05940	28939
25.06753	31911
25.07565	28752
25.08377	31223
25.09190	29774
25.10002	30752
25.10815	25150
25.11627	30108
25.12438	29929
25.13252	31786
25.14063	30692
25.14875	31611
25.15688	28213
25.16500	28879
25.17313	26870
25.18125	28231
25.18937	27909
25.19750	29107
25.20562	29388
25.21375	29191
25.22187	31083
25.22998	30305
25.23812	30151
25.24623	30458
25.25435	28662
25.26248	31809
25.27060	29275
25.27873	35548
25.28685	27152
25.29497	29955
25.30310	26026
25.31122	26700
25.31935	31524
25.32747	29664
25.33558	28283
25.34372	27501
25.35183	30916
25.35997	25850
25.36808	29231
25.37620	28662
25.38433	29944
25.39245	28372
25.40057	30382
25.40870	27309
25.41682	28916
25.42495	26363
25.43307	30555
25.44118	28221
25.44932	30392
25.45743	29840
25.46557	28350
25.47368	29367
25.48180	30223
25.48993	28128
25.49805	28960
25.50618	30817
25.51430	28662
25.52242	30903
25.53055	27025
25.53867	33698
25.54678	31448
25.55492	30733
25.56303	31402
25.57117	33279
25.57928	31024
25.58740	28062
25.59553	29847
25.60365	33305
25.61178	29596
25.61990	29759
25.62802	30323
25.63615	27823
25.64427	31241
25.65238	29892
25.66052	30502
25.66863	31667
25.67677	29165
25.68488	29857
25.69300	27457
25.70113	25803
25.70925	28116
25.71738	28118
25.72550	30203
25.73362	34667
25.74175	29488
25.74987	29602
25.75800	29176
25.76612	27956
25.77423	32619
25.78237	29188
25.79048	30494
25.79860	30237
25.80673	29035
25.81485	34551
25.82298	29665
25.83110	28967
25.83922	34025
25.84735	32675
25.85547	28443
25.86360	29263
25.87172	31960
25.87983	29263
25.88797	29759
25.89608	28700
25.90422	29384
25.91233	29738
25.92045	32374
25.92858	30784
25.93670	31728
25.94482	29815
25.95295	30595
25.96107	29885
25.96920	29247
25.97732	31643
25.98543	28256
25.99357	31041
26.00168	33400
26.00982	31612
26.01793	29659
26.02605	27730
26.03418	33094
26.04230	30842
26.05042	27723
26.05855	36493
26.06667	29338
26.07480	34026
26.08292	32560
26.09103	30927
26.09917	32874
26.10728	33786
26.11542	29932
26.12353	28406
26.13165	28810
26.13978	29240
26.14790	30689
26.15603	28430
26.16415	25246
26.17227	31056
26.18040	27116
26.18852	28895
26.19663	28436
26.20477	26869
26.21288	28080
26.22102	27260
26.22913	29209
26.23725	31154
26.24538	29863
26.25350	31567
26.26163	27569
26.26975	33466
26.27787	33178
26.28600	31808
26.29412	27927
26.30223	35837
26.31037	26497
26.31848	33434
26.32662	30900
26.33473	28398
26.34285	27857
26.35098	29669
26.35910	31933
26.36723	29841
26.37535	25884
26.38347	27797
26.39160	29140
26.39972	26734
26.40785	30564
26.41597	29680
26.42408	27858
26.43222	26741
26.44033	29776
26.44845	28858
26.45658	33039
26.46470	32534
26.47283	28614
26.48095	27342
26.48907	27247
26.49720	26738
26.50532	27270
26.51345	30550
26.52157	29952
26.52968	29954
26.53782	32041
26.54593	30183
26.55407	30813
26.56218	28315
26.57030	29092
26.57843	32049
26.58655	27273
26.59467	28883
26.60280	30806
26.61092	29582
26.61905	26842
26.62717	27081
26.63528	28237
26.64342	28450
26.65153	29851
26.65967	26563
26.66778	24706
26.67590	31110
26.68403	32778
26.69215	27872
26.70027	26769
26.70840	27593
26.71652	28609
26.72465	27473
26.73277	27520
26.74088	28587
26.74902	29641
26.75713	27526
26.76527	28094
26.77338	29414
26.78150	28636
26.78963	27789
26.79775	25509
26.80588	28104
26.81400	36701
26.82212	35708
26.83025	29794
26.83837	28581
26.84648	30127
26.85462	27295
26.86273	27971
26.87087	27294
26.87898	29802
26.88710	28645
26.89523	32435
26.90335	29299
26.91148	26830
26.91960	25036
26.92772	26434
26.93585	28904
26.94397	29279
26.95210	29662
26.96022	26849
26.96833	26276
26.97647	28753
26.98458	25306
26.99270	29036
27.00083	30324
27.00895	28200
27.01708	34527
27.02520	32215
27.03332	31754
27.04145	32500
27.04957	33063
27.05770	28771
27.06582	32045
27.07393	28866
27.08207	25064
27.09018	29498
27.09830	29797
27.10643	34104
27.11455	27945
27.12268	28540
27.13080	30606
27.13892	27400
27.14705	28203
27.15517	31369
27.16330	29452
27.17142	32572
27.17953	29290
27.18767	27514
27.19578	28292
27.20392	27675
27.21203	29382
27.22015	28281
27.22828	27689
27.23640	31837
27.24452	27811
27.25265	30691
27.26077	30978
27.26890	31835
27.27702	30562
27.28513	26679
27.29327	29991
27.30138	29844
27.30952	28049
27.31763	28460
27.32575	25237
27.33388	28174
27.34200	32711
27.35012	30371
27.35825	30098
27.36637	28148
27.37450	30443
27.38262	29514
27.39073	33683
27.39887	28594
27.40698	31510
27.41512	28534
27.42323	23852
27.43135	27961
27.43948	27654
27.44760	27048
27.45573	33028
27.46385	30676
27.47197	30341
27.48010	30046
27.48822	29644
27.49633	28407
27.50447	30566
27.51258	28710
27.52072	29473
27.52883	27800
27.53695	28917
27.54508	30507
27.55320	28211
27.56133	27918
27.56945	28820
27.57757	28891
27.58570	28814
27.59382	29618
27.60195	30606
27.61007	28779
27.61818	31089
27.62632	27895
27.63443	27099
27.64255	29341
27.65068	31058
27.65880	30484
27.66693	26730
27.67505	27134
27.68317	32526
27.69130	30949
27.69942	28463
27.70755	28598
27.71567	31801
27.72378	30562
27.73192	29868
27.74003	34106
27.74815	31380
27.75628	29716
27.76440	30067
27.77253	31765
27.78065	28959
27.78877	29579
27.79690	33547
27.80502	29061
27.81315	30068
27.82127	32589
27.82938	29458
27.83752	29909
27.84563	32443
27.85377	28146
27.86188	31847
27.87000	34864
27.87813	28284
27.88625	31821
27.89437	30198
27.90250	32116
27.91062	34016
27.91875	29845
27.92687	31132
27.93498	30264
27.94312	32993
27.95123	29801
27.95937	28522
27.96748	30358
27.97560	31030
27.98373	29569
27.99185	33195
27.99998	31108
28.00810	28441
28.01622	31095
28.02435	37338
28.03247	29483
28.04058	28616
28.04872	32193
28.05683	32032
28.06497	32210
28.07308	31398
28.08120	31273
28.08933	32794
28.09745	33112
28.10558	31199
28.11370	28726
28.12182	30964
28.12995	30989
28.13807	32129
28.14618	31463
28.15432	34912
28.16243	32977
28.17057	32750
28.17868	32399
28.18680	32602
28.19493	33774
28.20305	29481
28.21118	30135
28.21930	32047
28.22742	31788
28.23555	32088
28.24367	32621
28.25180	33662
28.25992	31629
28.26803	31293
28.27617	30751
28.28428	27354
28.29240	30818
28.30053	32234
28.30865	33308
28.31678	35889
28.32490	32445
28.33302	29445
28.34115	34716
28.34927	32187
28.35740	31888
28.36552	32848
28.37363	34483
28.38177	34276
28.38988	32508
28.39802	31975
28.40613	32851
28.41425	33417
28.42238	33262
28.43050	33566
28.43862	30905
28.44675	36089
28.45487	37963
28.46300	31873
28.47112	36735
28.47923	34292
28.48737	33288
28.49548	37939
28.50362	34427
28.51173	35475
28.51985	36958
28.52798	34135
28.53610	39323
28.54422	41425
28.55235	39665
28.56047	38743
28.56860	42988
28.57672	40559
28.58483	44142
28.59297	42196
28.60108	45484
28.60922	50284
28.61733	47015
28.62545	46422
28.63358	47933
28.64170	53514
28.64983	49316
28.65795	52088
28.66607	62245
28.67420	61406
28.68232	61679
28.69043	65712
28.69857	62085
28.70668	66897
28.71482	73951
28.72293	73483
28.73105	82195
28.73918	81135
28.74730	88663
28.75543	95553
28.76355	101821
28.77167	105333
28.77980	118110
28.78792	122604
28.79603	143153
28.80417	156406
28.81228	168918
28.82042	200364
28.82853	212270
28.83665	240937
28.84478	261190
28.85290	298943
28.86103	340392
28.86915	380032
28.87727	406732
28.88540	454152
28.89352	503786
28.90165	561415
28.90977	596204
28.91788	666004
28.92602	717236
28.93413	782530
28.94225	830721
28.95038	903280
28.95850	964940
28.96663	1051344
28.97475	1114212
28.98287	1155822
28.99100	1230184
28.99912	1286058
29.00725	1334012
29.01537	1384764
29.02348	1427080
29.03162	1543485
29.03973	1597242
29.04787	1706031
29.05598	1825008
29.06410	1955005
29.07223	2045595
29.08035	2252549
29.08847	2349702
29.09660	2490764
29.10472	2674630
29.11285	2812032
29.12097	2970026
29.12908	3214009
29.13722	3463554
29.14533	3656986
29.15347	3896302
29.16158	4014416
29.16970	4228309
29.17783	4533083
29.18595	4784725
29.19407	4886423
29.20220	5000633
29.21032	5106960
29.21845	5304185
29.22657	5389006
29.23468	5535877
29.24282	5684279
29.25093	5774549
29.25907	5749200
29.26718	5825474
29.27530	5878078
29.28343	6141430
29.29155	6321567
29.29968	6420105
29.30780	6472700
29.31592	6513133
29.32405	6608812
29.33217	6755527
29.34028	6797002
29.34842	6848986
29.35653	7034382
29.36467	7035313
29.37278	7296880
29.38090	7729678
29.38903	7868434
29.39715	8213918
29.40528	8516947
29.41340	8879013
29.42152	9143097
29.42965	9378108
29.43777	9980857
29.44590	1.058743E+07
29.45402	1.113058E+07
29.46213	1.159612E+07
29.47027	1.222842E+07
29.47838	1.276145E+07
29.48650	1.31003E+07
29.49463	1.346621E+07
29.50275	1.367052E+07
29.51088	1.373788E+07
29.51900	1.397455E+07
29.52712	1.391381E+07
29.53525	1.404964E+07
29.54337	1.442517E+07
29.55150	1.425803E+07
29.55962	1.440548E+07
29.56773	1.433234E+07
29.57587	1.452043E+07
29.58398	1.440095E+07
29.59210	1.474151E+07
29.60023	1.485057E+07
29.60835	1.477644E+07
29.61648	1.472601E+07
29.62460	1.491151E+07
29.63272	1.509878E+07
29.64085	1.499263E+07
29.64897	1.525206E+07
29.65710	1.517298E+07
29.66522	1.516032E+07
29.67333	1.504344E+07
29.68147	1.51383E+07
29.68958	1.589747E+07
29.69772	1.63507E+07
29.70583	1.66892E+07
29.71395	1.711692E+07
29.72208	1.812994E+07
29.73020	1.911149E+07
29.73832	1.910723E+07
29.74645	1.954441E+07
29.75457	2.032817E+07
29.76270	2.131648E+07
29.77082	2.15889E+07
29.77893	2.205677E+07
29.78707	2.282993E+07
29.79518	2.316812E+07
29.80332	2.286013E+07
29.81143	2.317794E+07
29.81955	2.452588E+07
29.82768	2.447374E+07
29.83580	2.477369E+07
29.84392	2.496429E+07
29.85205	2.501794E+07
29.86017	2.478529E+07
29.86830	2.441103E+07
29.87642	2.399676E+07
29.88453	2.352171E+07
29.89267	2.354578E+07
29.90078	2.332985E+07
29.90892	2.2647E+07
29.91703	2.236787E+07
29.92515	2.114902E+07
29.93328	1.97565E+07
29.94140	1.806601E+07
29.94953	1.693507E+07
29.95765	1.53242E+07
29.96577	1.339221E+07
29.97390	1.18575E+07
29.98202	1.014543E+07
29.99013	8790025
29.99827	7161166
30.00638	5762784
30.01452	4559754
30.02263	3540299
30.03075	2722987
30.03888	2100412
30.04700	1634386
30.05513	1280147
30.06325	1008415
30.07137	831355
30.07950	679575
30.08762	556342
30.09575	477407
30.10387	411652
30.11198	349585
30.12012	306578
30.12823	276988
30.13635	252482
30.14448	231592
30.15260	223716
30.16073	199907
30.16885	186314
30.17697	177251
30.18510	161985
30.19322	164005
30.20135	150736
30.20947	145244
30.21758	141064
30.22572	136618
30.23383	133330
30.24197	129298
30.25008	124232
30.25820	125535
30.26633	115328
30.27445	116028
30.28257	110755
30.29070	116479
30.29882	104268
30.30695	108447
30.31507	103223
30.32318	102551
30.33132	92971
30.33943	92670
30.34757	91995
30.35568	95411
30.36380	88853
30.37193	90990
30.38005	90577
30.38817	85945
30.39630	85926
30.40442	83130
30.41255	84881
30.42067	84772
30.42878	82548
30.43692	83489
30.44503	79211
30.45317	80862
30.46128	76045
30.46940	80904
30.47753	77157
30.48565	75171
30.49378	80368
30.50190	74846
30.51002	70651
30.51815	77886
30.52627	72647
30.53438	74243
30.54252	69893
30.55063	73578
30.55877	70902
30.56688	67061
30.57500	72475
30.58313	69461
30.59125	71587
30.59938	74027
30.60750	68720
30.61562	72790
30.62375	68328
30.63187	65742
30.63998	62380
30.64812	66886
30.65623	62088
30.66437	64763
30.67248	61304
30.68060	64804
30.68873	62779
30.69685	63781
30.70498	67111
30.71310	61598
30.72122	62334
30.72935	61324
30.73747	62454
30.74560	61949
30.75372	61532
30.76183	62023
30.76997	61790
30.77808	64810
30.78620	58315
30.79433	56487
30.80245	59581
30.81058	59628
30.81870	56731
30.82682	58371
30.83495	60017
30.84307	56939
30.85120	60695
30.85932	58827
30.86743	57351
30.87557	58850
30.88368	56475
30.89182	57014
30.89993	63057
30.90805	56211
30.91618	56679
30.92430	58152
30.93242	55384
30.94055	55029
30.94867	57615
30.95680	54997
30.96492	55955
30.97303	55977
30.98117	58183
30.98928	60347
30.99742	55842
31.00553	61479
31.01365	56600
31.02178	57083
31.02990	56399
31.03802	60147
31.04615	52191
31.05427	54364
31.06240	51555
31.07052	55760
31.07863	55634
31.08677	54334
31.09488	57514
31.10302	53278
31.11113	51687
31.11925	55257
31.12738	50238
31.13550	53278
31.14363	51293
31.15175	53504
31.15987	54677
31.16800	53523
31.17612	53975
31.18423	54661
31.19237	53807
31.20048	55043
31.20862	56134
31.21673	54172
31.22485	53589
31.23298	50323
31.24110	53088
31.24923	56552
31.25735	54995
31.26547	55933
31.27360	52481
31.28172	50587
31.28985	52629
31.29797	50221
31.30608	51970
31.31422	51121
31.32233	50924
31.33045	52826
31.33858	51930
31.34670	52559
31.35483	51580
31.36295	53866
31.37107	55872
31.37920	54851
31.38732	50720
31.39545	56527
31.40357	50588
31.41168	49995
31.41982	49573
31.42793	52556
31.43605	51906
31.44418	51443
31.45230	51511
31.46043	51098
31.46855	50693
31.47667	54195
31.48480	52289
31.49292	50867
31.50105	52264
31.50917	50506
31.51728	51591
31.52542	53018
31.53353	53684
31.54167	51911
31.54978	49422
31.55790	52878
31.56603	50652
31.57415	50565
31.58227	53398
31.59040	49599
31.59852	54631
31.60665	50217
31.61477	51710
31.62288	49143
31.63102	55868
31.63913	50823
31.64727	49861
31.65538	56780
31.66350	49447
31.67163	50843
31.67975	51402
31.68787	51982
31.69600	52841
31.70412	46387
31.71225	53649
31.72037	48993
31.72848	52589
31.73662	49335
31.74473	51738
31.75287	51541
31.76098	51966
31.76910	54232
31.77723	49305
31.78535	52267
31.79348	47518
31.80160	55051
31.80972	52528
31.81785	52629
31.82597	50893
31.83408	46883
31.84222	51115
31.85033	52836
31.85847	53394
31.86658	52339
31.87470	57759
31.88283	55501
31.89095	52929
31.89908	53533
31.90720	57969
31.91532	56384
31.92345	52012
31.93157	54341
31.93970	58471
31.94782	57786
31.95593	57039
31.96407	58000
31.97218	58869
31.98030	56495
31.98843	58967
31.99655	57626
32.00468	59513
32.01280	58814
32.02092	60550
32.02905	59192
32.03717	62575
32.04530	63871
32.05342	59594
32.06153	58801
32.06967	64316
32.07778	63107
32.08590	58026
32.09403	61840
32.10215	59084
32.11028	56837
32.11840	56271
32.12652	61556
32.13465	53523
32.14277	57102
32.15090	54785
32.15902	59453
32.16713	59026
32.17527	53374
32.18338	52442
32.19152	54645
32.19963	58529
32.20775	56952
32.21588	56084
32.22400	51994
32.23212	51645
32.24025	52172
32.24837	55269
32.25650	50714
32.26462	51243
32.27273	57671
32.28087	50301
32.28898	49441
32.29712	49590
32.30523	58800
32.31335	52822
32.32148	52669
32.32960	52060
32.33773	51477
32.34585	50095
32.35397	52429
32.36210	51857
32.37022	50128
32.37833	57762
32.38647	54271
32.39458	49653
32.40272	53223
32.41083	57828
32.41895	48320
32.42708	53377
32.43520	50654
32.44333	52388
32.45145	50711
32.45957	49210
32.46770	50676
32.47582	52343
32.48393	55030
32.49207	51457
32.50018	51545
32.50832	47679
32.51643	54527
32.52455	52510
32.53268	52334
32.54080	53858
32.54893	48627
32.55705	47762
32.56517	48442
32.57330	49354
32.58142	51973
32.58955	50861
32.59767	51759
32.60578	48381
32.61392	51773
32.62203	50289
32.63015	47423
32.63828	54999
32.64640	49203
32.65453	51637
32.66265	51129
32.67077	51779
32.67890	52871
32.68702	53214
32.69515	53572
32.70327	51912
32.71138	48991
32.71952	48839
32.72763	50172
32.73577	53055
32.74388	52375
32.75200	53006
32.76013	51570
32.76825	50554
32.77637	48620
32.78450	45202
32.79262	51552
32.80075	51751
32.80887	52163
32.81698	52268
32.82512	51102
32.83323	52449
32.84137	51148
32.84948	53969
32.85760	51575
32.86573	52550
32.87385	51178
32.88197	50300
32.89010	53032
32.89822	51342
32.90635	52841
32.91447	52740
32.92258	53861
32.93072	48737
32.93883	50499
32.94697	52652
32.95508	50674
32.96320	50175
32.97133	48506
32.97945	52536
32.98758	60623
32.99570	58359
33.00382	50719
33.01195	50176
33.02007	57201
33.02818	55088
33.03632	51018
33.04443	51230
33.05257	48431
33.06068	50889
33.06880	51271
33.07693	54078
33.08505	53214
33.09318	54022
33.10130	54276
33.10942	52143
33.11755	60232
33.12567	52520
33.13378	54375
33.14192	53193
33.15003	54347
33.15817	57944
33.16628	54705
33.17440	53176
33.18253	54966
33.19065	52694
33.19878	50745
33.20690	59293
33.21502	53502
33.22315	53407
33.23127	56968
33.23940	55064
33.24752	54435
33.25563	50143
33.26377	54446
33.27188	52297
33.28000	52332
33.28813	57004
33.29625	56019
33.30438	61760
33.31250	56138
33.32062	56139
33.32875	52621
33.33687	52943
33.34500	54242
33.35312	59421
33.36123	55744
33.36937	56246
33.37748	52218
33.38562	51972
33.39373	59379
33.40185	57498
33.40998	51320
33.41810	59892
33.42622	56146
33.43435	52872
33.44247	51516
33.45060	56478
33.45872	55223
33.46683	59011
33.47497	59076
33.48308	57404
33.49122	49974
33.49933	61112
33.50745	56743
33.51558	53958
33.52370	52926
33.53182	53570
33.53995	57911
33.54807	52526
33.55620	53203
33.56432	58592
33.57243	52037
33.58057	54970
33.58868	59479
33.59682	54767
33.60493	54866
33.61305	54460
33.62118	53245
33.62930	52008
33.63743	53946
33.64555	54115
33.65367	56371
33.66180	54875
33.66992	54043
33.67803	54404
33.68617	49976
33.69428	53609
33.70242	52048
33.71053	50835
33.71865	51673
33.72678	53028
33.73490	55806
33.74303	58819
33.75115	54512
33.75927	55756
33.76740	52456
33.77552	59168
33.78365	58989
33.79177	56503
33.79988	54427
33.80802	51640
33.81613	56484
33.82425	57303
33.83238	52409
33.84050	55002
33.84863	54633
33.85675	54508
33.86487	51085
33.87300	52505
33.88112	59062
33.88925	59256
33.89737	56851
33.90548	55649
33.91362	53913
33.92173	51556
33.92985	61947
33.93798	52997
33.94610	56239
33.95423	54248
33.96235	56096
33.97047	59261
33.97860	57873
33.98672	56927
33.99485	62410
34.00297	56002
34.01108	55564
34.01922	66192
34.02733	62749
34.03547	55470
34.04358	54910
34.05170	56069
34.05983	62808
34.06795	59634
34.07607	53463
34.08420	56455
34.09232	57080
34.10045	55779
34.10857	54769
34.11668	57983
34.12482	57833
34.13293	55417
34.14107	56618
34.14918	56790
34.15730	55403
34.16543	58870
34.17355	56145
34.18167	56563
34.18980	56229
34.19792	50446
34.20605	57139
34.21417	57719
34.22228	53279
34.23042	52819
34.23853	56958
34.24667	60395
34.25478	58833
34.26290	61851
34.27103	61449
34.27915	58778
34.28728	61421
34.29540	59964
34.30352	61186
34.31165	60748
34.31977	59263
34.32788	62799
34.33602	62669
34.34413	57046
34.35227	62529
34.36038	61630
34.36850	59753
34.37663	61795
34.38475	65077
34.39288	61742
34.40100	62104
34.40912	62363
34.41725	62979
34.42537	59530
34.43350	63325
34.44162	62214
34.44973	62816
34.45787	62375
34.46598	60318
34.47410	58170
34.48223	60215
34.49035	61989
34.49848	61465
34.50660	61079
34.51472	57296
34.52285	60048
34.53097	59414
34.53910	63904
34.54722	60127
34.55533	63612
34.56347	59638
34.57158	63564
34.57970	59104
34.58783	63432
34.59595	63380
34.60408	58503
34.61220	55990
34.62032	63848
34.62845	63822
34.63657	59639
34.64470	62114
34.65282	55911
34.66093	60988
34.66907	61019
34.67718	60266
34.68532	60076
34.69343	59193
34.70155	58384
34.70968	62076
34.71780	61900
34.72592	59357
34.73405	57928
34.74217	65087
34.75030	57362
34.75842	67065
34.76653	64422
34.77467	61521
34.78278	67549
34.79092	63499
34.79903	65065
34.80715	63967
34.81528	60014
34.82340	72255
34.83153	62078
34.83965	61319
34.84777	64534
34.85590	63197
34.86402	63761
34.87213	63085
34.88027	63680
34.88838	62253
34.89652	60641
34.90463	57159
34.91275	60374
34.92088	62860
34.92900	63177
34.93713	64725
34.94525	62672
34.95337	62961
34.96150	60731
34.96962	61059
34.97773	63869
34.98587	64803
34.99398	60527
35.00212	61319
35.01023	61649
35.01835	64383
35.02648	59949
35.03460	71094
35.04273	61235
35.05085	62598
35.05897	61228
35.06710	61128
35.07522	62860
35.08335	59228
35.09147	63098
35.09958	62241
35.10772	64899
35.11583	66644
35.12395	65224
35.13208	59930
35.14020	62659
35.14833	60280
35.15645	62337
35.16457	61383
35.17270	63778
35.18082	61077
35.18895	60606
35.19707	63942
35.20518	60677
35.21332	64481
35.22143	61200
35.22955	61797
35.23768	66332
35.24580	60938
35.25393	61736
35.26205	64013
35.27017	63347
35.27830	59065
35.28642	68853
35.29455	60503
35.30267	63355
35.31078	59483
35.31892	60699
35.32703	58733
35.33517	64672
35.34328	64287
35.35140	60166
35.35953	65219
35.36765	60785
35.37577	60232
35.38390	64920
35.39202	63374
35.40015	62892
35.40827	67587
35.41638	60742
35.42452	62786
35.43263	57957
35.44077	61257
35.44888	62753
35.45700	62570
35.46513	66543
35.47325	62898
35.48138	59042
35.48950	64321
35.49762	65210
35.50575	62223
35.51387	63753
35.52198	64230
35.53012	62963
35.53823	63157
35.54637	66090
35.55448	71325
35.56260	67905
35.57073	66773
35.57885	67739
35.58698	67631
35.59510	65718
35.60322	68093
35.61135	70583
35.61947	67021
35.62760	67539
35.63572	69547
35.64383	78026
35.65197	73259
35.66008	74510
35.66820	74762
35.67633	77567
35.68445	72458
35.69258	71121
35.70070	74422
35.70882	80304
35.71695	80116
35.72507	85503
35.73320	77452
35.74132	83825
35.74943	86062
35.75757	88029
35.76568	82324
35.77380	89958
35.78193	88432
35.79005	88994
35.79818	86673
35.80630	91476
35.81442	93810
35.82255	89569
35.83067	88851
35.83880	92298
35.84692	89229
35.85503	88836
35.86317	103056
35.87128	102163
35.87942	99148
35.88753	95271
35.89565	103190
35.90378	98765
35.91190	99230
35.92002	99618
35.92815	101146
35.93627	105114
35.94440	104906
35.95252	101873
35.96063	100038
35.96877	107250
35.97688	97544
35.98502	95568
35.99313	93471
36.00125	103406
36.00938	98035
36.01750	94190
36.02562	93607
36.03375	89668
36.04187	85864
36.05000	87283
36.05812	81893
36.06623	82673
36.07437	82452
36.08248	78864
36.09062	78905
36.09873	80286
36.10685	80772
36.11498	81466
36.12310	74368
36.13123	79262
36.13935	75028
36.14747	76843
36.15560	76488
36.16372	73964
36.17183	76503
36.17997	75402
36.18808	70961
36.19622	72118
36.20433	72844
36.21245	76722
36.22058	74747
36.22870	77388
36.23683	76961
36.24495	76852
36.25307	77404
36.26120	79161
36.26932	77637
36.27745	73146
36.28557	78302
36.29368	77714
36.30182	81117
36.30993	76874
36.31805	81502
36.32618	81332
36.33430	75846
36.34243	77061
36.35055	80689
36.35867	79297
36.36680	80815
36.37492	81207
36.38305	79973
36.39117	88675
36.39928	79966
36.40742	82347
36.41553	84277
36.42365	86874
36.43178	84734
36.43990	86148
36.44803	93176
36.45615	91156
36.46427	90723
36.47240	94640
36.48052	96431
36.48865	98323
36.49677	101401
36.50488	105120
36.51302	110214
36.52113	117603
36.52927	121382
36.53738	129160
36.54550	147916
36.55363	163976
36.56175	188571
36.56987	217539
36.57800	256939
36.58612	310143
36.59425	377300
36.60237	456229
36.61048	578568
36.61862	721993
36.62673	933114
36.63487	1140206
36.64298	1407304
36.65110	1718749
36.65923	2039254
36.66735	2394557
36.67548	2764440
36.68360	3163295
36.69172	3582106
36.69985	4216881
36.70797	4969775
36.71608	5529187
36.72422	6079207
36.73233	6892996
36.74047	7753771
36.74858	8725579
36.75670	9623210
36.76483	1.076406E+07
36.77295	1.177612E+07
36.78108	1.300969E+07
36.78920	1.399163E+07
36.79732	1.525944E+07
36.80545	1.647688E+07
36.81357	1.734971E+07
36.82168	1.792062E+07
36.82982	1.883477E+07
36.83793	2.009331E+07
36.84607	2.131527E+07
36.85418	2.223112E+07
36.86230	2.397413E+07
36.87043	2.451013E+07
36.87855	2.537734E+07
36.88668	2.616104E+07
36.89480	2.66976E+07
36.90292	2.733647E+07
36.91105	2.80195E+07
36.91917	2.94399E+07
36.92730	3.047577E+07
36.93542	3.148773E+07
36.94353	3.286422E+07
36.95167	3.395599E+07
36.95978	3.594562E+07
36.96790	3.698016E+07
36.97603	3.910956E+07
36.98415	3.968638E+07
36.99228	4.0416E+07
37.00040	4.250991E+07
37.00852	4.492041E+07
37.01665	4.612036E+07
37.02477	4.689964E+07
37.03290	4.787144E+07
37.04102	5.015129E+07
37.04913	5.032145E+07
37.05727	5.032946E+07
37.06538	5.071124E+07
37.07350	5.035164E+07
37.08163	4.662033E+07
37.08975	4.06188E+07
37.09788	3.139622E+07
37.10600	2.036489E+07
37.11412	1.215174E+07
37.12225	7008689
37.13037	4252871
37.13850	2683873
37.14662	1824083
37.15473	1342462
37.16287	1048330
37.17098	861906
37.17912	736197
37.18723	649466
37.19535	579383
37.20348	521085
37.21160	484584
37.21972	448756
37.22785	414748
37.23597	406589
37.24410	374019
37.25222	374785
37.26033	349852
37.26847	325521
37.27658	312303
37.28472	312033
37.29283	298879
37.30095	289805
37.30908	267334
37.31720	267943
37.32533	263077
37.33345	258000
37.34157	259008
37.34970	247828
37.35782	245318
37.36593	233181
37.37407	237468
37.38218	235230
37.39032	234036
37.39843	234910
37.40655	232484
37.41468	232192
37.42280	243218
37.43093	246703
37.43905	251482
37.44717	258541
37.45530	269154
37.46342	282022
37.47153	294662
37.47967	327758
37.48778	333279
