Z:\data\JTB-E02\BACandBLUE\JTB-E18-006-11.D Thu Apr 11 13:54:50 2019
Start of data points
2.09542	137219
2.10353	141328
2.11165	145969
2.11978	141099
2.12790	136556
2.13603	134891
2.14415	140045
2.15227	146017
2.16040	138038
2.16852	138956
2.17663	136708
2.18477	131449
2.19288	132473
2.20102	136240
2.20913	128612
2.21725	130590
2.22538	130026
2.23350	132690
2.24163	125280
2.24975	119783
2.25787	129485
2.26600	139604
2.27412	1029366
2.28225	6988665
2.29037	8145754
2.29848	3643152
2.30662	2177506
2.31473	1751389
2.32285	1481588
2.33098	1297611
2.33910	1156883
2.34723	1033779
2.35535	927158
2.36347	851300
2.37160	786871
2.37972	731116
2.38785	698819
2.39597	663545
2.40408	642063
2.41222	606502
2.42033	596904
2.42847	575386
2.43658	554099
2.44470	521590
2.45283	510605
2.46095	505238
2.46907	492097
2.47720	494812
2.48532	488514
2.49345	472090
2.50157	485544
2.50968	467082
2.51782	463870
2.52593	462856
2.53407	453264
2.54218	437299
2.55030	444500
2.55843	552268
2.56655	1215490
2.57467	1570829
2.58280	1203375
2.59092	943861
2.59905	819528
2.60717	725534
2.61528	696336
2.62342	711687
2.63153	657690
2.63967	631201
2.64778	569850
2.65590	557033
2.66403	544143
2.67215	522796
2.68028	505815
2.68840	491940
2.69652	483097
2.70465	476906
2.71277	467591
2.72088	468166
2.72902	460250
2.73713	440067
2.74527	442314
2.75338	451941
2.76150	435338
2.76963	413424
2.77775	439347
2.78588	568780
2.79400	1036459
2.80212	1113419
2.81025	829742
2.81837	651307
2.82650	598716
2.83462	556190
2.84273	529734
2.85087	489256
2.85898	469069
2.86710	447221
2.87523	434284
2.88335	423090
2.89148	411740
2.89960	408177
2.90772	397808
2.91585	390334
2.92397	387886
2.93210	378342
2.94022	371462
2.94833	369116
2.95647	367745
2.96458	362530
2.97270	369840
2.98083	373731
2.98895	360459
2.99708	401104
3.00520	447781
3.01332	455619
3.02145	428908
3.02957	408591
3.03770	371489
3.04582	375659
3.05393	369149
3.06207	386105
3.07018	422680
3.07832	437001
3.08643	414094
3.09455	392237
3.10268	412304
3.11080	449816
3.11892	512457
3.12705	480036
3.13517	414664
3.14330	390004
3.15142	368563
3.15953	356746
3.16767	354482
3.17578	381343
3.18392	422990
3.19203	671849
3.20015	1347227
3.20828	1618922
3.21640	1237484
3.22452	932539
3.23265	759860
3.24077	667090
3.24890	596614
3.25702	537061
3.26513	498112
3.27327	468209
3.28138	431398
3.28952	451592
3.29763	697869
3.30575	1848780
3.31388	4140301
3.32200	5953575
3.33013	5839919
3.33825	4685316
3.34637	3599590
3.35450	2934939
3.36262	2464480
3.37073	2133079
3.37887	1895646
3.38698	1684244
3.39512	1531355
3.40323	1413962
3.41135	1299839
3.41948	1256942
3.42760	1222367
3.43573	1149443
3.44385	1065903
3.45197	995939
3.46010	940829
3.46822	888054
3.47635	838531
3.48447	815254
3.49258	776368
3.50072	762213
3.50883	726085
3.51695	697051
3.52508	711974
3.53320	793289
3.54133	833328
3.54945	776469
3.55757	709269
3.56570	667578
3.57382	632235
3.58195	612048
3.59007	614372
3.59818	584303
3.60632	579552
3.61443	563158
3.62255	543429
3.63068	545769
3.63880	546114
3.64693	561775
3.65505	550702
3.66317	602117
3.67130	1535713
3.67942	5736864
3.68755	1.174193E+07
3.69567	1.272942E+07
3.70378	9138710
3.71192	6015969
3.72003	4570228
3.72817	3763571
3.73628	3209808
3.74440	2821227
3.75253	2523356
3.76065	2255858
3.76877	2066880
3.77690	1909774
3.78502	1742906
3.79315	1648914
3.80127	1551976
3.80938	1449328
3.81752	1383958
3.82563	1309524
3.83377	1253197
3.84188	1195922
3.85000	1143212
3.85813	1065902
3.86625	1031566
3.87438	988853
3.88250	938345
3.89062	914119
3.89875	874718
3.90687	847894
3.91498	843144
3.92312	862744
3.93123	922161
3.93937	1000662
3.94748	979551
3.95560	895820
3.96373	844922
3.97185	843779
3.97998	841506
3.98810	796649
3.99622	734861
4.00435	695426
4.01247	769509
4.02058	898359
4.02872	928120
4.03683	867422
4.04497	745703
4.05308	678617
4.06120	622107
4.06933	600141
4.07745	567640
4.08558	555985
4.09370	549467
4.10182	543067
4.10995	535140
4.11807	523895
4.12620	529516
4.13432	684384
4.14243	1503459
4.15057	3423775
4.15868	5349322
4.16680	5414813
4.17493	3968117
4.18305	2520309
4.19118	1672696
4.19930	1234379
4.20742	1105713
4.21555	1876074
4.22367	5902782
4.23180	1.40419E+07
4.23992	2.219096E+07
4.24803	2.80445E+07
4.25617	3.131904E+07
4.26428	3.048434E+07
4.27242	2.15646E+07
4.28053	1.196774E+07
4.28865	7929177
4.29678	5742329
4.30490	4396932
4.31302	3465908
4.32115	2782674
4.32927	2298616
4.33740	1973768
4.34552	1753744
4.35363	1563043
4.36177	1425077
4.36988	1379700
4.37802	1307314
4.38613	1225225
4.39425	1117364
4.40238	1036436
4.41050	944474
4.41862	889338
4.42675	835029
4.43487	815956
4.44300	772810
4.45112	765136
4.45923	713134
4.46737	736202
4.47548	1004855
4.48362	2064193
4.49173	4071688
4.49985	5384827
4.50798	4910341
4.51610	3598345
4.52423	2648179
4.53235	2140314
4.54047	1867415
4.54860	1688298
4.55672	1560733
4.56483	1479164
4.57297	1358987
4.58108	1292760
4.58922	1228621
4.59733	1166627
4.60545	1129955
4.61358	1088953
4.62170	1053521
4.62983	1045388
4.63795	1120505
4.64607	1238793
4.65420	1328066
4.66232	1272114
4.67043	1167438
4.67857	1050493
4.68668	979048
4.69482	957434
4.70293	911620
4.71105	873231
4.71918	832980
4.72730	813251
4.73543	806462
4.74355	768268
4.75167	760559
4.75980	742200
4.76792	739353
4.77605	715865
4.78417	692099
4.79228	689531
4.80042	693495
4.80853	692495
4.81665	699468
4.82478	670078
4.83290	675184
4.84103	644506
4.84915	634880
4.85727	629386
4.86540	612619
4.87352	618044
4.88165	602665
4.88977	612132
4.89788	587122
4.90602	577381
4.91413	572365
4.92227	566940
4.93038	563750
4.93850	600326
4.94663	819630
4.95475	1376224
4.96287	2380950
4.97100	3423003
4.97912	3838323
4.98725	3544974
4.99537	2849149
5.00348	2267311
5.01162	1830489
5.01973	1547281
5.02787	1359725
5.03598	1287884
5.04410	1270827
5.05223	1248629
5.06035	1189729
5.06847	1126030
5.07660	1043564
5.08472	987436
5.09285	945395
5.10097	906356
5.10908	868535
5.11722	845432
5.12533	822882
5.13347	796357
5.14158	788380
5.14970	771819
5.15783	761118
5.16595	780750
5.17408	815199
5.18220	861739
5.19032	825324
5.19845	775519
5.20657	781544
5.21468	797275
5.22282	808387
5.23093	779092
5.23907	740959
5.24718	710634
5.25530	681714
5.26343	648283
5.27155	604874
5.27968	555121
5.28780	550887
5.29592	539105
5.30405	527911
5.31217	523646
5.32030	502278
5.32842	509901
5.33653	498891
5.34467	489383
5.35278	478311
5.36090	472336
5.36903	478384
5.37715	486758
5.38528	475074
5.39340	488973
5.40152	508501
5.40965	521561
5.41777	529647
5.42590	510822
5.43402	510909
5.44213	547250
5.45027	767382
5.45838	1151735
5.46650	1575811
5.47463	1690892
5.48275	1453830
5.49088	1062944
5.49900	792459
5.50712	641738
5.51525	571854
5.52337	540833
5.53150	499243
5.53962	492041
5.54773	470808
5.55587	466693
5.56398	499464
5.57212	573712
5.58023	665873
5.58835	716552
5.59648	675103
5.60460	584240
5.61272	518847
5.62085	479284
5.62897	458279
5.63710	426773
5.64522	427972
5.65333	432633
5.66147	428613
5.66958	432649
5.67772	482774
5.68583	676287
5.69395	975225
5.70208	1249582
5.71020	1276820
5.71832	1036764
5.72645	802759
5.73457	665338
5.74270	586409
5.75082	530086
5.75893	494774
5.76707	459909
5.77518	458633
5.78332	423117
5.79143	432063
5.79955	449482
5.80768	514543
5.81580	596243
5.82393	683841
5.83205	671276
5.84017	642633
5.84830	598179
5.85642	567342
5.86453	544609
5.87267	499062
5.88078	482402
5.88892	462254
5.89703	446573
5.90515	417822
5.91328	394920
5.92140	378384
5.92953	382070
5.93765	388098
5.94577	386165
5.95390	386608
5.96202	389361
5.97015	387023
5.97827	399690
5.98638	426909
5.99452	439093
6.00263	442531
6.01075	427867
6.01888	387432
6.02700	365798
6.03513	338736
6.04325	330154
6.05137	319132
6.05950	315005
6.06762	297268
6.07575	299548
6.08387	286897
6.09198	274299
6.10012	288360
6.10823	278999
6.11635	275916
6.12448	282369
6.13260	299242
6.14073	364061
6.14885	475668
6.15697	589428
6.16510	634625
6.17322	627569
6.18135	561914
6.18947	508690
6.19758	444048
6.20572	410613
6.21383	386951
6.22197	357560
6.23008	351418
6.23820	340254
6.24633	332421
6.25445	336854
6.26257	351688
6.27070	364095
6.27882	341473
6.28695	336124
6.29507	337023
6.30318	371333
6.31132	447117
6.31943	531216
6.32757	558243
6.33568	508346
6.34380	424944
6.35193	371521
6.36005	338586
6.36818	323662
6.37630	315497
6.38442	313576
6.39255	311033
6.40067	304328
6.40878	304666
6.41692	298456
6.42503	282694
6.43317	284156
6.44128	281395
6.44940	276333
6.45753	286006
6.46565	285591
6.47378	274991
6.48190	281469
6.49002	277415
6.49815	268518
6.50627	270982
6.51438	267608
6.52252	272018
6.53063	267839
6.53877	271557
6.54688	267607
6.55500	264328
6.56313	270485
6.57125	294794
6.57938	339424
6.58750	395248
6.59562	441497
6.60375	395983
6.61187	357027
6.62000	306761
6.62812	292714
6.63623	284369
6.64437	329466
6.65248	567878
6.66060	1314876
6.66873	2771025
6.67685	4265636
6.68498	4686119
6.69310	3847319
6.70122	2646668
6.70935	1768210
6.71747	1305975
6.72560	1034192
6.73372	879381
6.74183	887258
6.74997	810015
6.75808	710162
6.76620	663418
6.77433	592501
6.78245	560396
6.79058	538087
6.79870	534636
6.80682	530172
6.81495	547321
6.82307	540933
6.83120	537688
6.83932	514158
6.84743	478293
6.85557	438970
6.86368	386248
6.87182	354348
6.87993	315310
6.88805	296170
6.89618	280692
6.90430	265933
6.91242	261037
6.92055	252101
6.92867	242797
6.93680	236682
6.94492	231423
6.95303	220746
6.96117	231205
6.96928	234461
6.97742	257841
6.98553	253014
6.99365	262212
7.00178	235773
7.00990	228138
7.01803	229263
7.02615	237269
7.03427	254808
7.04240	249680
7.05052	249256
7.05863	262562
7.06677	272251
7.07488	271874
7.08302	274678
7.09113	265887
7.09925	243735
7.10738	244822
7.11550	225345
7.12363	213945
7.13175	218698
7.13987	218299
7.14800	214195
7.15612	232263
7.16425	253609
7.17237	275554
7.18048	275064
7.18862	265848
7.19673	270394
7.20485	301494
7.21298	444426
7.22110	1012961
7.22923	2147521
7.23735	3693298
7.24547	4590501
7.25360	4067879
7.26172	2825394
7.26985	1599731
7.27797	927279
7.28608	614439
7.29422	419385
7.30233	306228
7.31045	253565
7.31858	236419
7.32670	242997
7.33483	237454
7.34295	249255
7.35107	239989
7.35920	236223
7.36732	217071
7.37545	217449
7.38357	206580
7.39168	206894
7.39982	201081
7.40793	199174
7.41607	197890
7.42418	196774
7.43230	193914
7.44043	189984
7.44855	195379
7.45667	188419
7.46480	197294
7.47292	186749
7.48105	180444
7.48917	173858
7.49728	174726
7.50542	175141
7.51353	178688
7.52167	196864
7.52978	254595
7.53790	388105
7.54603	611168
7.55415	888284
7.56227	1207679
7.57040	1359624
7.57852	1320389
7.58665	1114623
7.59477	836231
7.60288	613787
7.61102	474929
7.61913	382666
7.62727	303774
7.63538	262979
7.64350	229383
7.65163	210513
7.65975	193579
7.66788	177422
7.67600	171679
7.68412	169852
7.69225	165306
7.70037	161460
7.70848	172768
7.71662	174099
7.72473	176346
7.73287	163160
7.74098	162772
7.74910	157791
7.75723	156136
7.76535	157970
7.77348	163910
7.78160	172834
7.78972	172683
7.79785	171912
7.80597	175409
7.81410	189307
7.82222	211238
7.83033	312899
7.83847	570485
7.84658	1143367
7.85470	2081230
7.86283	3425310
7.87095	5215807
7.87908	7684566
7.88720	1.094358E+07
7.89532	1.364248E+07
7.90345	1.45549E+07
7.91157	1.278657E+07
7.91970	9484154
7.92782	6209998
7.93593	4023725
7.94407	2841370
7.95218	2118186
7.96030	1617984
7.96843	1284803
7.97655	977297
7.98468	788298
7.99280	633679
8.00092	554744
8.00905	530319
8.01717	603006
8.02530	717912
8.03342	874533
8.04153	955919
8.04967	987362
8.05778	952975
8.06592	910423
8.07403	864677
8.08215	820984
8.09028	770486
8.09840	736559
8.10652	700285
8.11465	681211
8.12277	642133
8.13090	609038
8.13902	592328
8.14713	558660
8.15527	559294
8.16338	538654
8.17152	516903
8.17963	490576
8.18775	485396
8.19588	473079
8.20400	444378
8.21213	443265
8.22025	422758
8.22837	417072
8.23650	404178
8.24462	395748
8.25273	387263
8.26087	372651
8.26898	368431
8.27712	356021
8.28523	347927
8.29335	341952
8.30148	332865
8.30960	315292
8.31773	321684
8.32585	320072
8.33397	311439
8.34210	309389
8.35022	300268
8.35833	285914
8.36647	281750
8.37458	287144
8.38272	279684
8.39083	270950
8.39895	262256
8.40708	257014
8.41520	251075
8.42333	247097
8.43145	240412
8.43957	246500
8.44770	232742
8.45582	238732
8.46395	237937
8.47207	233194
8.48018	222497
8.48832	234869
8.49643	229964
8.50455	227739
8.51268	243164
8.52080	358117
8.52893	743595
8.53705	1845711
8.54517	3894969
8.55330	6270780
8.56142	7779433
8.56955	7380861
8.57767	5391401
8.58578	3128569
8.59392	1584937
8.60203	894534
8.61015	648258
8.61828	568357
8.62640	519562
8.63453	486451
8.64265	441082
8.65077	417295
8.65890	389129
8.66702	371414
8.67515	372625
8.68327	339371
8.69138	331799
8.69952	324464
8.70763	303240
8.71577	296099
8.72388	282503
8.73200	278549
8.74013	269626
8.74825	265625
8.75637	266658
8.76450	321139
8.77262	438292
8.78075	670148
8.78887	952801
8.79698	1138053
8.80512	1151542
8.81323	991081
8.82137	751249
8.82948	588653
8.83760	480080
8.84573	421127
8.85385	434898
8.86198	418352
8.87010	420554
8.87822	396375
8.88635	386239
8.89447	375421
8.90258	356526
8.91072	346026
8.91883	321250
8.92697	323718
8.93508	329610
8.94320	333835
8.95133	350489
8.95945	345906
8.96758	344896
8.97570	316490
8.98382	303211
8.99195	296355
9.00007	280142
9.00818	273614
9.01632	272484
9.02443	258332
9.03257	246494
9.04068	245052
9.04880	233557
9.05693	229780
9.06505	238028
9.07318	226930
9.08130	227717
9.08942	223712
9.09755	223056
9.10567	236834
9.11380	243652
9.12192	254390
9.13003	262308
9.13817	242993
9.14628	253042
9.15440	257847
9.16253	258260
9.17065	266099
9.17878	268379
9.18690	234018
9.19502	227862
9.20315	212787
9.21127	215520
9.21940	206957
9.22752	201000
9.23563	196609
9.24377	188887
9.25188	192469
9.26002	188445
9.26813	185834
9.27625	184295
9.28438	178064
9.29250	193107
9.30062	178538
9.30875	178501
9.31687	167562
9.32500	162742
9.33312	161585
9.34123	151679
9.34937	156154
9.35748	146669
9.36562	146610
9.37373	145581
9.38185	146148
9.38998	151563
9.39810	148687
9.40622	153022
9.41435	162254
9.42247	180146
9.43060	196053
9.43872	231644
9.44683	272388
9.45497	293114
9.46308	302051
9.47122	288538
9.47933	256624
9.48745	223004
9.49558	188636
9.50370	171005
9.51183	155861
9.51995	159308
9.52807	158392
9.53620	158322
9.54432	149127
9.55243	148252
9.56057	135559
9.56868	128501
9.57682	115435
9.58493	112520
9.59305	108658
9.60118	104896
9.60930	104469
9.61743	105056
9.62555	104723
9.63367	99998
9.64180	101538
9.64992	96006
9.65805	95123
9.66617	90507
9.67428	93337
9.68242	92019
9.69053	90864
9.69865	93781
9.70678	90322
9.71490	85729
9.72303	85880
9.73115	95118
9.73927	87945
9.74740	94957
9.75552	96434
9.76365	92728
9.77177	92245
9.77988	84246
9.78802	89846
9.79613	85012
9.80425	98000
9.81238	83955
9.82050	87750
9.82863	80863
9.83675	81081
9.84487	84063
9.85300	82952
9.86112	91048
9.86925	95862
9.87737	104784
9.88548	105823
9.89362	105628
9.90173	100181
9.90987	99296
9.91798	111494
9.92610	105058
9.93423	101153
9.94235	104929
9.95047	115105
9.95860	132706
9.96672	135628
9.97485	126365
9.98297	124512
9.99108	121327
9.99922	124458
10.00733	123630
10.01547	124953
10.02358	131370
10.03170	130641
10.03983	124566
10.04795	123240
10.05607	119491
10.06420	115085
10.07232	116339
10.08045	117364
10.08857	115382
10.09668	112740
10.10482	109901
10.11293	105975
10.12107	106394
10.12918	103514
10.13730	99274
10.14543	100306
10.15355	91634
10.16168	92266
10.16980	96352
10.17792	92316
10.18605	89952
10.19417	91132
10.20228	85469
10.21042	88622
10.21853	91874
10.22667	87849
10.23478	92530
10.24290	98340
10.25103	106331
10.25915	152164
10.26728	355959
10.27540	968135
10.28352	2412488
10.29165	5051696
10.29977	8516855
10.30790	1.203364E+07
10.31602	1.54576E+07
10.32413	1.884575E+07
10.33227	2.346407E+07
10.34038	2.94462E+07
10.34850	3.607758E+07
10.35663	4.129977E+07
10.36475	4.150217E+07
10.37288	3.399587E+07
10.38100	2.030847E+07
10.38912	9694096
10.39725	5245649
10.40537	3651107
10.41350	2960530
10.42162	2418108
10.42973	1940328
10.43787	1591244
10.44598	1370194
10.45410	1267407
10.46223	1218430
10.47035	1144280
10.47848	1074453
10.48660	981549
10.49472	886056
10.50285	805651
10.51097	754884
10.51910	699114
10.52722	658468
10.53533	618501
10.54347	598826
10.55158	572145
10.55972	539785
10.56783	522465
10.57595	492286
10.58408	491001
10.59220	457317
10.60032	447222
10.60845	426036
10.61657	410713
10.62470	393564
10.63282	386212
10.64093	370275
10.64907	353787
10.65718	346832
10.66532	324763
10.67343	324054
10.68155	306314
10.68968	305232
10.69780	302123
10.70593	298146
10.71405	286786
10.72217	285034
10.73030	288408
10.73842	272118
10.74653	275392
10.75467	261815
10.76278	255831
10.77092	253414
10.77903	243289
10.78715	236969
10.79528	225155
10.80340	222599
10.81153	224790
10.81965	225128
10.82777	217264
10.83590	212474
10.84402	205466
10.85213	199959
10.86027	196651
10.86838	184490
10.87652	190947
10.88463	184050
10.89275	179251
10.90088	176768
10.90900	175061
10.91713	180347
10.92525	169448
10.93337	173058
10.94150	168993
10.94962	176620
10.95775	180220
10.96587	174157
10.97398	178427
10.98212	178160
10.99023	177429
10.99835	173201
11.00648	164892
11.01460	166031
11.02273	163775
11.03085	153869
11.03897	140813
11.04710	144387
11.05522	143979
11.06335	148906
11.07147	143326
11.07958	154478
11.08772	147449
11.09583	154672
11.10395	149902
11.11208	141780
11.12020	139354
11.12833	134211
11.13645	120962
11.14457	116675
11.15270	117344
11.16082	118002
11.16895	112023
11.17707	118008
11.18518	115536
11.19332	120589
11.20143	117148
11.20957	115706
11.21768	113006
11.22580	115277
11.23393	105561
11.24205	105286
11.25017	100338
11.25830	95233
11.26642	90963
11.27455	86279
11.28267	88027
11.29078	89631
11.29892	95115
11.30703	109023
11.31517	151711
11.32328	250368
11.33140	381542
11.33953	555308
11.34765	703868
11.35578	765127
11.36390	683431
11.37202	553212
11.38015	420412
11.38827	334252
11.39638	297967
11.40452	294135
11.41263	296434
11.42077	295616
11.42888	260389
11.43700	229212
11.44513	213975
11.45325	178777
11.46138	165219
11.46950	162111
11.47762	152097
11.48575	154404
11.49387	163826
11.50200	175812
11.51012	190775
11.51823	197789
11.52637	213156
11.53448	221899
11.54260	258968
11.55073	281394
11.55885	275903
11.56698	255224
11.57510	233167
11.58322	199331
11.59135	183674
11.59947	179137
11.60760	188437
11.61572	229675
11.62383	254444
11.63197	271307
11.64008	250128
11.64820	229698
11.65633	206324
11.66445	192621
11.67258	164148
11.68070	166410
11.68882	154060
11.69695	145304
11.70507	128698
11.71320	122935
11.72132	122662
11.72943	121556
11.73757	107647
11.74568	106630
11.75382	106036
11.76193	104806
11.77005	100806
11.77818	104674
11.78630	97183
11.79442	92653
11.80255	92830
11.81067	94403
11.81880	96125
11.82692	91728
11.83503	88180
11.84317	93916
11.85128	96031
11.85942	97445
11.86753	94401
11.87565	97615
11.88378	99707
11.89190	93537
11.90002	98682
11.90815	102397
11.91627	116526
11.92440	152650
11.93252	186735
11.94063	202629
11.94877	211184
11.95688	189458
11.96502	161432
11.97313	162586
11.98125	201446
11.98938	379161
11.99750	728560
12.00563	1322909
12.01375	2005265
12.02187	2567937
12.03000	2847778
12.03812	3157222
12.04623	3487675
12.05437	3510496
12.06248	3086599
12.07062	2556585
12.07873	1960566
12.08685	1453152
12.09498	1243112
12.10310	1124361
12.11123	1063537
12.11935	1021905
12.12747	1053960
12.13560	974328
12.14372	969002
12.15185	927657
12.15997	883633
12.16808	817308
12.17622	774452
12.18433	735703
12.19245	689701
12.20058	682829
12.20870	706976
12.21683	645106
12.22495	639532
12.23307	613947
12.24120	628698
12.24932	649913
12.25745	684782
12.26557	746655
12.27368	773014
12.28182	786328
12.28993	688319
12.29805	623304
12.30618	577438
12.31430	535088
12.32243	522097
12.33055	515737
12.33867	499731
12.34680	476962
12.35492	456805
12.36305	445347
12.37117	429532
12.37928	429895
12.38742	416374
12.39553	425226
12.40367	407180
12.41178	395017
12.41990	409636
12.42803	405119
12.43615	401912
12.44427	390874
12.45240	380749
12.46052	386436
12.46865	378635
12.47677	355357
12.48488	360037
12.49302	359017
12.50113	340369
12.50927	348340
12.51738	342596
12.52550	352610
12.53363	348613
12.54175	342611
12.54988	328203
12.55800	330981
12.56612	325548
12.57425	297429
12.58237	303059
12.59048	295233
12.59862	288238
12.60673	277037
12.61487	270826
12.62298	262498
12.63110	258022
12.63923	259022
12.64735	253612
12.65548	249859
12.66360	237208
12.67172	226265
12.67985	216114
12.68797	202063
12.69608	158099
12.70422	140308
12.71233	132398
12.72047	129575
12.72858	127692
12.73670	124457
12.74483	123516
12.75295	123520
12.76108	122288
12.76920	123092
12.77732	118143
12.78545	110815
12.79357	112724
12.80170	110698
12.80982	112353
12.81793	110774
12.82607	110898
12.83418	102155
12.84230	98448
12.85043	106195
12.85855	94491
12.86668	99199
12.87480	91587
12.88292	92546
12.89105	88689
12.89917	88930
12.90730	88226
12.91542	93717
12.92353	83624
12.93167	89787
12.93978	87093
12.94790	88677
12.95603	89961
12.96415	96947
12.97228	98635
12.98040	107364
12.98852	116344
12.99665	125876
13.00477	124586
13.01290	121010
13.02102	118826
13.02913	112255
13.03727	104200
13.04538	100534
13.05352	97625
13.06163	95904
13.06975	90930
13.07788	95829
13.08600	99101
13.09412	102318
13.10225	96852
13.11037	95754
13.11850	96715
13.12662	90477
13.13473	92833
13.14287	87837
13.15098	87661
13.15912	88668
13.16723	87662
13.17535	89578
13.18348	92863
13.19160	89915
13.19973	91435
13.20785	92679
13.21597	102599
13.22410	99592
13.23222	94426
13.24033	95822
13.24847	91309
13.25658	88756
13.26472	87692
13.27283	88404
13.28095	82702
13.28908	83232
13.29720	81420
13.30533	79614
13.31345	79930
13.32157	79072
13.32970	76476
13.33782	79030
13.34593	76738
13.35407	78185
13.36218	83367
13.37032	78596
13.37843	81830
13.38655	81933
13.39468	76172
13.40280	74901
13.41093	78679
13.41905	77359
13.42717	76670
13.43530	77949
13.44342	76999
13.45155	72389
13.45967	72357
13.46778	76649
13.47592	77385
13.48403	75509
13.49215	76369
13.50028	75876
13.50840	74622
13.51653	73145
13.52465	75225
13.53277	79181
13.54090	78332
13.54902	82640
13.55715	84534
13.56527	78002
13.57338	80281
13.58152	83947
13.58963	87897
13.59777	102690
13.60588	117846
13.61400	148077
13.62213	181307
13.63025	206600
13.63837	203922
13.64650	201081
13.65462	185939
13.66275	157660
13.67087	141306
13.67898	120764
13.68712	116487
13.69523	110886
13.70337	103627
13.71148	116243
13.71960	116104
13.72773	123372
13.73585	127765
13.74397	144675
13.75210	188101
13.76022	284273
13.76835	471243
13.77647	737542
13.78458	1090009
13.79272	1551731
13.80083	2065547
13.80897	2611259
13.81708	2843019
13.82520	2816231
13.83333	2585642
13.84145	2147938
13.84958	1667839
13.85770	1369026
13.86582	1105249
13.87395	974642
13.88207	913008
13.89018	833534
13.89832	761301
13.90643	708529
13.91457	642884
13.92268	620308
13.93080	574102
13.93893	557168
13.94705	566908
13.95518	548307
13.96330	559321
13.97142	628331
13.97955	757341
13.98767	860388
13.99580	1039276
14.00392	1246732
14.01203	1438965
14.02017	1643960
14.02828	1595260
14.03640	1425540
14.04453	1203819
14.05265	973389
14.06078	782904
14.06890	703021
14.07702	652944
14.08515	628107
14.09327	592718
14.10140	574412
14.10952	554216
14.11763	582870
14.12577	573650
14.13388	536219
14.14200	570394
14.15013	623606
14.15825	682297
14.16638	753272
14.17450	788126
14.18262	861442
14.19075	913115
14.19887	941576
14.20700	910330
14.21512	826361
14.22323	732172
14.23137	704927
14.23948	635004
14.24762	625378
14.25573	579667
14.26385	526261
14.27198	483490
14.28010	453578
14.28822	411521
14.29635	391887
14.30447	360310
14.31260	346628
14.32072	333008
14.32883	320656
14.33697	310685
14.34508	306891
14.35322	292898
14.36133	270815
14.36945	257312
14.37758	240759
14.38570	239763
14.39382	227300
14.40195	220092
14.41007	215244
14.41820	211541
14.42632	214432
14.43443	205726
14.44257	207463
14.45068	204525
14.45882	184321
14.46693	171077
14.47505	156549
14.48318	152479
14.49130	153090
14.49943	146386
14.50755	146543
14.51567	143443
14.52380	155074
14.53192	157185
14.54003	170543
14.54817	197591
14.55628	202922
14.56442	212461
14.57253	222821
14.58065	215724
14.58878	201420
14.59690	173823
14.60503	154517
14.61315	139330
14.62127	132658
14.62940	127927
14.63752	130919
14.64565	122407
14.65377	125340
14.66188	115821
14.67002	120235
14.67813	116395
14.68625	115700
14.69438	109068
14.70250	106812
14.71063	110016
14.71875	108304
14.72687	108086
14.73500	110951
14.74312	116187
14.75125	109696
14.75937	115529
14.76748	121940
14.77562	122733
14.78373	125080
14.79185	120758
14.79998	121591
14.80810	133647
14.81623	173283
14.82435	340359
14.83247	752813
14.84060	1645353
14.84872	2928470
14.85685	4221096
14.86497	4807902
14.87308	4487263
14.88122	3522239
14.88933	2404406
14.89747	1587932
14.90558	1103532
14.91370	843493
14.92183	706402
14.92995	613810
14.93807	564161
14.94620	490954
14.95432	465087
14.96245	429100
14.97057	389088
14.97868	368173
14.98682	350655
14.99493	318397
15.00307	304963
15.01118	291416
15.01930	273814
15.02743	265989
15.03555	251644
15.04368	250935
15.05180	234209
15.05992	220367
15.06805	214694
15.07617	217667
15.08428	215028
15.09242	208539
15.10053	203789
15.10867	185557
15.11678	185189
15.12490	192366
15.13303	180014
15.14115	172929
15.14928	181604
15.15740	192085
15.16552	203193
15.17365	214827
15.18177	219209
15.18988	193757
15.19802	174241
15.20613	151858
15.21427	142835
15.22238	122495
15.23050	115821
15.23863	114594
15.24675	107295
15.25488	102430
15.26300	100324
15.27112	99218
15.27925	99340
15.28737	91918
15.29550	94677
15.30362	86867
15.31173	96831
15.31987	95865
15.32798	95519
15.33610	92486
15.34423	94372
15.35235	91643
15.36048	96935
15.36860	90003
15.37672	89050
15.38485	89652
15.39297	90509
15.40110	89425
15.40922	87572
15.41733	85853
15.42547	84189
15.43358	85491
15.44170	87970
15.44983	88015
15.45795	83958
15.46608	85966
15.47420	92969
15.48232	105659
15.49045	117271
15.49857	128539
15.50670	141711
15.51482	155679
15.52293	158435
15.53107	157767
15.53918	177119
15.54732	172975
15.55543	184281
15.56355	165963
15.57168	149106
15.57980	128901
15.58792	120005
15.59605	103727
15.60417	96719
15.61230	100491
15.62042	87611
15.62853	91201
15.63667	82600
15.64478	88726
15.65292	83095
15.66103	84785
15.66915	83063
15.67728	77304
15.68540	81493
15.69353	78183
15.70165	77143
15.70977	75703
15.71790	81091
15.72602	79756
15.73413	79642
15.74227	74734
15.75038	80831
15.75852	77721
15.76663	85408
15.77475	97071
15.78288	146912
15.79100	240138
15.79913	435912
15.80725	740415
15.81537	1012990
15.82350	1183036
15.83162	1169177
15.83973	965055
15.84787	730714
15.85598	518742
15.86412	399437
15.87223	329356
15.88035	280572
15.88848	249966
15.89660	225781
15.90473	205366
15.91285	198470
15.92097	182593
15.92910	176671
15.93722	164859
15.94535	162626
15.95347	162861
15.96158	160538
15.96972	156817
15.97783	156096
15.98595	155773
15.99408	169166
16.00220	190072
16.01033	237199
16.01845	265995
16.02657	286542
16.03470	288167
16.04282	265088
16.05095	238293
16.05907	216693
16.06718	192332
16.07532	172416
16.08343	165658
16.09157	146551
16.09968	141022
16.10780	140569
16.11593	143619
16.12405	159605
16.13217	200812
16.14030	247241
16.14842	306134
16.15655	336129
16.16467	336048
16.17278	286498
16.18092	244238
16.18903	191993
16.19717	163721
16.20528	141646
16.21340	135212
16.22153	130768
16.22965	123575
16.23777	123956
16.24590	118473
16.25402	117730
16.26215	121991
16.27027	112188
16.27838	111285
16.28652	110485
16.29463	111954
16.30277	118563
16.31088	108749
16.31900	110465
16.32713	104676
16.33525	100851
16.34338	100946
16.35150	94146
16.35962	93180
16.36775	89879
16.37587	94776
16.38398	96846
16.39212	97193
16.40023	116420
16.40837	145322
16.41648	176465
16.42460	250174
16.43273	307240
16.44085	352996
16.44898	366690
16.45710	335841
16.46522	280281
16.47335	238754
16.48147	230280
16.48958	295065
16.49772	423370
16.50583	664944
16.51397	857319
16.52208	966508
16.53020	902461
16.53833	748308
16.54645	540833
16.55458	412449
16.56270	308163
16.57082	263657
16.57895	231807
16.58707	210765
16.59520	203660
16.60332	189108
16.61143	177532
16.61957	168464
16.62768	164020
16.63580	162056
16.64393	150932
16.65205	147321
16.66018	142542
16.66830	150415
16.67642	140827
16.68455	135733
16.69267	135472
16.70080	126754
16.70892	123567
16.71703	119719
16.72517	114490
16.73328	108302
16.74142	101438
16.74953	100971
16.75765	98809
16.76578	96577
16.77390	93945
16.78202	92248
16.79015	98971
16.79827	101033
16.80640	102767
16.81452	100355
16.82263	104652
16.83077	95632
16.83888	96231
16.84702	91424
16.85513	89621
16.86325	89587
16.87138	86564
16.87950	94384
16.88763	91065
16.89575	92812
16.90387	97159
16.91200	98666
16.92012	92114
16.92823	86561
16.93637	88745
16.94448	82788
16.95262	87611
16.96073	82649
16.96885	84723
16.97698	83389
16.98510	84998
16.99323	86619
17.00135	82911
17.00947	86137
17.01760	89910
17.02572	85280
17.03383	79660
17.04197	79053
17.05008	85259
17.05822	85504
17.06633	85577
17.07445	89352
17.08258	96096
17.09070	96314
17.09883	96202
17.10695	99660
17.11507	100514
17.12320	101526
17.13132	105049
17.13945	105836
17.14757	113478
17.15568	125887
17.16382	112254
17.17193	106887
17.18005	104984
17.18818	100959
17.19630	98524
17.20443	90016
17.21255	89639
17.22067	89968
17.22880	86440
17.23692	83679
17.24505	82335
17.25317	77197
17.26128	78912
17.26942	78580
17.27753	83078
17.28565	79927
17.29378	84875
17.30190	85009
17.31003	84777
17.31815	82350
17.32627	80754
17.33440	78145
17.34252	88667
17.35065	93698
17.35877	110235
17.36688	117394
17.37502	132623
17.38313	150814
17.39127	157913
17.39938	162440
17.40750	162197
17.41563	2309279
17.42375	5.178943E+07
17.43187	5.19741E+07
17.44000	5.128311E+07
17.44812	5.029967E+07
17.45625	4.989526E+07
17.46437	4.963016E+07
17.47248	4.906764E+07
17.48062	4.852537E+07
17.48873	4.785462E+07
17.49687	4.730731E+07
17.50498	4.668196E+07
17.51310	4.56253E+07
17.52123	4.525586E+07
17.52935	4.498641E+07
17.53748	4.431293E+07
17.54560	4.358676E+07
17.55372	4.321568E+07
17.56185	4.219458E+07
17.56997	4.147866E+07
17.57808	4.039271E+07
17.58622	3.976878E+07
17.59433	3.883873E+07
17.60247	3.777072E+07
17.61058	3.712075E+07
17.61870	3.629762E+07
17.62683	3.576526E+07
17.63495	3.538349E+07
17.64308	3.473285E+07
17.65120	3.37744E+07
17.65932	3.199133E+07
17.66745	3.055257E+07
17.67557	2.887354E+07
17.68368	2.712781E+07
17.69182	2.551625E+07
17.69993	2.416853E+07
17.70807	2.307518E+07
17.71618	2.178842E+07
17.72430	2.059246E+07
17.73243	1.944127E+07
17.74055	1.83537E+07
17.74868	1.698618E+07
17.75680	1.583957E+07
17.76492	1.491615E+07
17.77305	1.374407E+07
17.78117	1.297648E+07
17.78930	1.217019E+07
17.79742	1.140098E+07
17.80553	1.064434E+07
17.81367	9982527
17.82178	9463292
17.82990	8942692
17.83803	8401806
17.84615	7902775
17.85428	7530905
17.86240	7168796
17.87052	6952413
17.87865	6583197
17.88677	6295981
17.89490	5914135
17.90302	5630087
17.91113	5447253
17.91927	5131726
17.92738	4908616
17.93552	4738111
17.94363	4592132
17.95175	4404896
17.95988	4270561
17.96800	4075042
17.97612	3919794
17.98425	3779885
17.99237	3655139
18.00050	3572880
18.00862	3437173
18.01673	3371929
18.02487	3220361
18.03298	3172877
18.04112	3127828
18.04923	3069371
18.05735	2955402
18.06548	2801192
18.07360	2726268
18.08172	2710815
18.08985	2620015
18.09797	2579778
18.10610	2510551
18.11422	2413250
18.12233	2396711
18.13047	2326702
18.13858	2248027
18.14672	2226043
18.15483	2161541
18.16295	2075174
18.17108	2028057
18.17920	1983333
18.18733	1924461
18.19545	1832636
18.20357	1789892
18.21170	1760946
18.21982	1696635
18.22793	1650252
18.23607	1572614
18.24418	1546474
18.25232	1535822
18.26043	1467978
18.26855	1434600
18.27668	1406961
18.28480	1391534
18.29293	1344803
18.30105	1291054
18.30917	1231839
18.31730	1205088
18.32542	1179296
18.33353	1144392
18.34167	1138589
18.34978	1078661
18.35792	1071060
18.36603	1043368
18.37415	1022838
18.38228	977444
18.39040	976619
18.39853	973896
18.40665	944067
18.41477	928403
18.42290	909644
18.43102	892686
18.43915	881496
18.44727	898049
18.45538	909767
18.46352	1014017
18.47163	1181878
18.47975	1394547
18.48788	1625154
18.49600	1819677
18.50413	1776985
18.51225	1601427
18.52037	1367024
18.52850	1150324
18.53662	1005498
18.54475	902129
18.55287	824081
18.56098	778365
18.56912	762299
18.57723	751961
18.58537	699138
18.59348	700567
18.60160	671303
18.60973	668331
18.61785	665755
18.62597	660742
18.63410	670260
18.64222	636521
18.65035	629942
18.65847	613112
18.66658	607475
18.67472	599644
18.68283	587800
18.69097	586423
18.69908	570831
18.70720	568777
18.71533	554606
18.72345	540969
18.73157	534671
18.73970	522939
18.74782	527319
18.75595	516421
18.76407	505145
18.77218	514126
18.78032	502431
18.78843	495471
18.79657	491521
18.80468	490795
18.81280	482925
18.82093	483596
18.82905	470048
18.83718	465102
18.84530	465494
18.85342	455512
18.86155	450721
18.86967	446666
18.87778	451058
18.88592	444330
18.89403	444672
18.90217	425788
18.91028	435275
18.91840	434821
18.92653	417219
18.93465	441750
18.94278	459555
18.95090	466428
18.95902	484291
18.96715	501328
18.97527	514743
18.98340	519683
18.99152	505136
18.99963	476226
19.00777	459106
19.01588	439185
19.02400	426467
19.03213	426055
19.04025	401661
19.04838	400474
19.05650	398299
19.06462	391035
19.07275	402975
19.08087	406832
19.08900	425187
19.09712	474401
19.10523	525541
19.11337	569441
19.12148	583493
19.12960	572550
19.13773	536384
19.14585	494996
19.15398	452809
19.16210	428650
19.17022	416332
19.17835	407359
19.18647	397194
19.19460	401192
19.20272	386874
19.21083	373476
19.21897	365865
19.22708	363567
19.23522	363029
19.24333	339231
19.25145	339072
19.25958	334177
19.26770	323111
19.27582	333862
19.28395	327578
19.29207	330501
19.30020	327670
19.30832	326291
19.31643	316947
19.32457	335307
19.33268	332884
19.34082	321849
19.34893	318988
19.35705	314130
19.36518	325543
19.37330	322919
19.38143	327573
19.38955	326965
19.39767	322165
19.40580	320383
19.41392	321334
19.42203	321929
19.43017	326420
19.43828	340071
19.44642	360337
19.45453	377448
19.46265	409003
19.47078	421669
19.47890	433291
19.48703	466218
19.49515	470349
19.50327	505927
19.51140	552538
19.51952	591504
19.52763	609429
19.53577	572981
19.54388	501168
19.55202	423762
19.56013	369547
19.56825	328090
19.57638	324542
19.58450	313215
19.59263	296613
19.60075	293298
19.60887	287411
19.61700	279207
19.62512	289258
19.63325	303045
19.64137	320208
19.64948	356415
19.65762	461728
19.66573	564149
19.67385	670790
19.68198	754642
19.69010	795878
19.69823	783765
19.70635	707618
19.71447	638897
19.72260	564949
19.73072	502607
19.73885	457209
19.74697	420624
19.75508	391488
19.76322	360901
19.77133	339671
19.77945	324592
19.78758	318391
19.79570	321558
19.80383	309851
19.81195	308323
19.82007	321360
19.82820	306319
19.83632	301302
19.84445	283976
19.85257	277638
19.86068	269732
19.86882	279680
19.87693	268098
19.88507	281117
19.89318	299831
19.90130	346312
19.90943	365306
19.91755	408636
19.92567	444570
19.93380	448675
19.94192	455036
19.95005	451072
19.95817	441486
19.96628	440258
19.97442	436555
19.98253	434738
19.99067	414891
19.99878	408713
20.00690	415274
20.01503	412943
20.02315	427991
20.03128	421867
20.03940	424335
20.04752	402300
20.05565	384565
20.06377	348062
20.07188	331651
20.08002	317270
20.08813	320576
20.09627	317997
20.10438	313862
20.11250	302722
20.12063	301751
20.12875	294973
20.13688	289209
20.14500	296101
20.15312	297129
20.16125	309088
20.16937	331875
20.17748	363063
20.18562	402942
20.19373	442348
20.20187	484975
20.20998	499015
20.21810	498305
20.22623	479525
20.23435	446152
20.24248	428410
20.25060	412035
20.25872	428674
20.26685	501894
20.27497	587742
20.28310	683977
20.29122	745677
20.29933	751866
20.30747	699963
20.31558	618457
20.32370	546977
20.33183	470525
20.33995	408380
20.34808	361031
20.35620	328000
20.36432	302456
20.37245	297405
20.38057	279736
20.38870	280451
20.39682	296277
20.40493	316081
20.41307	322575
20.42118	344335
20.42932	343545
20.43743	340347
20.44555	356140
20.45368	343298
20.46180	340728
20.46992	330990
20.47805	319070
20.48617	304470
20.49430	288100
20.50242	275211
20.51053	258299
20.51867	240054
20.52678	237683
20.53492	234387
20.54303	226155
20.55115	236745
20.55928	228599
20.56740	219944
20.57552	226564
20.58365	223221
20.59177	217053
20.59990	210863
20.60802	212686
20.61613	213137
20.62427	214710
20.63238	212452
20.64052	214040
20.64863	216961
20.65675	213474
20.66488	215566
20.67300	217428
20.68113	207836
20.68925	212050
20.69737	210136
20.70550	206986
20.71362	209213
20.72173	203935
20.72987	200189
20.73798	210151
20.74612	202412
20.75423	209178
20.76235	209779
20.77048	202438
20.77860	206872
20.78673	224552
20.79485	243163
20.80297	275893
20.81110	336006
20.81922	388511
20.82733	440567
20.83547	449739
20.84358	408624
20.85172	358005
20.85983	307486
20.86795	267802
20.87608	248632
20.88420	223115
20.89233	216360
20.90045	216184
20.90857	212771
20.91670	209663
20.92482	202798
20.93295	213084
20.94107	221393
20.94918	213743
20.95732	212227
20.96543	213529
20.97355	209956
20.98168	202859
20.98980	205121
20.99793	205785
21.00605	194540
21.01417	193624
21.02230	195327
21.03042	201776
21.03855	196488
21.04667	195770
21.05478	194164
21.06292	187095
21.07103	189879
21.07917	195291
21.08728	191662
21.09540	193906
21.10353	190021
21.11165	190503
21.11977	192163
21.12790	195636
21.13602	209064
21.14415	216267
21.15227	251820
21.16038	279621
21.16852	318098
21.17663	333803
21.18477	326076
21.19288	302068
21.20100	279063
21.20913	262388
21.21725	237383
21.22537	231209
21.23350	220053
21.24162	210742
21.24975	208087
21.25787	199993
21.26598	197979
21.27412	197109
21.28223	189808
21.29037	193366
21.29848	189048
21.30660	183895
21.31473	183384
21.32285	186761
21.33098	179890
21.33910	181979
21.34722	188193
21.35535	182525
21.36347	186556
21.37158	185674
21.37972	186036
21.38783	178113
21.39597	184795
21.40408	182703
21.41220	185862
21.42033	194766
21.42845	201607
21.43658	196544
21.44470	195102
21.45282	190560
21.46095	183778
21.46907	174013
21.47720	177791
21.48532	165947
21.49343	166084
21.50157	164665
21.50968	155027
21.51780	165342
21.52593	165403
21.53405	165780
21.54218	162754
21.55030	161287
21.55842	160509
21.56655	163155
21.57467	158312
21.58280	162502
21.59092	161671
21.59903	175619
21.60717	182397
21.61528	171766
21.62340	195771
21.63153	199322
21.63965	223147
21.64778	232447
21.65590	238595
21.66402	240544
21.67215	232006
21.68027	216973
21.68840	214817
21.69652	206872
21.70463	188479
21.71277	183128
21.72088	177700
21.72902	174719
21.73713	169843
21.74525	166546
21.75338	169347
21.76150	172657
21.76962	168625
21.77775	171075
21.78587	180571
21.79400	178778
21.80212	193256
21.81023	196095
21.81837	212475
21.82648	215045
21.83462	219372
21.84273	233478
21.85085	240948
21.85898	222592
21.86710	224444
21.87522	213122
21.88335	186807
21.89147	174722
21.89960	159508
21.90772	153292
21.91583	153173
21.92397	144186
21.93208	143080
21.94022	145448
21.94833	134106
21.95645	134710
21.96458	139332
21.97270	134018
21.98083	124101
21.98895	124678
21.99707	121724
22.00520	122497
22.01332	121188
22.02143	130210
22.02957	127597
22.03768	126937
22.04582	129463
22.05393	136760
22.06205	137970
22.07018	138647
22.07830	146733
22.08643	157469
22.09455	162726
22.10267	166770
22.11080	173945
22.11892	168995
22.12705	169767
22.13517	166567
22.14328	175549
22.15142	177012
22.15953	191773
22.16765	204855
22.17578	206560
22.18390	227761
22.19203	224032
22.20015	228081
22.20827	233637
22.21640	222616
22.22452	215825
22.23265	214178
22.24077	208805
22.24888	208622
22.25702	200039
22.26513	192360
22.27327	192223
22.28138	190542
22.28950	187337
22.29763	184356
22.30575	191751
22.31387	190470
22.32200	186458
22.33012	186606
22.33825	190256
22.34637	189248
22.35448	190572
22.36262	180443
22.37073	186965
22.37887	186063
22.38698	181970
22.39510	182979
22.40323	197418
22.41135	198893
22.41947	225075
22.42760	241127
22.43572	249334
22.44385	247149
22.45197	229829
22.46008	210109
22.46822	190247
22.47633	173640
22.48447	172292
22.49258	157758
22.50070	159272
22.50883	151830
22.51695	148167
22.52508	137508
22.53320	137241
22.54132	134146
22.54945	131581
22.55757	135380
22.56568	134083
22.57382	132554
22.58193	127509
22.59007	125248
22.59818	120482
22.60630	112188
22.61443	114416
22.62255	120881
22.63068	119689
22.63880	109007
22.64692	121743
22.65505	113761
22.66317	118365
22.67128	123737
22.67942	129170
22.68753	124697
22.69567	122124
22.70378	130317
22.71190	137514
22.72003	140148
22.72815	147291
22.73628	150360
22.74440	146863
22.75252	145497
22.76065	155418
22.76877	162516
22.77690	174692
22.78502	182847
22.79313	190670
22.80127	188326
22.80938	191374
22.81750	203767
22.82563	206441
22.83375	214982
22.84188	217240
22.85000	219764
22.85812	223549
22.86625	224493
22.87437	223528
22.88250	228304
22.89062	234434
22.89873	241990
22.90687	255453
22.91498	278437
22.92312	298003
22.93123	338961
22.93935	344521
22.94748	341405
22.95560	331702
22.96372	307301
22.97185	273746
22.97997	263398
22.98810	257016
22.99622	236930
23.00433	241120
23.01247	235736
23.02058	220199
23.02872	224409
23.03683	210382
23.04495	205640
23.05308	201081
23.06120	196457
23.06932	196215
23.07745	185813
23.08557	191440
23.09370	181312
23.10182	188978
23.10993	189869
23.11807	181073
23.12618	182754
23.13432	178263
23.14243	189140
23.15055	193305
23.15868	180951
23.16680	175794
23.17493	182565
23.18305	178720
23.19117	179571
23.19930	172083
23.20742	180500
23.21553	176131
23.22367	169116
23.23178	177176
23.23992	170531
23.24803	164878
23.25615	168548
23.26428	168832
23.27240	175533
23.28053	183098
23.28865	167010
23.29677	167121
23.30490	169993
23.31302	163991
23.32115	161263
23.32927	158612
23.33738	157489
23.34552	174463
23.35363	186274
23.36175	196009
23.36988	208166
23.37800	227769
23.38613	214626
23.39425	213355
23.40237	206025
23.41050	187022
23.41862	178065
23.42675	165950
23.43487	166544
23.44298	161144
23.45112	161247
23.45923	157072
23.46735	153104
23.47548	148910
23.48360	151626
23.49173	155724
23.49985	153840
23.50797	152303
23.51610	150877
23.52422	161420
23.53235	159330
23.54047	152296
23.54858	165183
23.55672	151398
23.56483	158868
23.57297	167271
23.58108	173515
23.58920	181453
23.59733	193166
23.60545	200594
23.61357	207269
23.62170	199173
23.62982	196433
23.63795	188613
23.64607	170849
23.65418	174817
23.66232	164118
23.67043	156214
23.67857	158842
23.68668	161422
23.69480	149120
23.70293	154874
23.71105	147484
23.71917	146736
23.72730	147926
23.73542	152346
23.74355	162076
23.75167	202817
23.75978	347839
23.76792	651506
23.77603	1284474
23.78417	2235636
23.79228	3151826
23.80040	3899450
23.80853	4066821
23.81665	3527875
23.82478	2814279
23.83290	2082442
23.84102	1555187
23.84915	1138497
23.85727	908505
23.86538	733312
23.87352	636715
23.88163	556575
23.88977	505302
23.89788	446607
23.90600	405773
23.91413	368853
23.92225	369991
23.93038	360740
23.93850	344924
23.94662	319107
23.95475	311081
23.96287	300139
23.97100	282063
23.97912	275341
23.98723	259411
23.99537	260983
24.00348	324356
24.01160	505793
24.01973	900907
24.02785	1506046
24.03598	2224536
24.04410	2729890
24.05222	2660321
24.06035	2186283
24.06847	1511246
24.07660	967506
24.08472	593142
24.09283	392455
24.10097	295497
24.10908	242247
24.11720	228932
24.12533	216000
24.13345	218232
24.14158	222209
24.14970	238334
24.15782	241547
24.16595	242750
24.17407	238881
24.18220	225749
24.19032	216768
24.19843	214191
24.20657	199488
24.21468	193121
24.22282	192351
24.23093	189340
24.23905	188042
24.24718	179006
24.25530	174612
24.26342	166435
24.27155	149172
24.27967	147249
24.28780	147632
24.29592	142122
24.30403	136706
24.31217	141776
24.32028	140799
24.32842	143984
24.33653	138502
24.34465	137898
24.35278	141270
24.36090	133324
24.36903	139840
24.37715	168925
24.38527	213861
24.39340	287862
24.40152	348695
24.40963	411303
24.41777	440160
24.42588	447554
24.43402	402498
24.44213	371366
24.45025	333159
24.45838	300496
24.46650	297269
24.47463	296735
24.48275	307601
24.49087	297378
24.49900	295329
24.50712	324309
24.51523	343046
24.52337	340447
24.53148	348061
24.53962	348100
24.54773	356356
24.55585	343201
24.56398	337846
24.57210	330936
24.58023	328096
24.58835	330281
24.59647	323949
24.60460	321759
24.61272	324472
24.62085	312049
24.62897	310267
24.63708	321980
24.64522	310036
24.65333	307416
24.66145	307661
24.66958	314590
24.67770	309336
24.68583	316865
24.69395	302651
24.70207	303347
24.71020	292196
24.71832	279899
24.72645	293136
24.73457	287136
24.74268	292074
24.75082	282743
24.75893	274901
24.76707	296982
24.77518	291928
24.78330	294590
24.79143	302018
24.79955	304720
24.80767	312375
24.81580	298176
24.82392	303842
24.83205	301504
24.84017	309990
24.84828	330364
24.85642	350596
24.86453	413828
24.87267	477051
24.88078	570925
24.88890	687993
24.89703	755412
24.90515	790943
24.91327	727656
24.92140	643801
24.92952	543187
24.93765	420343
24.94577	367413
24.95388	326251
24.96202	289606
24.97013	292084
24.97827	269665
24.98638	272991
24.99450	268554
25.00263	271600
25.01075	268360
25.01888	256885
25.02700	266861
25.03512	255223
25.04325	252859
25.05137	257598
25.05948	253344
25.06762	263059
25.07573	253453
25.08387	252402
25.09198	254055
25.10010	270088
25.10823	320766
25.11635	450019
25.12448	729508
25.13260	1204913
25.14072	1824236
25.14885	2490352
25.15697	2773918
25.16508	2699338
25.17322	2386169
25.18133	1851105
25.18947	1324986
25.19758	931691
25.20570	640088
25.21383	468355
25.22195	375711
25.23008	344605
25.23820	336268
25.24632	409271
25.25445	567835
25.26257	808714
25.27070	1086636
25.27882	1311004
25.28693	1401326
25.29507	1268167
25.30318	1024271
25.31130	754626
25.31943	543788
25.32755	370258
25.33568	267567
25.34380	232120
25.35192	195672
25.36005	176129
25.36817	170159
25.37630	163292
25.38442	150802
25.39253	146374
25.40067	140238
25.40878	138067
25.41692	142656
25.42503	134505
25.43315	132279
25.44128	135937
25.44940	134414
25.45752	135988
25.46565	135824
25.47377	141148
25.48190	140670
25.49002	140680
25.49813	139323
25.50627	137106
25.51438	131002
25.52252	128634
25.53063	125796
25.53875	122444
25.54688	113340
25.55500	117985
25.56312	114705
25.57125	113137
25.57937	117518
25.58750	113670
25.59562	113747
25.60373	111197
25.61187	114799
25.61998	127159
25.62812	139616
25.63623	164021
25.64435	191444
25.65248	213929
25.66060	212275
25.66873	200564
25.67685	182959
25.68497	158814
25.69310	139479
25.70122	122601
25.70933	124100
25.71747	114620
25.72558	125508
25.73372	145782
25.74183	161986
25.74995	183878
25.75808	214514
25.76620	243760
25.77433	266465
25.78245	311145
25.79057	349420
25.79870	376112
25.80682	371548
25.81495	342553
25.82307	304021
25.83118	286406
25.83932	272505
25.84743	276676
25.85555	274913
25.86368	281875
25.87180	275373
25.87993	263351
25.88805	254331
25.89617	249801
25.90430	254556
25.91242	248770
25.92055	249651
25.92867	240617
25.93678	257368
25.94492	257179
25.95303	266329
25.96115	272057
25.96928	259125
25.97740	262280
25.98553	238804
25.99365	243764
26.00177	241401
26.00990	235992
26.01802	236151
26.02615	227065
26.03427	230717
26.04238	228106
26.05052	233818
26.05863	233407
26.06677	228002
26.07488	225485
26.08300	223702
26.09113	227419
26.09925	218313
26.10737	221163
26.11550	231876
26.12362	217718
26.13175	223913
26.13987	223455
26.14798	228362
26.15612	221386
26.16423	224577
26.17237	213269
26.18048	216584
26.18860	214935
26.19673	210242
26.20485	197310
26.21297	199785
26.22110	196920
26.22922	199333
26.23735	197496
26.24547	201808
26.25358	212659
26.26172	203976
26.26983	208584
26.27797	221132
26.28608	227633
26.29420	248569
26.30233	248000
26.31045	261015
26.31858	248113
26.32670	226586
26.33482	218409
26.34295	200142
26.35107	191003
26.35918	188029
26.36732	184554
26.37543	194291
26.38357	204636
26.39168	219704
26.39980	233230
26.40793	239823
26.41605	249906
26.42418	243025
26.43230	227492
26.44042	212814
26.44855	210730
26.45667	196003
26.46480	192556
26.47292	187852
26.48103	191136
26.48917	178672
26.49728	186037
26.50540	173287
26.51353	172860
26.52165	170325
26.52978	162104
26.53790	155602
26.54602	161831
26.55415	156260
26.56227	158253
26.57040	149892
26.57852	151565
26.58663	153240
26.59477	153020
26.60288	158185
26.61100	158930
26.61913	143777
26.62725	154907
26.63538	150971
26.64350	150468
26.65162	145466
26.65975	152325
26.66787	147461
26.67600	155506
26.68412	145523
26.69223	150760
26.70037	144710
26.70848	138653
26.71662	139434
26.72473	140401
26.73285	135966
26.74098	139157
26.74910	137355
26.75722	136261
26.76535	136064
26.77347	139480
26.78160	133858
26.78972	140569
26.79783	138781
26.80597	140935
26.81408	140107
26.82222	147440
26.83033	141906
26.83845	143309
26.84658	138890
26.85470	133699
26.86283	132956
26.87095	140993
26.87907	136311
26.88720	129822
26.89532	137028
26.90343	130269
26.91157	120988
26.91968	125180
26.92782	122662
26.93593	122055
26.94405	127267
26.95218	126660
26.96030	137844
26.96843	169608
26.97655	210485
26.98467	285841
26.99280	436246
27.00092	699318
27.00903	1071997
27.01717	1496415
27.02528	1959434
27.03342	2189061
27.04153	2207294
27.04965	1975489
27.05778	1569824
27.06590	1223290
27.07403	941589
27.08215	768505
27.09027	636224
27.09840	530028
27.10652	456188
27.11465	409789
27.12277	368684
27.13088	345226
27.13902	318008
27.14713	311542
27.15525	300706
27.16338	299427
27.17150	318914
27.17963	341369
27.18775	368411
27.19587	384406
27.20400	385216
27.21212	360257
27.22025	326743
27.22837	301223
27.23648	264305
27.24462	249522
27.25273	231657
27.26085	209313
27.26898	205443
27.27710	191711
27.28523	187578
27.29335	185314
27.30147	180829
27.30960	173676
27.31772	173901
27.32585	159283
27.33397	168196
27.34208	173725
27.35022	163118
27.35833	155306
27.36647	162770
27.37458	168030
27.38270	169771
27.39083	174045
27.39895	159876
27.40707	153543
27.41520	151784
27.42332	142125
27.43145	138430
27.43957	133663
27.44768	136877
27.45582	134121
27.46393	136922
27.47207	125698
27.48018	131804
27.48830	127974
27.49643	128795
27.50455	126335
27.51268	126830
27.52080	127818
27.52892	133617
27.53705	129258
27.54517	128856
27.55328	135445
27.56142	126082
27.56953	130952
27.57767	137101
27.58578	132991
27.59390	142275
27.60203	146325
27.61015	147176
27.61828	156475
27.62640	150808
27.63452	141440
27.64265	130685
27.65077	121973
27.65890	123553
27.66702	119565
27.67513	116234
27.68327	117861
27.69138	114263
27.69950	109270
27.70763	110770
27.71575	111912
27.72388	108640
27.73200	107293
27.74012	103236
27.74825	116415
27.75637	119258
27.76450	128212
27.77262	147770
27.78073	170497
27.78887	198959
27.79698	214735
27.80510	216802
27.81323	198205
27.82135	170990
27.82948	144217
27.83760	125080
27.84572	118903
27.85385	114330
27.86197	110983
27.87010	103979
27.87822	102290
27.88633	105280
27.89447	107553
27.90258	101328
27.91072	105081
27.91883	101804
27.92695	95902
27.93508	100698
27.94320	98678
27.95132	100066
27.95945	98516
27.96757	98078
27.97570	100636
27.98382	100099
27.99193	97995
28.00007	104871
28.00818	103944
28.01632	112109
28.02443	107085
28.03255	103245
28.04068	108181
28.04880	108360
28.05692	106900
28.06505	102617
28.07317	102248
28.08130	97386
28.08942	103163
28.09753	95914
28.10567	91584
28.11378	89648
28.12192	91238
28.13003	89010
28.13815	89912
28.14628	88815
28.15440	93149
28.16253	92267
28.17065	90702
28.17877	95378
28.18690	99054
28.19502	108491
28.20313	115766
28.21127	122762
28.21938	143548
28.22752	144607
28.23563	152354
28.24375	137066
28.25188	132046
28.26000	126020
28.26813	118290
28.27625	114467
28.28437	110603
28.29250	102736
28.30062	103835
28.30875	116527
28.31687	115261
28.32498	122823
28.33312	136375
28.34123	148981
28.34935	166646
28.35748	179794
28.36560	198063
28.37373	218490
28.38185	230963
28.38997	240443
28.39810	247028
28.40622	244018
28.41435	241261
28.42247	233736
28.43058	224628
28.43872	202499
28.44683	191060
28.45495	187381
28.46308	171400
28.47120	163060
28.47933	169378
28.48745	159737
28.49557	162197
28.50370	161498
28.51182	164977
28.51995	160150
28.52807	158282
28.53618	159895
28.54432	150735
28.55243	145063
28.56057	138073
28.56868	133827
28.57680	127280
28.58493	133134
28.59305	126687
28.60117	130773
28.60930	131298
28.61742	131594
28.62555	133716
28.63367	137072
28.64178	140407
28.64992	140406
28.65803	137553
28.66617	128842
28.67428	135625
28.68240	128571
28.69053	124253
28.69865	122573
28.70678	119932
28.71490	115106
28.72302	111980
28.73115	114903
28.73927	110737
28.74738	113835
28.75552	122762
28.76363	136622
28.77177	141014
28.77988	161509
28.78800	176573
28.79613	171172
28.80425	170634
28.81238	163970
28.82050	143650
28.82862	132048
28.83675	122796
28.84487	120025
28.85298	111954
28.86112	112506
28.86923	108867
28.87737	106995
28.88548	109248
28.89360	109320
28.90173	114204
28.90985	113137
28.91798	117903
28.92610	117411
28.93422	112603
28.94235	121290
28.95047	119919
28.95860	119078
28.96672	120951
28.97483	117441
28.98297	112781
28.99108	103698
28.99920	106779
29.00733	100134
29.01545	105175
29.02358	102268
29.03170	105065
29.03982	98272
29.04795	105589
29.05607	110767
29.06420	109749
29.07232	121779
29.08043	128101
29.08857	130160
29.09668	130618
29.10480	121387
29.11293	115455
29.12105	111008
29.12918	103863
29.13730	102883
29.14542	99105
29.15355	102315
29.16167	100273
29.16980	91824
29.17792	96941
29.18603	97333
29.19417	100746
29.20228	111532
29.21042	123382
29.21853	129046
29.22665	135070
29.23478	139980
29.24290	151350
29.25102	165153
29.25915	174555
29.26727	185303
29.27540	190962
29.28352	186041
29.29163	168349
29.29977	151229
29.30788	129892
29.31602	120076
29.32413	117425
29.33225	108252
29.34038	101174
29.34850	96639
29.35663	98316
29.36475	91488
29.37287	98349
29.38100	95755
29.38912	93660
29.39723	91704
29.40537	93555
29.41348	94616
29.42162	100646
29.42973	99300
29.43785	95379
29.44598	97320
29.45410	100711
29.46223	103058
29.47035	103076
29.47847	107532
29.48660	110242
29.49472	109831
29.50283	116388
29.51097	113412
29.51908	110823
29.52722	113917
29.53533	113176
29.54345	107873
29.55158	112071
29.55970	112299
29.56783	105171
29.57595	105143
29.58407	102052
29.59220	100975
29.60032	91921
29.60845	99727
29.61657	98812
29.62468	92787
29.63282	98962
29.64093	92437
29.64905	88303
29.65718	85692
29.66530	92151
29.67343	91789
29.68155	94174
29.68967	92804
29.69780	87530
29.70592	89158
29.71405	86358
29.72217	89590
29.73028	82162
29.73842	88092
29.74653	85935
29.75467	81876
29.76278	83979
29.77090	88786
29.77903	83011
29.78715	81570
29.79527	77647
29.80340	76072
29.81152	76754
29.81965	80258
29.82777	80892
29.83588	84134
29.84402	84643
29.85213	81877
29.86027	89960
29.86838	102025
29.87650	127092
29.88463	176914
29.89275	241282
29.90087	314895
29.90900	362819
29.91712	348920
29.92525	307338
29.93337	239840
29.94148	174113
29.94962	134065
29.95773	119609
29.96587	104700
29.97398	107584
29.98210	103198
29.99023	108541
29.99835	111391
30.00648	116708
30.01460	125518
30.02272	126358
30.03085	132070
30.03897	139146
30.04708	136357
30.05522	136644
30.06333	140071
30.07147	139898
30.07958	143590
30.08770	139392
30.09583	127794
30.10395	131944
30.11208	129182
30.12020	125703
30.12832	120213
30.13645	122144
30.14457	125559
30.15270	121677
30.16082	117186
30.16893	117862
30.17707	114718
30.18518	114156
30.19330	106982
30.20143	110281
30.20955	103988
30.21768	109771
30.22580	108125
30.23392	112185
30.24205	104717
30.25017	105144
30.25830	96836
30.26642	101205
30.27453	94785
30.28267	94706
30.29078	93542
30.29890	89044
30.30703	90020
30.31515	88712
30.32328	87535
30.33140	88546
30.33952	84602
30.34765	89639
30.35577	85267
30.36390	89276
30.37202	86148
30.38013	84092
30.38827	86923
30.39638	81848
30.40452	79947
30.41263	82009
30.42075	84715
30.42888	82657
30.43700	85882
30.44512	83772
30.45325	83657
30.46137	89100
30.46950	88730
30.47762	86288
30.48573	95454
30.49387	101666
30.50198	102724
30.51012	100099
30.51823	99411
30.52635	99485
30.53448	98069
30.54260	98253
30.55072	86826
30.55885	89878
30.56697	80958
30.57510	83876
30.58322	83351
30.59133	90356
30.59947	89416
30.60758	91403
30.61572	84635
30.62383	78492
30.63195	87241
30.64008	87084
30.64820	84418
30.65633	82358
30.66445	80994
30.67257	87754
30.68070	78999
30.68882	81133
30.69693	84488
30.70507	82264
30.71318	82342
30.72132	81892
30.72943	83339
30.73755	82420
30.74568	82669
30.75380	78721
30.76193	85422
30.77005	88644
30.77817	104683
30.78630	140614
30.79442	203973
30.80255	275408
30.81067	350748
30.81878	390276
30.82692	379204
30.83503	319733
30.84315	262398
30.85128	197105
30.85940	153024
30.86753	126981
30.87565	111860
30.88377	103600
30.89190	100440
30.90002	98821
30.90815	95680
30.91627	98240
30.92438	94100
30.93252	89072
30.94063	87367
30.94875	82034
30.95688	81120
30.96500	83483
30.97313	83498
30.98125	82580
30.98937	83962
30.99750	84833
31.00562	87751
31.01375	85885
31.02187	86857
31.02998	85164
31.03812	88180
31.04623	80243
31.05437	77218
31.06248	88196
31.07060	86608
31.07873	92153
31.08685	100714
31.09497	107183
31.10310	114355
31.11122	126373
31.11935	119483
31.12747	110221
31.13558	106283
31.14372	96152
31.15183	89712
31.15997	88829
31.16808	90402
31.17620	92473
31.18433	96316
31.19245	97724
31.20058	109219
31.20870	128846
31.21682	131356
31.22495	147321
31.23307	154994
31.24118	153433
31.24932	131866
31.25743	126843
31.26557	113715
31.27368	103128
31.28180	99206
31.28993	97288
31.29805	88847
31.30618	95365
31.31430	93819
31.32242	95750
31.33055	96363
31.33867	92745
31.34678	95516
31.35492	99184
31.36303	91319
31.37117	96036
31.37928	100449
31.38740	96765
31.39553	99051
31.40365	97082
31.41178	97761
31.41990	95094
31.42802	99237
31.43615	105117
31.44427	103100
31.45240	100512
31.46052	108481
31.46863	104375
31.47677	113685
31.48488	116441
31.49300	129589
31.50113	127161
31.50925	123248
31.51738	126121
31.52550	116060
31.53362	106138
31.54175	109737
31.54987	111874
31.55800	116390
31.56612	125961
31.57423	132480
31.58237	132532
31.59048	126638
31.59860	119987
31.60673	115066
31.61485	109396
31.62298	102891
31.63110	99342
31.63922	108268
31.64735	99426
31.65547	105688
31.66360	109682
31.67172	106575
31.67983	105394
31.68797	106034
31.69608	104617
31.70422	101968
31.71233	102342
31.72045	97446
31.72858	88846
31.73670	96113
31.74482	96353
31.75295	93063
31.76107	93072
31.76920	96026
31.77732	96053
31.78543	97853
31.79357	109411
31.80168	105668
31.80982	108474
31.81793	101655
31.82605	103019
31.83418	100991
31.84230	96503
31.85043	95396
31.85855	96874
31.86667	95595
31.87480	96460
31.88292	96898
31.89103	97996
31.89917	97603
31.90728	99575
31.91542	93738
31.92353	95064
31.93165	101287
31.93978	99622
31.94790	110619
31.95603	114822
31.96415	120136
31.97227	123943
31.98040	131039
31.98852	131864
31.99663	131005
32.00477	131213
32.01288	132323
32.02102	129684
32.02913	135821
32.03725	130304
32.04538	130358
32.05350	120562
32.06163	125580
32.06975	119537
32.07787	119689
32.08600	123997
32.09412	119198
32.10225	119486
32.11037	121061
32.11848	116454
32.12662	107387
32.13473	104099
32.14285	97019
32.15098	100185
32.15910	94770
32.16723	98017
32.17535	101393
32.18347	96496
32.19160	91661
32.19972	97988
32.20785	93182
32.21597	96408
32.22408	90396
32.23222	97058
32.24033	98311
32.24847	93164
32.25658	101801
32.26470	108724
32.27283	111820
32.28095	110490
32.28907	112095
32.29720	105273
32.30532	100638
32.31345	94811
32.32157	92121
32.32968	89554
32.33782	90153
32.34593	88226
32.35407	94118
32.36218	96299
32.37030	94658
32.37843	95249
32.38655	91457
32.39467	86698
32.40280	86529
32.41092	85670
32.41905	83925
32.42717	83322
32.43528	87690
32.44342	87225
32.45153	84146
32.45967	82650
32.46778	81886
32.47590	79823
32.48403	83705
32.49215	82079
32.50028	80464
32.50840	80539
32.51652	81180
32.52465	86438
32.53277	81392
32.54088	80274
32.54902	83925
32.55713	85740
32.56527	86070
32.57338	80730
32.58150	84119
32.58963	75727
32.59775	78297
32.60588	75176
32.61400	77809
32.62212	78387
32.63025	81903
32.63837	83597
32.64648	87253
32.65462	84992
32.66273	95369
32.67087	112151
32.67898	119553
32.68710	119138
32.69523	124365
32.70335	118754
32.71148	120406
32.71960	105768
32.72772	98851
32.73585	99526
32.74397	93333
32.75210	96020
32.76022	90320
32.76833	86248
32.77647	80671
32.78458	81710
32.79270	78764
32.80083	83155
32.80895	77428
32.81708	83064
32.82520	81718
32.83332	84309
32.84145	80316
32.84957	75288
32.85770	77884
32.86582	78204
32.87393	79501
32.88207	83461
32.89018	78775
32.89832	80775
32.90643	78487
32.91455	81700
32.92268	81608
32.93080	76273
32.93892	81674
32.94705	78157
32.95517	78432
32.96330	79285
32.97142	86264
32.97953	95948
32.98767	108597
32.99578	114194
33.00392	134568
33.01203	144180
33.02015	141332
33.02828	137213
33.03640	120595
33.04453	112270
33.05265	100198
33.06077	94849
33.06890	95014
33.07702	91933
33.08513	97810
33.09327	103342
33.10138	107950
33.10952	121111
33.11763	125883
33.12575	136623
33.13388	131283
33.14200	128842
33.15013	119265
33.15825	104077
33.16637	95421
33.17450	90280
33.18262	85932
33.19073	84606
33.19887	87223
33.20698	87943
33.21512	91423
33.22323	86996
33.23135	89288
33.23948	91537
33.24760	88694
33.25573	88776
33.26385	83317
33.27197	85562
33.28010	81846
33.28822	83364
33.29635	80362
33.30447	82682
33.31258	80179
33.32072	79938
33.32883	84350
33.33695	84019
33.34508	83495
33.35320	77829
33.36133	77832
33.36945	82338
33.37757	82426
33.38570	84064
33.39382	81440
33.40195	85908
33.41007	88879
33.41818	92377
33.42632	96384
33.43443	104173
33.44255	100567
33.45068	101460
33.45880	99594
33.46693	93317
33.47505	93948
33.48317	87300
33.49130	90386
33.49942	93980
33.50755	91101
33.51567	89853
33.52378	97291
33.53192	96935
33.54003	89476
33.54817	84978
33.55628	84298
33.56440	82393
33.57253	78085
33.58065	79897
33.58877	75510
33.59690	80053
33.60502	73469
33.61315	76780
33.62127	74177
33.62938	80773
33.63752	81502
33.64563	86349
33.65377	91239
33.66188	88640
33.67000	89975
33.67813	85542
33.68625	88633
33.69438	87678
33.70250	87154
33.71062	85601
33.71875	83427
33.72687	89587
33.73498	96528
33.74312	97203
33.75123	109060
33.75937	107248
33.76748	110902
33.77560	105020
33.78373	100833
33.79185	91932
33.79998	89036
33.80810	78492
33.81622	80684
33.82435	81222
33.83247	81286
33.84058	89006
33.84872	97028
33.85683	98357
33.86497	99979
33.87308	100610
33.88120	111510
33.88933	108466
33.89745	107109
33.90558	112919
33.91370	116907
33.92182	116964
33.92995	123346
33.93807	117240
33.94620	110019
33.95432	101539
33.96243	96809
33.97057	90511
33.97868	91128
33.98680	80428
33.99493	80608
34.00305	83626
34.01118	79196
34.01930	85381
34.02742	87139
34.03555	87489
34.04367	87317
34.05180	84055
34.05992	84126
34.06803	87679
34.07617	86238
34.08428	85799
34.09242	85770
34.10053	91010
34.10865	83289
34.11678	78390
34.12490	81398
34.13302	78919
34.14115	79410
34.14927	80116
34.15740	78476
34.16552	83770
34.17363	91808
34.18177	91304
34.18988	91457
34.19802	103353
34.20613	100223
34.21425	102342
34.22238	103180
34.23050	98706
34.23862	92579
34.24675	88959
34.25487	91465
34.26300	80527
34.27112	81263
34.27923	80764
34.28737	80563
34.29548	80547
34.30362	76040
34.31173	75996
34.31985	76300
34.32798	76608
34.33610	80599
34.34423	78411
34.35235	76995
34.36047	76318
34.36860	78233
34.37672	80420
34.38483	82197
34.39297	77680
34.40108	75990
34.40922	81422
34.41733	80329
34.42545	77470
34.43358	77790
34.44170	74215
34.44983	77461
34.45795	75266
34.46607	74516
34.47420	70190
34.48232	76394
34.49043	77246
34.49857	78993
34.50668	77973
34.51482	79924
34.52293	82368
34.53105	85886
34.53918	89179
34.54730	96608
34.55543	100672
34.56355	107549
34.57167	110257
34.57980	109751
34.58792	115100
34.59605	114071
34.60417	112396
34.61228	114574
34.62042	112138
34.62853	111413
34.63665	114834
34.64478	108437
34.65290	106200
34.66103	109770
34.66915	108709
34.67727	102122
34.68540	99257
34.69352	94119
34.70165	96983
34.70977	97627
34.71788	92537
34.72602	92706
34.73413	90797
34.74227	94473
34.75038	86632
34.75850	83379
34.76663	89004
34.77475	89696
34.78287	87158
34.79100	82803
34.79912	83106
34.80725	84180
34.81537	91247
34.82348	84071
34.83162	85843
34.83973	86709
34.84787	86576
34.85598	85563
34.86410	90187
34.87223	85385
34.88035	79665
34.88847	81927
34.89660	84473
34.90472	86187
34.91285	87157
34.92097	85119
34.92908	94418
34.93722	86242
34.94533	98140
34.95347	92808
34.96158	103778
34.96970	107261
34.97783	111530
34.98595	115457
34.99408	113067
35.00220	115588
35.01032	107770
35.01845	106472
35.02657	104586
35.03468	112547
35.04282	113855
35.05093	110174
35.05907	111572
35.06718	108275
35.07530	105107
35.08343	101140
35.09155	97173
35.09968	95812
35.10780	89325
35.11592	88814
35.12405	86100
35.13217	87726
35.14030	86375
35.14842	85293
35.15653	85409
35.16467	91310
35.17278	91563
35.18090	85576
35.18903	85007
35.19715	89849
35.20528	90411
35.21340	83703
35.22152	81609
35.22965	82155
35.23777	87027
35.24590	88853
35.25402	96342
35.26213	100566
35.27027	94686
35.27838	96049
35.28650	92439
35.29463	100211
35.30275	95372
35.31088	93526
35.31900	89781
35.32712	89967
35.33525	89890
35.34337	94807
35.35150	86697
35.35962	84653
35.36773	88544
35.37587	98693
35.38398	102591
35.39212	110694
35.40023	115692
35.40835	131465
35.41648	142067
35.42460	152208
35.43272	147692
35.44085	144893
35.44897	139885
35.45710	131301
35.46522	116430
35.47333	111524
35.48147	106301
35.48958	105291
35.49772	99062
35.50583	93392
35.51395	94408
35.52208	96575
35.53020	90764
35.53832	90125
35.54645	90210
35.55457	92496
35.56270	92622
35.57082	99109
35.57893	91446
35.58707	92474
35.59518	90347
35.60332	89090
35.61143	90920
35.61955	87128
35.62768	84877
35.63580	83391
35.64393	84486
35.65205	82410
35.66017	84932
35.66830	91849
35.67642	88792
35.68453	97241
35.69267	105446
35.70078	103823
35.70892	102642
35.71703	105349
35.72515	108247
35.73328	101948
35.74140	100695
35.74953	101149
35.75765	101143
35.76577	94911
35.77390	100731
35.78202	98700
35.79015	98763
35.79827	103222
35.80638	106040
35.81452	101052
35.82263	91163
35.83075	93090
35.83888	88284
35.84700	91165
35.85513	86114
35.86325	87959
35.87137	91832
35.87950	94439
35.88762	91588
35.89575	94163
35.90387	99534
35.91198	96870
35.92012	93151
35.92823	91689
35.93635	91307
35.94448	91139
35.95260	83037
35.96073	83520
35.96885	86247
35.97697	89926
35.98510	89407
35.99322	87861
36.00135	93075
36.00947	87566
36.01758	88426
36.02572	93364
36.03383	87985
36.04197	99843
36.05008	95934
36.05820	95575
36.06633	86321
36.07445	85796
36.08257	89207
36.09070	86649
36.09882	89712
36.10695	83209
36.11507	89843
36.12318	85309
36.13132	87482
36.13943	84289
36.14757	91665
36.15568	87127
36.16380	88222
36.17193	86178
36.18005	89047
36.18818	90141
36.19630	88329
36.20442	85891
36.21255	89231
36.22067	86793
36.22878	83581
36.23692	92275
36.24503	94903
36.25317	93697
36.26128	92104
36.26940	98591
36.27753	93418
36.28565	99403
36.29378	100753
36.30190	99984
36.31002	105761
36.31815	102738
36.32627	106799
36.33438	114893
36.34252	104804
36.35063	95769
36.35877	96888
36.36688	93340
36.37500	86651
36.38313	92216
36.39125	91297
36.39938	94047
36.40750	92322
36.41562	96722
36.42375	99147
36.43187	97490
36.44000	106457
36.44812	108568
36.45623	109268
36.46437	112438
36.47248	113832
36.48060	112322
36.48873	113773
36.49685	112979
36.50498	113840
36.51310	115716
36.52122	112087
36.52935	114130
36.53747	109644
36.54560	109649
36.55372	106532
36.56183	97206
36.56997	95771
36.57808	94358
36.58622	94675
36.59433	87156
36.60245	89634
36.61058	89691
36.61870	93701
36.62682	95431
36.63495	109833
36.64307	115315
36.65120	111949
36.65932	125262
36.66743	118354
36.67557	112852
36.68368	114048
36.69182	106901
36.69993	99166
36.70805	94245
36.71618	92056
36.72430	96995
36.73242	95947
36.74055	101801
36.74867	100958
36.75680	96889
36.76492	94558
36.77303	96043
36.78117	97095
36.78928	100325
36.79742	105470
36.80553	100609
36.81365	94629
36.82178	103725
36.82990	100684
36.83803	94673
36.84615	94974
36.85427	96250
36.86240	102251
36.87052	102315
36.87863	110671
36.88677	111511
36.89488	107634
36.90302	108134
36.91113	110682
36.91925	106840
36.92738	105626
36.93550	102947
36.94363	108977
36.95175	119128
36.95987	119430
36.96800	126031
36.97612	136697
36.98423	131562
36.99237	129617
37.00048	120955
37.00862	119424
37.01673	114701
37.02485	117139
37.03298	108222
37.04110	110267
37.04923	112443
37.05735	107908
37.06547	109274
37.07360	110670
37.08172	108203
37.08985	107726
37.09797	117851
37.10608	119657
37.11422	123312
37.12233	127647
37.13045	128238
37.13858	133315
37.14670	130505
37.15483	126131
37.16295	124189
37.17107	119840
37.17920	114931
37.18732	101838
37.19545	104887
37.20357	102931
37.21168	107067
37.21982	105627
37.22793	100154
37.23607	103553
37.24418	104035
37.25230	103652
37.26043	105868
37.26855	102708
37.27667	104456
37.28480	102707
37.29292	111122
37.30105	103426
37.30917	108725
37.31728	105939
37.32542	107601
37.33353	105282
37.34167	108745
37.34978	109936
37.35790	117964
37.36603	126217
37.37415	123800
37.38227	119078
37.39040	122473
37.39852	118984
37.40665	119141
37.41477	110937
37.42288	123828
37.43102	117885
37.43913	110008
37.44727	110877
37.45538	111545
37.46350	112212
37.47163	112355
37.47975	113795
37.48788	114876
