C:\MassHunter\GCMS\1\data\JTB-E18\JTB-E18-024-07.D Wed Sep 11 12:21:04 2019
Start of data points
2.09518,177197
2.10332,178158
2.11143,177668
2.11957,179899
2.12768,178702
2.13580,181277
2.14393,178243
2.15205,174004
2.16018,165456
2.16830,162919
2.17642,165373
2.18455,152998
2.19267,153703
2.20078,154500
2.20892,148704
2.21703,147239
2.22517,153896
2.23328,143929
2.24140,144156
2.24953,143636
2.25765,147258
2.26578,225593
2.27390,1291491
2.28202,2712635
2.29015,1619925
2.29827,747847
2.30640,519511
2.31452,444754
2.32263,394020
2.33077,358865
2.33888,338754
2.34700,307638
2.35513,285684
2.36325,263497
2.37138,250097
2.37950,317137
2.38762,476459
2.39575,364549
2.40387,272835
2.41200,255108
2.42012,257736
2.42823,277901
2.43637,249818
2.44448,246197
2.45262,263141
2.46073,229064
2.46885,226435
2.47698,213103
2.48510,216826
2.49322,245483
2.50135,261004
2.50947,223896
2.51760,214309
2.52572,212044
2.53383,206995
2.54197,203730
2.55008,209391
2.55822,214893
2.56633,200505
2.57445,195908
2.58258,197264
2.59070,199601
2.59882,191671
2.60695,198757
2.61507,215116
2.62320,237773
2.63132,225414
2.63943,201600
2.64757,191122
2.65568,195099
2.66382,204888
2.67193,207485
2.68005,272438
2.68818,257418
2.69630,206728
2.70443,191761
2.71255,185722
2.72067,179594
2.72880,180517
2.73692,182326
2.74503,184212
2.75317,182280
2.76128,181751
2.76942,180220
2.77753,178456
2.78565,177986
2.79378,175515
2.80190,174845
2.81003,198431
2.81815,223770
2.82627,502243
2.83440,1034449
2.84252,923413
2.85065,492936
2.85877,343347
2.86688,348738
2.87502,297260
2.88313,244303
2.89125,218215
2.89938,206325
2.90750,198527
2.91563,197412
2.92375,187727
2.93187,184882
2.94000,180978
2.94812,177039
2.95625,178933
2.96437,181991
2.97248,174673
2.98062,176153
2.98873,178803
2.99685,194617
3.00498,215903
3.01310,225983
3.02123,267864
3.02935,533103
3.03747,909692
3.04560,1389152
3.05372,3997780
3.06185,9139759
3.06997,9496618
3.07808,5229596
3.08622,2458090
3.09433,1482139
3.10247,1051184
3.11058,823357
3.11870,674163
3.12683,589742
3.13495,514285
3.14307,463225
3.15120,419681
3.15932,386685
3.16745,370881
3.17557,366950
3.18368,344772
3.19182,317457
3.19993,305773
3.20807,294720
3.21618,277329
3.22430,291194
3.23243,297325
3.24055,286097
3.24867,265602
3.25680,256514
3.26492,240357
3.27305,249731
3.28117,338683
3.28928,957811
3.29742,2822856
3.30553,5683256
3.31367,6922232
3.32178,5500199
3.32990,3579570
3.33803,2383480
3.34615,1767973
3.35428,1419894
3.36240,1208461
3.37052,1204003
3.37865,1418524
3.38677,1502596
3.39488,1283020
3.40302,1605853
3.41113,3306064
3.41927,4981307
3.42738,4176780
3.43550,2353790
3.44363,1321262
3.45175,954142
3.45988,815582
3.46800,734922
3.47612,673395
3.48425,607368
3.49237,567237
3.50050,537812
3.50862,507825
3.51673,479146
3.52487,466845
3.53298,455896
3.54110,441664
3.54923,416269
3.55735,401954
3.56548,395425
3.57360,401535
3.58172,386865
3.58985,388511
3.59797,372502
3.60610,384496
3.61422,485799
3.62233,963575
3.63047,2060313
3.63858,2820056
3.64670,2409067
3.65483,1454938
3.66295,862654
3.67108,631065
3.67920,543536
3.68732,481913
3.69545,447973
3.70357,429115
3.71170,405300
3.71982,392482
3.72793,379743
3.73607,386410
3.74418,380287
3.75232,388919
3.76043,395982
3.76855,373790
3.77668,351265
3.78480,341315
3.79292,335663
3.80105,328202
3.80917,331091
3.81730,322671
3.82542,327751
3.83353,340655
3.84167,341865
3.84978,324880
3.85792,315534
3.86603,296546
3.87415,297724
3.88228,296254
3.89040,296914
3.89853,291157
3.90665,297585
3.91477,292248
3.92290,286068
3.93102,290452
3.93913,281916
3.94727,281697
3.95538,280403
3.96352,277342
3.97163,267710
3.97975,268513
3.98788,265793
3.99600,261641
4.00413,262089
4.01225,264267
4.02037,268820
4.02850,263063
4.03662,254586
4.04473,256255
4.05287,263800
4.06098,273566
4.06912,273433
4.07723,267008
4.08535,266164
4.09348,264837
4.10160,259959
4.10973,256386
4.11785,250738
4.12597,264788
4.13410,269910
4.14222,272756
4.15035,317358
4.15847,334974
4.16658,309522
4.17472,282603
4.18283,269366
4.19095,254683
4.19908,254281
4.20720,251771
4.21533,266859
4.22345,324330
4.23157,458080
4.23970,528531
4.24782,504288
4.25595,398759
4.26407,344768
4.27218,302185
4.28032,291335
4.28843,270847
4.29655,266447
4.30468,257771
4.31280,250175
4.32093,251568
4.32905,253009
4.33717,255839
4.34530,251809
4.35342,246148
4.36155,237257
4.36967,242603
4.37778,240874
4.38592,234188
4.39403,231598
4.40217,234165
4.41028,226328
4.41840,226019
4.42653,223197
4.43465,226461
4.44277,237869
4.45090,240196
4.45902,262740
4.46715,256684
4.47527,248931
4.48338,246886
4.49152,235566
4.49963,224582
4.50777,222151
4.51588,221322
4.52400,227156
4.53213,227627
4.54025,219184
4.54838,220532
4.55650,220421
4.56462,225355
4.57275,215505
4.58087,216443
4.58898,224418
4.59712,219500
4.60523,212335
4.61337,216304
4.62148,216199
4.62960,219592
4.63773,204219
4.64585,219414
4.65398,210607
4.66210,212276
4.67022,208956
4.67835,202734
4.68647,208619
4.69458,211354
4.70272,206331
4.71083,210865
4.71897,208170
4.72708,207089
4.73520,204644
4.74333,212945
4.75145,209726
4.75958,211740
4.76770,208540
4.77582,200528
4.78395,205816
4.79207,209634
4.80020,204988
4.80832,210797
4.81643,212134
4.82457,211344
4.83268,210138
4.84080,209320
4.84893,209037
4.85705,213892
4.86518,214969
4.87330,220301
4.88142,211574
4.88955,209616
4.89767,200298
4.90580,209676
4.91392,218160
4.92203,265729
4.93017,421760
4.93828,812188
4.94642,1373782
4.95453,1819379
4.96265,1837800
4.97078,1548907
4.97890,1169805
4.98702,895130
4.99515,696818
5.00327,597963
5.01140,527734
5.01952,476243
5.02763,446534
5.03577,417546
5.04388,399555
5.05202,377150
5.06013,369718
5.06825,367671
5.07638,343038
5.08450,344851
5.09262,349584
5.10075,370649
5.10887,429123
5.11700,484395
5.12512,496567
5.13323,441963
5.14137,393695
5.14948,348578
5.15762,328651
5.16573,338863
5.17385,379716
5.18198,444880
5.19010,480218
5.19823,459352
5.20635,391452
5.21447,354808
5.22260,327159
5.23072,304864
5.23883,301848
5.24697,297730
5.25508,293564
5.26322,293788
5.27133,278852
5.27945,277957
5.28758,275695
5.29570,284134
5.30383,283984
5.31195,266739
5.32007,268080
5.32820,261611
5.33632,265500
5.34445,275274
5.35257,267651
5.36068,270610
5.36882,252861
5.37693,234834
5.38505,247971
5.39318,244436
5.40130,243356
5.40943,240852
5.41755,238705
5.42567,238782
5.43380,233622
5.44192,241595
5.45005,243824
5.45817,244042
5.46628,240125
5.47442,237373
5.48253,235191
5.49065,232842
5.49878,235384
5.50690,229475
5.51503,234987
5.52315,239154
5.53127,236312
5.53940,230751
5.54752,233246
5.55565,246997
5.56377,234213
5.57188,227202
5.58002,229601
5.58813,234529
5.59627,246090
5.60438,239743
5.61250,236835
5.62063,250724
5.62875,262546
5.63687,264172
5.64500,263778
5.65312,261016
5.66125,256409
5.66937,239665
5.67748,247641
5.68562,259239
5.69373,263045
5.70187,271389
5.70998,281054
5.71810,283986
5.72623,302866
5.73435,312136
5.74247,295067
5.75060,281507
5.75872,297445
5.76685,303995
5.77497,321857
5.78308,302716
5.79122,289978
5.79933,301390
5.80747,393930
5.81558,627948
5.82370,1006374
5.83183,1305281
5.83995,1344069
5.84808,1143677
5.85620,825456
5.86432,557262
5.87245,410251
5.88057,343182
5.88868,299057
5.89682,287302
5.90493,313305
5.91307,378777
5.92118,497580
5.92930,643995
5.93743,694553
5.94555,620342
5.95368,487338
5.96180,369656
5.96992,306124
5.97805,271497
5.98617,258593
5.99430,248958
6.00242,231734
6.01053,227496
6.01867,213513
6.02678,207585
6.03490,194133
6.04303,196037
6.05115,186227
6.05928,191119
6.06740,186100
6.07552,189004
6.08365,185373
6.09177,177345
6.09990,185320
6.10802,172530
6.11613,173614
6.12427,180733
6.13238,180737
6.14050,176878
6.14863,174869
6.15675,177267
6.16488,177263
6.17300,186577
6.18112,190633
6.18925,204897
6.19737,230421
6.20550,246116
6.21362,236445
6.22173,223611
6.22987,207133
6.23798,197449
6.24612,205907
6.25423,193408
6.26235,202974
6.27048,198897
6.27860,204619
6.28672,205817
6.29485,207883
6.30297,213328
6.31110,209522
6.31922,215768
6.32733,219780
6.33547,214965
6.34358,228588
6.35172,228986
6.35983,238183
6.36795,242557
6.37608,236411
6.38420,236657
6.39233,230952
6.40045,238770
6.40857,240569
6.41670,238766
6.42482,249924
6.43293,245123
6.44107,254340
6.44918,261287
6.45732,257240
6.46543,262117
6.47355,263208
6.48168,261507
6.48980,275178
6.49793,274184
6.50605,273060
6.51417,274400
6.52230,262934
6.53042,272351
6.53853,277706
6.54667,274349
6.55478,278336
6.56292,277314
6.57103,282265
6.57915,284256
6.58728,282141
6.59540,231952
6.60353,214473
6.61165,210711
6.61977,193612
6.62790,190714
6.63602,183271
6.64415,184376
6.65227,182905
6.66038,183247
6.66852,181491
6.67663,172678
6.68475,174821
6.69288,192482
6.70100,200450
6.70913,231368
6.71725,271245
6.72537,289533
6.73350,287823
6.74162,257912
6.74975,239153
6.75787,203074
6.76598,185078
6.77412,174999
6.78223,167243
6.79035,162867
6.79848,157908
6.80660,158506
6.81473,173592
6.82285,196940
6.83097,251240
6.83910,367064
6.84722,539854
6.85535,725936
6.86347,845651
6.87158,832519
6.87972,678978
6.88783,500896
6.89597,338025
6.90408,229707
6.91220,182725
6.92033,154298
6.92845,139826
6.93657,131282
6.94470,134263
6.95282,129219
6.96095,128915
6.96907,123640
6.97718,136794
6.98532,150150
6.99343,196525
7.00157,273745
7.00968,342354
7.01780,407891
7.02593,393820
7.03405,350390
7.04218,281718
7.05030,223685
7.05842,178269
7.06655,152876
7.07467,138820
7.08278,136825
7.09092,130191
7.09903,137696
7.10717,145282
7.11528,142304
7.12340,138153
7.13153,141667
7.13965,136584
7.14778,132060
7.15590,132049
7.16402,128531
7.17215,131805
7.18027,128137
7.18840,133593
7.19652,129668
7.20463,129139
7.21277,124998
7.22088,133732
7.22900,147020
7.23713,157406
7.24525,174379
7.25338,189498
7.26150,202609
7.26962,199949
7.27775,196066
7.28587,174792
7.29400,166712
7.30212,161939
7.31023,165987
7.31837,166504
7.32648,174999
7.33460,161125
7.34273,148499
7.35085,155534
7.35898,172733
7.36710,198186
7.37522,256431
7.38335,308763
7.39147,333751
7.39960,317857
7.40772,269768
7.41583,213841
7.42397,183297
7.43208,164375
7.44022,154301
7.44833,147460
7.45645,141416
7.46458,143906
7.47270,170264
7.48082,195206
7.48895,229272
7.49707,235154
7.50520,242359
7.51332,208121
7.52143,179335
7.52957,152138
7.53768,137444
7.54582,134895
7.55393,120173
7.56205,126008
7.57018,121083
7.57830,121841
7.58642,119465
7.59455,120635
7.60267,114858
7.61080,114726
7.61892,113480
7.62703,119982
7.63517,120409
7.64328,114946
7.65142,114832
7.65953,116517
7.66765,118537
7.67578,119738
7.68390,115121
7.69203,112561
7.70015,109896
7.70827,109608
7.71640,114270
7.72452,113705
7.73263,110778
7.74077,110011
7.74888,102933
7.75702,98594
7.76513,98270
7.77325,99406
7.78138,99276
7.78950,98828
7.79763,103228
7.80575,105637
7.81387,103608
7.82200,103101
7.83012,96450
7.83825,100598
7.84637,94428
7.85448,102304
7.86262,102648
7.87073,97495
7.87885,97102
7.88698,102003
7.89510,100754
7.90323,101491
7.91135,96426
7.91947,99132
7.92760,99566
7.93572,100935
7.94385,96472
7.95197,94962
7.96008,97160
7.96822,102861
7.97633,100273
7.98445,101313
7.99258,101477
8.00070,99291
8.00883,100138
8.01695,95081
8.02507,94860
8.03320,95937
8.04132,94842
8.04945,98820
8.05757,94942
8.06568,96084
8.07382,91815
8.08193,96166
8.09007,104078
8.09818,96878
8.10630,93506
8.11443,98648
8.12255,94379
8.13067,100455
8.13880,94955
8.14692,92193
8.15505,97110
8.16317,100019
8.17128,99223
8.17942,98397
8.18753,100791
8.19567,95486
8.20378,98409
8.21190,96013
8.22003,92097
8.22815,98338
8.23628,94930
8.24440,93975
8.25252,92179
8.26065,91956
8.26877,92438
8.27688,93048
8.28502,91769
8.29313,92268
8.30127,95705
8.30938,94749
8.31750,93084
8.32563,97143
8.33375,98946
8.34188,106472
8.35000,108417
8.35812,105449
8.36625,97803
8.37437,97457
8.38248,92403
8.39062,90559
8.39873,93477
8.40687,89173
8.41498,89642
8.42310,88213
8.43123,92886
8.43935,92618
8.44748,93520
8.45560,90428
8.46372,91307
8.47185,87450
8.47997,94191
8.48810,87632
8.49622,88270
8.50433,93482
8.51247,97076
8.52058,106160
8.52870,110349
8.53683,113210
8.54495,110164
8.55308,104881
8.56120,102622
8.56932,93893
8.57745,101164
8.58557,99108
8.59370,91268
8.60182,91722
8.60993,96897
8.61807,94024
8.62618,91262
8.63430,93933
8.64243,86974
8.65055,86800
8.65868,85269
8.66680,89640
8.67492,85702
8.68305,87904
8.69117,90597
8.69930,89359
8.70742,91505
8.71553,92568
8.72367,95219
8.73178,104894
8.73992,125691
8.74803,193391
8.75615,305761
8.76428,481721
8.77240,575051
8.78052,573286
8.78865,485777
8.79677,362393
8.80490,275367
8.81302,237318
8.82113,215376
8.82927,208476
8.83738,194467
8.84552,182878
8.85363,175207
8.86175,163822
8.86988,154670
8.87800,156125
8.88613,163138
8.89425,144246
8.90237,150332
8.91050,141357
8.91862,147152
8.92673,147951
8.93487,134545
8.94298,131452
8.95112,130475
8.95923,128696
8.96735,133462
8.97548,131339
8.98360,133972
8.99173,132168
8.99985,128663
9.00797,131329
9.01610,133005
9.02422,132578
9.03233,125298
9.04047,128083
9.04858,129755
9.05672,128812
9.06483,125152
9.07295,126605
9.08108,124725
9.08920,127761
9.09733,129911
9.10545,120185
9.11357,120925
9.12170,125009
9.12982,121462
9.13795,119008
9.14607,124606
9.15418,117816
9.16232,117203
9.17043,117128
9.17855,115559
9.18668,114962
9.19480,115343
9.20293,114957
9.21105,119669
9.21917,116958
9.22730,109911
9.23542,107438
9.24355,114929
9.25167,111508
9.25978,110185
9.26792,120253
9.27603,115058
9.28417,114801
9.29228,115917
9.30040,112004
9.30853,111218
9.31665,110624
9.32477,110425
9.33290,112512
9.34102,108872
9.34915,113390
9.35727,111540
9.36538,109593
9.37352,110283
9.38163,107782
9.38977,102605
9.39788,107275
9.40600,102631
9.41413,105377
9.42225,105175
9.43037,103053
9.43850,96802
9.44662,102243
9.45475,98903
9.46287,102296
9.47098,97960
9.47912,92906
9.48723,96032
9.49537,96601
9.50348,92358
9.51160,95833
9.51973,96742
9.52785,96080
9.53598,91150
9.54410,92448
9.55222,86041
9.56035,82410
9.56847,79603
9.57658,80200
9.58472,72990
9.59283,73534
9.60097,78994
9.60908,69662
9.61720,71038
9.62533,67347
9.63345,72195
9.64158,70134
9.64970,75388
9.65782,70894
9.66595,70966
9.67407,71026
9.68218,72121
9.69032,75863
9.69843,68336
9.70657,71488
9.71468,76975
9.72280,71515
9.73093,74626
9.73905,70475
9.74718,81746
9.75530,73535
9.76342,70442
9.77155,75216
9.77967,72060
9.78780,74666
9.79592,74704
9.80403,74290
9.81217,74817
9.82028,77453
9.82840,76856
9.83653,72153
9.84465,75002
9.85278,73879
9.86090,74750
9.86902,80629
9.87715,72350
9.88527,70251
9.89340,78438
9.90152,72076
9.90963,69737
9.91777,73152
9.92588,71818
9.93402,71733
9.94213,72959
9.95025,75356
9.95838,75224
9.96650,83018
9.97462,82030
9.98275,92314
9.99087,90022
9.99900,89092
10.00712,89934
10.01523,86623
10.02337,80331
10.03148,77555
10.03962,78592
10.04773,80657
10.05585,76053
10.06398,73374
10.07210,74417
10.08022,73024
10.08835,74360
10.09647,71912
10.10460,68529
10.11272,68089
10.12083,70564
10.12897,72259
10.13708,70143
10.14522,65783
10.15333,69123
10.16145,68142
10.16958,65269
10.17770,63603
10.18583,63465
10.19395,60356
10.20207,62849
10.21020,69506
10.21832,69523
10.22643,70400
10.23457,71649
10.24268,74633
10.25082,73984
10.25893,72919
10.26705,70278
10.27518,67732
10.28330,69572
10.29143,69258
10.29955,77166
10.30767,70563
10.31580,66377
10.32392,66342
10.33205,65902
10.34017,65191
10.34828,62073
10.35642,67860
10.36453,67337
10.37265,67930
10.38078,66949
10.38890,73204
10.39703,74168
10.40515,75151
10.41327,74428
10.42140,70901
10.42952,67403
10.43765,67261
10.44577,60114
10.45388,62515
10.46202,62889
10.47013,61638
10.47825,62444
10.48638,59459
10.49450,61870
10.50263,61378
10.51075,59861
10.51887,68442
10.52700,67003
10.53512,66363
10.54325,72334
10.55137,67147
10.55948,63458
10.56762,69102
10.57573,63750
10.58387,57959
10.59198,62179
10.60010,63172
10.60823,60963
10.61635,62874
10.62447,59509
10.63260,62844
10.64072,61161
10.64885,60005
10.65697,60501
10.66508,59103
10.67322,58849
10.68133,58329
10.68947,58854
10.69758,60917
10.70570,60997
10.71383,68918
10.72195,59789
10.73008,66013
10.73820,58960
10.74632,59001
10.75445,57352
10.76257,60138
10.77068,62312
10.77882,61374
10.78693,56916
10.79507,54100
10.80318,54267
10.81130,54820
10.81943,52074
10.82755,52476
10.83568,51831
10.84380,54088
10.85192,55070
10.86005,51134
10.86817,53860
10.87628,51347
10.88442,51724
10.89253,53519
10.90067,56922
10.90878,52588
10.91690,55234
10.92503,53250
10.93315,55003
10.94128,53274
10.94940,50611
10.95752,48725
10.96565,48602
10.97377,50142
10.98190,51891
10.99002,58442
10.99813,55754
11.00627,52414
11.01438,52951
11.02250,53433
11.03063,48142
11.03875,50845
11.04688,50921
11.05500,48830
11.06312,54252
11.07125,61930
11.07937,73009
11.08750,78104
11.09562,86258
11.10373,90784
11.11187,105807
11.11998,109310
11.12810,122812
11.13623,133432
11.14435,137850
11.15248,142568
11.16060,143311
11.16872,139298
11.17685,143343
11.18497,144332
11.19310,143441
11.20122,145277
11.20933,137581
11.21747,140785
11.22558,144457
11.23372,142532
11.24183,141604
11.24995,132955
11.25808,138859
11.26620,134702
11.27432,141432
11.28245,157829
11.29057,167863
11.29870,196821
11.30682,208959
11.31493,220858
11.32307,224153
11.33118,199605
11.33932,184823
11.34743,167141
11.35555,168609
11.36368,160920
11.37180,160293
11.37993,149268
11.38805,142569
11.39617,139038
11.40430,137399
11.41242,132007
11.42053,132869
11.42867,119439
11.43678,124265
11.44492,121889
11.45303,118894
11.46115,121756
11.46928,114628
11.47740,125090
11.48553,116823
11.49365,119187
11.50177,119217
11.50990,120125
11.51802,123812
11.52613,124934
11.53427,131467
11.54238,145304
11.55052,133598
11.55863,137918
11.56675,141493
11.57488,121020
11.58300,128035
11.59113,124753
11.59925,121935
11.60737,120806
11.61550,117908
11.62362,111567
11.63175,112483
11.63987,116538
11.64798,109404
11.65612,112503
11.66423,105180
11.67235,109768
11.68048,110131
11.68860,114742
11.69673,128745
11.70485,138599
11.71297,146670
11.72110,150024
11.72922,152372
11.73735,153089
11.74547,153091
11.75358,153082
11.76172,161115
11.76983,152728
11.77797,146663
11.78608,147559
11.79420,140113
11.80233,140550
11.81045,145568
11.81857,129217
11.82670,127857
11.83482,115615
11.84295,111378
11.85107,103450
11.85918,100892
11.86732,98851
11.87543,96882
11.88357,92251
11.89168,90226
11.89980,91256
11.90793,86372
11.91605,89108
11.92417,90502
11.93230,91359
11.94042,96624
11.94855,102700
11.95667,105450
11.96478,108446
11.97292,103328
11.98103,98306
11.98917,87090
11.99728,96805
12.00540,93697
12.01353,85191
12.02165,88484
12.02978,83324
12.03790,86077
12.04602,82354
12.05415,77530
12.06227,81847
12.07038,77680
12.07852,81599
12.08663,80412
12.09477,77137
12.10288,76141
12.11100,74238
12.11913,77462
12.12725,78446
12.13538,78899
12.14350,76428
12.15162,72038
12.15975,73838
12.16787,79454
12.17598,76477
12.18412,74327
12.19223,77552
12.20037,75141
12.20848,76530
12.21660,71337
12.22473,67533
12.23285,74793
12.24098,69439
12.24910,74516
12.25722,74459
12.26535,78248
12.27347,76753
12.28160,80518
12.28972,86463
12.29783,91676
12.30597,94308
12.31408,91225
12.32220,96676
12.33033,97487
12.33845,99674
12.34658,101870
12.35470,93774
12.36282,91388
12.37095,91499
12.37907,89357
12.38720,94158
12.39532,91637
12.40343,89495
12.41157,89242
12.41968,89035
12.42782,95894
12.43593,85945
12.44405,84600
12.45218,83706
12.46030,83494
12.46842,84789
12.47655,88379
12.48467,81376
12.49280,80642
12.50092,76639
12.50903,77059
12.51717,82948
12.52528,78067
12.53342,73089
12.54153,69661
12.54965,79583
12.55778,72227
12.56590,76057
12.57403,69422
12.58215,72569
12.59027,73080
12.59840,69424
12.60652,72637
12.61463,70795
12.62277,70638
12.63088,72139
12.63902,68255
12.64713,70901
12.65525,72474
12.66338,68512
12.67150,69251
12.67963,65817
12.68775,65328
12.69587,69784
12.70400,69168
12.71212,67148
12.72023,68477
12.72837,70389
12.73648,73942
12.74462,75879
12.75273,71191
12.76085,71656
12.76898,74615
12.77710,71633
12.78523,67394
12.79335,77251
12.80147,79557
12.80960,77728
12.81772,85180
12.82585,81470
12.83397,78699
12.84208,76511
12.85022,75058
12.85833,73112
12.86645,68192
12.87458,65433
12.88270,65164
12.89083,61903
12.89895,60816
12.90707,58715
12.91520,57968
12.92332,58156
12.93145,58068
12.93957,61933
12.94768,66957
12.95582,74886
12.96393,93191
12.97205,110525
12.98018,130823
12.98830,133516
12.99643,133291
13.00455,127762
13.01267,120819
13.02080,105394
13.02892,95870
13.03705,89550
13.04517,81434
13.05328,76897
13.06142,69151
13.06953,65364
13.07767,66796
13.08578,62346
13.09390,61220
13.10203,59176
13.11015,59976
13.11827,56771
13.12640,60090
13.13452,57978
13.14265,56644
13.15077,53986
13.15888,56574
13.16702,62765
13.17513,65001
13.18327,60606
13.19138,57362
13.19950,57925
13.20763,59687
13.21575,58545
13.22388,59284
13.23200,61927
13.24012,61752
13.24825,59557
13.25637,62750
13.26448,70892
13.27262,71798
13.28073,74237
13.28887,75689
13.29698,77595
13.30510,73518
13.31323,72851
13.32135,73455
13.32948,78705
13.33760,74542
13.34572,77966
13.35385,73163
13.36197,73742
13.37008,68375
13.37822,65448
13.38633,63946
13.39447,60575
13.40258,61588
13.41070,55357
13.41883,58197
13.42695,57555
13.43508,53780
13.44320,54416
13.45132,56674
13.45945,49470
13.46757,52316
13.47570,49795
13.48382,52754
13.49193,49757
13.50007,54400
13.50818,55418
13.51630,51364
13.52443,50212
13.53255,51884
13.54068,54755
13.54880,57193
13.55692,62173
13.56505,61880
13.57317,65001
13.58130,62460
13.58942,62270
13.59753,67085
13.60567,67313
13.61378,73502
13.62192,73630
13.63003,77518
13.63815,79079
13.64628,81376
13.65440,79799
13.66252,78804
13.67065,73517
13.67877,70594
13.68690,72583
13.69502,68863
13.70313,65587
13.71127,57154
13.71938,65443
13.72752,59945
13.73563,63468
13.74375,59629
13.75188,62732
13.76000,58231
13.76812,60545
13.77625,53475
13.78437,57534
13.79250,56295
13.80062,55738
13.80873,56659
13.81687,57099
13.82498,56004
13.83312,54653
13.84123,54895
13.84935,55293
13.85748,53894
13.86560,58011
13.87373,55984
13.88185,60781
13.88997,67005
13.89810,74756
13.90622,67837
13.91433,76811
13.92247,81162
13.93058,81991
13.93872,76688
13.94683,84077
13.95495,77795
13.96308,80959
13.97120,74655
13.97933,77504
13.98745,79161
13.99557,72730
14.00370,74444
14.01182,75391
14.01993,76972
14.02807,75351
14.03618,72663
14.04432,79857
14.05243,80699
14.06055,74870
14.06868,73222
14.07680,76356
14.08493,71503
14.09305,73954
14.10117,71181
14.10930,67861
14.11742,62418
14.12555,64584
14.13367,68080
14.14178,75454
14.14992,94630
14.15803,116670
14.16615,161704
14.17428,218381
14.18240,241458
14.19053,248053
14.19865,224538
14.20677,201991
14.21490,175750
14.22302,155243
14.23115,139792
14.23927,138846
14.24738,123710
14.25552,126403
14.26363,117011
14.27177,116209
14.27988,108722
14.28800,108050
14.29613,95812
14.30425,97197
14.31237,90328
14.32050,91387
14.32862,76825
14.33675,69707
14.34487,62337
14.35298,59490
14.36112,49963
14.36923,55014
14.37737,52408
14.38548,54493
14.39360,54415
14.40173,53192
14.40985,53195
14.41797,52434
14.42610,55250
14.43422,56577
14.44235,50015
14.45047,52391
14.45858,46814
14.46672,52059
14.47483,49725
14.48297,53405
14.49108,48519
14.49920,48749
14.50733,53407
14.51545,48742
14.52358,48804
14.53170,49098
14.53982,47646
14.54795,51409
14.55607,55198
14.56418,54883
14.57232,52794
14.58043,56330
14.58857,52529
14.59668,51285
14.60480,51837
14.61293,46759
14.62105,50932
14.62918,49845
14.63730,52224
14.64542,52336
14.65355,49960
14.66167,47696
14.66980,53422
14.67792,50753
14.68603,52439
14.69417,50972
14.70228,49924
14.71040,50032
14.71853,49177
14.72665,47179
14.73478,46902
14.74290,46978
14.75102,51737
14.75915,48963
14.76727,52612
14.77540,46820
14.78352,50970
14.79163,48789
14.79977,50198
14.80788,46218
14.81600,48513
14.82413,47120
14.83225,51038
14.84038,56401
14.84850,50805
14.85662,54136
14.86475,53493
14.87287,54586
14.88100,54176
14.88912,48089
14.89723,53266
14.90537,55741
14.91348,47840
14.92162,48223
14.92973,51605
14.93785,50249
14.94598,49296
14.95410,49909
14.96222,45240
14.97035,49250
14.97847,44568
14.98660,45709
14.99472,42463
15.00283,47581
15.01097,45663
15.01908,45061
15.02722,47362
15.03533,43450
15.04345,48476
15.05158,43355
15.05970,43444
15.06783,46683
15.07595,46962
15.08407,44083
15.09220,42942
15.10032,49466
15.10843,44719
15.11657,43576
15.12468,46942
15.13282,44770
15.14093,45066
15.14905,42413
15.15718,45633
15.16530,43116
15.17343,45016
15.18155,42147
15.18967,46366
15.19780,47140
15.20592,43841
15.21403,48715
15.22217,38874
15.23028,43565
15.23842,42156
15.24653,43537
15.25465,43627
15.26278,43893
15.27090,43513
15.27903,46792
15.28715,38986
15.29527,42691
15.30340,37910
15.31152,42540
15.31965,45496
15.32777,41054
15.33588,43395
15.34402,39798
15.35213,40777
15.36025,41614
15.36838,42523
15.37650,39930
15.38463,39655
15.39275,39344
15.40087,38576
15.40900,40599
15.41712,40196
15.42525,40173
15.43337,42399
15.44148,44010
15.44962,38868
15.45773,40861
15.46585,40394
15.47398,43653
15.48210,39975
15.49023,42560
15.49835,38963
15.50647,40048
15.51460,38815
15.52272,38751
15.53085,40281
15.53897,40637
15.54708,42045
15.55522,40671
15.56333,40903
15.57147,40674
15.57958,39011
15.58770,36931
15.59583,42817
15.60395,40720
15.61207,39255
15.62020,42213
15.62832,40945
15.63645,39974
15.64457,36168
15.65268,40676
15.66082,41871
15.66893,42839
15.67707,41971
15.68518,37738
15.69330,40701
15.70143,38817
15.70955,40080
15.71768,39592
15.72580,41610
15.73392,40954
15.74205,43102
15.75017,40807
15.75828,44844
15.76642,41632
15.77453,41028
15.78267,47566
15.79078,41678
15.79890,39702
15.80703,43925
15.81515,42446
15.82328,42974
15.83140,43932
15.83952,37815
15.84765,41438
15.85577,42109
15.86388,43996
15.87202,41523
15.88013,42259
15.88827,40688
15.89638,43989
15.90450,38732
15.91263,41951
15.92075,42834
15.92888,42030
15.93700,42371
15.94512,44111
15.95325,43374
15.96137,40816
15.96950,41624
15.97762,41969
15.98573,45011
15.99387,42952
16.00198,46844
16.01010,48739
16.01823,49222
16.02635,53843
16.03448,57053
16.04260,59793
16.05072,62040
16.05885,59263
16.06697,55458
16.07510,57550
16.08322,56603
16.09133,56091
16.09947,53603
16.10758,54814
16.11572,53475
16.12383,55182
16.13195,54713
16.14008,48712
16.14820,55989
16.15632,55973
16.16445,53692
16.17257,53831
16.18070,57184
16.18882,55593
16.19693,48771
16.20507,52471
16.21318,52152
16.22132,54345
16.22943,53413
16.23755,50603
16.24568,51701
16.25380,53795
16.26192,50828
16.27005,52951
16.27817,58647
16.28630,52488
16.29442,53562
16.30253,53394
16.31067,53775
16.31878,50121
16.32692,50283
16.33503,55508
16.34315,53194
16.35128,49249
16.35940,47282
16.36753,47014
16.37565,47972
16.38377,49262
16.39190,50153
16.40002,49592
16.40813,49684
16.41627,45733
16.42438,47649
16.43252,48144
16.44063,50542
16.44875,47232
16.45688,48355
16.46500,49228
16.47313,45277
16.48125,47051
16.48937,48725
16.49750,47889
16.50562,47071
16.51373,48829
16.52187,50672
16.52998,47792
16.53812,47339
16.54623,50652
16.55435,48842
16.56248,47020
16.57060,51422
16.57873,46938
16.58685,47868
16.59497,48972
16.60310,43105
16.61122,46339
16.61935,46964
16.62747,47792
16.63558,45634
16.64372,42021
16.65183,44254
16.65995,44648
16.66808,43619
16.67620,45210
16.68433,48449
16.69245,45483
16.70057,46342
16.70870,48080
16.71682,42087
16.72495,45941
16.73307,46437
16.74118,44138
16.74932,43370
16.75743,46241
16.76557,47120
16.77368,49886
16.78180,48239
16.78993,44448
16.79805,44727
16.80617,51190
16.81430,47361
16.82242,47240
16.83055,51766
16.83867,49921
16.84678,48456
16.85492,47624
16.86303,48086
16.87117,50263
16.87928,51649
16.88740,52586
16.89553,47412
16.90365,48822
16.91178,52677
16.91990,48646
16.92802,47155
16.93615,48357
16.94427,46813
16.95238,47602
16.96052,48665
16.96863,49418
16.97677,46255
16.98488,47112
16.99300,49161
17.00113,41360
17.00925,48127
17.01738,45528
17.02550,47238
17.03362,43246
17.04175,46055
17.04987,44264
17.05798,45997
17.06612,49759
17.07423,51261
17.08237,49737
17.09048,44361
17.09860,43893
17.10673,47689
17.11485,48704
17.12298,43870
17.13110,45660
17.13922,50088
17.14735,52518
17.15547,48208
17.16360,48023
17.17172,45815
17.17983,45974
17.18797,49763
17.19608,50407
17.20420,44548
17.21233,45595
17.22045,43534
17.22858,44499
17.23670,48123
17.24482,42295
17.25295,48619
17.26107,42241
17.26920,46245
17.27732,45073
17.28543,41228
17.29357,45102
17.30168,46661
17.30980,46602
17.31793,47339
17.32605,45336
17.33418,45604
17.34230,48514
17.35042,52751
17.35855,52899
17.36667,55488
17.37480,57080
17.38292,58342
17.39103,56570
17.39917,55988
17.40728,59690
17.41542,56701
17.42353,61618
17.43165,55742
17.43978,58691
17.44790,59895
17.45602,53716
17.46415,56881
17.47227,51555
17.48040,53802
17.48852,51813
17.49663,56743
17.50477,52339
17.51288,58003
17.52102,59316
17.52913,60630
17.53725,68410
17.54538,74416
17.55350,80976
17.56163,83966
17.56975,77327
17.57787,78403
17.58600,74583
17.59412,67393
17.60223,62707
17.61037,56153
17.61848,52013
17.62662,50782
17.63473,51181
17.64285,50621
17.65098,47412
17.65910,48026
17.66723,51655
17.67535,53370
17.68347,50591
17.69160,56089
17.69972,53438
17.70783,58958
17.71597,57107
17.72408,52937
17.73222,49249
17.74033,51223
17.74845,53255
17.75658,46740
17.76470,56219
17.77283,53080
17.78095,53025
17.78907,49448
17.79720,48040
17.80532,50138
17.81345,47233
17.82157,51410
17.82968,49857
17.83782,49397
17.84593,55758
17.85405,55709
17.86218,54812
17.87030,54380
17.87843,54104
17.88655,51736
17.89467,50148
17.90280,47366
17.91092,48437
17.91905,44526
17.92717,47045
17.93528,45883
17.94342,46922
17.95153,45780
17.95967,44693
17.96778,45721
17.97590,44972
17.98403,43962
17.99215,44839
18.00027,49504
18.00840,45246
18.01652,45197
18.02465,49714
18.03277,50726
18.04088,54288
18.04902,56225
18.05713,55283
18.06527,54460
18.07338,52381
18.08150,53219
18.08963,55385
18.09775,58624
18.10587,52501
18.11400,57840
18.12212,52684
18.13025,52691
18.13837,52872
18.14648,49359
18.15462,51625
18.16273,52876
18.17087,51660
18.17898,50669
18.18710,50606
18.19523,46732
18.20335,54244
18.21148,51602
18.21960,51318
18.22772,52461
18.23585,52718
18.24397,55984
18.25208,49770
18.26022,53658
18.26833,51702
18.27647,47440
18.28458,51529
18.29270,47828
18.30083,45538
18.30895,46162
18.31708,48941
18.32520,46577
18.33332,46750
18.34145,51866
18.34957,54908
18.35768,55314
18.36582,59662
18.37393,56785
18.38207,58420
18.39018,64974
18.39830,70206
18.40643,69738
18.41455,59827
18.42268,64450
18.43080,64655
18.43892,61288
18.44705,60097
18.45517,61995
18.46330,58188
18.47142,62447
18.47953,61088
18.48767,55837
18.49578,55478
18.50390,62568
18.51203,58070
18.52015,55847
18.52828,57731
18.53640,56939
18.54452,57159
18.55265,57163
18.56077,57794
18.56890,56773
18.57702,59311
18.58513,59251
18.59327,56194
18.60138,57409
18.60952,60035
18.61763,64911
18.62575,63983
18.63388,63167
18.64200,65590
18.65012,59764
18.65825,62216
18.66637,61854
18.67450,61854
18.68262,60812
18.69073,58662
18.69887,57286
18.70698,58333
18.71512,60096
18.72323,57524
18.73135,56749
18.73948,53200
18.74760,56244
18.75572,51223
18.76385,51983
18.77197,54068
18.78010,53540
18.78822,50580
18.79633,52089
18.80447,51765
18.81258,49186
18.82072,50969
18.82883,50720
18.83695,48576
18.84508,48101
18.85320,52522
18.86133,48515
18.86945,52922
18.87757,53868
18.88570,52917
18.89382,52663
18.90193,54033
18.91007,51154
18.91818,55021
18.92632,54277
18.93443,53053
18.94255,49013
18.95068,51484
18.95880,52124
18.96693,51529
18.97505,50611
18.98317,50631
18.99130,49071
18.99942,47163
19.00755,47928
19.01567,51435
19.02378,54768
19.03192,50843
19.04003,47990
19.04815,55068
19.05628,45779
19.06440,53633
19.07253,51446
19.08065,56031
19.08877,54374
19.09690,65611
19.10502,68352
19.11315,74599
19.12127,75317
19.12938,76720
19.13752,84084
19.14563,81260
19.15375,86152
19.16188,89312
19.17000,85872
19.17813,82501
19.18625,80111
19.19437,73361
19.20250,67454
19.21062,65988
19.21875,60206
19.22687,60028
19.23498,56450
19.24312,51863
19.25123,52254
19.25937,52948
19.26748,51061
19.27560,56070
19.28373,56190
19.29185,55656
19.29997,61482
19.30810,59188
19.31622,59767
19.32435,55794
19.33247,59060
19.34058,58057
19.34872,61818
19.35683,55363
19.36497,56998
19.37308,61569
19.38120,55291
19.38933,54654
19.39745,55688
19.40557,57272
19.41370,54671
19.42182,59009
19.42995,65715
19.43807,75100
19.44618,91644
19.45432,106285
19.46243,139777
19.47057,173204
19.47868,220462
19.48680,219687
19.49493,188240
19.50305,150733
19.51118,117847
19.51930,89903
19.52742,73421
19.53555,73099
19.54367,63033
19.55178,64744
19.55992,61957
19.56803,60669
19.57617,61663
19.58428,57405
19.59240,56050
19.60053,54570
19.60865,49653
19.61678,55561
19.62490,64783
19.63302,75944
19.64115,96110
19.64927,127201
19.65740,156092
19.66552,164631
19.67363,168986
19.68177,162532
19.68988,141063
19.69800,124245
19.70613,104688
19.71425,91991
19.72238,83843
19.73050,76675
19.73862,72905
19.74675,67559
19.75487,65714
19.76300,61093
19.77112,60551
19.77923,61491
19.78737,52884
19.79548,58083
19.80360,58137
19.81173,53454
19.81985,58147
19.82798,57420
19.83610,51139
19.84422,57236
19.85235,58743
19.86047,64076
19.86860,57814
19.87672,69713
19.88483,77109
19.89297,94829
19.90108,118244
19.90922,139962
19.91733,146669
19.92545,155115
19.93358,156987
19.94170,158726
19.94982,159524
19.95795,151383
19.96607,138320
19.97420,135910
19.98232,125095
19.99043,128583
19.99857,133986
20.00668,128249
20.01482,126319
20.02293,106116
20.03105,104307
20.03918,101499
20.04730,96038
20.05543,84684
20.06355,82255
20.07167,73036
20.07980,64552
20.08792,63283
20.09603,61246
20.10417,61035
20.11228,64909
20.12042,63210
20.12853,57913
20.13665,58384
20.14478,59166
20.15290,53787
20.16103,62358
20.16915,64241
20.17727,64776
20.18540,66684
20.19352,68863
20.20163,71297
20.20977,67872
20.21788,71289
20.22602,74550
20.23413,80239
20.24225,97844
20.25038,113344
20.25850,130226
20.26663,157637
20.27475,164628
20.28287,158644
20.29100,142088
20.29912,128137
20.30725,113732
20.31537,96380
20.32348,81563
20.33162,81462
20.33973,69700
20.34785,66946
20.35598,62361
20.36410,63026
20.37223,58762
20.38035,64386
20.38847,59328
20.39660,61692
20.40472,66456
20.41285,67300
20.42097,70175
20.42908,75613
20.43722,76277
20.44533,78716
20.45347,74682
20.46158,70237
20.46970,71670
20.47783,66435
20.48595,63202
20.49407,61534
20.50220,58138
20.51032,54860
20.51845,56125
20.52657,58890
20.53468,55242
20.54282,53969
20.55093,55402
20.55907,51954
20.56718,48908
20.57530,55865
20.58343,55639
20.59155,48960
20.59967,49651
20.60780,51642
20.61592,49849
20.62405,49561
20.63217,52617
20.64028,50403
20.64842,52363
20.65653,49599
20.66467,53558
20.67278,50245
20.68090,48412
20.68903,52532
20.69715,49481
20.70528,52815
20.71340,50246
20.72152,52228
20.72965,50060
20.73777,53656
20.74588,53697
20.75402,52112
20.76213,52377
20.77027,53441
20.77838,51343
20.78650,53648
20.79463,52288
20.80275,52060
20.81088,51176
20.81900,52199
20.82712,49387
20.83525,50869
20.84337,48461
20.85148,46826
20.85962,49978
20.86773,48437
20.87587,50465
20.88398,47915
20.89210,46443
20.90023,50620
20.90835,51954
20.91648,50832
20.92460,51036
20.93272,50189
20.94085,51163
20.94897,51558
20.95710,48530
20.96522,49727
20.97333,50666
20.98147,52735
20.98958,50595
20.99770,52442
21.00583,55128
21.01395,49613
21.02208,48898
21.03020,51143
21.03832,51786
21.04645,53266
21.05457,52301
21.06270,56892
21.07082,50890
21.07893,51800
21.08707,49606
21.09518,54785
21.10332,54839
21.11143,53077
21.11955,55584
21.12768,52636
21.13580,51105
21.14392,56623
21.15205,54779
21.16017,56819
21.16830,53211
21.17642,52036
21.18453,52115
21.19267,55097
21.20078,55890
21.20892,54958
21.21703,55054
21.22515,53863
21.23328,55882
21.24140,56034
21.24952,55428
21.25765,58177
21.26577,57377
21.27390,56914
21.28202,55802
21.29013,53043
21.29827,56351
21.30638,53376
21.31452,55300
21.32263,52525
21.33075,53833
21.33888,53217
21.34700,51321
21.35513,53832
21.36325,49334
21.37137,57655
21.37950,52163
21.38762,51089
21.39573,56561
21.40387,52601
21.41198,54026
21.42012,52523
21.42823,52113
21.43635,55372
21.44448,51629
21.45260,52284
21.46073,51320
21.46885,54353
21.47697,51245
21.48510,53963
21.49322,53413
21.50135,53087
21.50947,53365
21.51758,52913
21.52572,54232
21.53383,51378
21.54195,56615
21.55008,50242
21.55820,51969
21.56633,52869
21.57445,58796
21.58257,57472
21.59070,66099
21.59882,72160
21.60695,78705
21.61507,87665
21.62318,88274
21.63132,87470
21.63943,78623
21.64755,72147
21.65568,66797
21.66380,61764
21.67193,59025
21.68005,58354
21.68817,56997
21.69630,49838
21.70442,56366
21.71255,50976
21.72067,51636
21.72878,53556
21.73692,49224
21.74503,52071
21.75317,57703
21.76128,53388
21.76940,56730
21.77753,59543
21.78565,58807
21.79377,67732
21.80190,73996
21.81002,79339
21.81815,76671
21.82627,75377
21.83438,74731
21.84252,67809
21.85063,66700
21.85877,56402
21.86688,56025
21.87500,54110
21.88313,50659
21.89125,47978
21.89937,54570
21.90750,56158
21.91562,51230
21.92375,53117
21.93187,50696
21.93998,46221
21.94812,50720
21.95623,50396
21.96437,50701
21.97248,49825
21.98060,47344
21.98873,47061
21.99685,47491
22.00498,48373
22.01310,47594
22.02122,44779
22.02935,47222
22.03747,50135
22.04558,48712
22.05372,49391
22.06183,47490
22.06997,49174
22.07808,47088
22.08620,51295
22.09433,50792
22.10245,53700
22.11058,55463
22.11870,56771
22.12682,59352
22.13495,58263
22.14307,55082
22.15120,49393
22.15932,53297
22.16743,49220
22.17557,50885
22.18368,53647
22.19180,57717
22.19993,57207
22.20805,54095
22.21618,56134
22.22430,54518
22.23242,51561
22.24055,47964
22.24867,45627
22.25680,45523
22.26492,45569
22.27303,47545
22.28117,44957
22.28928,49060
22.29742,48811
22.30553,47962
22.31365,48285
22.32178,52884
22.32990,47778
22.33802,48986
22.34615,55359
22.35427,48967
22.36240,50560
22.37052,50854
22.37863,49268
22.38677,50311
22.39488,44537
22.40302,45297
22.41113,45491
22.41925,49645
22.42738,47496
22.43550,43911
22.44362,47816
22.45175,46361
22.45987,47677
22.46800,49954
22.47612,52532
22.48423,53820
22.49237,52486
22.50048,51359
22.50862,50431
22.51673,50014
22.52485,46827
22.53298,47198
22.54110,45922
22.54923,48465
22.55735,48421
22.56547,48871
22.57360,45829
22.58172,48052
22.58983,45580
22.59797,46135
22.60608,42250
22.61422,46064
22.62233,41319
22.63045,47478
22.63858,42717
22.64670,42426
22.65483,42871
22.66295,43505
22.67107,45873
22.67920,49726
22.68732,44689
22.69543,48251
22.70357,46367
22.71168,49288
22.71982,47854
22.72793,47592
22.73605,46725
22.74418,49110
22.75230,42602
22.76043,45369
22.76855,46784
22.77667,46814
22.78480,47081
22.79292,50126
22.80105,48730
22.80917,46981
22.81728,47683
22.82542,48130
22.83353,47128
22.84165,52711
22.84978,50467
22.85790,49399
22.86603,48424
22.87415,49209
22.88227,56969
22.89040,57831
22.89852,57667
22.90665,60837
22.91477,71426
22.92288,72398
22.93102,80589
22.93913,89764
22.94727,89297
22.95538,87362
22.96350,88998
22.97163,87327
22.97975,87111
22.98787,80886
22.99600,72722
23.00412,66973
23.01225,64351
23.02037,65026
23.02848,63559
23.03662,57596
23.04473,56194
23.05287,57975
23.06098,55447
23.06910,56474
23.07723,54665
23.08535,49488
23.09347,53169
23.10160,51517
23.10972,50352
23.11785,51574
23.12597,49799
23.13408,50390
23.14222,48339
23.15033,50525
23.15847,49685
23.16658,48747
23.17470,48744
23.18283,50398
23.19095,50041
23.19908,45182
23.20720,52545
23.21532,48555
23.22345,50803
23.23157,47835
23.23968,49790
23.24782,48987
23.25593,46416
23.26407,50656
23.27218,46724
23.28030,49883
23.28843,50620
23.29655,50050
23.30468,50418
23.31280,47669
23.32092,48874
23.32905,49458
23.33717,50553
23.34530,49131
23.35342,50463
23.36153,51448
23.36967,45764
23.37778,51049
23.38590,50792
23.39403,49523
23.40215,51353
23.41028,55914
23.41840,55052
23.42652,48285
23.43465,47679
23.44277,49736
23.45090,49818
23.45902,50528
23.46713,49918
23.47527,46257
23.48338,48074
23.49150,48321
23.49963,49035
23.50775,46957
23.51588,47767
23.52400,48691
23.53212,47230
23.54025,49903
23.54837,47481
23.55650,51991
23.56462,46577
23.57273,53583
23.58087,55991
23.58898,50291
23.59712,53447
23.60523,55785
23.61335,52275
23.62148,53143
23.62960,51362
23.63772,52776
23.64585,57559
23.65397,61088
23.66210,63181
23.67022,67788
23.67833,64336
23.68647,69826
23.69458,69775
23.70272,71825
23.71083,75642
23.71895,75878
23.72708,79828
23.73520,108925
23.74332,178645
23.75145,381731
23.75957,840327
23.76770,1669594
23.77582,2642679
23.78393,3441674
23.79207,3739648
23.80018,3362393
23.80832,2729049
23.81643,2021035
23.82455,1450587
23.83268,1061323
23.84080,817220
23.84893,645459
23.85705,529894
23.86517,438250
23.87330,368035
23.88142,331160
23.88953,289421
23.89767,265533
23.90578,246393
23.91392,217015
23.92203,210631
23.93015,194826
23.93828,186519
23.94640,183314
23.95453,166429
23.96265,161972
23.97077,158734
23.97890,154125
23.98702,147136
23.99515,141930
24.00327,129459
24.01138,130601
24.01952,122765
24.02763,118602
24.03575,125030
24.04388,120617
24.05200,109454
24.06013,112609
24.06825,111576
24.07637,105779
24.08450,110280
24.09262,108159
24.10075,108754
24.10887,109128
24.11698,107158
24.12512,100636
24.13323,102442
24.14135,99315
24.14948,98357
24.15760,98439
24.16573,96894
24.17385,105333
24.18197,116859
24.19010,119772
24.19822,129703
24.20635,128786
24.21447,134665
24.22258,125621
24.23072,113496
24.23883,111474
24.24697,101826
24.25508,98308
24.26320,89882
24.27133,89046
24.27945,86699
24.28757,81171
24.29570,81924
24.30382,76971
24.31195,82070
24.32007,80620
24.32818,79087
24.33632,93635
24.34443,114524
24.35257,151063
24.36068,175416
24.36880,188779
24.37693,174318
24.38505,143143
24.39318,115652
24.40130,90239
24.40942,78578
24.41755,75287
24.42567,72648
24.43378,69238
24.44192,73884
24.45003,74085
24.45817,81612
24.46628,87421
24.47440,87613
24.48253,88842
24.49065,84743
24.49878,84139
24.50690,79382
24.51502,69071
24.52315,70608
24.53127,71597
24.53938,71069
24.54752,67718
24.55563,62204
24.56377,62558
24.57188,65057
24.58000,67052
24.58813,61244
24.59625,60759
24.60438,64099
24.61250,66381
24.62062,65344
24.62875,60544
24.63687,60111
24.64500,62079
24.65312,62461
24.66123,61165
24.66937,67193
24.67748,66384
24.68560,61891
24.69373,58612
24.70185,57763
24.70998,61548
24.71810,61472
24.72622,58262
24.73435,58038
24.74247,56106
24.75060,56421
24.75872,56125
24.76683,58239
24.77497,52240
24.78308,54104
24.79122,58458
24.79933,59863
24.80745,54016
24.81558,55061
24.82370,57870
24.83182,52513
24.83995,54491
24.84807,56258
24.85620,53949
24.86432,53579
24.87243,50512
24.88057,60728
24.88868,55438
24.89682,56446
24.90493,56210
24.91305,55823
24.92118,53276
24.92930,53961
24.93742,55232
24.94555,55189
24.95367,60834
24.96180,51241
24.96992,53102
24.97803,55978
24.98617,50060
24.99428,53937
25.00242,49891
25.01053,51831
25.01865,49141
25.02678,50688
25.03490,53279
25.04303,49511
25.05115,53119
25.05927,53626
25.06740,52457
25.07552,51894
25.08363,49889
25.09177,54767
25.09988,51034
25.10802,49891
25.11613,57893
25.12425,53669
25.13238,58400
25.14050,59799
25.14863,57993
25.15675,56018
25.16487,58269
25.17300,60441
25.18112,57200
25.18923,55337
25.19737,54153
25.20548,54505
25.21362,52822
25.22173,50749
25.22985,52472
25.23798,51024
25.24610,49530
25.25423,56187
25.26235,47825
25.27047,51124
25.27860,54077
25.28672,53609
25.29485,59776
25.30297,61784
25.31108,68381
25.31922,63459
25.32733,69283
25.33545,62602
25.34358,63175
25.35170,61333
25.35983,57858
25.36795,52530
25.37607,58083
25.38420,49979
25.39232,49276
25.40045,52608
25.40857,48314
25.41668,53852
25.42482,50483
25.43293,48986
25.44107,55611
25.44918,55536
25.45730,57485
25.46543,53611
25.47355,54493
25.48167,57029
25.48980,51729
25.49792,55079
25.50605,54688
25.51417,53763
25.52228,53868
25.53042,52425
25.53853,51484
25.54667,52214
25.55478,47876
25.56290,48554
25.57103,47996
25.57915,46477
25.58727,47631
25.59540,47781
25.60352,46209
25.61165,48456
25.61977,49226
25.62788,46730
25.63602,49841
25.64413,47173
25.65227,45062
25.66038,40621
25.66850,46332
25.67663,45308
25.68475,43666
25.69288,45170
25.70100,46499
25.70912,45637
25.71725,44510
25.72537,43977
25.73348,48989
25.74162,43968
25.74973,45190
25.75787,46924
25.76598,47175
25.77410,48650
25.78223,49310
25.79035,48511
25.79848,45432
25.80660,48364
25.81472,46531
25.82285,51459
25.83097,45496
25.83910,45676
25.84722,50573
25.85533,48112
25.86347,48396
25.87158,45620
25.87970,46746
25.88783,46572
25.89595,46947
25.90408,49585
25.91220,44198
25.92032,48755
25.92845,52159
25.93657,47940
25.94470,50689
25.95282,47780
25.96093,48675
25.96907,50833
25.97718,48991
25.98530,50851
25.99343,48319
26.00155,46806
26.00968,44565
26.01780,42835
26.02592,42438
26.03405,42845
26.04217,41969
26.05030,42040
26.05842,44760
26.06653,45181
26.07467,41707
26.08278,43798
26.09092,45474
26.09903,48485
26.10715,44514
26.11528,46212
26.12340,51075
26.13152,59568
26.13965,58885
26.14777,62526
26.15590,65754
26.16402,63740
26.17213,66538
26.18027,63716
26.18838,57857
26.19652,57127
26.20463,53816
26.21275,54206
26.22088,53778
26.22900,56097
26.23712,47949
26.24525,46942
26.25337,50113
26.26150,43532
26.26962,44547
26.27773,44565
26.28587,49512
26.29398,42055
26.30212,42977
26.31023,42721
26.31835,40813
26.32648,44526
26.33460,45039
26.34273,43021
26.35085,41235
26.35897,44494
26.36710,45876
26.37522,40059
26.38333,44647
26.39147,46647
26.39958,45520
26.40772,47225
26.41583,46550
26.42395,45629
26.43208,47041
26.44020,42437
26.44833,47514
26.45645,43881
26.46457,44900
26.47270,41145
26.48082,45206
26.48895,47286
26.49707,46599
26.50518,46427
26.51332,43755
26.52143,41302
26.52955,41611
26.53768,43159
26.54580,43026
26.55393,43201
26.56205,44251
26.57017,45481
26.57830,45142
26.58642,42004
26.59455,48991
26.60267,45123
26.61078,47908
26.61892,42113
26.62703,43921
26.63515,43460
26.64328,44456
26.65140,44352
26.65953,45399
26.66765,46664
26.67577,47807
26.68390,48815
26.69202,43925
26.70015,46527
26.70827,48405
26.71638,48053
26.72452,45740
26.73263,48344
26.74077,49050
26.74888,46283
26.75700,47688
26.76513,46615
26.77325,46859
26.78137,49225
26.78950,45078
26.79762,47156
26.80575,49001
26.81387,51812
26.82198,55235
26.83012,52144
26.83823,51353
26.84637,51871
26.85448,50184
26.86260,49948
26.87073,46871
26.87885,45013
26.88698,49229
26.89510,50611
26.90322,49582
26.91135,51388
26.91947,51519
26.92758,56391
26.93572,62147
26.94383,68659
26.95197,85508
26.96008,126770
26.96820,206696
26.97633,360632
26.98445,573911
26.99258,846645
27.00070,1127524
27.00882,1320733
27.01695,1328207
27.02507,1182021
27.03318,982726
27.04132,745781
27.04943,576161
27.05757,426892
27.06568,332876
27.07380,277446
27.08193,232767
27.09005,193888
27.09818,169245
27.10630,158736
27.11442,142586
27.12255,135694
27.13067,128049
27.13880,121528
27.14692,119817
27.15503,113403
27.16317,108924
27.17128,105881
27.17940,104729
27.18753,102694
27.19565,98760
27.20378,101558
27.21190,95882
27.22002,83713
27.22815,85893
27.23627,78804
27.24440,75771
27.25252,77419
27.26063,76036
27.26877,73189
27.27688,70722
27.28500,73211
27.29313,70599
27.30125,68343
27.30938,66762
27.31750,67157
27.32562,66263
27.33375,61238
27.34187,61344
27.35000,65548
27.35812,60183
27.36623,60069
27.37437,58764
27.38248,57493
27.39062,62053
27.39873,60735
27.40685,63741
27.41498,62959
27.42310,57221
27.43122,58429
27.43935,57679
27.44747,58980
27.45560,55214
27.46372,55891
27.47183,59122
27.47997,60964
27.48808,58077
27.49622,61528
27.50433,58617
27.51245,55692
27.52058,58920
27.52870,59348
27.53683,54782
27.54495,54738
27.55307,59936
27.56120,56959
27.56932,54940
27.57743,57481
27.58557,55539
27.59368,52996
27.60182,56876
27.60993,57395
27.61805,54553
27.62618,54818
27.63430,48902
27.64243,51747
27.65055,52510
27.65867,52297
27.66680,53279
27.67492,52052
27.68305,51784
27.69117,48444
27.69928,50847
27.70742,52942
27.71553,52154
27.72365,52252
27.73178,56043
27.73990,53135
27.74803,55760
27.75615,60134
27.76427,56544
27.77240,54206
27.78052,52403
27.78865,46754
27.79677,51109
27.80488,49640
27.81302,51742
27.82113,48207
27.82925,54433
27.83738,54987
27.84550,52160
27.85363,55242
27.86175,54581
27.86987,52353
27.87800,49505
27.88612,48582
27.89425,49287
27.90237,47680
27.91048,47622
27.91862,46879
27.92673,51000
27.93487,49460
27.94298,53792
27.95110,48251
27.95923,51971
27.96735,55188
27.97547,52171
27.98360,54042
27.99172,58794
27.99985,53453
28.00797,52149
28.01608,52374
28.02422,47882
28.03233,48300
28.04047,50491
28.04858,51903
28.05670,50071
28.06483,52722
28.07295,55945
28.08107,58079
28.08920,66396
28.09732,76616
28.10545,86298
28.11357,93220
28.12168,92494
28.12982,88476
28.13793,80041
28.14607,71884
28.15418,70574
28.16230,64922
28.17043,63027
28.17855,59309
28.18668,58877
28.19480,53211
28.20292,54605
28.21105,51750
28.21917,48527
28.22728,55679
28.23542,53117
28.24353,55625
28.25167,56249
28.25978,68406
28.26790,88281
28.27603,109756
28.28415,159024
28.29228,213676
28.30040,258660
28.30852,323571
28.31665,353731
28.32477,392485
28.33290,408852
28.34102,404270
28.34913,386835
28.35727,353800
28.36538,316547
28.37350,284697
28.38163,257893
28.38975,229686
28.39788,195916
28.40600,175866
28.41412,162052
28.42225,137902
28.43037,131897
28.43850,120205
28.44662,111704
28.45473,105173
28.46287,96606
28.47098,96839
28.47910,94163
28.48723,90770
28.49535,91857
28.50348,88395
28.51160,81589
28.51972,85920
28.52785,79122
28.53597,79839
28.54410,78088
28.55222,78926
28.56033,80764
28.56847,75948
28.57658,71578
28.58472,72041
28.59283,68844
28.60095,66828
28.60908,71883
28.61720,70035
28.62532,71702
28.63345,72406
28.64157,73708
28.64970,76543
28.65782,77795
28.66593,87014
28.67407,81305
28.68218,82146
28.69032,74794
28.69843,72107
28.70655,79414
28.71468,89180
28.72280,100001
28.73093,110749
28.73905,111365
28.74717,109699
28.75530,92927
28.76342,83627
28.77153,72582
28.77967,65127
28.78778,60267
28.79592,62030
28.80403,61569
28.81215,62680
28.82028,60734
28.82840,57309
28.83653,54915
28.84465,58675
28.85277,59913
28.86090,61176
28.86902,61025
28.87713,60926
28.88527,56713
28.89338,57463
28.90152,60776
28.90963,57313
28.91775,55948
28.92588,58869
28.93400,56037
28.94213,54303
28.95025,57439
28.95837,61774
28.96650,60842
28.97462,57252
28.98275,56744
28.99087,58017
28.99898,54354
29.00712,58601
29.01523,57247
29.02335,52304
29.03148,51926
29.03960,58223
29.04773,60513
29.05585,58595
29.06397,56908
29.07210,55229
29.08022,50345
29.08835,52638
29.09647,54685
29.10458,55342
29.11272,54659
29.12083,54375
29.12895,51607
29.13708,54570
29.14520,52952
29.15333,53994
29.16145,57710
29.16957,54273
29.17770,59601
29.18582,55977
29.19395,54684
29.20207,54697
29.21018,54633
29.21832,56751
29.22643,59958
29.23457,56456
29.24268,57644
29.25080,54846
29.25893,52581
29.26705,53962
29.27517,54014
29.28330,52471
29.29142,53871
29.29955,53138
29.30767,56247
29.31578,56294
29.32392,58943
29.33203,50405
29.34017,52039
29.34828,49812
29.35640,51514
29.36453,52108
29.37265,51935
29.38078,51608
29.38890,52689
29.39702,50757
29.40515,53694
29.41327,57140
29.42138,53068
29.42952,51856
29.43763,57021
29.44577,54444
29.45388,57252
29.46200,56136
29.47013,54641
29.47825,54255
29.48638,56914
29.49450,60035
29.50262,60822
29.51075,60558
29.51887,59513
29.52698,58775
29.53512,59709
29.54323,54633
29.55137,52634
29.55948,54866
29.56760,57990
29.57573,65656
29.58385,63465
29.59198,70111
29.60010,72986
29.60822,70514
29.61635,69727
29.62447,65077
29.63260,60960
29.64072,58370
29.64883,53598
29.65697,58300
29.66508,49014
29.67320,51090
29.68133,48798
29.68945,52700
29.69758,52127
29.70570,56660
29.71382,53436
29.72195,60483
29.73007,52857
29.73820,55486
29.74632,54829
29.75443,57787
29.76257,55348
29.77068,54802
29.77882,54362
29.78693,54360
29.79505,56605
29.80318,52002
29.81130,54738
29.81942,59045
29.82755,55081
29.83567,51738
29.84380,53938
29.85192,52165
29.86003,56618
29.86817,57310
29.87628,64381
29.88442,72840
29.89253,73388
29.90065,87255
29.90878,100102
29.91690,114758
29.92502,138809
29.93315,143938
29.94127,168121
29.94940,183466
29.95752,198334
29.96563,198427
29.97377,210168
29.98188,207614
29.99002,199730
29.99813,191563
30.00625,175981
30.01438,160383
30.02250,155285
30.03063,146397
30.03875,137575
30.04687,135012
30.05500,119315
30.06312,108023
30.07123,105133
30.07937,102810
30.08748,100572
30.09562,98048
30.10373,92932
30.11185,90085
30.11998,88784
30.12810,80692
30.13623,82743
30.14435,81311
30.15247,76621
30.16060,79363
30.16872,77681
30.17685,72828
30.18497,72110
30.19308,64970
30.20122,64911
30.20933,68271
30.21745,66917
30.22558,65916
30.23370,61349
30.24183,63114
30.24995,69593
30.25807,63916
30.26620,63978
30.27432,69353
30.28245,69106
30.29057,62652
30.29868,63967
30.30682,65733
30.31493,63005
30.32305,63306
30.33118,64196
30.33930,61762
30.34743,66527
30.35555,57701
30.36367,57172
30.37180,62435
30.37992,60256
30.38805,59204
30.39617,60477
30.40428,58561
30.41242,62209
30.42053,60598
30.42867,58486
30.43678,59370
30.44490,60628
30.45303,57014
30.46115,56498
30.46927,58826
30.47740,57530
30.48552,58682
30.49365,64364
30.50177,58398
30.50988,60444
30.51802,57786
30.52613,54147
30.53427,61768
30.54238,60868
30.55050,62148
30.55863,58341
30.56675,61633
30.57487,55522
30.58300,55504
30.59112,57162
30.59925,59050
30.60737,61323
30.61548,58287
30.62362,60710
30.63173,57361
30.63987,51672
30.64798,53465
30.65610,55608
30.66423,55820
30.67235,57238
30.68048,58564
30.68860,53359
30.69672,54675
30.70485,53821
30.71297,57207
30.72108,54692
30.72922,55849
30.73733,56505
30.74547,55424
30.75358,53314
30.76170,59130
30.76983,55239
30.77795,59035
30.78608,59475
30.79420,61902
30.80232,65427
30.81045,68506
30.81857,65307
30.82670,65908
30.83482,61323
30.84293,61633
30.85107,62861
30.85918,56249
30.86730,55815
30.87543,52464
30.88355,55437
30.89168,55833
30.89980,54841
30.90792,51559
30.91605,55278
30.92417,56582
30.93230,60445
30.94042,58266
30.94853,52622
30.95667,55960
30.96478,56533
30.97290,55842
30.98103,56495
30.98915,58401
30.99728,55654
31.00540,55380
31.01352,55657
31.02165,55628
31.02977,59198
31.03790,59177
31.04602,61736
31.05413,63702
31.06227,64253
31.07038,59363
31.07852,62159
31.08663,67000
31.09475,69505
31.10288,73279
31.11100,71245
31.11912,70139
31.12725,66212
31.13537,67746
31.14350,68644
31.15162,62584
31.15973,63998
31.16787,74147
31.17598,79256
31.18412,96650
31.19223,119521
31.20035,145826
31.20848,166937
31.21660,171712
31.22473,165931
31.23285,140647
31.24097,117537
31.24910,96579
31.25722,76204
31.26533,70070
31.27347,66138
31.28158,60741
31.28972,61361
31.29783,57342
31.30595,59365
31.31408,59956
31.32220,60732
31.33033,60711
31.33845,60093
31.34657,59218
31.35470,57826
31.36282,61222
31.37093,61922
31.37907,58576
31.38718,63259
31.39532,55255
31.40343,58896
31.41155,58727
31.41968,55641
31.42780,59808
31.43593,57177
31.44405,62772
31.45217,56448
31.46030,51612
31.46842,59479
31.47655,58319
31.48467,56836
31.49278,53399
31.50092,57085
31.50903,56043
31.51715,53756
31.52528,58101
31.53340,57331
31.54153,56624
31.54965,54908
31.55777,54955
31.56590,54169
31.57402,53023
31.58215,52376
31.59027,53580
31.59838,56189
31.60652,54773
31.61463,58113
31.62275,53731
31.63088,55945
31.63900,57546
31.64713,61786
31.65525,54724
31.66337,59134
31.67150,63618
31.67962,68349
31.68775,68221
31.69587,72007
31.70398,72102
31.71212,73171
31.72023,65842
31.72837,65776
31.73648,59360
31.74460,58702
31.75273,61077
31.76085,58825
31.76897,55924
31.77710,57172
31.78522,60684
31.79335,59739
31.80147,60081
31.80958,70374
31.81772,65580
31.82583,63564
31.83397,63493
31.84208,72044
31.85020,79714
31.85833,94197
31.86645,107831
31.87458,118080
31.88270,124710
31.89082,133678
31.89895,144210
31.90707,135303
31.91518,138318
31.92332,136330
31.93143,135575
31.93957,124576
31.94768,123143
31.95580,118678
31.96393,115562
31.97205,109448
31.98018,97880
31.98830,98880
31.99642,95489
32.00455,97004
32.01267,94356
32.02080,97917
32.02892,88607
32.03703,88745
32.04517,86209
32.05328,82119
32.06140,80059
32.06953,80526
32.07765,75113
32.08578,72134
32.09390,71334
32.10202,69242
32.11015,69796
32.11827,70248
32.12640,68175
32.13452,64970
32.14263,66286
32.15077,68292
32.15888,69851
32.16700,63796
32.17513,67414
32.18325,66438
32.19138,66091
32.19950,62919
32.20762,64391
32.21575,65236
32.22387,63890
32.23200,63169
32.24012,62769
32.24823,61985
32.25637,63708
32.26448,65926
32.27262,61738
32.28073,63989
32.28885,63127
32.29698,59947
32.30510,59337
32.31322,61096
32.32135,63956
32.32947,61310
32.33760,63060
32.34572,67615
32.35383,71405
32.36197,69643
32.37008,66916
32.37822,62757
32.38633,67818
32.39445,60738
32.40258,63646
32.41070,62614
32.41882,59710
32.42695,63975
32.43507,60884
32.44320,66158
32.45132,63879
32.45943,63924
32.46757,60684
32.47568,57985
32.48382,61495
32.49193,64633
32.50005,59057
32.50818,59598
32.51630,60578
32.52443,59890
32.53255,65293
32.54067,58298
32.54880,65185
32.55692,66940
32.56503,64013
32.57317,65816
32.58128,63012
32.58942,64214
32.59753,67757
32.60565,77002
32.61378,92546
32.62190,99468
32.63003,96419
32.63815,91367
32.64627,81601
32.65440,73351
32.66252,67111
32.67065,65097
32.67877,69181
32.68688,74795
32.69502,67558
32.70313,69761
32.71125,70401
32.71938,65558
32.72750,68426
32.73563,64791
32.74375,70902
32.75187,59569
32.76000,64131
32.76812,61109
32.77625,60557
32.78437,61745
32.79248,62973
32.80062,59106
32.80873,57441
32.81685,57877
32.82498,58145
32.83310,60031
32.84123,62787
32.84935,61781
32.85747,57550
32.86560,55633
32.87372,61011
32.88185,56949
32.88997,61046
32.89808,61331
32.90622,59746
32.91433,63280
32.92247,66137
32.93058,62182
32.93870,62077
32.94683,63549
32.95495,64418
32.96307,63394
32.97120,59303
32.97932,61761
32.98745,63057
32.99557,55555
33.00368,59249
33.01182,58815
33.01993,60960
33.02807,55289
33.03618,61608
33.04430,62747
33.05243,63707
33.06055,60014
33.06868,66083
33.07680,65410
33.08492,66223
33.09305,73399
33.10117,78115
33.10928,87908
33.11742,96592
33.12553,98219
33.13367,90661
33.14178,83283
33.14990,79997
33.15803,71695
33.16615,69175
33.17428,64837
33.18240,65334
33.19052,68487
33.19865,66088
33.20677,63488
33.21488,60954
33.22302,62103
33.23113,62936
33.23927,60676
33.24738,61767
33.25550,62605
33.26363,62776
33.27175,69830
33.27988,62964
33.28800,61598
33.29612,63793
33.30425,66021
33.31237,65003
33.32050,59720
33.32862,65636
33.33673,68083
33.34487,58610
33.35298,68628
33.36110,63257
33.36923,65058
33.37735,67220
33.38548,61679
33.39360,58397
33.40172,65902
33.40985,60146
33.41797,61581
33.42610,65850
33.43422,63762
33.44233,57202
33.45047,63347
33.45858,57941
33.46670,58813
33.47483,64035
33.48295,61974
33.49108,61790
33.49920,61251
33.50732,59805
33.51545,64361
33.52357,66096
33.53170,66041
33.53982,69747
33.54793,66624
33.55607,66885
33.56418,63411
33.57232,61653
33.58043,64201
33.58855,63675
33.59668,58325
33.60480,59573
33.61292,63412
33.62105,64207
33.62917,63010
33.63730,61596
33.64542,62462
33.65353,61961
33.66167,66220
33.66978,62928
33.67792,62038
33.68603,61035
33.69415,63966
33.70228,66071
33.71040,65739
33.71853,64295
33.72665,60793
33.73477,63476
33.74290,65564
33.75102,63827
33.75913,63071
33.76727,66572
33.77538,68618
33.78352,67810
33.79163,70403
33.79975,75601
33.80788,68612
33.81600,67062
33.82413,67691
33.83225,66127
33.84037,69193
33.84850,70789
33.85662,73560
33.86473,71302
33.87287,70667
33.88098,74091
33.88912,79499
33.89723,76739
33.90535,80105
33.91348,78296
33.92160,75249
33.92973,76741
33.93785,73101
33.94597,77191
33.95410,80199
33.96222,78996
33.97035,79916
33.97847,81800
33.98658,81197
33.99472,78000
34.00283,79315
34.01095,78328
34.01908,76185
34.02720,78776
34.03533,76996
34.04345,78379
34.05157,72223
34.05970,73067
34.06782,73363
34.07595,81555
34.08407,72974
34.09218,70926
34.10032,68442
34.10843,75871
34.11657,74569
34.12468,74591
34.13280,73851
34.14093,77185
34.14905,66404
34.15717,71198
34.16530,69087
34.17342,75455
34.18155,72314
34.18967,69084
34.19778,70327
34.20592,69842
34.21403,71568
34.22217,69045
34.23028,69096
34.23840,71532
34.24653,67858
34.25465,70478
34.26277,75132
34.27090,68734
34.27902,73415
34.28715,73532
34.29527,71627
34.30338,72185
34.31152,72605
34.31963,71984
34.32777,72978
34.33588,68386
34.34400,66874
34.35213,69809
34.36025,72147
34.36838,72234
34.37650,71500
34.38462,73399
34.39275,74752
34.40087,74795
34.40898,70219
34.41712,71686
34.42523,72265
34.43337,70082
34.44148,71929
34.44960,73311
34.45773,79104
34.46585,92650
34.47398,97609
34.48210,115154
34.49022,129274
34.49835,141201
34.50647,140870
34.51460,144452
34.52272,136505
34.53083,137320
34.53897,127538
34.54708,118934
34.55520,113286
34.56333,106989
34.57145,99320
34.57958,96824
34.58770,96072
34.59582,93017
34.60395,91594
34.61207,87042
34.62020,88142
34.62832,86680
34.63643,87944
34.64457,91319
34.65268,84723
34.66080,86046
34.66893,87278
34.67705,87915
34.68518,84888
34.69330,85735
34.70142,89596
34.70955,90934
34.71767,86763
34.72580,84317
34.73392,87129
34.74203,86200
34.75017,85920
34.75828,83806
34.76642,88054
34.77453,82912
34.78265,83639
34.79078,89288
34.79890,86036
34.80702,82268
34.81515,83141
34.82327,85958
34.83140,81058
34.83952,82578
34.84763,81887
34.85577,85449
34.86388,84191
34.87202,75273
34.88013,82242
34.88825,81067
34.89638,78010
34.90450,76652
34.91262,75895
34.92075,78553
34.92887,78274
34.93700,80969
34.94512,83189
34.95323,80863
34.96137,83437
34.96948,79784
34.97762,76295
34.98573,75197
34.99385,84723
35.00198,76042
35.01010,75304
35.01823,80939
35.02635,82117
35.03447,83621
35.04260,78990
35.05072,79892
35.05883,76122
35.06697,83313
35.07508,79563
35.08322,82163
35.09133,81541
35.09945,75475
35.10758,79572
35.11570,89164
35.12383,79845
35.13195,86270
35.14007,89991
35.14820,87415
35.15632,82401
35.16445,88776
35.17257,81835
35.18068,78660
35.18882,78155
35.19693,78558
35.20505,82245
35.21318,86433
35.22130,80183
35.22943,81232
35.23755,82265
35.24567,90424
35.25380,88661
35.26192,92905
35.27005,92926
35.27817,92478
35.28628,89383
35.29442,87756
35.30253,87454
35.31065,83717
35.31878,77694
35.32690,75711
35.33503,77623
35.34315,84652
35.35127,80851
35.35940,75826
35.36752,77729
35.37565,77589
35.38377,76229
35.39188,79067
35.40002,78254
35.40813,84401
35.41627,78229
35.42438,87262
35.43250,88102
35.44063,91815
35.44875,95019
35.45687,96897
35.46500,98005
35.47312,95638
35.48125,90349
35.48937,91073
35.49748,86895
35.50562,88334
35.51373,77469
35.52187,85032
35.52998,88172
35.53810,87657
35.54623,87391
35.55435,88708
35.56248,88181
35.57060,92271
35.57872,92937
35.58685,92228
35.59497,87954
35.60308,90471
35.61122,92140
35.61933,90249
35.62747,92895
35.63558,95601
35.64370,91737
35.65183,89697
35.65995,98776
35.66808,90792
35.67620,86831
35.68432,84371
35.69245,87024
35.70057,84652
35.70868,87244
35.71682,83182
35.72493,84152
35.73307,84463
35.74118,85031
35.74930,83189
35.75743,86171
35.76555,89549
35.77368,83488
35.78180,83900
35.78992,88128
35.79805,86954
35.80617,93927
35.81430,87340
35.82242,85379
35.83053,89340
35.83867,84612
35.84678,85635
35.85490,92128
35.86303,87039
35.87115,88618
35.87928,81102
35.88740,85338
35.89552,79728
35.90365,85241
35.91177,84880
35.91990,87978
35.92802,86630
35.93613,89054
35.94427,90249
35.95238,85671
35.96050,89180
35.96863,88065
35.97675,89252
35.98488,93836
35.99300,93266
36.00112,96755
36.00925,96375
36.01737,94252
36.02550,96336
36.03362,102671
36.04173,94445
36.04987,95388
36.05798,94421
36.06612,94682
36.07423,97275
36.08235,93844
36.09048,84016
36.09860,88941
36.10672,91078
36.11485,94823
36.12297,90954
36.13110,97855
36.13922,101048
36.14733,97432
36.15547,94499
36.16358,95430
36.17172,92800
36.17983,91830
36.18795,92799
36.19608,90056
36.20420,89259
36.21233,90042
36.22045,97898
36.22857,88730
36.23670,93575
36.24482,103832
36.25293,117078
36.26107,131448
36.26918,134136
36.27732,139887
36.28543,129734
36.29355,118496
36.30168,112271
36.30980,108256
36.31793,100866
36.32605,96341
36.33417,100257
36.34230,94395
36.35042,98247
36.35855,98765
36.36667,99949
36.37478,102381
36.38292,96042
36.39103,102996
36.39915,104104
36.40728,102322
36.41540,102301
36.42353,100885
36.43165,94334
36.43977,97319
36.44790,99509
36.45602,101597
36.46415,94501
36.47227,98595
36.48038,94462
36.48852,91802
36.49663,95656
36.50475,95851
36.51288,92616
36.52100,96226
36.52913,95110
36.53725,92561
36.54537,90260
36.55350,96447
36.56162,95596
36.56975,91878
36.57787,93148
36.58598,92278
36.59412,96697
36.60223,99365
36.61037,102083
36.61848,99646
36.62660,100236
36.63473,96531
36.64285,93892
36.65097,95894
36.65910,94503
36.66722,91497
36.67535,93790
36.68347,94723
36.69158,94642
36.69972,98153
36.70783,101250
36.71597,105398
36.72408,102754
36.73220,94540
36.74033,90923
36.74845,96274
36.75657,94130
36.76470,96181
36.77282,99314
36.78095,100134
36.78907,95200
36.79718,94050
36.80532,99249
36.81343,102070
36.82157,107110
36.82968,100902
36.83780,98591
36.84593,97230
36.85405,101216
36.86218,106180
36.87030,99456
36.87842,101661
36.88655,102388
36.89467,102984
36.90278,104552
36.91092,103607
36.91903,99195
36.92717,100794
36.93528,99504
36.94340,99999
36.95153,103604
36.95965,102840
36.96778,98292
36.97590,104795
36.98402,108497
36.99215,110852
37.00027,119256
37.00840,132145
37.01652,146282
37.02463,156711
37.03277,157401
37.04088,148768
37.04900,139987
37.05713,129710
37.06525,122765
37.07338,113776
37.08150,103654
37.08962,109368
37.09775,106032
37.10587,104640
37.11400,105806
37.12212,108078
37.13023,109078
37.13837,112057
37.14648,110964
37.15460,112113
37.16273,112747
37.17085,106971
37.17898,115713
37.18710,109725
37.19522,110651
37.20335,115414
37.21147,107494
37.21960,107509
37.22772,109188
37.23583,112445
37.24397,108913
37.25208,113811
37.26022,116350
37.26833,117890
37.27645,133744
37.28458,145260
37.29270,151093
37.30082,161841
37.30895,162479
37.31707,165673
37.32520,156474
37.33332,157582
37.34143,148986
37.34957,141846
37.35768,137394
37.36582,135889
37.37393,126255
37.38205,130500
37.39018,127308
37.39830,127961
37.40643,128891
37.41455,130051
37.42267,120689
37.43080,118528
37.43892,129765
37.44703,128586
37.45517,122904
37.46328,123663
37.47142,122986
37.47953,114867
37.48765,124172
