Z:\data\JTB-E02\BACandBLUE\JTB-E02-199-16.D Wed Feb 27 17:03:05 2019
Start of data points
2.09542,70736
2.10353,69637
2.11167,73569
2.11978,70470
2.12792,75095
2.13603,76127
2.14415,68423
2.15228,71230
2.16040,69802
2.16853,72947
2.17665,69647
2.18477,65399
2.19290,62073
2.20102,62780
2.20913,62772
2.21727,60857
2.22538,54824
2.23352,60743
2.24163,57103
2.24975,78183
2.25788,462324
2.26600,1422181
2.27413,1986531
2.28225,1263585
2.29037,687466
2.29850,497667
2.30662,424599
2.31475,354490
2.32287,331717
2.33098,292587
2.33912,263919
2.34723,240393
2.35535,229309
2.36348,214180
2.37160,207363
2.37973,199668
2.38785,221905
2.39597,267721
2.40410,365200
2.41222,549701
2.42035,415726
2.42847,270980
2.43658,215114
2.44472,201956
2.45283,187901
2.46097,167867
2.46908,162866
2.47720,159163
2.48533,160336
2.49345,158964
2.50157,150183
2.50970,145159
2.51782,144056
2.52595,142458
2.53407,155551
2.54218,232810
2.55032,514789
2.55843,747146
2.56657,573572
2.57468,412207
2.58280,350231
2.59093,331237
2.59905,452411
2.60718,599284
2.61530,539020
2.62342,401377
2.63155,318308
2.63967,266199
2.64778,249849
2.65592,227610
2.66403,211955
2.67217,202119
2.68028,196582
2.68840,180830
2.69653,179033
2.70465,169802
2.71278,169990
2.72090,169321
2.72902,158631
2.73715,150248
2.74527,151545
2.75338,153040
2.76152,269482
2.76963,1108849
2.77777,2768893
2.78588,3347715
2.79400,2187297
2.80213,1400247
2.81025,1091879
2.81838,969695
2.82650,870896
2.83462,741880
2.84275,595085
2.85087,506175
2.85900,457468
2.86712,419183
2.87523,369845
2.88337,344968
2.89148,311028
2.89960,291848
2.90773,266771
2.91585,246529
2.92398,245081
2.93210,227570
2.94022,217007
2.94835,208131
2.95647,218245
2.96460,203283
2.97272,195195
2.98083,199050
2.98897,222936
2.99708,268870
3.00520,299150
3.01333,260371
3.02145,209653
3.02958,190241
3.03770,180148
3.04582,198822
3.05395,233666
3.06207,241961
3.07020,315429
3.07832,755883
3.08643,1690805
3.09457,3144322
3.10268,4757297
3.11082,4998957
3.11893,3586169
3.12705,2510543
3.13518,1921393
3.14330,1539485
3.15142,1261603
3.15955,1118941
3.16767,1040346
3.17580,1225798
3.18392,1845594
3.19203,2322998
3.20017,2025812
3.20828,1504833
3.21642,1199869
3.22453,1013709
3.23265,883080
3.24078,771080
3.24890,676806
3.25703,615904
3.26515,567223
3.27327,570227
3.28140,819119
3.28952,1994319
3.29763,4454488
3.30577,6647283
3.31388,6596898
3.32202,4985362
3.33013,3489852
3.33825,2576419
3.34638,2043458
3.35450,1698802
3.36263,1499627
3.37075,1310479
3.37887,1194217
3.38700,1112644
3.39512,1026861
3.40323,953125
3.41137,890929
3.41948,836775
3.42762,793785
3.43573,745626
3.44385,703043
3.45198,664489
3.46010,654211
3.46823,653998
3.47635,644988
3.48447,622922
3.49260,611908
3.50072,573193
3.50885,543917
3.51697,520475
3.52508,516647
3.53322,514834
3.54133,493155
3.54945,466196
3.55758,436520
3.56570,435667
3.57383,431898
3.58195,418873
3.59007,391458
3.59820,380644
3.60632,375683
3.61445,423296
3.62257,534585
3.63068,672605
3.63882,702097
3.64693,688923
3.65507,1780870
3.66318,7199476
3.67130,1.684003E+07
3.67943,2.147482E+07
3.68755,1.790242E+07
3.69567,1.167065E+07
3.70380,7833325
3.71192,6141242
3.72005,5169185
3.72817,4382654
3.73628,3857018
3.74442,3435204
3.75253,3099394
3.76067,2796946
3.76878,2554260
3.77690,2368830
3.78503,2281285
3.79315,2440572
3.80127,3228794
3.80940,4551694
3.81752,5131974
3.82565,4305571
3.83377,3265444
3.84188,2643797
3.85002,2332850
3.85813,2050200
3.86627,1918563
3.87438,1767130
3.88250,1633449
3.89063,1552870
3.89875,1469973
3.90688,1440317
3.91500,1504310
3.92312,1648172
3.93125,1663111
3.93937,1647258
3.94748,2016088
3.95562,2988515
3.96373,3799643
3.97187,3561122
3.97998,2630009
3.98810,2282751
3.99623,3368039
4.00435,5851296
4.01248,7766302
4.02060,7006062
4.02872,4765666
4.03685,3080110
4.04497,2233873
4.05308,1771272
4.06122,1536828
4.06933,1340289
4.07747,1206681
4.08558,1114602
4.09370,1040961
4.10183,1012194
4.10995,930658
4.11808,875116
4.12620,840925
4.13432,850273
4.14245,923457
4.15057,944656
4.15870,935251
4.16682,874199
4.17493,835331
4.18307,790706
4.19118,741342
4.19930,813578
4.20743,1712629
4.21555,4824291
4.22368,1.034001E+07
4.23180,1.52136E+07
4.23992,1.64939E+07
4.24805,1.355436E+07
4.25617,9187900
4.26430,6119072
4.27242,4450806
4.28053,3396879
4.28867,2704910
4.29678,2261972
4.30492,1862902
4.31303,1610146
4.32115,1404890
4.32928,1281195
4.33740,1149525
4.34552,1117056
4.35365,1177967
4.36177,1242491
4.36990,1215589
4.37802,1081017
4.38613,922133
4.39427,798236
4.40238,734478
4.41052,679911
4.41863,648176
4.42675,614699
4.43488,583294
4.44300,572816
4.45112,537832
4.45925,521650
4.46737,502891
4.47550,506882
4.48362,489710
4.49173,480042
4.49987,478778
4.50798,472387
4.51612,464748
4.52423,449944
4.53235,438712
4.54048,474347
4.54860,479973
4.55673,474434
4.56485,441404
4.57297,421796
4.58110,400711
4.58922,396583
4.59733,382564
4.60547,379332
4.61358,412611
4.62172,560036
4.62983,852583
4.63795,1151079
4.64608,1207230
4.65420,1021624
4.66233,776334
4.67045,669293
4.67857,609942
4.68670,564239
4.69482,512906
4.70295,443988
4.71107,404332
4.71918,375582
4.72732,362503
4.73543,362611
4.74355,345971
4.75168,318763
4.75980,331796
4.76793,317402
4.77605,324682
4.78417,344674
4.79230,431560
4.80042,552587
4.80855,617004
4.81667,567711
4.82478,503776
4.83292,480888
4.84103,508098
4.84915,510525
4.85728,480676
4.86540,426382
4.87353,382672
4.88165,357266
4.88977,343134
4.89790,338888
4.90602,321234
4.91415,308321
4.92227,300080
4.93038,320867
4.93852,382671
4.94663,604275
4.95477,1034094
4.96288,1496661
4.97100,1697654
4.97913,1585523
4.98725,1344140
4.99537,1096368
5.00350,932048
5.01162,828008
5.01975,789910
5.02787,797823
5.03598,901547
5.04412,942321
5.05223,884881
5.06037,766682
5.06848,694371
5.07660,640878
5.08473,589601
5.09285,547903
5.10098,532670
5.10910,527980
5.11722,498087
5.12535,492158
5.13347,468602
5.14158,472593
5.14972,525525
5.15783,635240
5.16597,731957
5.17408,755237
5.18220,667973
5.19033,655311
5.19845,674542
5.20658,740140
5.21470,740829
5.22282,682270
5.23095,600535
5.23907,531296
5.24718,478799
5.25532,440386
5.26343,404189
5.27157,368541
5.27968,348457
5.28780,331433
5.29593,327913
5.30405,310981
5.31218,318071
5.32030,322876
5.32842,362886
5.33655,404821
5.34467,432868
5.35280,414748
5.36092,357059
5.36903,344168
5.37717,344851
5.38528,400176
5.39340,468514
5.40153,492223
5.40965,463058
5.41778,409981
5.42590,342421
5.43402,319634
5.44215,339746
5.45027,384052
5.45840,429856
5.46652,420449
5.47463,378552
5.48277,325685
5.49088,277513
5.49900,271407
5.50713,272361
5.51525,278586
5.52338,282694
5.53150,284202
5.53962,281042
5.54775,331295
5.55587,487811
5.56400,814572
5.57212,1137904
5.58023,1219661
5.58837,1067128
5.59648,787740
5.60462,542853
5.61273,433799
5.62085,370105
5.62898,330908
5.63710,321130
5.64522,305357
5.65335,283217
5.66147,273137
5.66960,273262
5.67772,288232
5.68583,350117
5.69397,398129
5.70208,428780
5.71022,398139
5.71833,365990
5.72645,326840
5.73458,301441
5.74270,269274
5.75083,252179
5.75895,244411
5.76707,230964
5.77520,231703
5.78332,224443
5.79143,222552
5.79957,216731
5.80768,219177
5.81582,211303
5.82393,212305
5.83205,219187
5.84018,223448
5.84830,234402
5.85643,238119
5.86455,227873
5.87267,212881
5.88080,201614
5.88892,195527
5.89703,213413
5.90517,211080
5.91328,238576
5.92142,245937
5.92953,243894
5.93765,220367
5.94578,212180
5.95390,236517
5.96203,352092
5.97015,577216
5.97827,914780
5.98640,1122503
5.99452,1080632
6.00265,866613
6.01077,645344
6.01888,477365
6.02702,392141
6.03513,342701
6.04325,303657
6.05138,281969
6.05950,255545
6.06763,246866
6.07575,239629
6.08387,226324
6.09200,219229
6.10012,209307
6.10825,213546
6.11637,214871
6.12448,274335
6.13262,410333
6.14073,620412
6.14887,746935
6.15698,709586
6.16510,576421
6.17323,458902
6.18135,363012
6.18947,313429
6.19760,295575
6.20572,276571
6.21385,260255
6.22197,256901
6.23008,240692
6.23822,252585
6.24633,282162
6.25447,332385
6.26258,369869
6.27070,360696
6.27883,331433
6.28695,284864
6.29507,262738
6.30320,260306
6.31132,246808
6.31945,254686
6.32757,267815
6.33568,279663
6.34382,287794
6.35193,280349
6.36007,274964
6.36818,241186
6.37630,241405
6.38443,233687
6.39255,246482
6.40068,226658
6.40880,227526
6.41692,220959
6.42505,230730
6.43317,233187
6.44128,228007
6.44942,234221
6.45753,237458
6.46567,248425
6.47378,238941
6.48190,232927
6.49003,237958
6.49815,240359
6.50628,233942
6.51440,241305
6.52252,240708
6.53065,244932
6.53877,239338
6.54688,253846
6.55502,288813
6.56313,405259
6.57127,663523
6.57938,992224
6.58750,1191614
6.59563,1062976
6.60375,756789
6.61188,514655
6.62000,389250
6.62812,333271
6.63625,350017
6.64437,575859
6.65250,1423363
6.66062,3466830
6.66873,5876849
6.67687,6915721
6.68498,5588764
6.69310,3536346
6.70123,2026780
6.70935,1305743
6.71748,1094335
6.72560,887088
6.73372,757574
6.74185,674271
6.74997,619260
6.75810,532042
6.76622,491860
6.77433,455546
6.78247,395222
6.79058,379481
6.79872,364803
6.80683,339627
6.81495,314340
6.82308,302882
6.83120,293098
6.83932,286032
6.84745,283957
6.85557,287795
6.86370,283984
6.87182,273616
6.87993,243043
6.88807,225305
6.89618,207788
6.90432,198824
6.91243,186407
6.92055,186910
6.92868,182258
6.93680,167671
6.94492,166674
6.95305,168395
6.96117,177912
6.96930,206682
6.97742,250392
6.98553,277446
6.99367,276654
7.00178,261552
7.00992,246654
7.01803,231198
7.02615,207575
7.03428,210202
7.04240,229001
7.05053,274461
7.05865,339101
7.06677,398772
7.07490,443912
7.08302,411963
7.09113,346065
7.09927,290285
7.10738,246221
7.11552,224641
7.12363,210117
7.13175,206871
7.13988,203930
7.14800,236069
7.15613,284466
7.16425,339145
7.17237,351295
7.18050,319335
7.18862,265640
7.19675,248794
7.20487,357851
7.21298,734415
7.22112,1509078
7.22923,2350774
7.23735,2808477
7.24548,2378001
7.25360,1586614
7.26173,1021067
7.26985,606513
7.27797,383461
7.28610,263265
7.29422,185466
7.30235,176627
7.31047,176109
7.31858,175390
7.32672,198802
7.33483,206255
7.34295,209717
7.35108,202694
7.35920,192094
7.36733,179930
7.37545,161021
7.38357,161876
7.39170,156603
7.39982,154456
7.40795,152143
7.41607,146694
7.42418,138872
7.43232,140354
7.44043,143205
7.44857,142245
7.45668,144332
7.46480,149563
7.47293,153341
7.48105,136424
7.48917,135321
7.49730,129007
7.50542,137610
7.51355,180309
7.52167,335907
7.52978,742467
7.53792,1575077
7.54603,2916266
7.55417,4450833
7.56228,5773865
7.57040,6166181
7.57853,5470024
7.58665,4236586
7.59478,2930540
7.60290,1833702
7.61102,1150715
7.61915,789204
7.62727,574953
7.63538,443043
7.64352,370106
7.65163,308696
7.65977,260395
7.66788,227669
7.67600,207293
7.68413,180967
7.69225,160970
7.70038,152135
7.70850,159799
7.71662,164205
7.72475,160722
7.73287,152079
7.74098,165025
7.74912,183370
7.75723,209319
7.76537,227579
7.77348,248459
7.78160,250694
7.78973,250809
7.79785,252936
7.80598,267753
7.81410,272112
7.82222,278621
7.83035,245476
7.83847,219744
7.84660,205948
7.85472,201952
7.86283,209926
7.87097,246042
7.87908,282142
7.88720,334112
7.89533,347113
7.90345,326568
7.91158,290864
7.91970,253135
7.92782,265707
7.93595,351740
7.94407,468122
7.95220,557859
7.96032,537678
7.96843,426137
7.97657,308534
7.98468,230999
7.99282,185984
8.00093,155046
8.00905,142240
8.01718,132270
8.02530,125914
8.03342,126238
8.04155,121995
8.04967,123011
8.05780,115455
8.06592,117327
8.07403,119653
8.08217,111899
8.09028,110243
8.09842,107029
8.10653,100432
8.11465,99813
8.12278,105906
8.13090,114613
8.13902,143391
8.14715,168098
8.15527,189203
8.16340,196952
8.17152,181178
8.17963,150204
8.18777,124890
8.19588,113159
8.20402,113872
8.21213,108057
8.22025,107134
8.22838,100885
8.23650,104300
8.24463,105390
8.25275,96908
8.26087,91995
8.26900,92404
8.27712,89147
8.28523,86402
8.29337,84260
8.30148,96488
8.30962,110031
8.31773,133287
8.32585,142345
8.33398,148783
8.34210,138461
8.35023,122211
8.35835,116918
8.36647,102384
8.37460,98374
8.38272,98691
8.39083,103266
8.39897,100125
8.40708,89352
8.41522,89047
8.42333,83665
8.43145,77802
8.43958,79634
8.44770,78880
8.45583,86938
8.46395,90923
8.47207,95269
8.48020,91341
8.48832,91704
8.49645,81551
8.50457,81765
8.51268,84764
8.52082,103719
8.52893,180971
8.53705,318749
8.54518,511219
8.55330,639221
8.56143,629128
8.56955,498133
8.57767,319052
8.58580,207437
8.59392,151705
8.60205,136416
8.61017,139450
8.61828,148486
8.62642,125668
8.63453,123383
8.64267,111993
8.65078,108941
8.65890,101485
8.66703,96935
8.67515,96921
8.68327,97023
8.69140,95224
8.69952,91881
8.70765,94192
8.71577,100591
8.72388,99158
8.73202,87739
8.74013,90139
8.74827,85197
8.75638,85596
8.76450,98792
8.77263,130979
8.78075,210090
8.78887,328034
8.79700,433504
8.80512,474759
8.81325,413898
8.82137,349744
8.82948,261762
8.83762,214486
8.84573,195644
8.85387,205955
8.86198,191813
8.87010,191724
8.87823,176236
8.88635,177884
8.89448,163137
8.90260,157172
8.91072,156560
8.91885,144024
8.92697,143633
8.93508,163450
8.94322,184633
8.95133,204105
8.95947,197366
8.96758,198363
8.97570,189385
8.98383,200529
8.99195,212998
9.00008,216741
9.00820,193352
9.01632,169803
9.02445,153619
9.03257,126982
9.04070,131192
9.04882,117466
9.05693,117073
9.06507,107501
9.07318,114906
9.08130,112911
9.08943,127167
9.09755,149093
9.10568,202044
9.11380,263345
9.12192,294441
9.13005,307017
9.13817,268293
9.14630,220939
9.15442,176067
9.16253,147187
9.17067,135577
9.17878,129132
9.18690,123872
9.19503,112360
9.20315,111009
9.21128,113122
9.21940,110547
9.22752,115011
9.23565,124066
9.24377,127102
9.25190,129650
9.26002,132399
9.26813,123607
9.27627,118158
9.28438,116741
9.29252,111936
9.30063,108977
9.30875,105335
9.31688,105929
9.32500,94045
9.33312,104073
9.34125,99118
9.34937,102350
9.35750,99850
9.36562,103265
9.37373,110293
9.38187,129207
9.38998,150111
9.39812,190605
9.40623,230865
9.41435,259168
9.42248,311045
9.43060,337745
9.43872,395929
9.44685,421196
9.45497,385452
9.46310,327233
9.47122,263056
9.47933,192818
9.48747,150962
9.49558,127130
9.50372,123166
9.51183,144322
9.51995,175795
9.52808,214163
9.53620,233332
9.54433,233440
9.55245,209093
9.56057,173474
9.56870,149128
9.57682,125055
9.58493,109311
9.59307,104442
9.60118,96218
9.60932,88589
9.61743,85083
9.62555,83049
9.63368,79978
9.64180,86608
9.64993,83607
9.65805,80036
9.66617,80804
9.67430,85850
9.68242,84955
9.69055,84968
9.69867,70847
9.70678,75478
9.71492,74430
9.72303,68038
9.73115,71521
9.73928,69664
9.74740,67359
9.75553,69461
9.76365,65500
9.77177,67214
9.77990,59295
9.78802,65899
9.79615,66308
9.80427,68542
9.81238,66432
9.82052,66320
9.82863,62215
9.83675,65972
9.84488,64191
9.85300,65857
9.86113,63550
9.86925,70769
9.87737,71358
9.88550,66970
9.89362,70059
9.90175,65249
9.90987,66993
9.91798,77526
9.92612,97674
9.93423,143316
9.94237,226959
9.95048,336317
9.95860,444657
9.96673,497931
9.97485,472193
9.98297,365704
9.99110,253318
9.99922,182062
10.00735,128524
10.01547,116562
10.02358,99958
10.03172,97611
10.03983,97520
10.04797,97585
10.05608,91515
10.06420,99994
10.07233,102592
10.08045,106125
10.08858,111780
10.09670,108837
10.10482,114420
10.11295,112380
10.12107,100871
10.12918,92829
10.13732,91063
10.14543,87569
10.15357,80934
10.16168,80146
10.16980,80816
10.17793,80137
10.18605,77430
10.19418,71885
10.20230,76305
10.21042,75101
10.21855,71598
10.22667,80211
10.23478,82046
10.24292,93570
10.25103,105667
10.25917,126642
10.26728,204743
10.27540,445692
10.28353,1002423
10.29165,2009336
10.29978,3369343
10.30790,4767899
10.31602,6794102
10.32415,1.002528E+07
10.33227,1.407603E+07
10.34040,1.784968E+07
10.34852,1.957755E+07
10.35663,1.744766E+07
10.36477,1.314547E+07
10.37288,9515812
10.38100,7294962
10.38913,5564356
10.39725,3983728
10.40538,2657254
10.41350,1684903
10.42162,1091468
10.42975,820078
10.43787,760884
10.44600,757978
10.45412,785647
10.46223,762103
10.47037,726946
10.47848,676097
10.48662,583089
10.49473,514451
10.50285,464836
10.51098,415286
10.51910,394282
10.52722,370916
10.53535,343171
10.54347,333854
10.55160,315963
10.55972,296672
10.56783,287010
10.57597,272747
10.58408,263659
10.59222,259306
10.60033,245146
10.60845,246421
10.61658,218263
10.62470,224603
10.63282,210262
10.64095,202885
10.64907,191932
10.65720,182144
10.66532,182891
10.67343,180261
10.68157,177281
10.68968,179531
10.69782,189146
10.70593,203465
10.71405,197559
10.72218,198780
10.73030,188960
10.73843,180846
10.74655,168130
10.75467,158221
10.76280,154341
10.77092,153366
10.77903,145896
10.78717,149491
10.79528,145356
10.80342,150646
10.81153,173044
10.81965,181286
10.82778,180308
10.83590,175889
10.84403,148905
10.85215,140970
10.86027,131585
10.86840,116857
10.87652,111949
10.88463,118986
10.89277,109652
10.90088,105957
10.90902,105377
10.91713,106396
10.92525,103312
10.93338,101519
10.94150,102624
10.94963,95013
10.95775,99687
10.96587,99368
10.97400,100918
10.98212,108516
10.99025,113580
10.99837,123461
11.00648,138735
11.01462,147632
11.02273,149019
11.03085,138468
11.03898,125787
11.04710,110557
11.05523,109052
11.06335,106516
11.07147,118093
11.07960,142917
11.08772,154653
11.09585,163712
11.10397,165120
11.11208,151298
11.12022,145624
11.12833,140097
11.13647,110673
11.14458,102960
11.15270,102762
11.16083,95466
11.16895,94839
11.17707,93966
11.18520,96354
11.19332,96264
11.20145,92126
11.20957,94897
11.21768,88019
11.22582,87234
11.23393,83203
11.24207,76154
11.25018,78765
11.25830,72137
11.26643,66767
11.27455,68965
11.28267,70735
11.29080,76209
11.29892,105078
11.30705,210135
11.31517,463490
11.32328,1014404
11.33142,2020113
11.33953,3170622
11.34767,4124234
11.35578,4511560
11.36390,3952678
11.37203,2946251
11.38015,2028399
11.38828,1345101
11.39640,928834
11.40452,787764
11.41265,681226
11.42077,625843
11.42888,560652
11.43702,481022
11.44513,434059
11.45327,386263
11.46138,338589
11.46950,310576
11.47763,291287
11.48575,296653
11.49388,325039
11.50200,373327
11.51012,389228
11.51825,378534
11.52637,355947
11.53450,307356
11.54262,264354
11.55073,233196
11.55887,237064
11.56698,233693
11.57510,227269
11.58323,219174
11.59135,206742
11.59948,215686
11.60760,213270
11.61572,242154
11.62385,276617
11.63197,273894
11.64010,260310
11.64822,230563
11.65633,193355
11.66447,154620
11.67258,151901
11.68070,148075
11.68883,143521
11.69695,156321
11.70508,156937
11.71320,150881
11.72132,152662
11.72945,134793
11.73757,124920
11.74570,121083
11.75382,109975
11.76193,110070
11.77007,106151
11.77818,101371
11.78632,94597
11.79443,94469
11.80255,95382
11.81068,87650
11.81880,85906
11.82692,92435
11.83505,87064
11.84317,94706
11.85130,91402
11.85942,83241
11.86753,83884
11.87567,79681
11.88378,77156
11.89192,77608
11.90003,78282
11.90815,81883
11.91628,76750
11.92440,82733
11.93252,85229
11.94065,88655
11.94877,83909
11.95690,73160
11.96502,83361
11.97313,73329
11.98127,72986
11.98938,75269
11.99752,81549
12.00563,94849
12.01375,108469
12.02188,119325
12.03000,113304
12.03813,102985
12.04625,95241
12.05437,83726
12.06250,83944
12.07062,85209
12.07873,88039
12.08687,104535
12.09498,138994
12.10312,235635
12.11123,435525
12.11935,834062
12.12748,1406932
12.13560,2002104
12.14373,2305269
12.15185,2251348
12.15997,1805656
12.16810,1265270
12.17622,781211
12.18435,494007
12.19247,385827
12.20058,364972
12.20872,361362
12.21683,340363
12.22495,323925
12.23308,284349
12.24120,253969
12.24933,231627
12.25745,222173
12.26557,212845
12.27370,212405
12.28182,201629
12.28995,184594
12.29807,171391
12.30618,165343
12.31432,152182
12.32243,146922
12.33055,134076
12.33868,138494
12.34680,131111
12.35493,132516
12.36305,124341
12.37117,127742
12.37930,134145
12.38742,125917
12.39555,121249
12.40367,128663
12.41178,132640
12.41992,162839
12.42803,182510
12.43617,210883
12.44428,215887
12.45240,202336
12.46053,181975
12.46865,164472
12.47677,154528
12.48490,140593
12.49302,132635
12.50115,126963
12.50927,123070
12.51738,121448
12.52552,124234
12.53363,127488
12.54177,144425
12.54988,151999
12.55800,168375
12.56613,172782
12.57425,168223
12.58238,159074
12.59050,156680
12.59862,131149
12.60675,128171
12.61487,117944
12.62298,119941
12.63112,108825
12.63923,112296
12.64737,100701
12.65548,102253
12.66360,89900
12.67173,91051
12.67985,90383
12.68798,89033
12.69610,85321
12.70422,88086
12.71235,88676
12.72047,85000
12.72858,92024
12.73672,97189
12.74483,90493
12.75297,91337
12.76108,87430
12.76920,86145
12.77733,80876
12.78545,77188
12.79358,80235
12.80170,73728
12.80982,75607
12.81795,68350
12.82607,68602
12.83420,61891
12.84232,56381
12.85043,54140
12.85857,54705
12.86668,55197
12.87480,52242
12.88293,55615
12.89105,53746
12.89918,55156
12.90730,63647
12.91542,55717
12.92355,54980
12.93167,53976
12.93980,54611
12.94792,51726
12.95603,56502
12.96417,56620
12.97228,59854
12.98042,62784
12.98853,61684
12.99665,68689
13.00478,65355
13.01290,63189
13.02102,58412
13.02915,56682
13.03727,58543
13.04540,60110
13.05352,57576
13.06163,64053
13.06977,61904
13.07788,60345
13.08602,57579
13.09413,57159
13.10225,57841
13.11038,53879
13.11850,56428
13.12662,58822
13.13475,52155
13.14287,56136
13.15100,54438
13.15912,52417
13.16723,56816
13.17537,55682
13.18348,57812
13.19162,55166
13.19973,59424
13.20785,61849
13.21598,65677
13.22410,66932
13.23223,70821
13.24035,65609
13.24847,67869
13.25660,64609
13.26472,59882
13.27283,63996
13.28097,61222
13.28908,57702
13.29722,53561
13.30533,52124
13.31345,49607
13.32158,49913
13.32970,51047
13.33783,53528
13.34595,51790
13.35407,50055
13.36220,50292
13.37032,49379
13.37845,47952
13.38657,44881
13.39468,49092
13.40282,53134
13.41093,49810
13.41905,49424
13.42718,42329
13.43530,49809
13.44343,49524
13.45155,50167
13.45967,57534
13.46780,59057
13.47592,55336
13.48405,63510
13.49217,63110
13.50028,60494
13.50842,51199
13.51653,53433
13.52465,52954
13.53278,57112
13.54090,51064
13.54903,57728
13.55715,54691
13.56527,58134
13.57340,66775
13.58152,68160
13.58965,75093
13.59777,80218
13.60588,82327
13.61402,84605
13.62213,83537
13.63027,82386
13.63838,79524
13.64650,73597
13.65463,69464
13.66275,65827
13.67087,60901
13.67900,54683
13.68712,56615
13.69525,47219
13.70337,48170
13.71148,47871
13.71962,56458
13.72773,53134
13.73587,52995
13.74398,55063
13.75210,66150
13.76023,80878
13.76835,106822
13.77647,153431
13.78460,218920
13.79272,278646
13.80085,311796
13.80897,360503
13.81708,406097
13.82522,481551
13.83333,572481
13.84147,634595
13.84958,654286
13.85770,625229
13.86583,536524
13.87395,424018
13.88208,320819
13.89020,251368
13.89832,197158
13.90645,165338
13.91457,145473
13.92268,126300
13.93082,105832
13.93893,97802
13.94707,94985
13.95518,92936
13.96330,105235
13.97143,116301
13.97955,147747
13.98768,181328
13.99580,194485
14.00392,188693
14.01205,167839
14.02017,132084
14.02830,117878
14.03642,99167
14.04453,90508
14.05267,90128
14.06078,85166
14.06890,90744
14.07703,80178
14.08515,79326
14.09328,74029
14.10140,70729
14.10952,71096
14.11765,69731
14.12577,62015
14.13390,67005
14.14202,71697
14.15013,84725
14.15827,100127
14.16638,104423
14.17450,116482
14.18263,117929
14.19075,109820
14.19888,120494
14.20700,127671
14.21512,151822
14.22325,177046
14.23137,191425
14.23950,192758
14.24762,182425
14.25573,174187
14.26387,172256
14.27198,162187
14.28012,143308
14.28823,134391
14.29635,115725
14.30448,106365
14.31260,101659
14.32072,87753
14.32885,91958
14.33697,90503
14.34510,80825
14.35322,82043
14.36133,81086
14.36947,81247
14.37758,78407
14.38572,80009
14.39383,68323
14.40195,73041
14.41008,81550
14.41820,87489
14.42633,91350
14.43445,91299
14.44257,92982
14.45070,86817
14.45882,76944
14.46693,72487
14.47507,69663
14.48318,65815
14.49132,63607
14.49943,65864
14.50755,63247
14.51568,66620
14.52380,65125
14.53193,64741
14.54005,72129
14.54817,66441
14.55630,61439
14.56442,65525
14.57253,59829
14.58067,55456
14.58878,58867
14.59692,56819
14.60503,52551
14.61315,46769
14.62128,51270
14.62940,46493
14.63753,54492
14.64565,46568
14.65377,47655
14.66190,48202
14.67002,46077
14.67815,49223
14.68627,45073
14.69438,45098
14.70252,47434
14.71063,50673
14.71875,51458
14.72688,53868
14.73500,53435
14.74313,55611
14.75125,55455
14.75937,56993
14.76750,60941
14.77562,62147
14.78375,70203
14.79187,82925
14.79998,155303
14.80812,350594
14.81623,934205
14.82435,2169804
14.83248,3922459
14.84060,5455352
14.84873,6414080
14.85685,5842974
14.86497,4401065
14.87310,2794847
14.88122,1675390
14.88935,1010913
14.89747,681064
14.90558,552384
14.91372,440451
14.92183,401113
14.92997,348479
14.93808,328197
14.94620,311688
14.95433,297062
14.96245,276757
14.97057,261770
14.97870,246651
14.98682,223770
14.99495,208274
15.00307,192587
15.01118,191633
15.01932,176847
15.02743,184795
15.03557,177579
15.04368,163913
15.05180,167411
15.05993,161501
15.06805,149172
15.07618,146489
15.08430,143907
15.09242,136068
15.10055,127660
15.10867,119828
15.11678,118102
15.12492,118831
15.13303,122809
15.14117,128010
15.14928,142207
15.15740,135758
15.16553,142590
15.17365,129316
15.18178,114747
15.18990,94195
15.19802,82953
15.20615,87207
15.21427,76067
15.22238,74462
15.23052,69501
15.23863,64517
15.24677,63980
15.25488,66062
15.26300,62986
15.27113,64891
15.27925,61094
15.28738,62302
15.29550,58494
15.30362,59745
15.31175,55954
15.31987,58431
15.32800,57484
15.33612,62490
15.34423,56535
15.35237,57824
15.36048,53933
15.36860,51903
15.37673,59337
15.38485,59943
15.39298,55971
15.40110,53817
15.40922,58821
15.41735,58409
15.42547,57879
15.43360,55825
15.44172,56072
15.44983,59011
15.45797,61211
15.46608,72903
15.47422,105689
15.48233,169993
15.49045,269604
15.49858,418084
15.50670,543737
15.51482,629328
15.52295,628135
15.53107,582016
15.53920,501091
15.54732,441475
15.55543,398367
15.56357,341711
15.57168,280488
15.57982,220858
15.58793,177524
15.59605,136610
15.60418,113455
15.61230,107942
15.62042,101942
15.62855,92014
15.63667,93302
15.64480,88832
15.65292,89780
15.66103,83341
15.66917,81296
15.67728,76839
15.68542,74518
15.69353,74715
15.70165,71363
15.70978,71795
15.71790,64226
15.72603,67759
15.73415,66823
15.74227,64101
15.75040,67962
15.75852,79802
15.76663,96316
15.77477,157861
15.78288,243024
15.79102,356288
15.79913,446196
15.80725,475567
15.81538,413658
15.82350,326645
15.83163,227405
15.83975,166466
15.84787,128718
15.85600,113598
15.86412,102356
15.87225,95175
15.88037,96605
15.88848,96206
15.89662,97753
15.90473,97898
15.91285,97701
15.92098,94647
15.92910,89464
15.93723,86947
15.94535,78346
15.95347,79198
15.96160,81999
15.96972,85292
15.97785,87465
15.98597,99058
15.99408,101634
16.00222,100637
16.01033,102570
16.01845,112365
16.02658,103314
16.03470,101473
16.04283,100199
16.05095,99778
16.05907,86497
16.06720,82188
16.07532,76088
16.08345,72402
16.09157,66008
16.09968,65452
16.10782,64418
16.11593,66506
16.12407,69835
16.13218,73351
16.14030,78862
16.14843,86016
16.15655,87746
16.16467,93186
16.17280,84286
16.18092,86157
16.18905,77970
16.19717,68974
16.20528,67983
16.21342,68517
16.22153,68803
16.22967,72336
16.23778,68986
16.24590,64757
16.25403,66836
16.26215,58318
16.27027,65156
16.27840,67253
16.28652,68976
16.29465,73222
16.30277,75604
16.31088,85801
16.31902,93321
16.32713,92091
16.33527,87548
16.34338,82198
16.35150,84231
16.35963,76670
16.36775,90523
16.37588,100660
16.38400,122642
16.39212,123080
16.40025,123339
16.40837,99702
16.41648,89965
16.42462,78643
16.43273,73718
16.44087,72893
16.44898,80557
16.45710,115163
16.46523,209276
16.47335,415893
16.48148,745350
16.48960,1099648
16.49772,1257127
16.50585,1190491
16.51397,908990
16.52210,627714
16.53022,391367
16.53833,252498
16.54647,189130
16.55458,149449
16.56270,131667
16.57083,120288
16.57895,117297
16.58708,119769
16.59520,115479
16.60332,112719
16.61145,112155
16.61957,119815
16.62770,117032
16.63582,119580
16.64393,109725
16.65207,98513
16.66018,90232
16.66830,90691
16.67643,82831
16.68455,76662
16.69268,73513
16.70080,77895
16.70892,72252
16.71705,65109
16.72517,69334
16.73330,63409
16.74142,61265
16.74953,62513
16.75767,64861
16.76578,70281
16.77392,72206
16.78203,80464
16.79015,72862
16.79828,71394
16.80640,62423
16.81452,58004
16.82265,58384
16.83077,60271
16.83890,59157
16.84702,53801
16.85513,54267
16.86327,51121
16.87138,53669
16.87952,49383
16.88763,57044
16.89575,51317
16.90388,48542
16.91200,47788
16.92013,50482
16.92825,49936
16.93637,51730
16.94450,52162
16.95262,53858
16.96073,51473
16.96887,49993
16.97698,46540
16.98512,50931
16.99323,55524
17.00135,51837
17.00948,53217
17.01760,56068
17.02573,53684
17.03385,52688
17.04197,56893
17.05010,65307
17.05822,58710
17.06633,66517
17.07447,73502
17.08258,81757
17.09072,96333
17.09883,123296
17.10695,162399
17.11508,196485
17.12320,232039
17.13133,250274
17.13945,252230
17.14757,227803
17.15570,209597
17.16382,185849
17.17195,151477
17.18007,132272
17.18818,114181
17.19632,99909
17.20443,82862
17.21255,82893
17.22068,74562
17.22880,69522
17.23693,65131
17.24505,67377
17.25317,66394
17.26130,70226
17.26942,66561
17.27755,61638
17.28567,62922
17.29378,56497
17.30192,58754
17.31003,57875
17.31815,61271
17.32628,64776
17.33440,70121
17.34253,77899
17.35065,83409
17.35877,87699
17.36690,89631
17.37502,92255
17.38315,94843
17.39127,85639
17.39938,85392
17.40752,90897
17.41563,87328
17.42377,89580
17.43188,90337
17.44000,89796
17.44813,86968
17.45625,84856
17.46437,78774
17.47250,67663
17.48062,67497
17.48875,65718
17.49687,59312
17.50498,62384
17.51312,56005
17.52123,54843
17.52937,56691
17.53748,58031
17.54560,59370
17.55373,60901
17.56185,63543
17.56998,71569
17.57810,108362
17.58622,174166
17.59435,305869
17.60247,462348
17.61058,638914
17.61872,807091
17.62683,807799
17.63497,716870
17.64308,548144
17.65120,433929
17.65933,366875
17.66745,354450
17.67558,370471
17.68370,382154
17.69182,338711
17.69995,290009
17.70807,241083
17.71618,202983
17.72432,167525
17.73243,153658
17.74057,136531
17.74868,137097
17.75680,127882
17.76493,117728
17.77305,108762
17.78118,114910
17.78930,92620
17.79742,95893
17.80555,89618
17.81367,91844
17.82180,84222
17.82992,89010
17.83803,96347
17.84617,99856
17.85428,114178
17.86240,124688
17.87053,134716
17.87865,146370
17.88678,146473
17.89490,123586
17.90302,112698
17.91115,95506
17.91927,84020
17.92740,71368
17.93552,67654
17.94363,70919
17.95177,64526
17.95988,68073
17.96802,64757
17.97613,60973
17.98425,59725
17.99238,63072
18.00050,59183
18.00862,57708
18.01675,64569
18.02487,75057
18.03300,94254
18.04112,117832
18.04923,145490
18.05737,170521
18.06548,192437
18.07362,305524
18.08173,502967
18.08985,866822
18.09798,1291166
18.10610,1617558
18.11422,1669019
18.12235,1465030
18.13047,1143381
18.13860,830339
18.14672,626376
18.15483,485635
18.16297,410410
18.17108,369175
18.17922,315592
18.18733,277555
18.19545,259046
18.20358,241193
18.21170,224918
18.21983,203334
18.22795,191894
18.23607,169937
18.24420,157909
18.25232,153734
18.26043,146359
18.26857,144077
18.27668,142230
18.28482,128917
18.29293,114992
18.30105,111707
18.30918,89729
18.31730,79228
18.32543,67640
18.33355,67142
18.34167,63521
18.34980,64288
18.35792,61251
18.36603,59358
18.37417,62759
18.38228,59481
18.39042,64382
18.39853,58902
18.40665,68058
18.41478,71951
18.42290,79791
18.43103,96433
18.43915,124704
18.44727,148090
18.45540,179427
18.46352,211171
18.47165,233989
18.47977,272826
18.48788,307569
18.49602,344548
18.50413,307763
18.51225,289952
18.52038,222718
18.52850,177611
18.53663,135953
18.54475,112682
18.55287,98733
18.56100,91081
18.56912,86490
18.57725,79622
18.58537,74312
18.59348,84010
18.60162,85062
18.60973,82962
18.61787,93373
18.62598,107498
18.63410,113332
18.64223,110427
18.65035,106101
18.65847,99018
18.66660,96528
18.67472,84142
18.68285,79411
18.69097,66981
18.69908,69223
18.70722,69070
18.71533,72401
18.72347,68424
18.73158,62382
18.73970,67483
18.74783,65960
18.75595,60527
18.76408,59805
18.77220,59531
18.78032,59268
18.78845,57923
18.79657,56353
18.80468,58488
18.81282,58795
18.82093,59123
18.82907,61436
18.83718,55260
18.84530,55700
18.85343,60883
18.86155,64576
18.86968,69642
18.87780,80859
18.88592,93004
18.89405,100712
18.90217,96996
18.91028,89087
18.91842,82327
18.92653,81182
18.93467,70787
18.94278,72828
18.95090,72127
18.95903,77934
18.96715,74201
18.97528,73074
18.98340,74348
18.99152,66378
18.99965,66755
19.00777,67627
19.01590,65744
19.02402,63233
19.03213,55671
19.04027,61598
19.04838,63192
19.05650,54138
19.06463,57579
19.07275,53712
19.08088,62177
19.08900,77938
19.09712,95571
19.10525,111014
19.11337,141377
19.12150,165686
19.12962,164113
19.13773,136008
19.14587,121041
19.15398,109566
19.16210,99417
19.17023,87790
19.17835,95580
19.18648,96909
19.19460,99135
19.20272,102121
19.21085,103034
19.21897,92808
19.22710,84317
19.23522,80927
19.24333,78422
19.25147,64886
19.25958,68347
19.26772,65103
19.27583,85155
19.28395,105889
19.29208,129333
19.30020,142191
19.30832,155806
19.31645,172088
19.32457,164734
19.33270,168416
19.34082,162385
19.34893,170554
19.35707,171119
19.36518,179862
19.37332,198845
19.38143,226410
19.38955,230363
19.39768,232339
19.40580,222073
19.41393,205688
19.42205,195060
19.43017,169740
19.43830,166712
19.44642,161087
19.45453,163295
19.46267,155929
19.47078,146851
19.47892,158885
19.48703,151289
19.49515,159349
19.50328,168473
19.51140,195628
19.51953,207581
19.52765,230139
19.53577,245103
19.54390,246142
19.55202,237310
19.56013,214065
19.56827,205553
19.57638,186202
19.58452,173396
19.59263,164289
19.60075,155066
19.60888,154666
19.61700,154744
19.62513,141989
19.63325,147832
19.64137,162886
19.64950,205739
19.65762,297847
19.66575,436189
19.67387,608623
19.68198,770633
19.69012,853473
19.69823,849332
19.70635,759945
19.71448,625522
19.72260,508710
19.73073,389121
19.73885,337366
19.74697,290657
19.75510,259748
19.76322,238747
19.77135,215605
19.77947,217404
19.78758,228424
19.79572,257266
19.80383,288985
19.81197,305196
19.82008,307424
19.82820,296014
19.83633,264452
19.84445,248333
19.85257,275551
19.86070,476725
19.86882,1206343
19.87695,3149650
19.88507,7224028
19.89318,1.391505E+07
19.90132,2.2013E+07
19.90943,2.842757E+07
19.91757,3.078749E+07
19.92568,2.992204E+07
19.93380,2.536014E+07
19.94193,1.917843E+07
19.95005,1.356226E+07
19.95817,9346771
19.96630,6839443
19.97442,5493694
19.98255,4763667
19.99067,4146407
19.99878,3763572
20.00692,3510006
20.01503,3215138
20.02317,3025793
20.03128,2799234
20.03940,2607131
20.04753,2351022
20.05565,2060833
20.06378,1691676
20.07190,1393389
20.08002,1150595
20.08815,982903
20.09627,878108
20.10438,798754
20.11252,747598
20.12063,673079
20.12877,608531
20.13688,548263
20.14500,513379
20.15313,587924
20.16125,692422
20.16938,948789
20.17750,1392035
20.18562,1908020
20.19375,2430530
20.20187,2904898
20.20998,3065940
20.21812,2944824
20.22623,2544331
20.23437,2105074
20.24248,1772049
20.25060,1556972
20.25873,1548601
20.26685,1733910
20.27498,2024721
20.28310,2248544
20.29122,2290252
20.29935,2266273
20.30747,2029952
20.31560,1655275
20.32372,1296403
20.33183,991057
20.33997,763056
20.34808,608644
20.35620,474545
20.36433,387324
20.37245,328109
20.38058,283702
20.38870,247268
20.39682,216503
20.40495,192698
20.41307,193773
20.42120,182613
20.42932,181177
20.43743,178274
20.44557,194032
20.45368,208195
20.46182,215156
20.46993,227653
20.47805,212300
20.48618,198193
20.49430,185519
20.50242,166740
20.51055,158937
20.51867,148563
20.52680,129812
20.53492,119259
20.54303,129909
20.55117,124275
20.55928,127476
20.56742,120804
20.57553,120037
20.58365,114403
20.59178,115464
20.59990,115642
20.60802,116371
20.61615,109984
20.62427,107879
20.63240,114956
20.64052,112958
20.64863,110731
20.65677,119828
20.66488,124075
20.67302,122527
20.68113,115104
20.68925,114355
20.69738,113658
20.70550,103085
20.71363,99773
20.72175,102864
20.72987,100092
20.73800,93651
20.74612,98190
20.75423,98983
20.76237,103023
20.77048,103056
20.77862,112242
20.78673,130223
20.79485,155752
20.80298,222331
20.81110,331835
20.81923,490467
20.82735,632180
20.83547,694458
20.84360,671100
20.85172,537661
20.85985,387413
20.86797,259887
20.87608,193628
20.88422,159618
20.89233,134388
20.90045,134630
20.90858,135952
20.91670,142576
20.92483,157854
20.93295,180336
20.94107,185251
20.94920,192300
20.95732,193235
20.96545,179343
20.97357,159128
20.98168,146078
20.98982,139048
20.99793,124566
21.00605,112108
21.01418,106620
21.02230,104954
21.03043,107991
21.03855,104653
21.04667,102504
21.05480,113778
21.06292,96709
21.07105,97267
21.07917,98587
21.08728,90379
21.09542,83913
21.10353,88660
21.11167,83897
21.11978,86747
21.12790,92570
21.13603,102595
21.14415,123444
21.15227,166429
21.16040,230327
21.16852,290929
21.17665,347755
21.18477,349021
21.19288,303896
21.20102,238756
21.20913,187962
21.21727,159450
21.22538,131492
21.23350,118105
21.24163,109875
21.24975,101936
21.25788,102202
21.26600,95770
21.27412,94819
21.28225,94143
21.29037,92335
21.29848,87499
21.30662,86329
21.31473,83494
21.32287,87174
21.33098,90061
21.33910,85234
21.34723,82290
21.35535,90372
21.36348,85176
21.37160,83400
21.37972,86856
21.38785,97598
21.39597,96882
21.40408,109247
21.41222,126898
21.42033,151191
21.42847,176977
21.43658,197934
21.44470,200028
21.45283,193224
21.46095,174412
21.46908,146629
21.47720,125918
21.48532,111480
21.49345,105954
21.50157,102137
21.50970,101934
21.51782,93750
21.52593,89981
21.53407,93284
21.54218,85723
21.55030,88940
21.55843,85123
21.56655,86857
21.57468,86374
21.58280,92187
21.59092,96486
21.59905,95897
21.60717,103209
21.61530,108027
21.62342,101354
21.63153,107064
21.63967,106609
21.64778,121485
21.65590,134428
21.66403,147510
21.67215,146545
21.68028,153473
21.68840,152099
21.69652,135627
21.70465,134532
21.71277,115582
21.72090,109328
21.72902,97455
21.73713,89221
21.74527,84258
21.75338,82756
21.76152,88998
21.76963,82395
21.77775,81325
21.78588,82076
21.79400,81481
21.80212,82827
21.81025,96078
21.81837,90542
21.82650,87224
21.83462,94912
21.84273,108396
21.85087,122409
21.85898,138095
21.86712,131716
21.87523,136567
21.88335,130118
21.89148,117340
21.89960,106817
21.90773,98673
21.91585,96337
21.92397,90698
21.93210,84598
21.94022,79157
21.94833,77027
21.95647,72847
21.96458,72811
21.97272,69477
21.98083,66600
21.98895,66768
21.99708,66804
22.00520,63955
22.01333,64068
22.02145,60869
22.02957,68902
22.03770,68123
22.04582,73011
22.05393,67626
22.06207,71775
22.07018,66752
22.07832,71722
22.08643,73762
22.09455,72319
22.10268,69303
22.11080,69978
22.11893,67926
22.12705,65379
22.13517,66561
22.14330,63551
22.15142,60215
22.15955,61604
22.16767,57274
22.17578,63192
22.18392,61368
22.19203,64596
22.20015,59137
22.20828,57062
22.21640,59057
22.22453,67560
22.23265,68538
22.24077,68109
22.24890,67244
22.25702,69804
22.26515,72863
22.27327,72688
22.28138,75224
22.28952,75995
22.29763,88236
22.30577,90978
22.31388,103056
22.32200,120452
22.33013,154686
22.33825,181449
22.34637,208360
22.35450,210400
22.36262,195754
22.37075,169564
22.37887,140024
22.38698,118662
22.39512,114447
22.40323,123836
22.41137,148747
22.41948,175459
22.42760,196119
22.43573,211833
22.44385,202124
22.45197,187479
22.46010,146107
22.46822,121700
22.47635,106474
22.48447,93376
22.49258,98904
22.50072,102983
22.50883,118136
22.51697,143652
22.52508,137729
22.53320,142036
22.54133,132215
22.54945,127837
22.55758,113792
22.56570,104650
22.57382,91688
22.58195,88683
22.59007,81783
22.59818,77042
22.60632,69079
22.61443,66935
22.62257,60724
22.63068,67344
22.63880,61790
22.64693,62873
22.65505,68629
22.66318,70252
22.67130,78528
22.67942,85507
22.68755,103113
22.69567,126300
22.70378,158891
22.71192,193022
22.72003,230413
22.72817,252317
22.73628,269623
22.74440,238075
22.75253,218056
22.76065,181066
22.76878,160823
22.77690,145220
22.78502,136351
22.79315,151040
22.80127,163764
22.80940,194599
22.81752,212882
22.82563,236186
22.83377,227977
22.84188,208343
22.85000,176178
22.85813,165720
22.86625,155731
22.87438,162093
22.88250,177970
22.89062,202523
22.89875,225519
22.90687,256107
22.91500,251415
22.92312,250957
22.93123,246553
22.93937,248928
22.94748,228896
22.95562,214337
22.96373,200424
22.97185,179724
22.97998,159743
22.98810,144512
22.99622,134020
23.00435,122844
23.01247,120782
23.02060,113459
23.02872,108557
23.03683,104813
23.04497,100729
23.05308,96501
23.06122,100443
23.06933,103473
23.07745,108412
23.08558,103311
23.09370,104241
23.10182,100085
23.10995,102259
23.11807,96777
23.12620,92614
23.13432,88070
23.14243,83670
23.15057,80664
23.15868,74704
23.16682,71526
23.17493,67717
23.18305,73243
23.19118,67639
23.19930,68381
23.20743,64958
23.21555,61270
23.22367,67365
23.23180,67860
23.23992,74551
23.24803,76742
23.25617,84642
23.26428,103883
23.27242,116899
23.28053,117874
23.28865,111838
23.29678,102884
23.30490,96650
23.31303,86337
23.32115,73885
23.32927,77841
23.33740,79730
23.34552,92246
23.35365,111589
23.36177,141417
23.36988,158990
23.37802,176207
23.38613,186359
23.39425,180094
23.40238,157454
23.41050,137871
23.41863,122162
23.42675,128966
23.43487,116040
23.44300,121410
23.45112,118827
23.45925,118953
23.46737,119142
23.47548,118070
23.48362,116566
23.49173,109389
23.49985,119306
23.50798,123230
23.51610,123598
23.52423,126344
23.53235,120111
23.54047,127334
23.54860,130355
23.55672,138415
23.56485,142124
23.57297,148503
23.58108,179762
23.58922,226600
23.59733,274762
23.60547,339119
23.61358,387009
23.62170,385856
23.62983,369360
23.63795,356172
23.64607,358286
23.65420,428946
23.66232,570716
23.67045,737934
23.67857,860359
23.68668,863012
23.69482,763620
23.70293,624147
23.71107,482880
23.71918,329770
23.72730,263934
23.73543,216637
23.74355,184997
23.75168,170082
23.75980,199284
23.76792,313938
23.77605,616943
23.78417,1247990
23.79228,2150691
23.80042,3127268
23.80853,3686024
23.81667,3634330
23.82478,3158149
23.83290,2473799
23.84103,1796711
23.84915,1324135
23.85728,973275
23.86540,777775
23.87352,659466
23.88165,546676
23.88977,462544
23.89788,436655
23.90602,394816
23.91413,387272
23.92227,361058
23.93038,348919
23.93850,330931
23.94663,319481
23.95475,296100
23.96288,273223
23.97100,260045
23.97912,246561
23.98725,243432
23.99537,227244
24.00350,222484
24.01162,209106
24.01973,216049
24.02787,227209
24.03598,248705
24.04410,277817
24.05223,288276
24.06035,277790
24.06848,274245
24.07660,256318
24.08472,227225
24.09285,216702
24.10097,188867
24.10910,175393
24.11722,167216
24.12533,167696
24.13347,169971
24.14158,190649
24.14972,213593
24.15783,240802
24.16595,272481
24.17408,265896
24.18220,260489
24.19032,239416
24.19845,238272
24.20657,220711
24.21470,215269
24.22282,203169
24.23093,197664
24.23907,184380
24.24718,161438
24.25532,158333
24.26343,148656
24.27155,130829
24.27968,130615
24.28780,123759
24.29592,130339
24.30405,125467
24.31217,131270
24.32030,131300
24.32842,131135
24.33653,129370
24.34467,127495
24.35278,126999
24.36092,117903
24.36903,114723
24.37715,113344
24.38528,116305
24.39340,117404
24.40153,116758
24.40965,136867
24.41777,141008
24.42590,145231
24.43402,140439
24.44213,131031
24.45027,124810
24.45838,112208
24.46652,112688
24.47463,112074
24.48275,116993
24.49088,122002
24.49900,129450
24.50713,136737
24.51525,137693
24.52337,149782
24.53150,175197
24.53962,206508
24.54773,248596
24.55587,295001
24.56398,342964
24.57212,347673
24.58023,328757
24.58835,308521
24.59648,257585
24.60460,220517
24.61273,200327
24.62085,172294
24.62897,152824
24.63710,147578
24.64522,135785
24.65335,125642
24.66147,129360
24.66958,117415
24.67772,118088
24.68583,119819
24.69395,110137
24.70208,107654
24.71020,104191
24.71833,101787
24.72645,94992
24.73457,92393
24.74270,93782
24.75082,82899
24.75895,78736
24.76707,90543
24.77518,91431
24.78332,92362
24.79143,100614
24.79957,95332
24.80768,104622
24.81580,100346
24.82393,100262
24.83205,111421
24.84017,110667
24.84830,122327
24.85642,145829
24.86455,188771
24.87267,248131
24.88078,314105
24.88892,423403
24.89703,541441
24.90517,610546
24.91328,623902
24.92140,536800
24.92953,426683
24.93765,315929
24.94577,224970
24.95390,165005
24.96202,124132
24.97015,104332
24.97827,89569
24.98638,90214
24.99452,87581
25.00263,82723
25.01077,83611
25.01888,76392
25.02700,79826
25.03513,75913
25.04325,77280
25.05138,79379
25.05950,71681
25.06762,73323
25.07575,73218
25.08387,81910
25.09198,79367
25.10012,84621
25.10823,123123
25.11637,207411
25.12448,438672
25.13260,917531
25.14073,1700669
25.14885,2692821
25.15698,3596721
25.16510,3822611
25.17322,3526085
25.18135,2714748
25.18947,1938133
25.19760,1285677
25.20572,827339
25.21383,546547
25.22197,411729
25.23008,328128
25.23820,300014
25.24633,315324
25.25445,345854
25.26258,427258
25.27070,564929
25.27882,701170
25.28695,768605
25.29507,782157
25.30320,696003
25.31132,579254
25.31943,458775
25.32757,345977
25.33568,285108
25.34380,249369
25.35193,227701
25.36005,220893
25.36818,206400
25.37630,198796
25.38442,188538
25.39255,193352
25.40067,186522
25.40880,184206
25.41692,186546
25.42503,176017
25.43317,182186
25.44128,180839
25.44942,170028
25.45753,167180
25.46565,169688
25.47378,173958
25.48190,169043
25.49002,171069
25.49815,174095
25.50627,174048
25.51440,171642
25.52252,164010
25.53063,159743
25.53877,161292
25.54688,156239
25.55502,153798
25.56313,145634
25.57125,148075
25.57938,143868
25.58750,149463
25.59562,146310
25.60375,145968
25.61187,139621
25.62000,147483
25.62812,149435
25.63623,142410
25.64437,146532
25.65248,144716
25.66062,154989
25.66873,165952
25.67685,162919
25.68498,164593
25.69310,157886
25.70123,155853
25.70935,152388
25.71747,146037
25.72560,136700
25.73372,128028
25.74183,116447
25.74997,110333
25.75808,106136
25.76622,104384
25.77433,101467
25.78245,94657
25.79058,85855
25.79870,85074
25.80683,82294
25.81495,82832
25.82307,84913
25.83120,89879
25.83932,92278
25.84745,111976
25.85557,103158
25.86368,101167
25.87182,97803
25.87993,91232
25.88805,85146
25.89618,84605
25.90430,82726
25.91243,79438
25.92055,77689
25.92867,77761
25.93680,72753
25.94492,74844
25.95305,72228
25.96117,73605
25.96928,73291
25.97742,74095
25.98553,72021
25.99365,70038
26.00178,71422
26.00990,63318
26.01803,66368
26.02615,66880
26.03427,68049
26.04240,64391
26.05052,63686
26.05865,66098
26.06677,65937
26.07488,68126
26.08302,64059
26.09113,72932
26.09927,80464
26.10738,84642
26.11550,111482
26.12363,142732
26.13175,164570
26.13987,178824
26.14800,194987
26.15612,207361
26.16425,226510
26.17237,228217
26.18048,221560
26.18862,225732
26.19673,227769
26.20487,232408
26.21298,220528
26.22110,212637
26.22923,218743
26.23735,210042
26.24548,210350
26.25360,208644
26.26172,207049
26.26985,203942
26.27797,212776
26.28608,210106
26.29422,206195
26.30233,200112
26.31047,208605
26.31858,197529
26.32670,208909
26.33483,199650
26.34295,199044
26.35108,220653
26.35920,252215
26.36732,294885
26.37545,412843
26.38357,593935
26.39168,833136
26.39982,1073854
26.40793,1276126
26.41607,1304706
26.42418,1215649
26.43230,1005961
26.44043,782928
26.44855,574182
26.45668,428028
26.46480,328423
26.47292,269831
26.48105,245621
26.48917,230245
26.49730,225878
26.50542,216541
26.51353,213508
26.52167,197468
26.52978,198849
26.53790,185851
26.54603,184742
26.55415,177700
26.56228,177781
26.57040,175093
26.57852,168821
26.58665,176927
26.59477,174421
26.60290,176683
26.61102,170586
26.61913,168525
26.62727,164063
26.63538,167118
26.64352,167436
26.65163,163579
26.65975,174818
26.66788,169088
26.67600,169691
26.68412,165517
26.69225,163928
26.70037,163465
26.70850,165320
26.71662,158001
26.72473,159262
26.73287,150249
26.74098,141760
26.74912,145737
26.75723,141522
26.76535,147858
26.77348,143969
26.78160,139591
26.78972,141465
26.79785,141531
26.80597,140553
26.81410,147619
26.82222,150664
26.83033,146599
26.83847,145346
26.84658,142458
26.85472,134812
26.86283,136151
26.87095,128597
26.87908,129998
26.88720,129656
26.89533,123770
26.90345,121836
26.91157,119021
26.91970,122481
26.92782,106632
26.93593,112793
26.94407,107932
26.95218,108666
26.96032,110522
26.96843,122078
26.97655,127968
26.98468,163978
26.99280,227621
27.00093,350161
27.00905,584893
27.01717,868360
27.02530,1201535
27.03342,1497768
27.04153,1611647
27.04967,1477732
27.05778,1264242
27.06592,980385
27.07403,768586
27.08215,604983
27.09028,485604
27.09840,403535
27.10653,344325
27.11465,292776
27.12277,270615
27.13090,268362
27.13902,242334
27.14715,233217
27.15527,223067
27.16338,209396
27.17152,227564
27.17963,238595
27.18775,266479
27.19588,284686
27.20400,278158
27.21213,271611
27.22025,252758
27.22837,225945
27.23650,202914
27.24462,181881
27.25275,157956
27.26087,155393
27.26898,147719
27.27712,144840
27.28523,136065
27.29337,129133
27.30148,126664
27.30960,127120
27.31773,123864
27.32585,132836
27.33397,126547
27.34210,132055
27.35022,124248
27.35835,126948
27.36647,123075
27.37458,124520
27.38272,125950
27.39083,117050
27.39897,118769
27.40708,113603
27.41520,108297
27.42333,112949
27.43145,112693
27.43957,110468
27.44770,106878
27.45582,105990
27.46395,101373
27.47207,97435
27.48018,101989
27.48832,94223
27.49643,91318
27.50457,93561
27.51268,93750
27.52080,93573
27.52893,95755
27.53705,95484
27.54518,94200
27.55330,93365
27.56142,90982
27.56955,89227
27.57767,93961
27.58578,97119
27.59392,104526
27.60203,113463
27.61017,132870
27.61828,127569
27.62640,131299
27.63453,125308
27.64265,127185
27.65078,106013
27.65890,102814
27.66702,96267
27.67515,100725
27.68327,91420
27.69140,98951
27.69952,97855
27.70763,105034
27.71577,101083
27.72388,92542
27.73200,90050
27.74013,86912
27.74825,91401
27.75638,83750
27.76450,87000
27.77262,89330
27.78075,95533
27.78887,107701
27.79700,117636
27.80512,117981
27.81323,118632
27.82137,110612
27.82948,112807
27.83760,100075
27.84573,86845
27.85385,89794
27.86198,83011
27.87010,79264
27.87822,79452
27.88635,80021
27.89447,74069
27.90260,73134
27.91072,74770
27.91883,71315
27.92697,73964
27.93508,81143
27.94322,69551
27.95133,75008
27.95945,74154
27.96758,75883
27.97570,70518
27.98382,74716
27.99195,73315
28.00007,79983
28.00820,83727
28.01632,82040
28.02443,88974
28.03257,94803
28.04068,111959
28.04882,121923
28.05693,132563
28.06505,139430
28.07318,139731
28.08130,126659
28.08942,113148
28.09755,95137
28.10567,87242
28.11380,84420
28.12192,80890
28.13003,80118
28.13817,75551
28.14628,82353
28.15442,71422
28.16253,77244
28.17065,75223
28.17878,68719
28.18690,74768
28.19503,79015
28.20315,81218
28.21127,84762
28.21940,105897
28.22752,112883
28.23563,114700
28.24377,113572
28.25188,115503
28.26002,100651
28.26813,93795
28.27625,81030
28.28438,75584
28.29250,73718
28.30063,74493
28.30875,79970
28.31687,91890
28.32500,100743
28.33312,125277
28.34125,135801
28.34937,166125
28.35748,174207
28.36562,197378
28.37373,219214
28.38185,243156
28.38998,235210
28.39810,242544
28.40623,242430
28.41435,220511
28.42247,213157
28.43060,187400
28.43872,172734
28.44685,162909
28.45497,153685
28.46308,144564
28.47122,132426
28.47933,124134
28.48747,124590
28.49558,126711
28.50370,136207
28.51183,132524
28.51995,124715
28.52807,123448
28.53620,120179
28.54432,109561
28.55245,99426
28.56057,92937
28.56868,89714
28.57682,89670
28.58493,81588
28.59307,80890
28.60118,81205
28.60930,77423
28.61743,89040
28.62555,87631
28.63367,87232
28.64180,92665
28.64992,91578
28.65805,97441
28.66617,93885
28.67428,101980
28.68242,95277
28.69053,93024
28.69867,82108
28.70678,78513
28.71490,74168
28.72303,78272
28.73115,75135
28.73928,72011
28.74740,68281
28.75552,69860
28.76365,78758
28.77177,77295
28.77988,73328
28.78802,82583
28.79613,85857
28.80427,87386
28.81238,90646
28.82050,84715
28.82863,81220
28.83675,76131
28.84488,77896
28.85300,72808
28.86112,74755
28.86925,75724
28.87737,75860
28.88548,75307
28.89362,79150
28.90173,86477
28.90987,84119
28.91798,90311
28.92610,90848
28.93423,89126
28.94235,90707
28.95048,86543
28.95860,90578
28.96672,89585
28.97485,88768
28.98297,84276
28.99110,83546
28.99922,81934
29.00733,76913
29.01547,71080
29.02358,70712
29.03170,71649
29.03983,63399
29.04795,71116
29.05608,64038
29.06420,67728
29.07232,69382
29.08045,76066
29.08857,85126
29.09670,79966
29.10482,77492
29.11293,81803
29.12107,75904
29.12918,72877
29.13732,71004
29.14543,65874
29.15355,68110
29.16168,70455
29.16980,66147
29.17792,68413
29.18605,74774
29.19417,79932
29.20230,86206
29.21042,94072
29.21853,111581
29.22667,120268
29.23478,134970
29.24292,126396
29.25103,119949
29.25915,120822
29.26728,116254
29.27540,112369
29.28352,106994
29.29165,99604
29.29977,83908
29.30790,77792
29.31602,75290
29.32413,67164
29.33227,69178
29.34038,71640
29.34852,61791
29.35663,64340
29.36475,65147
29.37288,63463
29.38100,60552
29.38913,69592
29.39725,65875
29.40537,72220
29.41350,70142
29.42162,64741
29.42973,68133
29.43787,70388
29.44598,65434
29.45412,64004
29.46223,62152
29.47035,60522
29.47848,67390
29.48660,67492
29.49473,65123
29.50285,65984
29.51097,71867
29.51910,67044
29.52722,68607
29.53535,71525
29.54347,66486
29.55158,64487
29.55972,61568
29.56783,66688
29.57595,54185
29.58408,60971
29.59220,61369
29.60033,59988
29.60845,55043
29.61657,58029
29.62470,57131
29.63282,61890
29.64095,62084
29.64907,69379
29.65718,57986
29.66532,53640
29.67343,58530
29.68155,58657
29.68968,61003
29.69780,62095
29.70593,69814
29.71405,66026
29.72217,64620
29.73030,64274
29.73842,62211
29.74655,60755
29.75467,63714
29.76278,60157
29.77092,64592
29.77903,59163
29.78717,60067
29.79528,53991
29.80340,51888
29.81153,52296
29.81965,54194
29.82777,51114
29.83590,57253
29.84402,54333
29.85215,52662
29.86027,57394
29.86838,66476
29.87652,87766
29.88463,142117
29.89277,238840
29.90088,361715
29.90900,464196
29.91713,531936
29.92525,498838
29.93337,423096
29.94150,287036
29.94962,187558
29.95775,123549
29.96587,93720
29.97398,86344
29.98212,89589
29.99023,95150
29.99837,107821
30.00648,119670
30.01460,124809
30.02273,133705
30.03085,139560
30.03898,145879
30.04710,137540
30.05522,137806
30.06335,130164
30.07147,127755
30.07958,118922
30.08772,118271
30.09583,115577
30.10397,115884
30.11208,104688
30.12020,102212
30.12833,104266
30.13645,89809
30.14458,91273
30.15270,89434
30.16082,84660
30.16895,89271
30.17707,90305
30.18520,85549
30.19332,88346
30.20143,92387
30.20957,94712
30.21768,99954
30.22580,92676
30.23393,89058
30.24205,79724
30.25018,79636
30.25830,72754
30.26642,65958
30.27455,67846
30.28267,62276
30.29080,61068
30.29892,60683
30.30703,61626
30.31517,64263
30.32328,68383
30.33140,64252
30.33953,65242
30.34765,67783
30.35578,68843
30.36390,63650
30.37202,66428
30.38015,66076
30.38827,65605
30.39640,59750
30.40452,55241
30.41263,58662
30.42077,59593
30.42888,55007
30.43702,60005
30.44513,55344
30.45325,55907
30.46138,56161
30.46950,62300
30.47762,56146
30.48575,59687
30.49387,60535
30.50200,63368
30.51012,66791
30.51823,66601
30.52637,60498
30.53448,60965
30.54262,65478
30.55073,60166
30.55885,55052
30.56698,61239
30.57510,64533
30.58323,55877
30.59135,60390
30.59947,61276
30.60760,60512
30.61572,59086
30.62383,64092
30.63197,59692
30.64008,59433
30.64822,55653
30.65633,55696
30.66445,53834
30.67258,52132
30.68070,62339
30.68883,53371
30.69695,58042
30.70507,57106
30.71320,56438
30.72132,56060
30.72943,58841
30.73757,53579
30.74568,55712
30.75382,56576
30.76193,59752
30.77005,58174
30.77818,62260
30.78630,67725
30.79443,75323
30.80255,83653
30.81067,105365
30.81880,120773
30.82692,122564
30.83505,127736
30.84317,106727
30.85128,88264
30.85942,85643
30.86753,73335
30.87565,74014
30.88378,73798
30.89190,71558
30.90003,75643
30.90815,71696
30.91627,76016
30.92440,65834
30.93252,64607
30.94065,63589
30.94877,63586
30.95688,65597
30.96502,67347
30.97313,65875
30.98127,63426
30.98938,67876
30.99750,63729
31.00563,64698
31.01375,65686
31.02187,71383
31.03000,79334
31.03812,87549
31.04625,94552
31.05437,98541
31.06248,100122
31.07062,85501
31.07873,87984
31.08687,90997
31.09498,120761
31.10310,158912
31.11123,218634
31.11935,254841
31.12747,271458
31.13560,250926
31.14372,201837
31.15185,156754
31.15997,119277
31.16808,91157
31.17622,80980
31.18433,76432
31.19247,80011
31.20058,84633
31.20870,101317
31.21683,113369
31.22495,128545
31.23308,133048
31.24120,142069
31.24932,132528
31.25745,114046
31.26557,97954
31.27368,82339
31.28182,74362
31.28993,61612
31.29807,62963
31.30618,61113
31.31430,61945
31.32243,61083
31.33055,61608
31.33868,59663
31.34680,61891
31.35492,62995
31.36305,64895
31.37117,64036
31.37928,70026
31.38742,72544
31.39553,72436
31.40367,79082
31.41178,78088
31.41990,81141
31.42803,69697
31.43615,72589
31.44428,61934
31.45240,59978
31.46052,57602
31.46865,60211
31.47677,66689
31.48490,70203
31.49302,72070
31.50113,75028
31.50927,83539
31.51738,82900
31.52550,74784
31.53363,73935
31.54175,77813
31.54988,75018
31.55800,76466
31.56612,70245
31.57425,76016
31.58237,79164
31.59050,73821
31.59862,70374
31.60673,70340
31.61487,60269
31.62298,65514
31.63112,58971
31.63923,60817
31.64735,60451
31.65548,66184
31.66360,72287
31.67172,69692
31.67985,81337
31.68797,84285
31.69610,77297
31.70422,78414
31.71233,73878
31.72047,72755
31.72858,67494
31.73672,76461
31.74483,74366
31.75295,74513
31.76108,69207
31.76920,73623
31.77732,72116
31.78545,76522
31.79357,75614
31.80170,78626
31.80982,75505
31.81793,77229
31.82607,74737
31.83418,78600
31.84232,81856
31.85043,78669
31.85855,83282
31.86668,85251
31.87480,86812
31.88293,95726
31.89105,85013
31.89917,94537
31.90730,94673
31.91542,101756
31.92353,96011
31.93167,100758
31.93978,99228
31.94792,101710
31.95603,113345
31.96415,105902
31.97228,105892
31.98040,104940
31.98853,111463
31.99665,113864
32.00477,116182
32.01290,112320
32.02102,113542
32.02915,112334
32.03727,106182
32.04538,103126
32.05352,98086
32.06163,94320
32.06975,93634
32.07788,90002
32.08600,88168
32.09413,86299
32.10225,83488
32.11037,86674
32.11850,80705
32.12662,83162
32.13475,78496
32.14287,75683
32.15098,74135
32.15912,73255
32.16723,73133
32.17535,73970
32.18348,69347
32.19160,70776
32.19973,72091
32.20785,69737
32.21597,66866
32.22410,72735
32.23222,68099
32.24035,67630
32.24847,73264
32.25658,68673
32.26472,74599
32.27283,73801
32.28097,71792
32.28908,80381
32.29720,78970
32.30533,76740
32.31345,70411
32.32157,67969
32.32970,68179
32.33782,68459
32.34595,67808
32.35407,75782
32.36218,69193
32.37032,75061
32.37843,71611
32.38657,70531
32.39468,68896
32.40280,67336
32.41093,64907
32.41905,65123
32.42717,64815
32.43530,63479
32.44342,60821
32.45155,64475
32.45967,64876
32.46778,65514
32.47592,62303
32.48403,58251
32.49217,64648
32.50028,57050
32.50840,57204
32.51653,63208
32.52465,57078
32.53278,68250
32.54090,56292
32.54902,61686
32.55715,63825
32.56527,60615
32.57338,57120
32.58152,60587
32.58963,58277
32.59777,59279
32.60588,56441
32.61400,55886
32.62213,59790
32.63025,56788
32.63838,55617
32.64650,55801
32.65462,53604
32.66275,54830
32.67087,58970
32.67900,60778
32.68712,69939
32.69523,70529
32.70337,66361
32.71148,68579
32.71960,73403
32.72773,60560
32.73585,62494
32.74398,63597
32.75210,66013
32.76022,62220
32.76835,59194
32.77647,63642
32.78460,61907
32.79272,58040
32.80083,57763
32.80897,56506
32.81708,54300
32.82520,61725
32.83333,58968
32.84145,59604
32.84958,56311
32.85770,55122
32.86582,58317
32.87395,59352
32.88207,55327
32.89020,63074
32.89832,65969
32.90643,66536
32.91457,65908
32.92268,66022
32.93082,67867
32.93893,62462
32.94705,65173
32.95518,57349
32.96330,56849
32.97142,59597
32.97955,71071
32.98767,76848
32.99580,87100
33.00392,108617
33.01203,114576
33.02017,124364
33.02828,127209
33.03642,109483
33.04453,96947
33.05265,85736
33.06078,73817
33.06890,73961
33.07703,75904
33.08515,80485
33.09327,87667
33.10140,94223
33.10952,107850
33.11763,114417
33.12577,127404
33.13388,136283
33.14202,132852
33.15013,120860
33.15825,112322
33.16638,89453
33.17450,85277
33.18263,76551
33.19075,66849
33.19887,70338
33.20700,64660
33.21512,69526
33.22323,69276
33.23137,66438
33.23948,69866
33.24762,70261
33.25573,63166
33.26385,67050
33.27198,64001
33.28010,68902
33.28823,61639
33.29635,64972
33.30447,62269
33.31260,61820
33.32072,61642
33.32885,62697
33.33697,64049
33.34508,64098
33.35322,64498
33.36133,66562
33.36945,72188
33.37758,69614
33.38570,69155
33.39383,61852
33.40195,61883
33.41007,59122
33.41820,60544
33.42632,60503
33.43445,53762
33.44257,59137
33.45068,51426
33.45882,57184
33.46693,54218
33.47507,60262
33.48318,60149
33.49130,54653
33.49943,56055
33.50755,56097
33.51567,57402
33.52380,63947
33.53192,58874
33.54005,65799
33.54817,70761
33.55628,70355
33.56442,72048
33.57253,66811
33.58067,71895
33.58878,64527
33.59690,67024
33.60503,60506
33.61315,62873
33.62127,58860
33.62940,62212
33.63752,61745
33.64565,58168
33.65377,64370
33.66188,63882
33.67002,65451
33.67813,64487
33.68627,65060
33.69438,65086
33.70250,62195
33.71063,58570
33.71875,54994
33.72688,56201
33.73500,50828
33.74312,56093
33.75125,55694
33.75937,60559
33.76748,55250
33.77562,58579
33.78373,54960
33.79187,57634
33.79998,58421
33.80810,55691
33.81623,53231
33.82435,55765
33.83248,53395
33.84060,55081
33.84872,56184
33.85685,58208
33.86497,58418
33.87310,56384
33.88122,60424
33.88933,59834
33.89747,63179
33.90558,56891
33.91370,57145
33.92183,58586
33.92995,60248
33.93808,55193
33.94620,58301
33.95432,59287
33.96245,57757
33.97057,56087
33.97870,52344
33.98682,52873
33.99493,54834
34.00307,51618
34.01118,54262
34.01930,55677
34.02743,58619
34.03555,54490
34.04368,54903
34.05180,55760
34.05992,68726
34.06805,54719
34.07617,54354
34.08430,58770
34.09242,57555
34.10053,58488
34.10867,60146
34.11678,59721
34.12492,58161
34.13303,60724
34.14115,61637
34.14928,59643
34.15740,58421
34.16552,57287
34.17365,56881
34.18177,55350
34.18990,54497
34.19802,59827
34.20613,58159
34.21427,57921
34.22238,58104
34.23052,59894
34.23863,58870
34.24675,58637
34.25488,55875
34.26300,53912
34.27112,60436
34.27925,61605
34.28737,58997
34.29550,53105
34.30362,56048
34.31173,60193
34.31987,53944
34.32798,56467
34.33612,59709
34.34423,57663
34.35235,58121
34.36048,57030
34.36860,58569
34.37673,58398
34.38485,61138
34.39297,59694
34.40110,56286
34.40922,53591
34.41733,54717
34.42547,57242
34.43358,54625
34.44172,52617
34.44983,55843
34.45795,59435
34.46608,54026
34.47420,55229
34.48233,53512
34.49045,53466
34.49857,51898
34.50670,57740
34.51482,60524
34.52295,61651
34.53107,59255
34.53918,59876
34.54732,74661
34.55543,79036
34.56355,83717
34.57168,94047
34.57980,84804
34.58793,85047
34.59605,77691
34.60417,82543
34.61230,71347
34.62042,75372
34.62855,66791
34.63667,64882
34.64478,66108
34.65292,65740
34.66103,65174
34.66915,62008
34.67728,58632
34.68540,61536
34.69353,59298
34.70165,59872
34.70977,57572
34.71790,57090
34.72602,62214
34.73415,69070
34.74227,59685
34.75038,59030
34.75852,60691
34.76663,62069
34.77477,65683
34.78288,62939
34.79100,62405
34.79913,63864
34.80725,63273
34.81537,65076
34.82350,67523
34.83162,63145
34.83975,63781
34.84787,65522
34.85598,66105
34.86412,63156
34.87223,62157
34.88037,63842
34.88848,59815
34.89660,70827
34.90473,59583
34.91285,60304
34.92098,60834
34.92910,60571
34.93722,63270
34.94535,70085
34.95347,88287
34.96158,113508
34.96972,168901
34.97783,253637
34.98597,314336
34.99408,354189
35.00220,332411
35.01033,264495
35.01845,196803
35.02658,142802
35.03470,100621
35.04282,80302
35.05095,83753
35.05907,74822
35.06718,69049
35.07532,73683
35.08343,68181
35.09157,73147
35.09968,65827
35.10780,70352
35.11593,66009
35.12405,69821
35.13218,70907
35.14030,65042
35.14842,65094
35.15655,66277
35.16467,65504
35.17280,64318
35.18092,63144
35.18903,65875
35.19717,65985
35.20528,68306
35.21340,61351
35.22153,59935
35.22965,67766
35.23778,60214
35.24590,60202
35.25402,60270
35.26215,62347
35.27027,64525
35.27840,64434
35.28652,68523
35.29463,65600
35.30277,72790
35.31088,65781
35.31902,65300
35.32713,62548
35.33525,62446
35.34338,62491
35.35150,59138
35.35962,59452
35.36775,60037
35.37587,64594
35.38400,57841
35.39212,61985
35.40023,66319
35.40837,64548
35.41648,68474
35.42462,69239
35.43273,74209
35.44085,76999
35.44898,72949
35.45710,83604
35.46522,71877
35.47335,75225
35.48147,70365
35.48960,67043
35.49772,70351
35.50583,66107
35.51397,69767
35.52208,67476
35.53022,68801
35.53833,62615
35.54645,68343
35.55458,69708
35.56270,68579
35.57083,63572
35.57895,65252
35.58707,66139
35.59520,63801
35.60332,61232
35.61143,62696
35.61957,59279
35.62768,60346
35.63582,63682
35.64393,64778
35.65205,63606
35.66018,63235
35.66830,59068
35.67643,58678
35.68455,67657
35.69267,65361
35.70080,63052
35.70892,68874
35.71703,63296
35.72517,62092
35.73328,63207
35.74142,67862
35.74953,68484
35.75765,73302
35.76578,72641
35.77390,77795
35.78203,77704
35.79015,81512
35.79827,74283
35.80640,72438
35.81452,69682
35.82265,69333
35.83077,64026
35.83888,64453
35.84702,61004
35.85513,63752
35.86325,72830
35.87138,64454
35.87950,62070
35.88763,62480
35.89575,66595
35.90387,60954
35.91200,63119
35.92012,59758
35.92825,65618
35.93637,62894
35.94448,58389
35.95262,64326
35.96073,60484
35.96887,58995
35.97698,62929
35.98510,59320
35.99323,59202
36.00135,64224
36.00947,60933
36.01760,67799
36.02572,59271
36.03385,70464
36.04197,64350
36.05008,66196
36.05822,62661
36.06633,60708
36.07447,62543
36.08258,63376
36.09070,64308
36.09883,64238
36.10695,57394
36.11507,68176
36.12320,62683
36.13132,67286
36.13945,68796
36.14757,74254
36.15568,74039
36.16382,77083
36.17193,75880
36.18007,75825
36.18818,70125
36.19630,70423
36.20443,67232
36.21255,65010
36.22068,60268
36.22880,60304
36.23692,66572
36.24505,59415
36.25317,60900
36.26128,59575
36.26942,61370
36.27753,61347
36.28567,65822
36.29378,72350
36.30190,61324
36.31003,62956
36.31815,67912
36.32628,64252
36.33440,65907
36.34252,67124
36.35065,65080
36.35877,72095
36.36690,62849
36.37502,65218
36.38313,65394
36.39127,64833
36.39938,65855
36.40750,64595
36.41563,65933
36.42375,68173
36.43188,65390
36.44000,69031
36.44812,72246
36.45625,66498
36.46437,61686
36.47250,64225
36.48062,62809
36.48873,62735
36.49687,60661
36.50498,62302
36.51310,63842
36.52123,69296
36.52935,64097
36.53748,67162
36.54560,59888
36.55372,62394
36.56185,66865
36.56997,65433
36.57810,73615
36.58622,66045
36.59433,61362
36.60247,62479
36.61058,59776
36.61872,61398
36.62683,62961
36.63495,60245
36.64308,66849
36.65120,63196
36.65932,62614
36.66745,65636
36.67557,64825
36.68370,62539
36.69182,67136
36.69993,59973
36.70807,64479
36.71618,64261
36.72432,63234
36.73243,62561
36.74055,63366
36.74868,64199
36.75680,63133
36.76492,62826
36.77305,64617
36.78117,62977
36.78930,64423
36.79742,67768
36.80553,61674
36.81367,64435
36.82178,67871
36.82992,65508
36.83803,71681
36.84615,64087
36.85428,62187
36.86240,65019
36.87053,63902
36.87865,63558
36.88677,65559
36.89490,61549
36.90302,65432
36.91113,63298
36.91927,61131
36.92738,64730
36.93552,71125
36.94363,69910
36.95175,77215
36.95988,88848
36.96800,98931
36.97613,105072
36.98425,103190
36.99237,108255
37.00050,100040
37.00862,89539
37.01675,78085
37.02487,76704
37.03298,75522
37.04112,72078
37.04923,70321
37.05735,71745
37.06548,77421
37.07360,80389
37.08173,80488
37.08985,86842
37.09797,88451
37.10610,90222
37.11422,84996
37.12235,89269
37.13047,82361
37.13858,87036
37.14672,85278
37.15483,80974
37.16297,78773
37.17108,90722
37.17920,84798
37.18733,91580
37.19545,94378
37.20357,89522
37.21170,86183
37.21982,93071
37.22795,88864
37.23607,87669
37.24418,86370
37.25232,94229
37.26043,89791
37.26857,90292
37.27668,88314
37.28480,84782
37.29293,90344
37.30105,87506
37.30917,84410
37.31730,84125
37.32542,82520
37.33355,87428
37.34167,88020
37.34978,85230
37.35792,90716
37.36603,90976
37.37417,91770
37.38228,93757
37.39040,94698
37.39853,94408
37.40665,92988
37.41478,95707
37.42290,88023
37.43102,90920
37.43915,89146
37.44727,81837
37.45538,88644
37.46352,90400
37.47163,89721
37.47977,81595
37.48788,86064
