C:\MassHunter\GCMS\1\data\JTB-E18\JTB-E18-032-08.D Fri Oct 11 15:07:16 2019
Start of data points
2.09528	159806
2.10342	152412
2.11153	151083
2.11965	139624
2.12778	139599
2.13590	140309
2.14403	132915
2.15215	134412
2.16027	137960
2.16840	124221
2.17652	121915
2.18463	128027
2.19277	119847
2.20088	116036
2.20902	114667
2.21713	112073
2.22525	113952
2.23338	115859
2.24150	113104
2.24963	116777
2.25775	110266
2.26587	122025
2.27400	447877
2.28212	1971639
2.29025	2037339
2.29837	859070
2.30648	479068
2.31462	358993
2.32273	317976
2.33085	315388
2.33898	282861
2.34710	251410
2.35523	213966
2.36335	207933
2.37147	189618
2.37960	183851
2.38772	184849
2.39585	175243
2.40397	167990
2.41208	174365
2.42022	161726
2.42833	171597
2.43647	160922
2.44458	165995
2.45270	168065
2.46083	160653
2.46895	145462
2.47707	148899
2.48520	145742
2.49332	149533
2.50145	155633
2.50957	145627
2.51768	142468
2.52582	144975
2.53393	142355
2.54207	134529
2.55018	136156
2.55830	139410
2.56643	134969
2.57455	133249
2.58267	127370
2.59080	129066
2.59892	128715
2.60705	135727
2.61517	176844
2.62328	202884
2.63142	200530
2.63953	176461
2.64767	163811
2.65578	150308
2.66390	150427
2.67203	145346
2.68015	146362
2.68828	141415
2.69640	137818
2.70452	129188
2.71265	132502
2.72077	122093
2.72888	125246
2.73702	122514
2.74513	118733
2.75327	115820
2.76138	121577
2.76950	114376
2.77763	118319
2.78575	112196
2.79388	117801
2.80200	118848
2.81012	117370
2.81825	126576
2.82637	154113
2.83448	182353
2.84262	184749
2.85073	155932
2.85887	138909
2.86698	136869
2.87510	131561
2.88323	122000
2.89135	117646
2.89948	118302
2.90760	113388
2.91572	113063
2.92385	111601
2.93197	107987
2.94010	103096
2.94822	105453
2.95633	104505
2.96447	106899
2.97258	105269
2.98070	106212
2.98883	107872
2.99695	109723
3.00508	105103
3.01320	109051
3.02132	107942
3.02945	122086
3.03757	157366
3.04570	190773
3.05382	310313
3.06193	729374
3.07007	970670
3.07818	653139
3.08632	352360
3.09443	234134
3.10255	231037
3.11068	334383
3.11880	415218
3.12692	326921
3.13505	249947
3.14317	203877
3.15130	186150
3.15942	170928
3.16753	161482
3.17567	149984
3.18378	147874
3.19192	143125
3.20003	141169
3.20815	135810
3.21628	127515
3.22440	123609
3.23252	122841
3.24065	122957
3.24877	122348
3.25690	133990
3.26502	141877
3.27313	135332
3.28127	152214
3.28938	293227
3.29752	858949
3.30563	1874955
3.31375	2547931
3.32188	2243919
3.33000	1633624
3.33813	1185877
3.34625	943630
3.35437	747589
3.36250	647238
3.37062	576990
3.37873	531430
3.38687	512323
3.39498	464020
3.40312	441869
3.41123	524411
3.41935	671808
3.42748	647703
3.43560	514145
3.44373	402556
3.45185	353514
3.45997	324787
3.46810	310184
3.47622	282212
3.48435	278190
3.49247	270749
3.50058	248366
3.50872	244359
3.51683	232483
3.52495	236821
3.53308	226830
3.54120	219224
3.54933	218110
3.55745	218787
3.56557	212824
3.57370	201797
3.58182	205619
3.58995	205348
3.59807	189801
3.60618	186432
3.61432	195108
3.62243	216839
3.63055	284183
3.63868	346724
3.64680	340153
3.65493	278796
3.66305	234274
3.67117	205854
3.67930	200341
3.68742	191461
3.69555	185082
3.70367	183842
3.71178	175662
3.71992	174160
3.72803	175797
3.73617	176194
3.74428	168129
3.75240	184847
3.76053	197819
3.76865	194377
3.77677	204234
3.78490	217475
3.79302	218880
3.80115	212602
3.80927	204490
3.81738	195465
3.82552	190434
3.83363	185081
3.84177	178123
3.84988	172892
3.85800	163625
3.86613	158664
3.87425	157649
3.88237	157883
3.89050	155534
3.89862	146603
3.90675	147643
3.91487	153246
3.92298	149765
3.93112	147097
3.93923	150183
3.94737	134249
3.95548	138861
3.96360	141866
3.97173	137942
3.97985	136117
3.98798	136728
3.99610	134144
4.00422	144339
4.01235	137895
4.02047	130800
4.02858	137366
4.03672	132172
4.04483	130845
4.05297	132272
4.06108	128163
4.06920	129535
4.07733	131431
4.08545	131182
4.09358	128725
4.10170	130008
4.10982	133220
4.11795	135224
4.12607	187596
4.13420	628103
4.14232	2673942
4.15043	6510882
4.15857	9143292
4.16668	8246464
4.17480	5345620
4.18293	3177223
4.19105	2012089
4.19918	1423154
4.20730	1186405
4.21542	1839879
4.22355	5350233
4.23167	1.247556E+07
4.23980	2.022687E+07
4.24792	2.54781E+07
4.25603	2.611437E+07
4.26417	1.972816E+07
4.27228	1.151794E+07
4.28040	7694146
4.28853	5629246
4.29665	4414157
4.30478	3592512
4.31290	2882196
4.32102	2446647
4.32915	2168604
4.33727	1912052
4.34540	1723418
4.35352	1544931
4.36163	1419338
4.36977	1310737
4.37788	1197817
4.38602	1110656
4.39413	1057724
4.40225	986285
4.41038	920513
4.41850	867151
4.42662	834589
4.43475	774456
4.44287	743486
4.45100	701741
4.45912	673755
4.46723	647313
4.47537	623031
4.48348	579475
4.49162	576662
4.49973	553241
4.50785	538865
4.51598	515485
4.52410	499110
4.53223	490842
4.54035	470619
4.54847	458448
4.55660	448534
4.56472	441130
4.57283	423581
4.58097	412147
4.58908	401643
4.59722	386301
4.60533	373192
4.61345	359705
4.62158	368180
4.62970	359193
4.63783	346708
4.64595	337955
4.65407	335415
4.66220	338976
4.67032	315716
4.67843	313734
4.68657	315675
4.69468	296114
4.70282	298900
4.71093	287896
4.71905	281337
4.72718	275275
4.73530	279114
4.74343	268535
4.75155	275048
4.75967	261398
4.76780	258449
4.77592	260230
4.78405	254415
4.79217	248483
4.80028	243699
4.80842	241254
4.81653	234088
4.82465	235415
4.83278	231101
4.84090	226459
4.84903	226304
4.85715	228861
4.86527	228433
4.87340	222746
4.88152	225065
4.88965	219355
4.89777	213771
4.90588	207341
4.91402	221452
4.92213	260433
4.93027	377892
4.93838	588281
4.94650	807092
4.95463	877434
4.96275	806575
4.97087	673005
4.97900	567677
4.98712	469724
4.99525	406190
5.00337	376041
5.01148	353994
5.01962	330820
5.02773	322051
5.03587	324611
5.04398	312969
5.05210	299287
5.06023	284670
5.06835	285240
5.07647	276710
5.08460	264523
5.09272	260689
5.10085	256921
5.10897	262211
5.11708	267761
5.12522	261907
5.13333	259505
5.14147	248980
5.14958	231943
5.15770	235858
5.16583	219760
5.17395	232870
5.18208	242795
5.19020	244381
5.19832	236877
5.20645	225426
5.21457	220013
5.22268	210409
5.23082	209890
5.23893	216172
5.24707	215108
5.25518	210892
5.26330	201953
5.27143	199242
5.27955	188595
5.28768	182097
5.29580	183036
5.30392	175529
5.31205	181380
5.32017	184596
5.32828	175057
5.33642	179292
5.34453	180293
5.35267	173461
5.36078	171424
5.36890	171854
5.37703	170225
5.38515	173958
5.39328	167402
5.40140	167274
5.40952	169326
5.41765	166541
5.42577	158638
5.43390	162867
5.44202	158084
5.45013	154199
5.45827	157259
5.46638	156722
5.47450	153993
5.48263	152376
5.49075	153232
5.49888	159901
5.50700	154038
5.51512	152569
5.52325	156034
5.53137	145575
5.53950	149662
5.54762	145257
5.55573	144713
5.56387	148092
5.57198	143383
5.58012	149121
5.58823	151508
5.59635	158204
5.60448	150009
5.61260	144404
5.62072	156028
5.62885	147322
5.63697	154912
5.64510	152451
5.65322	147317
5.66133	146804
5.66947	143585
5.67758	153097
5.68572	142788
5.69383	151394
5.70195	152603
5.71008	148944
5.71820	151270
5.72632	152526
5.73445	154953
5.74257	151541
5.75070	151170
5.75882	160212
5.76693	147226
5.77507	156512
5.78318	150127
5.79132	141830
5.79943	155188
5.80755	175188
5.81568	199243
5.82380	259108
5.83193	318864
5.84005	324626
5.84817	295651
5.85630	247634
5.86442	209739
5.87253	175784
5.88067	166817
5.88878	151760
5.89692	153721
5.90503	152186
5.91315	141714
5.92128	159851
5.92940	183532
5.93753	191952
5.94565	189998
5.95377	166461
5.96190	147305
5.97002	130189
5.97815	131267
5.98627	136803
5.99438	129466
6.00252	126605
6.01063	116188
6.01875	110283
6.02688	111223
6.03500	106873
6.04313	107438
6.05125	104579
6.05937	107364
6.06750	100971
6.07562	97261
6.08375	99746
6.09187	97513
6.09998	95551
6.10812	93322
6.11623	104694
6.12435	100710
6.13248	97061
6.14060	100092
6.14873	105243
6.15685	101747
6.16497	102350
6.17310	111252
6.18122	111088
6.18935	114994
6.19747	115578
6.20558	119887
6.21372	124879
6.22183	120508
6.22997	119739
6.23808	125173
6.24620	126635
6.25433	124640
6.26245	133799
6.27057	128186
6.27870	134264
6.28682	135659
6.29495	135471
6.30307	138406
6.31118	141643
6.31932	144400
6.32743	144460
6.33557	147256
6.34368	151822
6.35180	150226
6.35993	156727
6.36805	164680
6.37617	160283
6.38430	165707
6.39242	168405
6.40055	166843
6.40867	168921
6.41678	168540
6.42492	165555
6.43303	169088
6.44117	175662
6.44928	171894
6.45740	179673
6.46553	188909
6.47365	180915
6.48178	184549
6.48990	186225
6.49802	181346
6.50615	195022
6.51427	192769
6.52238	192419
6.53052	195854
6.53863	195105
6.54677	195835
6.55488	195600
6.56300	195147
6.57113	191301
6.57925	180771
6.58738	131615
6.59550	123282
6.60362	105807
6.61175	110048
6.61987	99411
6.62800	98917
6.63612	96948
6.64423	93848
6.65237	94983
6.66048	89161
6.66860	88072
6.67673	93996
6.68485	87802
6.69298	86074
6.70110	96335
6.70922	92896
6.71735	96989
6.72547	106449
6.73360	106658
6.74172	103852
6.74983	99181
6.75797	95503
6.76608	89876
6.77422	86204
6.78233	81602
6.79045	78804
6.79858	80770
6.80670	76611
6.81482	79006
6.82295	80367
6.83107	93149
6.83920	99925
6.84732	121787
6.85543	145179
6.86357	183448
6.87168	204094
6.87982	192759
6.88793	163424
6.89605	124018
6.90418	94411
6.91230	80067
6.92042	68808
6.92855	65610
6.93667	68882
6.94480	62979
6.95292	58184
6.96103	58110
6.96917	59005
6.97728	60716
6.98542	57770
6.99353	62624
7.00165	76478
7.00978	90809
7.01790	102616
7.02603	106339
7.03415	106106
7.04227	95432
7.05040	81813
7.05852	74387
7.06663	71409
7.07477	62291
7.08288	58686
7.09102	58493
7.09913	63804
7.10725	59859
7.11538	59516
7.12350	58345
7.13163	59832
7.13975	58052
7.14787	56811
7.15600	54955
7.16412	56843
7.17223	57404
7.18037	55776
7.18848	52367
7.19662	55080
7.20473	58922
7.21285	55503
7.22098	53890
7.22910	58811
7.23723	59718
7.24535	62130
7.25347	64547
7.26160	64738
7.26972	70507
7.27785	66500
7.28597	59338
7.29408	59523
7.30222	59571
7.31033	61676
7.31845	60298
7.32658	61218
7.33470	61804
7.34283	60260
7.35095	57859
7.35907	59265
7.36720	58016
7.37532	69163
7.38345	80629
7.39157	76908
7.39968	82391
7.40782	77233
7.41593	75131
7.42407	62137
7.43218	56984
7.44030	56127
7.44843	52832
7.45655	54153
7.46467	57332
7.47280	59834
7.48092	61035
7.48905	63617
7.49717	70939
7.50528	71983
7.51342	66844
7.52153	62123
7.52967	58656
7.53778	57402
7.54590	52163
7.55403	52344
7.56215	53926
7.57027	53973
7.57840	52229
7.58652	48906
7.59465	47752
7.60277	52333
7.61088	47912
7.61902	49089
7.62713	49269
7.63527	48245
7.64338	47581
7.65150	48215
7.65963	47974
7.66775	46759
7.67588	49617
7.68400	47013
7.69212	47982
7.70025	46022
7.70837	49586
7.71648	46007
7.72462	46075
7.73273	46534
7.74087	48960
7.74898	47251
7.75710	50378
7.76523	44430
7.77335	45970
7.78148	45178
7.78960	48470
7.79772	45225
7.80585	46439
7.81397	51718
7.82210	47527
7.83022	49960
7.83833	46582
7.84647	45487
7.85458	47259
7.86270	45458
7.87083	47511
7.87895	46341
7.88708	45097
7.89520	46594
7.90332	42503
7.91145	45853
7.91957	44456
7.92770	45242
7.93582	46538
7.94393	46988
7.95207	50340
7.96018	45843
7.96830	49662
7.97643	53080
7.98455	50157
7.99268	51530
8.00080	48002
8.00892	45887
8.01705	43819
8.02517	40696
8.03330	44571
8.04142	46562
8.04953	45444
8.05767	41560
8.06578	45997
8.07392	43743
8.08203	45766
8.09015	44831
8.09828	45693
8.10640	43662
8.11452	42410
8.12265	45449
8.13077	41519
8.13890	43822
8.14702	42786
8.15513	47774
8.16327	52685
8.17138	52466
8.17952	50184
8.18763	49341
8.19575	45006
8.20388	45250
8.21200	41670
8.22012	43859
8.22825	46895
8.23637	44838
8.24450	46612
8.25262	44181
8.26073	42182
8.26887	43468
8.27698	47894
8.28512	42790
8.29323	40421
8.30135	45940
8.30948	44547
8.31760	43253
8.32573	50553
8.33385	52908
8.34197	56431
8.35010	56766
8.35822	61717
8.36633	50209
8.37447	49939
8.38258	44732
8.39072	45874
8.39883	44364
8.40695	41602
8.41508	41940
8.42320	43341
8.43133	43026
8.43945	41447
8.44757	38525
8.45570	41222
8.46382	41689
8.47195	43433
8.48007	41892
8.48818	43595
8.49632	43419
8.50443	44664
8.51255	45624
8.52068	46616
8.52880	50710
8.53693	48033
8.54505	45232
8.55317	43682
8.56130	43682
8.56942	41919
8.57755	41734
8.58567	41639
8.59378	39831
8.60192	44481
8.61003	45822
8.61815	39231
8.62628	41772
8.63440	39755
8.64253	44512
8.65065	39055
8.65877	40786
8.66690	39553
8.67502	44844
8.68315	41119
8.69127	41582
8.69938	43315
8.70752	45456
8.71563	45193
8.72377	55630
8.73188	86145
8.74000	133617
8.74813	187590
8.75625	229217
8.76437	221681
8.77250	182735
8.78062	140120
8.78875	105386
8.79687	94799
8.80498	91820
8.81312	86851
8.82123	81502
8.82937	75560
8.83748	75426
8.84560	72049
8.85373	70233
8.86185	67494
8.86998	62044
8.87810	64524
8.88622	57357
8.89435	62136
8.90247	59817
8.91058	57722
8.91872	55911
8.92683	56222
8.93497	53967
8.94308	60412
8.95120	54932
8.95933	57101
8.96745	56657
8.97558	54247
8.98370	50390
8.99182	56660
8.99995	52150
9.00807	50958
9.01618	54303
9.02432	51471
9.03243	52624
9.04057	50656
9.04868	52434
9.05680	50109
9.06493	52038
9.07305	46871
9.08118	51980
9.08930	49092
9.09742	46701
9.10555	51184
9.11367	50457
9.12180	51627
9.12992	49767
9.13803	48353
9.14617	51744
9.15428	47650
9.16240	45461
9.17053	47418
9.17865	45424
9.18678	46573
9.19490	46306
9.20302	45862
9.21115	47586
9.21927	44623
9.22740	46870
9.23552	46018
9.24363	46254
9.25177	43853
9.25988	45989
9.26802	44700
9.27613	41277
9.28425	44217
9.29238	42832
9.30050	44164
9.30862	45780
9.31675	42203
9.32487	40878
9.33300	41030
9.34112	39494
9.34923	40417
9.35737	41016
9.36548	41763
9.37362	44326
9.38173	43156
9.38985	39618
9.39798	43679
9.40610	40564
9.41422	41799
9.42235	45651
9.43047	41572
9.43860	41041
9.44672	39753
9.45483	41797
9.46297	40527
9.47108	40392
9.47922	37746
9.48733	40960
9.49545	41620
9.50358	39257
9.51170	36830
9.51983	35994
9.52795	39103
9.53607	37900
9.54420	39865
9.55232	41058
9.56043	38787
9.56857	36610
9.57668	38202
9.58482	35440
9.59293	33929
9.60105	35826
9.60918	35462
9.61730	32842
9.62543	35429
9.63355	31025
9.64167	31179
9.64980	34690
9.65792	30384
9.66603	29327
9.67417	27934
9.68228	27953
9.69042	27939
9.69853	34721
9.70665	30182
9.71478	31965
9.72290	28477
9.73103	36926
9.73915	31084
9.74727	28670
9.75540	28040
9.76352	30831
9.77165	31872
9.77977	30067
9.78788	30261
9.79602	33165
9.80413	31473
9.81225	32000
9.82038	30635
9.82850	29410
9.83663	30063
9.84475	27028
9.85287	34959
9.86100	31985
9.86912	29495
9.87725	29305
9.88537	26713
9.89348	29630
9.90162	30585
9.90973	29826
9.91787	30051
9.92598	31185
9.93410	30034
9.94223	28532
9.95035	27925
9.95847	31821
9.96660	33533
9.97472	38699
9.98285	36505
9.99097	39199
9.99908	38038
10.00722	33505
10.01533	28530
10.02347	27124
10.03158	29289
10.03970	34270
10.04783	29402
10.05595	31568
10.06407	30579
10.07220	29441
10.08032	28325
10.08845	31335
10.09657	29912
10.10468	30289
10.11282	30906
10.12093	31038
10.12907	24601
10.13718	26115
10.14530	27311
10.15343	27965
10.16155	29677
10.16968	29763
10.17780	28286
10.18592	27357
10.19405	26957
10.20217	30800
10.21028	29676
10.21842	28789
10.22653	26320
10.23467	30593
10.24278	27888
10.25090	26776
10.25903	27699
10.26715	30852
10.27528	31372
10.28340	31123
10.29152	29876
10.29965	31519
10.30777	28972
10.31590	27791
10.32402	27512
10.33213	29073
10.34027	28364
10.34838	31350
10.35650	27210
10.36463	28498
10.37275	29966
10.38088	26694
10.38900	34064
10.39712	31936
10.40525	30864
10.41337	27777
10.42150	26772
10.42962	27397
10.43773	27114
10.44587	27389
10.45398	31865
10.46210	29688
10.47023	26971
10.47835	31292
10.48648	26885
10.49460	29557
10.50272	29641
10.51085	27981
10.51897	28776
10.52710	27493
10.53522	32138
10.54333	31134
10.55147	25599
10.55958	30856
10.56772	27087
10.57583	24476
10.58395	27336
10.59208	27384
10.60020	30808
10.60832	28134
10.61645	24281
10.62457	29139
10.63270	26070
10.64082	28013
10.64893	26826
10.65707	25518
10.66518	25018
10.67332	27155
10.68143	26538
10.68955	23250
10.69768	27740
10.70580	27250
10.71392	28159
10.72205	28224
10.73017	33190
10.73830	29990
10.74642	28491
10.75453	29700
10.76267	32728
10.77078	29540
10.77892	27970
10.78703	27400
10.79515	29733
10.80328	27912
10.81140	29162
10.81953	26883
10.82765	24874
10.83577	24648
10.84390	30432
10.85202	26201
10.86013	28396
10.86827	27485
10.87638	23284
10.88452	28001
10.89263	26708
10.90075	26477
10.90888	26890
10.91700	26699
10.92513	26222
10.93325	27129
10.94137	27299
10.94950	25827
10.95762	25158
10.96575	24192
10.97387	26472
10.98198	23352
10.99012	25929
10.99823	27905
11.00635	22685
11.01448	24875
11.02260	25325
11.03073	23452
11.03885	27066
11.04697	25438
11.05510	24935
11.06322	25584
11.07135	28155
11.07947	26918
11.08758	25256
11.09572	27270
11.10383	30464
11.11195	26614
11.12008	29127
11.12820	31359
11.13633	32612
11.14445	32461
11.15257	32119
11.16070	32079
11.16882	31976
11.17695	32016
11.18507	29657
11.19318	33753
11.20132	31576
11.20943	31344
11.21757	31622
11.22568	30841
11.23380	29234
11.24193	33807
11.25005	30940
11.25817	30846
11.26630	32291
11.27442	34827
11.28255	41749
11.29067	48653
11.29878	56216
11.30692	55987
11.31503	53532
11.32317	52051
11.33128	49041
11.33940	44074
11.34753	45664
11.35565	39196
11.36378	38440
11.37190	38153
11.38002	38490
11.38815	38892
11.39627	38497
11.40438	39550
11.41252	34644
11.42063	33660
11.42877	30986
11.43688	34189
11.44500	30610
11.45313	31529
11.46125	32376
11.46938	31771
11.47750	31440
11.48562	29022
11.49375	28730
11.50187	33231
11.50998	26472
11.51812	32209
11.52623	32934
11.53437	34289
11.54248	36953
11.55060	34700
11.55873	37570
11.56685	35616
11.57498	35796
11.58310	31967
11.59122	35815
11.59935	34989
11.60747	30881
11.61560	33266
11.62372	33132
11.63183	31828
11.63997	28490
11.64808	32080
11.65620	29401
11.66433	31371
11.67245	33005
11.68058	31733
11.68870	30981
11.69682	28913
11.70495	35809
11.71307	40300
11.72120	40918
11.72932	43097
11.73743	41962
11.74557	43651
11.75368	35872
11.76180	40259
11.76993	39311
11.77805	33774
11.78618	36083
11.79430	35667
11.80242	32815
11.81055	32313
11.81867	33569
11.82680	33769
11.83492	33414
11.84303	32908
11.85117	29425
11.85928	30284
11.86742	28338
11.87553	28557
11.88365	29127
11.89178	28679
11.89990	27711
11.90802	27906
11.91615	30120
11.92427	30365
11.93240	32975
11.94052	33593
11.94863	32948
11.95677	36833
11.96488	34894
11.97302	33583
11.98113	32940
11.98925	31647
11.99738	32628
12.00550	30067
12.01363	29781
12.02175	26110
12.02987	25319
12.03800	28334
12.04612	26218
12.05423	26967
12.06237	29590
12.07048	31717
12.07862	31832
12.08673	35458
12.09485	32401
12.10298	31545
12.11110	31750
12.11923	30622
12.12735	28950
12.13547	28406
12.14360	31011
12.15172	28849
12.15985	28313
12.16797	31624
12.17608	27386
12.18422	25292
12.19233	28038
12.20045	26816
12.20858	30001
12.21670	25651
12.22483	25287
12.23295	25498
12.24107	24497
12.24920	22722
12.25732	25487
12.26545	25941
12.27357	25501
12.28168	25221
12.28982	29007
12.29793	27053
12.30605	28144
12.31418	29594
12.32230	29817
12.33043	29182
12.33855	22548
12.34667	25777
12.35480	29009
12.36292	29372
12.37105	29561
12.37917	35970
12.38728	54043
12.39542	90102
12.40353	149916
12.41167	198866
12.41978	235893
12.42790	221542
12.43603	181562
12.44415	123923
12.45227	93545
12.46040	74842
12.46852	60092
12.47665	55695
12.48477	54582
12.49288	43035
12.50102	40178
12.50913	42081
12.51727	37320
12.52538	34217
12.53350	36379
12.54163	35385
12.54975	34240
12.55787	34435
12.56600	29513
12.57412	30586
12.58225	30533
12.59037	32068
12.59848	30864
12.60662	28394
12.61473	30004
12.62287	29566
12.63098	27228
12.63910	28699
12.64723	29253
12.65535	27917
12.66348	30062
12.67160	32836
12.67972	28650
12.68785	30933
12.69597	28157
12.70408	24663
12.71222	25654
12.72033	27395
12.72847	28424
12.73658	28454
12.74470	27297
12.75283	31457
12.76095	29356
12.76908	26768
12.77720	27401
12.78532	25281
12.79345	27621
12.80157	29034
12.80970	31756
12.81782	30093
12.82593	31242
12.83407	29649
12.84218	29145
12.85030	29639
12.85843	28310
12.86655	28835
12.87468	26062
12.88280	24517
12.89092	26599
12.89905	25975
12.90717	25297
12.91530	25778
12.92342	24287
12.93153	24865
12.93967	24779
12.94778	30845
12.95590	34499
12.96403	39660
12.97215	46407
12.98028	46092
12.98840	46333
12.99652	46445
13.00465	43174
13.01277	43133
13.02090	38804
13.02902	36282
13.03713	34243
13.04527	31367
13.05338	30194
13.06152	30431
13.06963	30492
13.07775	30960
13.08588	27799
13.09400	26236
13.10212	33788
13.11025	27890
13.11837	26773
13.12650	26932
13.13462	26868
13.14273	27573
13.15087	25838
13.15898	26130
13.16712	26252
13.17523	26647
13.18335	25302
13.19148	24070
13.19960	22024
13.20773	24243
13.21585	23178
13.22397	26457
13.23210	27175
13.24022	27578
13.24833	27202
13.25647	26912
13.26458	31531
13.27272	28159
13.28083	31721
13.28895	29345
13.29708	31697
13.30520	29455
13.31333	31948
13.32145	29435
13.32957	32104
13.33770	33291
13.34582	30184
13.35393	31223
13.36207	28748
13.37018	30438
13.37832	30599
13.38643	32578
13.39455	25864
13.40268	25644
13.41080	28341
13.41893	23952
13.42705	26538
13.43517	27634
13.44330	28555
13.45142	27622
13.45955	27618
13.46767	23844
13.47578	23663
13.48392	25541
13.49203	21225
13.50015	27623
13.50828	22976
13.51640	26788
13.52453	24275
13.53265	23973
13.54077	25362
13.54890	28066
13.55702	28090
13.56515	28284
13.57327	31406
13.58138	29194
13.58952	24414
13.59763	27494
13.60575	29789
13.61388	27803
13.62200	32752
13.63013	31589
13.63825	34822
13.64637	29912
13.65450	33332
13.66262	33056
13.67075	31068
13.67887	31099
13.68698	27281
13.69512	32271
13.70323	30909
13.71137	22529
13.71948	27111
13.72760	26398
13.73573	23914
13.74385	25856
13.75197	25858
13.76010	24141
13.76822	26887
13.77635	24371
13.78447	24950
13.79258	25171
13.80072	28830
13.80883	27485
13.81697	27746
13.82508	23248
13.83320	23754
13.84133	25165
13.84945	23912
13.85758	25865
13.86570	24471
13.87382	30011
13.88195	24512
13.89007	25151
13.89818	27008
13.90632	27381
13.91443	28906
13.92257	27865
13.93068	27846
13.93880	31226
13.94693	27672
13.95505	28051
13.96318	28218
13.97130	26461
13.97942	25659
13.98755	25011
13.99567	28284
14.00378	27015
14.01192	25227
14.02003	26063
14.02817	28857
14.03628	27012
14.04440	27760
14.05253	28788
14.06065	28542
14.06878	28970
14.07690	27840
14.08502	27813
14.09315	24781
14.10127	25777
14.10940	27144
14.11752	28318
14.12563	34760
14.13377	41331
14.14188	48824
14.15000	65332
14.15813	71984
14.16625	70923
14.17438	70371
14.18250	58364
14.19062	55706
14.19875	48628
14.20687	45736
14.21500	50322
14.22312	46180
14.23123	45404
14.23937	41555
14.24748	41390
14.25562	36022
14.26373	34847
14.27185	35553
14.27998	35194
14.28810	36862
14.29622	32099
14.30435	28229
14.31247	29002
14.32060	28639
14.32872	23765
14.33683	25354
14.34497	22447
14.35308	23866
14.36122	23304
14.36933	20660
14.37745	24776
14.38558	24827
14.39370	24805
14.40182	25811
14.40995	25199
14.41807	26095
14.42620	21610
14.43432	26865
14.44243	24460
14.45057	22262
14.45868	20605
14.46682	22365
14.47493	24035
14.48305	22593
14.49118	23283
14.49930	23109
14.50743	19456
14.51555	23696
14.52367	22463
14.53180	25747
14.53992	22966
14.54803	20283
14.55617	24150
14.56428	23754
14.57242	21245
14.58053	22505
14.58865	24371
14.59678	24602
14.60490	21861
14.61303	21519
14.62115	19924
14.62927	19042
14.63740	23789
14.64552	21830
14.65365	24764
14.66177	22207
14.66988	20598
14.67802	20239
14.68613	21916
14.69425	23538
14.70238	22925
14.71050	21978
14.71863	20625
14.72675	23401
14.73487	23869
14.74300	22961
14.75112	22286
14.75925	23416
14.76737	21285
14.77548	21995
14.78362	23497
14.79173	20052
14.79985	21988
14.80798	23394
14.81610	24330
14.82423	22371
14.83235	23725
14.84047	24957
14.84860	22888
14.85672	23456
14.86485	22254
14.87297	24344
14.88108	22282
14.88922	24031
14.89733	23297
14.90547	23792
14.91358	24740
14.92170	25797
14.92983	23130
14.93795	24435
14.94607	22455
14.95420	27319
14.96232	24636
14.97045	25289
14.97857	19668
14.98668	24187
14.99482	22873
15.00293	20377
15.01107	18569
15.01918	22066
15.02730	21776
15.03543	22353
15.04355	21202
15.05167	24082
15.05980	21939
15.06792	21445
15.07605	23995
15.08417	21340
15.09228	24180
15.10042	21614
15.10853	21627
15.11667	27240
15.12478	24973
15.13290	24367
15.14103	20816
15.14915	20350
15.15728	21419
15.16540	22304
15.17352	23195
15.18165	24111
15.18977	21564
15.19788	21904
15.20602	23064
15.21413	20595
15.22227	23628
15.23038	22265
15.23850	19779
15.24663	22194
15.25475	21574
15.26288	22075
15.27100	21325
15.27912	22959
15.28725	24633
15.29537	21361
15.30350	21183
15.31162	19683
15.31973	21804
15.32787	23372
15.33598	20951
15.34410	21853
15.35223	20952
15.36035	21059
15.36848	21248
15.37660	23680
15.38472	22526
15.39285	23735
15.40097	23200
15.40910	24490
15.41722	22996
15.42533	22764
15.43347	23623
15.44158	24836
15.44970	20340
15.45783	21136
15.46595	22806
15.47408	19023
15.48220	19347
15.49032	22499
15.49845	22693
15.50657	21033
15.51470	20149
15.52282	19710
15.53093	20277
15.53907	20561
15.54718	19632
15.55532	24572
15.56343	23554
15.57155	18797
15.57968	21224
15.58780	19138
15.59592	20797
15.60405	22860
15.61217	19220
15.62030	21853
15.62842	22199
15.63653	19347
15.64467	19425
15.65278	22255
15.66092	21775
15.66903	20981
15.67715	18493
15.68528	20338
15.69340	22565
15.70153	20045
15.70965	23275
15.71777	21130
15.72590	22997
15.73402	20283
15.74213	21284
15.75027	21211
15.75838	20566
15.76652	21019
15.77463	22894
15.78275	29299
15.79088	23523
15.79900	20432
15.80713	23189
15.81525	20817
15.82337	21251
15.83150	21452
15.83962	21246
15.84773	22897
15.85587	20578
15.86398	20105
15.87212	19924
15.88023	21090
15.88835	19905
15.89648	19092
15.90460	23050
15.91273	21194
15.92085	22369
15.92897	21275
15.93710	20188
15.94522	22629
15.95335	21090
15.96147	27470
15.96958	25920
15.97772	24654
15.98583	30654
15.99395	33189
16.00208	33989
16.01020	35102
16.01833	35497
16.02645	33860
16.03457	31445
16.04270	28176
16.05082	26543
16.05895	24116
16.06707	25008
16.07518	25745
16.08332	24841
16.09143	24255
16.09955	24458
16.10768	24929
16.11580	22784
16.12393	23170
16.13205	21116
16.14017	24921
16.14830	20940
16.15642	21368
16.16455	24561
16.17267	22073
16.18078	29044
16.18892	20640
16.19703	24281
16.20517	25213
16.21328	21999
16.22140	20959
16.22953	22580
16.23765	25258
16.24577	23960
16.25390	22979
16.26202	23302
16.27015	24210
16.27827	23131
16.28638	23065
16.29452	22778
16.30263	23075
16.31077	23659
16.31888	23798
16.32700	27085
16.33513	24034
16.34325	23708
16.35138	23303
16.35950	23444
16.36762	24308
16.37575	22760
16.38387	23636
16.39198	23346
16.40012	21947
16.40823	21738
16.41637	22580
16.42448	22817
16.43260	22324
16.44073	22842
16.44885	21198
16.45698	21154
16.46510	23633
16.47322	23031
16.48135	21265
16.48947	20428
16.49758	22148
16.50572	21263
16.51383	20309
16.52197	21373
16.53008	21846
16.53820	20692
16.54633	20626
16.55445	19865
16.56258	23280
16.57070	23429
16.57882	26564
16.58695	23410
16.59507	22705
16.60320	22607
16.61132	24084
16.61943	22189
16.62757	21150
16.63568	23612
16.64380	22924
16.65193	23440
16.66005	24498
16.66818	22839
16.67630	22000
16.68442	22173
16.69255	23426
16.70067	21495
16.70880	22203
16.71692	21639
16.72503	21171
16.73317	20972
16.74128	22132
16.74942	24036
16.75753	25082
16.76565	24032
16.77378	22523
16.78190	22882
16.79002	22688
16.79815	21163
16.80627	22654
16.81440	19603
16.82252	23277
16.83063	20313
16.83877	21452
16.84688	30802
16.85502	23546
16.86313	21551
16.87125	20848
16.87938	20754
16.88750	21463
16.89562	22323
16.90375	22799
16.91187	21934
16.92000	22048
16.92812	22105
16.93623	21369
16.94437	22393
16.95248	23623
16.96062	22686
16.96873	21060
16.97685	21999
16.98498	26844
16.99310	23822
17.00123	21806
17.00935	24771
17.01747	27131
17.02560	21545
17.03372	26307
17.04183	21915
17.04997	22697
17.05808	22557
17.06622	20715
17.07433	22161
17.08245	21792
17.09058	20503
17.09870	23116
17.10683	25617
17.11495	23950
17.12307	24000
17.13120	21980
17.13932	24929
17.14743	21444
17.15557	23261
17.16368	24578
17.17182	21429
17.17993	23451
17.18805	24864
17.19618	23146
17.20430	21036
17.21243	22846
17.22055	25395
17.22867	19836
17.23680	21199
17.24492	20713
17.25305	19989
17.26117	26267
17.26928	26018
17.27742	22160
17.28553	21745
17.29365	22724
17.30178	24672
17.30990	22167
17.31803	22905
17.32615	23693
17.33427	24394
17.34240	22567
17.35052	27053
17.35865	24012
17.36677	21938
17.37488	26117
17.38302	25851
17.39113	24382
17.39927	25872
17.40738	24188
17.41550	25930
17.42363	28122
17.43175	25515
17.43987	25943
17.44800	24613
17.45612	22837
17.46425	22622
17.47237	24261
17.48048	24247
17.48862	23798
17.49673	25157
17.50487	25536
17.51298	24669
17.52110	26319
17.52923	29323
17.53735	28785
17.54548	26831
17.55360	28879
17.56172	29694
17.56985	29425
17.57797	26711
17.58608	25935
17.59422	24526
17.60233	25621
17.61047	23615
17.61858	24389
17.62670	24407
17.63483	24317
17.64295	23074
17.65108	24551
17.65920	22484
17.66732	27898
17.67545	26024
17.68357	26020
17.69168	27650
17.69982	29453
17.70793	25568
17.71607	24555
17.72418	23648
17.73230	23617
17.74043	22375
17.74855	24116
17.75668	24054
17.76480	24096
17.77292	24292
17.78105	24729
17.78917	24406
17.79730	26279
17.80542	21266
17.81353	23843
17.82167	22543
17.82978	23807
17.83790	23706
17.84603	25904
17.85415	27072
17.86228	26615
17.87040	22850
17.87852	23912
17.88665	23312
17.89477	23721
17.90290	23731
17.91102	20937
17.91913	24998
17.92727	20940
17.93538	21880
17.94350	22137
17.95163	21579
17.95975	22387
17.96788	22830
17.97600	18957
17.98412	22787
17.99225	24859
18.00037	25459
18.00850	24032
18.01662	24775
18.02473	28386
18.03287	25508
18.04098	27774
18.04912	25293
18.05723	22936
18.06535	23998
18.07348	25004
18.08160	25236
18.08972	23791
18.09785	25771
18.10597	26497
18.11410	25791
18.12222	26334
18.13033	28410
18.13847	26449
18.14658	27420
18.15472	23361
18.16283	23642
18.17095	25083
18.17908	28723
18.18720	24080
18.19533	25429
18.20345	26765
18.21157	29049
18.21970	24688
18.22782	25869
18.23593	26638
18.24407	22205
18.25218	28296
18.26032	24662
18.26843	24915
18.27655	23498
18.28468	24135
18.29280	26190
18.30093	23819
18.30905	28724
18.31717	25762
18.32530	21895
18.33342	23195
18.34153	25238
18.34967	20439
18.35778	23428
18.36592	21532
18.37403	26404
18.38215	25713
18.39028	22372
18.39840	21904
18.40653	21897
18.41465	24993
18.42277	23834
18.43090	26915
18.43902	22269
18.44715	22866
18.45527	22728
18.46338	23215
18.47152	24945
18.47963	22588
18.48775	21880
18.49588	20607
18.50400	24556
18.51213	24545
18.52025	24249
18.52837	25074
18.53650	22100
18.54462	18176
18.55275	22257
18.56087	20007
18.56898	22646
18.57712	23067
18.58523	22966
18.59337	23207
18.60148	21491
18.60960	23454
18.61773	22401
18.62585	25141
18.63397	23288
18.64210	22081
18.65022	23090
18.65835	24994
18.66647	23628
18.67458	22093
18.68272	21596
18.69083	23366
18.69897	20186
18.70708	22984
18.71520	21081
18.72333	21005
18.73145	25261
18.73957	25821
18.74770	25592
18.75582	26626
18.76395	28396
18.77207	27591
18.78018	24273
18.78832	28915
18.79643	28454
18.80457	28379
18.81268	28441
18.82080	30606
18.82893	32350
18.83705	29113
18.84518	27826
18.85330	29260
18.86142	26564
18.86955	29917
18.87767	28822
18.88578	29130
18.89392	29621
18.90203	29331
18.91017	30754
18.91828	30926
18.92640	27634
18.93453	28988
18.94265	30325
18.95078	27960
18.95890	25583
18.96702	28852
18.97515	28309
18.98327	28026
18.99138	26602
18.99952	31138
19.00763	31086
19.01577	27630
19.02388	28917
19.03200	28822
19.04013	28955
19.04825	27353
19.05638	26601
19.06450	27293
19.07262	28744
19.08075	29806
19.08887	29203
19.09700	30720
19.10512	32675
19.11323	31927
19.12137	30617
19.12948	31937
19.13760	31979
19.14573	31825
19.15385	35541
19.16198	29996
19.17010	31259
19.17822	30055
19.18635	29085
19.19447	30127
19.20260	29827
19.21072	26359
19.21883	26065
19.22697	29539
19.23508	25917
19.24322	27491
19.25133	27970
19.25945	29220
19.26758	29102
19.27570	25457
19.28382	26857
19.29195	29005
19.30007	26437
19.30820	29823
19.31632	28833
19.32443	29465
19.33257	29100
19.34068	28622
19.34882	24885
19.35693	28535
19.36505	27771
19.37318	27567
19.38130	25075
19.38942	25180
19.39755	25679
19.40567	26814
19.41380	29425
19.42192	31797
19.43003	40134
19.43817	46622
19.44628	58309
19.45442	64808
19.46253	59005
19.47065	53268
19.47878	44107
19.48690	39246
19.49503	31414
19.50315	30294
19.51127	26181
19.51940	25766
19.52752	29503
19.53563	27204
19.54377	27744
19.55188	28056
19.56002	25471
19.56813	27062
19.57625	26364
19.58438	26813
19.59250	27127
19.60063	25080
19.60875	26260
19.61687	30093
19.62500	32224
19.63312	42750
19.64125	47244
19.64937	57709
19.65748	64096
19.66562	65281
19.67373	58688
19.68185	53761
19.68998	43132
19.69810	40147
19.70623	37503
19.71435	33939
19.72247	34931
19.73060	29549
19.73872	32262
19.74685	29065
19.75497	27306
19.76308	27352
19.77122	28130
19.77933	27604
19.78745	25988
19.79558	29148
19.80370	24736
19.81183	28317
19.81995	24506
19.82807	25162
19.83620	24272
19.84432	28056
19.85245	27127
19.86057	25939
19.86868	27131
19.87682	28338
19.88493	31857
19.89307	38008
19.90118	36625
19.90930	41324
19.91743	41619
19.92555	41568
19.93367	38917
19.94180	42148
19.94992	36247
19.95805	40930
19.96617	38618
19.97428	37340
19.98242	40132
19.99053	36435
19.99867	39263
20.00678	35474
20.01490	34622
20.02303	35838
20.03115	34930
20.03928	32296
20.04740	31857
20.05552	27960
20.06365	29050
20.07177	26159
20.07988	27866
20.08802	26656
20.09613	28269
20.10427	27372
20.11238	27675
20.12050	26224
20.12863	26595
20.13675	27682
20.14488	27558
20.15300	24755
20.16112	23703
20.16925	27404
20.17737	26687
20.18548	28436
20.19362	31146
20.20173	24706
20.20987	26447
20.21798	29968
20.22610	33313
20.23423	35447
20.24235	42625
20.25048	46041
20.25860	50884
20.26672	52150
20.27485	46353
20.28297	44118
20.29110	38162
20.29922	38036
20.30733	39154
20.31547	32261
20.32358	31590
20.33170	27638
20.33983	30206
20.34795	27371
20.35608	27111
20.36420	28222
20.37232	25925
20.38045	26562
20.38857	24855
20.39670	29711
20.40482	30679
20.41293	31193
20.42107	34955
20.42918	33286
20.43730	32208
20.44543	28317
20.45355	26508
20.46168	27309
20.46980	28180
20.47792	25027
20.48605	26514
20.49417	27495
20.50230	24948
20.51042	25635
20.51853	25719
20.52667	23785
20.53478	24498
20.54292	23446
20.55103	23404
20.55915	22115
20.56728	23070
20.57540	23811
20.58352	23017
20.59165	24657
20.59977	25603
20.60790	20459
20.61602	23379
20.62413	26019
20.63227	24350
20.64038	25903
20.64852	23475
20.65663	25889
20.66475	22236
20.67288	24450
20.68100	23164
20.68913	23239
20.69725	23726
20.70537	21996
20.71350	24840
20.72162	22144
20.72973	22835
20.73787	24043
20.74598	23706
20.75412	23919
20.76223	22913
20.77035	24135
20.77848	26974
20.78660	23752
20.79473	24926
20.80285	24991
20.81097	23287
20.81910	21205
20.82722	23225
20.83533	23572
20.84347	24419
20.85158	23845
20.85972	21338
20.86783	23482
20.87595	21628
20.88408	22733
20.89220	20662
20.90033	23437
20.90845	22314
20.91657	22860
20.92470	19939
20.93282	22287
20.94095	21267
20.94907	25365
20.95718	24369
20.96532	24590
20.97343	26428
20.98155	20936
20.98968	22587
20.99780	23289
21.00593	23116
21.01405	23534
21.02217	25580
21.03030	26629
21.03842	23863
21.04655	21004
21.05467	23117
21.06278	24227
21.07092	21606
21.07903	23984
21.08717	22272
21.09528	23274
21.10340	23731
21.11153	21973
21.11965	22636
21.12777	23232
21.13590	23339
21.14402	22323
21.15215	25078
21.16027	20597
21.16838	23444
21.17652	25537
21.18463	20542
21.19277	23957
21.20088	24596
21.20900	23717
21.21713	25667
21.22525	22913
21.23337	24110
21.24150	24339
21.24962	22675
21.25775	26450
21.26587	24908
21.27398	23607
21.28212	24331
21.29023	23275
21.29837	25589
21.30648	25373
21.31460	26443
21.32273	21565
21.33085	23439
21.33898	20720
21.34710	25687
21.35522	24590
21.36335	25381
21.37147	21628
21.37958	23935
21.38772	25783
21.39583	22705
21.40397	21963
21.41208	25754
21.42020	24468
21.42833	23229
21.43645	24450
21.44458	26707
21.45270	26836
21.46082	25837
21.46895	23197
21.47707	22909
21.48518	24999
21.49332	24034
21.50143	25529
21.50957	22966
21.51768	24140
21.52580	23825
21.53393	24842
21.54205	23491
21.55018	23894
21.55830	24891
21.56642	26778
21.57455	27931
21.58267	34501
21.59080	29762
21.59892	30752
21.60703	31813
21.61517	32459
21.62328	29333
21.63140	27964
21.63953	31255
21.64765	29662
21.65578	25495
21.66390	25063
21.67202	26244
21.68015	23535
21.68827	24420
21.69640	24023
21.70452	21584
21.71263	24290
21.72077	25253
21.72888	25908
21.73702	25552
21.74513	26009
21.75325	26565
21.76138	27710
21.76950	23821
21.77762	27121
21.78575	31770
21.79387	33460
21.80200	33593
21.81012	32105
21.81823	31892
21.82637	28965
21.83448	26725
21.84262	28129
21.85073	24823
21.85885	24684
21.86698	23595
21.87510	24409
21.88323	25612
21.89135	25068
21.89947	24706
21.90760	23229
21.91572	23194
21.92383	24347
21.93197	25563
21.94008	21928
21.94822	25121
21.95633	24499
21.96445	25579
21.97258	22650
21.98070	24081
21.98883	19991
21.99695	22185
22.00507	23226
22.01320	29810
22.02132	22641
22.02943	23979
22.03757	21952
22.04568	23372
22.05382	22842
22.06193	25295
22.07005	26652
22.07818	25143
22.08630	27788
22.09443	27839
22.10255	28323
22.11067	27021
22.11880	25526
22.12692	27215
22.13505	26233
22.14317	26385
22.15128	25311
22.15942	24771
22.16753	26992
22.17565	24097
22.18378	22301
22.19190	26481
22.20003	23494
22.20815	26204
22.21627	26076
22.22440	23465
22.23252	26348
22.24065	24466
22.24877	26019
22.25688	25085
22.26502	24456
22.27313	24179
22.28125	22323
22.28938	20827
22.29750	22616
22.30563	25079
22.31375	22607
22.32187	24267
22.33000	23814
22.33812	25447
22.34625	27300
22.35437	27272
22.36248	25803
22.37062	24327
22.37873	26189
22.38687	25807
22.39498	24613
22.40310	24187
22.41123	21398
22.41935	24467
22.42747	23905
22.43560	22038
22.44372	22983
22.45185	22275
22.45997	24449
22.46808	26552
22.47622	22041
22.48433	24198
22.49247	24919
22.50058	23641
22.50870	22357
22.51683	21290
22.52495	23028
22.53308	23318
22.54120	24073
22.54932	24237
22.55745	23568
22.56557	23082
22.57368	23607
22.58182	24495
22.58993	22608
22.59807	23805
22.60618	22061
22.61430	25073
22.62243	24562
22.63055	19538
22.63868	22055
22.64680	23441
22.65492	22076
22.66305	23187
22.67117	24131
22.67928	25661
22.68742	24241
22.69553	24233
22.70367	22882
22.71178	23587
22.71990	20962
22.72803	24403
22.73615	22798
22.74428	22091
22.75240	24494
22.76052	22400
22.76865	22984
22.77677	22676
22.78490	22872
22.79302	23605
22.80113	22532
22.80927	21965
22.81738	23547
22.82550	20447
22.83363	23220
22.84175	22557
22.84988	21394
22.85800	26360
22.86612	22635
22.87425	28434
22.88237	23538
22.89050	25415
22.89862	27051
22.90673	29295
22.91487	33900
22.92298	33383
22.93112	37885
22.93923	38311
22.94735	38567
22.95548	39612
22.96360	39650
22.97172	35640
22.97985	34759
22.98797	37545
22.99610	32628
23.00422	35616
23.01233	32156
23.02047	28863
23.02858	27361
23.03672	27019
23.04483	28075
23.05295	28892
23.06108	28414
23.06920	27721
23.07732	28700
23.08545	27365
23.09357	23379
23.10170	26323
23.10982	26782
23.11793	25003
23.12607	27162
23.13418	25819
23.14232	24016
23.15043	25189
23.15855	25836
23.16668	24798
23.17480	25634
23.18293	26812
23.19105	24079
23.19917	28218
23.20730	25306
23.21542	25411
23.22353	26441
23.23167	23529
23.23978	25520
23.24792	26618
23.25603	26874
23.26415	26292
23.27228	24043
23.28040	25807
23.28853	24033
23.29665	24158
23.30477	21573
23.31290	24410
23.32102	22645
23.32913	24444
23.33727	23745
23.34538	23466
23.35352	24565
23.36163	26104
23.36975	25245
23.37788	23396
23.38600	23674
23.39413	26950
23.40225	25909
23.41037	25936
23.41850	23299
23.42662	27236
23.43475	23040
23.44287	25316
23.45098	27639
23.45912	28247
23.46723	22722
23.47535	25647
23.48348	23266
23.49160	26142
23.49973	22886
23.50785	23422
23.51597	24339
23.52410	24455
23.53222	24784
23.54035	23282
23.54847	25326
23.55658	25606
23.56472	23451
23.57283	26178
23.58097	27633
23.58908	24981
23.59720	28891
23.60533	26307
23.61345	25383
23.62157	24539
23.62970	27209
23.63782	24438
23.64595	25540
23.65407	25625
23.66218	28015
23.67032	27482
23.67843	31622
23.68657	26038
23.69468	28685
23.70280	28225
23.71093	28582
23.71905	27731
23.72717	36603
23.73530	55562
23.74342	102759
23.75155	213428
23.75967	458840
23.76778	840469
23.77592	1394966
23.78403	1784843
23.79217	1848381
23.80028	1611786
23.80840	1309147
23.81653	984658
23.82465	751636
23.83278	566933
23.84090	440097
23.84902	353414
23.85715	285944
23.86527	236480
23.87338	199941
23.88152	186668
23.88963	171487
23.89777	151886
23.90588	132740
23.91400	124301
23.92213	113154
23.93025	111767
23.93838	112046
23.94650	95300
23.95462	92368
23.96275	89127
23.97087	83912
23.97900	84183
23.98712	80911
23.99523	74102
24.00337	72369
24.01148	69170
24.01960	66837
24.02773	67515
24.03585	62223
24.04398	63537
24.05210	61028
24.06022	63647
24.06835	60768
24.07647	64231
24.08460	56286
24.09272	53610
24.10083	55804
24.10897	54610
24.11708	50646
24.12520	48543
24.13333	51761
24.14145	52863
24.14958	49614
24.15770	53398
24.16582	48164
24.17395	52745
24.18207	52066
24.19020	48405
24.19832	50115
24.20643	48929
24.21457	44656
24.22268	47027
24.23082	44497
24.23893	45437
24.24705	47607
24.25518	44655
24.26330	43852
24.27142	42647
24.27955	42587
24.28767	40399
24.29580	42135
24.30392	44246
24.31203	48191
24.32017	54952
24.32828	66138
24.33642	62707
24.34453	60136
24.35265	56347
24.36078	50615
24.36890	43182
24.37703	38488
24.38515	38694
24.39327	39502
24.40140	39197
24.40952	38197
24.41763	37114
24.42577	35986
24.43388	39533
24.44202	40652
24.45013	42928
24.45825	41140
24.46638	38407
24.47450	39957
24.48263	37960
24.49075	35070
24.49887	35096
24.50700	35068
24.51512	36579
24.52323	34049
24.53137	35701
24.53948	35068
24.54762	33510
24.55573	35343
24.56385	31064
24.57198	31645
24.58010	32915
24.58823	31498
24.59635	31840
24.60447	30969
24.61260	32091
24.62072	32138
24.62885	31015
24.63697	32089
24.64508	36310
24.65322	34259
24.66133	31271
24.66945	29751
24.67758	33329
24.68570	31112
24.69383	32878
24.70195	30769
24.71007	30696
24.71820	29952
24.72632	29840
24.73445	29132
24.74257	29434
24.75068	33184
24.75882	30001
24.76693	32379
24.77505	29809
24.78318	28774
24.79130	29105
24.79943	32542
24.80755	30312
24.81567	29237
24.82380	35087
24.83192	29189
24.84005	28341
24.84817	29534
24.85628	27546
24.86442	30013
24.87253	29253
24.88067	28791
24.88878	28579
24.89690	33338
24.90503	25161
24.91315	30368
24.92127	27516
24.92940	27684
24.93752	30112
24.94565	31330
24.95377	26543
24.96188	27572
24.97002	30462
24.97813	28410
24.98627	25062
24.99438	26604
25.00250	26824
25.01063	27178
25.01875	28610
25.02688	26826
25.03500	26800
25.04312	26785
25.05125	26659
25.05937	26478
25.06748	28806
25.07562	25534
25.08373	28603
25.09187	29083
25.09998	27951
25.10810	29303
25.11623	28663
25.12435	26729
25.13248	32617
25.14060	29958
25.14872	28655
25.15685	29060
25.16497	31496
25.17308	29830
25.18122	32427
25.18933	28480
25.19747	28470
25.20558	25376
25.21370	24209
25.22183	26768
25.22995	29113
25.23808	23557
25.24620	25243
25.25432	30640
25.26245	27854
25.27057	25864
25.27870	28659
25.28682	29836
25.29493	28896
25.30307	28949
25.31118	35131
25.31930	32754
25.32743	32700
25.33555	33454
25.34368	30613
25.35180	30258
25.35992	25885
25.36805	27652
25.37617	27372
25.38430	26529
25.39242	29829
25.40053	25363
25.40867	28771
25.41678	24315
25.42492	26282
25.43303	27520
25.44115	24079
25.44928	26130
25.45740	27593
25.46552	24687
25.47365	24071
25.48177	26358
25.48990	28177
25.49802	26824
25.50613	26502
25.51427	27670
25.52238	27897
25.53052	26433
25.53863	25451
25.54675	23531
25.55488	21404
25.56300	26809
25.57112	23690
25.57925	23739
25.58737	25749
25.59550	25786
25.60362	23777
25.61173	26415
25.61987	25034
25.62798	25294
25.63612	27708
25.64423	24553
25.65235	26148
25.66048	25917
25.66860	24965
25.67673	23523
25.68485	24155
25.69297	24577
25.70110	24105
25.70922	28183
25.71733	24341
25.72547	25583
25.73358	24706
25.74172	27061
25.74983	22768
25.75795	25984
25.76608	21425
25.77420	24734
25.78233	26232
25.79045	23014
25.79857	25953
25.80670	26533
25.81482	23916
25.82293	26251
25.83107	25197
25.83918	22318
25.84732	23289
25.85543	26666
25.86355	23353
25.87168	25438
25.87980	23677
25.88793	23639
25.89605	23796
25.90417	25587
25.91230	25619
25.92042	23430
25.92855	25197
25.93667	21890
25.94478	22990
25.95292	25451
25.96103	23746
25.96915	25021
25.97728	26043
25.98540	23217
25.99353	25727
26.00165	21919
26.00977	22489
26.01790	23901
26.02602	25362
26.03415	23692
26.04227	23237
26.05038	21571
26.05852	24105
26.06663	21488
26.07477	23294
26.08288	23012
26.09100	23221
26.09913	24405
26.10725	23656
26.11537	24844
26.12350	24646
26.13162	25915
26.13975	25593
26.14787	28214
26.15598	29208
26.16412	27968
26.17223	27105
26.18037	25717
26.18848	25761
26.19660	25182
26.20473	24684
26.21285	23832
26.22098	24831
26.22910	21575
26.23722	22551
26.24535	22353
26.25347	20177
26.26158	23424
26.26972	22481
26.27783	21465
26.28597	23729
26.29408	22632
26.30220	23496
26.31033	25645
26.31845	23785
26.32658	22048
26.33470	21739
26.34282	26253
26.35095	22241
26.35907	23131
26.36718	26337
26.37532	22590
26.38343	21552
26.39157	20216
26.39968	24575
26.40780	23438
26.41593	22425
26.42405	22528
26.43218	21135
26.44030	20405
26.44842	21806
26.45655	24429
26.46467	23349
26.47280	26709
26.48092	24998
26.48903	23084
26.49717	23449
26.50528	24536
26.51340	22843
26.52153	24173
26.52965	20434
26.53778	24520
26.54590	23448
26.55402	21304
26.56215	23752
26.57027	21791
26.57840	23385
26.58652	24748
26.59463	21276
26.60277	19912
26.61088	21399
26.61900	22929
26.62713	22515
26.63525	22095
26.64338	22118
26.65150	23295
26.65962	23547
26.66775	23817
26.67587	22888
26.68400	22818
26.69212	24973
26.70023	22608
26.70837	24013
26.71648	22297
26.72462	23996
26.73273	25962
26.74085	23156
26.74898	23847
26.75710	23332
26.76522	23884
26.77335	24294
26.78147	24762
26.78960	25357
26.79772	25032
26.80583	27172
26.81397	21496
26.82208	27765
26.83022	24809
26.83833	24604
26.84645	21813
26.85458	24396
26.86270	24272
26.87083	21948
26.87895	22754
26.88707	24601
26.89520	23976
26.90332	23425
26.91143	26599
26.91957	24495
26.92768	24577
26.93582	26280
26.94393	36844
26.95205	44604
26.96018	69922
26.96830	105901
26.97643	159868
26.98455	218774
26.99267	261128
27.00080	277384
27.00892	288411
27.01703	248071
27.02517	235500
27.03328	185621
27.04142	154499
27.04953	119033
27.05765	98688
27.06578	87060
27.07390	76696
27.08203	65639
27.09015	58947
27.09827	53019
27.10640	47944
27.11452	48053
27.12265	45806
27.13077	45556
27.13888	45775
27.14702	44862
27.15513	40935
27.16325	42199
27.17138	40344
27.17950	38555
27.18763	36317
27.19575	41386
27.20387	37239
27.21200	36873
27.22012	32986
27.22825	34911
27.23637	32834
27.24448	33413
27.25262	33319
27.26073	34743
27.26887	30623
27.27698	32553
27.28510	30197
27.29323	33558
27.30135	29780
27.30947	28226
27.31760	32836
27.32572	28130
27.33385	29665
27.34197	27641
27.35008	28448
27.35822	28292
27.36633	30202
27.37447	30858
27.38258	33038
27.39070	26930
27.39883	30326
27.40695	28340
27.41507	30534
27.42320	28320
27.43132	27727
27.43945	26913
27.44757	28821
27.45568	32513
27.46382	28362
27.47193	27362
27.48007	25763
27.48818	29177
27.49630	25277
27.50443	28386
27.51255	26403
27.52068	28231
27.52880	28897
27.53692	26802
27.54505	26916
27.55317	26313
27.56128	24852
27.56942	31137
27.57753	25264
27.58567	30226
27.59378	24745
27.60190	23986
27.61003	23883
27.61815	23778
27.62628	27481
27.63440	22017
27.64252	25273
27.65065	24490
27.65877	22133
27.66688	27621
27.67502	25904
27.68313	23331
27.69127	25512
27.69938	26372
27.70750	26286
27.71563	23182
27.72375	24734
27.73188	26300
27.74000	26215
27.74812	25096
27.75625	27311
27.76437	25047
27.77250	24570
27.78062	25042
27.78873	26326
27.79687	24883
27.80498	23252
27.81310	25788
27.82123	26722
27.82935	24200
27.83748	25482
27.84560	23526
27.85372	24571
27.86185	25649
27.86997	25718
27.87810	25180
27.88622	26431
27.89433	24116
27.90247	25208
27.91058	24924
27.91872	24093
27.92683	25045
27.93495	23680
27.94308	24166
27.95120	22188
27.95932	24471
27.96745	24026
27.97557	24192
27.98370	23617
27.99182	24344
27.99993	24727
28.00807	25026
28.01618	25713
28.02432	25583
28.03243	22540
28.04055	22806
28.04868	27280
28.05680	24622
28.06492	26057
28.07305	25040
28.08117	29265
28.08930	28663
28.09742	29302
28.10553	28611
28.11367	27641
28.12178	28494
28.12992	30209
28.13803	34746
28.14615	26035
28.15428	24187
28.16240	31585
28.17053	24640
28.17865	23591
28.18677	21030
28.19490	23296
28.20302	25041
28.21113	22321
28.21927	22886
28.22738	22608
28.23552	23215
28.24363	24662
28.25175	27064
28.25988	32900
28.26800	39625
28.27613	53325
28.28425	65185
28.29237	77701
28.30050	87450
28.30862	94400
28.31675	101418
28.32487	94666
28.33298	94382
28.34112	94936
28.34923	86149
28.35735	81922
28.36548	82111
28.37360	71052
28.38173	68731
28.38985	56349
28.39797	54665
28.40610	50894
28.41422	46234
28.42235	41744
28.43047	40763
28.43858	40067
28.44672	34769
28.45483	37881
28.46295	34336
28.47108	35758
28.47920	32509
28.48733	35848
28.49545	32019
28.50357	32655
28.51170	34772
28.51982	33798
28.52795	29731
28.53607	32402
28.54418	30462
28.55232	33257
28.56043	32520
28.56857	32690
28.57668	29935
28.58480	30353
28.59293	29777
28.60105	29928
28.60917	28933
28.61730	24333
28.62542	27232
28.63355	27740
28.64167	31208
28.64978	32359
28.65792	33815
28.66603	30714
28.67417	36561
28.68228	37278
28.69040	42620
28.69853	43571
28.70665	41262
28.71477	37108
28.72290	36537
28.73102	33299
28.73915	33117
28.74727	26891
28.75538	27980
28.76352	26987
28.77163	26902
28.77977	26062
28.78788	24917
28.79600	23363
28.80413	24955
28.81225	26724
28.82038	25866
28.82850	23722
28.83662	23119
28.84475	23263
28.85287	25898
28.86098	25985
28.86912	27845
28.87723	24959
28.88537	26831
28.89348	29525
28.90160	24986
28.90973	24531
28.91785	26639
28.92598	26782
28.93410	26512
28.94222	26479
28.95035	25406
28.95847	24297
28.96660	28694
28.97472	29539
28.98283	29087
28.99097	25731
28.99908	28599
29.00720	27490
29.01533	26598
29.02345	25265
29.03158	25618
29.03970	24755
29.04782	24905
29.05595	23942
29.06407	26374
29.07220	27881
29.08032	26445
29.08843	26959
29.09657	24116
29.10468	27680
29.11280	24771
29.12093	23888
29.12905	24791
29.13718	26161
29.14530	23887
29.15342	27780
29.16155	26868
29.16967	26231
29.17780	23769
29.18592	26212
29.19403	26087
29.20217	25030
29.21028	24058
29.21842	25390
29.22653	23057
29.23465	27229
29.24278	26942
29.25090	23234
29.25902	29012
29.26715	23334
29.27527	25299
29.28340	23443
29.29152	28776
29.29963	25393
29.30777	23728
29.31588	24530
29.32402	25160
29.33213	26929
29.34025	25359
29.34838	23553
29.35650	24370
29.36463	23934
29.37275	21889
29.38087	26840
29.38900	26584
29.39712	26501
29.40523	28448
29.41337	24139
29.42148	25528
29.42962	25688
29.43773	24313
29.44585	23960
29.45398	21958
29.46210	24133
29.47023	23756
29.47835	25660
29.48647	26682
29.49460	22927
29.50272	29429
29.51083	27413
29.51897	23992
29.52708	25815
29.53522	25497
29.54333	22413
29.55145	27710
29.55958	25788
29.56770	24278
29.57583	27340
29.58395	25174
29.59207	25773
29.60020	27429
29.60832	23571
29.61645	23724
29.62457	23388
29.63268	23234
29.64082	23809
29.64893	25607
29.65705	23826
29.66518	26849
29.67330	24757
29.68143	22452
29.68955	23721
29.69767	25980
29.70580	23562
29.71392	24065
29.72205	25651
29.73017	27309
29.73828	21856
29.74642	26737
29.75453	24166
29.76267	27323
29.77078	25057
29.77890	25123
29.78703	23595
29.79515	22662
29.80327	27087
29.81140	23297
29.81952	21058
29.82765	22999
29.83577	23791
29.84388	23566
29.85202	26575
29.86013	24341
29.86827	26063
29.87638	29774
29.88450	30156
29.89263	33817
29.90075	39552
29.90887	46914
29.91700	48669
29.92512	51918
29.93325	49428
29.94137	51190
29.94948	55265
29.95762	53841
29.96573	54014
29.97387	53303
29.98198	51712
29.99010	52016
29.99823	48943
30.00635	48542
30.01448	45878
30.02260	42922
30.03072	42382
30.03885	37566
30.04697	42145
30.05508	41193
30.06322	37313
30.07133	34084
30.07947	31888
30.08758	35695
30.09570	33852
30.10383	34165
30.11195	31354
30.12008	33823
30.12820	32414
30.13632	30130
30.14445	33928
30.15257	31554
30.16068	35580
30.16882	27513
30.17693	26412
30.18507	28181
30.19318	27672
30.20130	27878
30.20943	26890
30.21755	25773
30.22568	28706
30.23380	28414
30.24192	35048
30.25005	30113
30.25817	27268
30.26630	24867
30.27442	29227
30.28253	26371
30.29067	28795
30.29878	25760
30.30690	25592
30.31503	26076
30.32315	27709
30.33128	26924
30.33940	27558
30.34752	28527
30.35565	26713
30.36377	25169
30.37190	27338
30.38002	24567
30.38813	26087
30.39627	23327
30.40438	24823
30.41252	25528
30.42063	29477
30.42875	27762
30.43688	30216
30.44500	22576
30.45312	25429
30.46125	25546
30.46937	26573
30.47750	26765
30.48562	27419
30.49373	25265
30.50187	26331
30.50998	26080
30.51812	25589
30.52623	24340
30.53435	26575
30.54248	26233
30.55060	26224
30.55872	26548
30.56685	25345
30.57497	27608
30.58310	27494
30.59122	23795
30.59933	27772
30.60747	24330
30.61558	24213
30.62372	21564
30.63183	24117
30.63995	25718
30.64808	25936
30.65620	26264
30.66433	26662
30.67245	22694
30.68057	25928
30.68870	25443
30.69682	25025
30.70493	25215
30.71307	23786
30.72118	21960
30.72932	25495
30.73743	25545
30.74555	24646
30.75368	23965
30.76180	23748
30.76993	25684
30.77805	24568
30.78617	26367
30.79430	27587
30.80242	23377
30.81055	26245
30.81867	26864
30.82678	28919
30.83492	24913
30.84303	29850
30.85115	26207
30.85928	25778
30.86740	24301
30.87553	22849
30.88365	22637
30.89177	26807
30.89990	25471
30.90802	27284
30.91615	26098
30.92427	25190
30.93238	26159
30.94052	24251
30.94863	25002
30.95675	26467
30.96488	24094
30.97300	21313
30.98113	25505
30.98925	24378
30.99737	25278
31.00550	23838
31.01362	25639
31.02175	24460
31.02987	25318
31.03798	24414
31.04612	24511
31.05423	24133
31.06237	23563
31.07048	24764
31.07860	26067
31.08673	29572
31.09485	29313
31.10297	28348
31.11110	26735
31.11922	27300
31.12735	24642
31.13547	26168
31.14358	30917
31.15172	30129
31.15983	29900
31.16797	37968
31.17608	52160
31.18420	65411
31.19233	84096
31.20045	103905
31.20857	114551
31.21670	108547
31.22482	96304
31.23295	79488
31.24107	59564
31.24918	45000
31.25732	36677
31.26543	32699
31.27357	32095
31.28168	29806
31.28980	26361
31.29793	27641
31.30605	27460
31.31418	28803
31.32230	28170
31.33042	27828
31.33855	28558
31.34667	26526
31.35478	24778
31.36292	24852
31.37103	25687
31.37917	22752
31.38728	25394
31.39540	25456
31.40353	25967
31.41165	27252
31.41978	30143
31.42790	25234
31.43602	28183
31.44415	27329
31.45227	29319
31.46040	24431
31.46852	25462
31.47663	25622
31.48477	27744
31.49288	25886
31.50100	26772
31.50913	28850
31.51725	27606
31.52538	24112
31.53350	26160
31.54162	24536
31.54975	25640
31.55787	22625
31.56600	24421
31.57412	22861
31.58223	27936
31.59037	26945
31.59848	23643
31.60662	25286
31.61473	25918
31.62285	28059
31.63098	25664
31.63910	27120
31.64722	25564
31.65535	25874
31.66347	26608
31.67160	25040
31.67972	27805
31.68783	26416
31.69597	25988
31.70408	23128
31.71222	24458
31.72033	25424
31.72845	27261
31.73658	29490
31.74470	26116
31.75282	31931
31.76095	25795
31.76907	28699
31.77720	24829
31.78532	26245
31.79343	27765
31.80157	29929
31.80968	26403
31.81782	27582
31.82593	30435
31.83405	32711
31.84218	37598
31.85030	38617
31.85843	43987
31.86655	50850
31.87467	49454
31.88280	48082
31.89092	44990
31.89903	45715
31.90717	45441
31.91528	42344
31.92342	44106
31.93153	38186
31.93965	38557
31.94778	39076
31.95590	38142
31.96403	35829
31.97215	36476
31.98027	38779
31.98840	36273
31.99652	38448
32.00463	34161
32.01277	37454
32.02088	33695
32.02902	30044
32.03713	33661
32.04525	30489
32.05338	29967
32.06150	32242
32.06963	29961
32.07775	30962
32.08587	30024
32.09400	29279
32.10212	30369
32.11025	25618
32.11837	30355
32.12648	27166
32.13462	27336
32.14273	28109
32.15085	25547
32.15898	28663
32.16710	33087
32.17523	29977
32.18335	26397
32.19147	29244
32.19960	26860
32.20772	27078
32.21585	27379
32.22397	27968
32.23208	28782
32.24022	27868
32.24833	27361
32.25647	28650
32.26458	26512
32.27270	26640
32.28083	28612
32.28895	28314
32.29707	30893
32.30520	29278
32.31332	26166
32.32145	29250
32.32957	29229
32.33768	29013
32.34582	26551
32.35393	27878
32.36207	29065
32.37018	30080
32.37830	27071
32.38643	29329
32.39455	29647
32.40267	26451
32.41080	27404
32.41892	27523
32.42705	26661
32.43517	28460
32.44328	29344
32.45142	27391
32.45953	27136
32.46767	28581
32.47578	25431
32.48390	25770
32.49203	27542
32.50015	28325
32.50828	27732
32.51640	26924
32.52452	25942
32.53265	28566
32.54077	28218
32.54888	28724
32.55702	29306
32.56513	33056
32.57327	33824
32.58138	37457
32.58950	37676
32.59763	36197
32.60575	35625
32.61388	34284
32.62200	31549
32.63012	30371
32.63825	30142
32.64637	29033
32.65450	24835
32.66262	26711
32.67073	26319
32.67887	29592
32.68698	27867
32.69510	28527
32.70323	30562
32.71135	25206
32.71948	33100
32.72760	28672
32.73572	25984
32.74385	28858
32.75197	30802
32.76010	28745
32.76822	27743
32.77633	29447
32.78447	25938
32.79258	32370
32.80070	28608
32.80883	29320
32.81695	24683
32.82508	26751
32.83320	28137
32.84132	28416
32.84945	26578
32.85757	25958
32.86570	30060
32.87382	27484
32.88193	29129
32.89007	27894
32.89818	29637
32.90632	29153
32.91443	29887
32.92255	28770
32.93068	27743
32.93880	28383
32.94692	29228
32.95505	27368
32.96317	27671
32.97130	30902
32.97942	29714
32.98753	28871
32.99567	29885
33.00378	29048
33.01192	29087
33.02003	27615
33.02815	26809
33.03628	30118
33.04440	29079
33.05252	26851
33.06065	25452
33.06877	28887
33.07690	31149
33.08502	32805
33.09313	34863
33.10127	34544
33.10938	37574
33.11752	39105
33.12563	36290
33.13375	34957
33.14188	31020
33.15000	35137
33.15813	30106
33.16625	29590
33.17437	30088
33.18250	30065
33.19062	27601
33.19873	28332
33.20687	28057
33.21498	29551
33.22312	25145
33.23123	27267
33.23935	28321
33.24748	27327
33.25560	27384
33.26373	28287
33.27185	28954
33.27997	29016
33.28810	26939
33.29622	29255
33.30435	31181
33.31247	27922
33.32058	28491
33.32872	30734
33.33683	29854
33.34495	26498
33.35308	26160
33.36120	28668
33.36933	28488
33.37745	27879
33.38557	26707
33.39370	30148
33.40182	29582
33.40995	28177
33.41807	28087
33.42618	26705
33.43432	27608
33.44243	30902
33.45055	28202
33.45868	31403
33.46680	27450
33.47493	26860
33.48305	28321
33.49117	28431
33.49930	27386
33.50742	28689
33.51555	33803
33.52367	33114
33.53178	29185
33.53992	28242
33.54803	27411
33.55617	33711
33.56428	31285
33.57240	29382
33.58053	31064
33.58865	24663
33.59677	27939
33.60490	28827
33.61302	28285
33.62115	33392
33.62927	32598
33.63738	29838
33.64552	30478
33.65363	32554
33.66177	31305
33.66988	27778
33.67800	31751
33.68613	32762
33.69425	34925
33.70238	35435
33.71050	34013
33.71862	36043
33.72675	32552
33.73487	34575
33.74298	33035
33.75112	33071
33.75923	34982
33.76737	33757
33.77548	34472
33.78360	39005
33.79173	35543
33.79985	33493
33.80798	34234
33.81610	34948
33.82422	31572
33.83235	35361
33.84047	34458
33.84858	36201
33.85672	33839
33.86483	37273
33.87297	34492
33.88108	31559
33.88920	31267
33.89733	34632
33.90545	30922
33.91358	32710
33.92170	33502
33.92982	30920
33.93795	31601
33.94607	31534
33.95420	37330
33.96232	32144
33.97043	31399
33.97857	33554
33.98668	31941
33.99480	33760
34.00293	32553
34.01105	32525
34.01918	32992
34.02730	31912
34.03542	30125
34.04355	32010
34.05167	30382
34.05980	32963
34.06792	28685
34.07603	33833
34.08417	32452
34.09228	33135
34.10042	32291
34.10853	32698
34.11665	32199
34.12478	34322
34.13290	31379
34.14102	30275
34.14915	30237
34.15727	28571
34.16540	30058
34.17352	32767
34.18163	31941
34.18977	30752
34.19788	31284
34.20602	30719
34.21413	30683
34.22225	31049
34.23038	32853
34.23850	35509
34.24662	29424
34.25475	30975
34.26287	33301
34.27100	32108
34.27912	33242
34.28723	33252
34.29537	29586
34.30348	34166
34.31162	31367
34.31973	32744
34.32785	31260
34.33598	30346
34.34410	31954
34.35223	29846
34.36035	32067
34.36847	31731
34.37660	32758
34.38472	34104
34.39283	35652
34.40097	30677
34.40908	32786
34.41722	32934
34.42533	33565
34.43345	35517
34.44158	42686
34.44970	44789
34.45783	49277
34.46595	53504
34.47407	54961
34.48220	55908
34.49032	59989
34.49843	58486
34.50657	54287
34.51468	54026
34.52282	50434
34.53093	49051
34.53905	47480
34.54718	44298
34.55530	45579
34.56343	47111
34.57155	45004
34.57967	43638
34.58780	43355
34.59592	44990
34.60405	41559
34.61217	44289
34.62028	40590
34.62842	37179
34.63653	43367
34.64465	39588
34.65278	43278
34.66090	39314
34.66903	40032
34.67715	39222
34.68527	33947
34.69340	36247
34.70152	36718
34.70965	36257
34.71777	40427
34.72588	37194
34.73402	37074
34.74213	35252
34.75027	35280
34.75838	33753
34.76650	38302
34.77463	35360
34.78275	34717
34.79087	34204
34.79900	33222
34.80712	35371
34.81525	33250
34.82337	35901
34.83148	33647
34.83962	33785
34.84773	34725
34.85587	32848
34.86398	33241
34.87210	35262
34.88023	33753
34.88835	35391
34.89647	36472
34.90460	36201
34.91272	36690
34.92085	36467
34.92897	34421
34.93708	37123
34.94522	35755
34.95333	34478
34.96147	34245
34.96958	34041
34.97770	34942
34.98583	34747
34.99395	35570
35.00208	36174
35.01020	34855
35.01832	36687
35.02645	36917
35.03457	36982
35.04268	40156
35.05082	34267
35.05893	34339
35.06707	35557
35.07518	35994
35.08330	33246
35.09143	35458
35.09955	37259
35.10768	32439
35.11580	33390
35.12392	33452
35.13205	34883
35.14017	33577
35.14830	39948
35.15642	34860
35.16453	36432
35.17267	36195
35.18078	35570
35.18890	35494
35.19703	32265
35.20515	34365
35.21328	32984
35.22140	39733
35.22952	35212
35.23765	36115
35.24577	37480
35.25390	32927
35.26202	36936
35.27013	34964
35.27827	37121
35.28638	32779
35.29450	36609
35.30263	34321
35.31075	36950
35.31888	33915
35.32700	35545
35.33512	36980
35.34325	34207
35.35137	37451
35.35950	35357
35.36762	33454
35.37573	37122
35.38387	38408
35.39198	40465
35.40012	36730
35.40823	41951
35.41635	40355
35.42448	39056
35.43260	37957
35.44072	38002
35.44885	40087
35.45697	36969
35.46510	38882
35.47322	42388
35.48133	41353
35.48947	39460
35.49758	39019
35.50572	42374
35.51383	34291
35.52195	39403
35.53008	39205
35.53820	40752
35.54632	39098
35.55445	39321
35.56257	43125
35.57070	44238
35.57882	44080
35.58693	42374
35.59507	42256
35.60318	43351
35.61132	39860
35.61943	40422
35.62755	41567
35.63568	42153
35.64380	41598
35.65193	39730
35.66005	38505
35.66817	43085
35.67630	42342
35.68442	42674
35.69253	40447
35.70067	41413
35.70878	38853
35.71692	38008
35.72503	40885
35.73315	39668
35.74128	39641
35.74940	37388
35.75753	40585
35.76565	40164
35.77377	40820
35.78190	39840
35.79002	41903
35.79815	41847
35.80627	38984
35.81438	41299
35.82252	46674
35.83063	39887
35.83875	43659
35.84688	41971
35.85500	45882
35.86313	42108
35.87125	44593
35.87937	40468
35.88750	41803
35.89562	40866
35.90375	43946
35.91187	43843
35.91998	41815
35.92812	43919
35.93623	42893
35.94435	44457
35.95248	41595
35.96060	46010
35.96873	47266
35.97685	46423
35.98497	42170
35.99310	48633
36.00122	48758
36.00935	47393
36.01747	52974
36.02558	48689
36.03372	46116
36.04183	47190
36.04997	50100
36.05808	50848
36.06620	51991
36.07433	47908
36.08245	46868
36.09057	47413
36.09870	44800
36.10682	50094
36.11495	48380
36.12307	47304
36.13118	44513
36.13932	48086
36.14743	49057
36.15557	49027
36.16368	52232
36.17180	50457
36.17993	51627
36.18805	49212
36.19618	54584
36.20430	51986
36.21242	56915
36.22055	54890
36.22867	64045
36.23678	62325
36.24492	65320
36.25303	61084
36.26117	55945
36.26928	53053
36.27740	51656
36.28553	49204
36.29365	50702
36.30178	45798
36.30990	52928
36.31802	50162
36.32615	52466
36.33427	55439
36.34238	46507
36.35052	53069
36.35863	49123
36.36677	46971
36.37488	52881
36.38300	56162
36.39113	46044
36.39925	48300
36.40738	52857
36.41550	48741
36.42362	49320
36.43175	49595
36.43987	47113
36.44800	49532
36.45612	51759
36.46423	52727
36.47237	49982
36.48048	50411
36.48860	53895
36.49673	52782
36.50485	52347
36.51298	51779
36.52110	51323
36.52922	51461
36.53735	47580
36.54547	50337
36.55360	52493
36.56172	54974
36.56983	55516
36.57797	54581
36.58608	54369
36.59420	53271
36.60233	52620
36.61045	51639
36.61858	52330
36.62670	54639
36.63482	51684
36.64295	51653
36.65107	51552
36.65920	54326
36.66732	53372
36.67543	52438
36.68357	49872
36.69168	50084
36.69982	51726
36.70793	55101
36.71605	52700
36.72418	53222
36.73230	54687
36.74042	53663
36.74855	59999
36.75667	50190
36.76480	50186
36.77292	48983
36.78103	52848
36.78917	52989
36.79728	50744
36.80542	54878
36.81353	46705
36.82165	53550
36.82978	51888
36.83790	51090
36.84603	50151
36.85415	51967
36.86227	49388
36.87040	49332
36.87852	55724
36.88663	48817
36.89477	49108
36.90288	49857
36.91102	54545
36.91913	52659
36.92725	55338
36.93538	53257
36.94350	50304
36.95163	51807
36.95975	53114
36.96787	51959
36.97600	55359
36.98412	52216
36.99225	51532
37.00037	51498
37.00848	55481
37.01662	56995
37.02473	53174
37.03285	53334
37.04098	57091
37.04910	51453
37.05723	53813
37.06535	58168
37.07347	53263
37.08160	55177
37.08972	52574
37.09785	56797
37.10597	59422
37.11408	61347
37.12222	51706
37.13033	57405
37.13845	54052
37.14658	57207
37.15470	55308
37.16283	55148
37.17095	54513
37.17907	55104
37.18720	53193
37.19532	58598
37.20345	58021
37.21157	59896
37.21968	59055
37.22782	57293
37.23593	62212
37.24407	64153
37.25218	68903
37.26030	74244
37.26843	76335
37.27655	79087
37.28467	76877
37.29280	77829
37.30092	71364
37.30905	71607
37.31717	69906
37.32528	72130
37.33342	61367
37.34153	60260
37.34967	61601
37.35778	64357
37.36590	68777
37.37403	60495
37.38215	59466
37.39027	60724
37.39840	54609
37.40652	56740
37.41465	60828
37.42277	61825
37.43088	64368
37.43902	58567
37.44713	59497
37.45527	62005
37.46338	57281
37.47150	59322
37.47963	62989
37.48775	62542
