Z:\data\JTB-E02\BACandBLUE\JTB-E02-195-13.D Wed Feb 20 16:03:53 2019
Start of data points
2.09530,142276
2.10342,153676
2.11153,143873
2.11967,138891
2.12778,138314
2.13590,139651
2.14403,139253
2.15215,135314
2.16028,128019
2.16840,129702
2.17652,120878
2.18465,114412
2.19277,120301
2.20090,112242
2.20902,114312
2.21713,110762
2.22527,107669
2.23338,101215
2.24150,98030
2.24963,100292
2.25775,99840
2.26588,214032
2.27400,899008
2.28212,1854214
2.29025,1727083
2.29837,934838
2.30650,601208
2.31462,509412
2.32273,431929
2.33087,390908
2.33898,346084
2.34712,314338
2.35523,289677
2.36335,264418
2.37148,263149
2.37960,236301
2.38772,238891
2.39585,224110
2.40397,226293
2.41210,207980
2.42022,224144
2.42833,239145
2.43647,222452
2.44458,205122
2.45272,198109
2.46083,193139
2.46895,183280
2.47708,179947
2.48520,168449
2.49332,175659
2.50145,181832
2.50957,168696
2.51770,159505
2.52582,157146
2.53393,160101
2.54207,160592
2.55018,163975
2.55832,188034
2.56643,293787
2.57455,374520
2.58268,323341
2.59080,292554
2.59893,267857
2.60705,298608
2.61517,409164
2.62330,448797
2.63142,372397
2.63953,297221
2.64767,252689
2.65578,222743
2.66392,219462
2.67203,208635
2.68015,194297
2.68828,187593
2.69640,186059
2.70453,182195
2.71265,172318
2.72077,167547
2.72890,163613
2.73702,158152
2.74515,168649
2.75327,167710
2.76138,149501
2.76952,153980
2.77763,147820
2.78575,152777
2.79388,153047
2.80200,150019
2.81013,149983
2.81825,149157
2.82637,150462
2.83450,150602
2.84262,149136
2.85075,145212
2.85887,139918
2.86698,139435
2.87512,135794
2.88323,141055
2.89135,139711
2.89948,139545
2.90760,139877
2.91573,133506
2.92385,125363
2.93197,130541
2.94010,130927
2.94822,129378
2.95635,125812
2.96447,126583
2.97258,135629
2.98072,140547
2.98883,130137
2.99697,138306
3.00508,134945
3.01320,135829
3.02133,137039
3.02945,130041
3.03757,123851
3.04570,122513
3.05382,128746
3.06195,130128
3.07007,127861
3.07818,136147
3.08632,260325
3.09443,653723
3.10257,1184729
3.11068,1647612
3.11880,1954126
3.12693,1626637
3.13505,1128640
3.14318,857707
3.15130,708860
3.15942,596408
3.16755,508884
3.17567,453057
3.18378,392691
3.19192,340771
3.20003,330386
3.20817,291242
3.21628,279661
3.22440,263894
3.23253,246958
3.24065,228354
3.24878,222766
3.25690,210001
3.26502,202067
3.27315,197095
3.28127,199304
3.28938,332814
3.29752,1150484
3.30563,3670909
3.31377,7437621
3.32188,9404030
3.33000,8311339
3.33813,6123291
3.34625,4487170
3.35438,3476110
3.36250,2800866
3.37062,2294528
3.37875,1968337
3.38687,1709256
3.39500,1515311
3.40312,1317105
3.41123,1188347
3.41937,1089305
3.42748,1023000
3.43560,945039
3.44373,856970
3.45185,821043
3.45998,807918
3.46810,970957
3.47622,1312252
3.48435,1474677
3.49247,1277276
3.50060,986614
3.50872,797007
3.51683,709137
3.52497,657425
3.53308,603933
3.54120,572072
3.54933,540599
3.55745,524733
3.56558,503531
3.57370,518829
3.58182,563782
3.58995,556940
3.59807,527898
3.60620,494820
3.61432,463680
3.62243,456493
3.63057,462736
3.63868,434861
3.64682,424578
3.65493,388994
3.66305,396890
3.67118,392786
3.67930,387441
3.68742,372683
3.69555,396211
3.70367,373974
3.71180,360993
3.71992,346886
3.72803,344159
3.73617,341582
3.74428,342431
3.75242,345574
3.76053,343674
3.76865,342518
3.77678,331048
3.78490,326301
3.79303,325713
3.80115,360049
3.80927,596538
3.81740,1227695
3.82552,1917613
3.83363,1911236
3.84177,1442886
3.84988,1091875
3.85802,936087
3.86613,813939
3.87425,725279
3.88238,664238
3.89050,606336
3.89863,573152
3.90675,544102
3.91487,516809
3.92300,489799
3.93112,469012
3.93923,465834
3.94737,477157
3.95548,677666
3.96362,1250051
3.97173,2026938
3.97985,2266774
3.98798,1768752
3.99610,1423741
4.00423,2080518
4.01235,4606334
4.02047,8003389
4.02860,8698328
4.03672,6514844
4.04485,3955270
4.05297,2459397
4.06108,1793611
4.06922,1390399
4.07733,1138734
4.08545,973114
4.09358,857121
4.10170,758515
4.10983,684627
4.11795,631679
4.12607,587024
4.13420,548189
4.14232,525162
4.15045,500858
4.15857,508695
4.16668,500436
4.17482,477052
4.18293,471198
4.19107,453894
4.19918,436758
4.20730,411298
4.21543,392652
4.22355,429128
4.23167,518107
4.23980,639690
4.24792,676392
4.25605,607881
4.26417,509652
4.27228,448233
4.28042,420279
4.28853,398912
4.29667,374390
4.30478,361800
4.31290,344161
4.32103,333605
4.32915,336954
4.33727,337064
4.34540,319524
4.35352,311190
4.36165,307562
4.36977,308893
4.37788,308727
4.38602,307329
4.39413,296480
4.40227,303910
4.41038,279826
4.41850,293124
4.42663,272174
4.43475,285433
4.44288,274100
4.45100,279447
4.45912,278057
4.46725,285720
4.47537,264728
4.48348,263511
4.49162,278462
4.49973,252155
4.50787,251479
4.51598,253276
4.52410,254742
4.53223,244874
4.54035,251384
4.54848,234365
4.55660,239609
4.56472,242551
4.57285,242636
4.58097,249594
4.58910,235633
4.59722,232529
4.60533,237109
4.61347,236031
4.62158,234024
4.62970,237286
4.63783,242382
4.64595,230879
4.65408,228214
4.66220,230331
4.67032,227953
4.67845,232039
4.68657,237647
4.69470,230503
4.70282,221742
4.71093,228351
4.71907,231468
4.72718,219597
4.73530,233787
4.74343,218375
4.75155,210728
4.75968,216508
4.76780,215622
4.77592,225446
4.78405,219154
4.79217,208499
4.80030,215859
4.80842,222588
4.81653,237641
4.82467,236536
4.83278,238296
4.84092,241726
4.84903,234305
4.85715,241710
4.86528,238609
4.87340,229022
4.88152,226607
4.88965,222195
4.89777,224381
4.90590,223540
4.91402,214956
4.92213,211108
4.93027,213330
4.93838,239992
4.94652,347984
4.95463,715331
4.96275,1471445
4.97088,2405982
4.97900,3022328
4.98712,2991048
4.99525,2513401
5.00337,1997945
5.01150,1580668
5.01962,1284070
5.02773,1077356
5.03587,955902
5.04398,845515
5.05212,766711
5.06023,712053
5.06835,657142
5.07648,608475
5.08460,596108
5.09273,564465
5.10085,537799
5.10897,525028
5.11710,506005
5.12522,487074
5.13333,464375
5.14147,451078
5.14958,446194
5.15772,450139
5.16583,425607
5.17395,425436
5.18208,417839
5.19020,428034
5.19833,413551
5.20645,391078
5.21457,394179
5.22270,385894
5.23082,401064
5.23895,375735
5.24707,394776
5.25518,390085
5.26332,380273
5.27143,379143
5.27955,354429
5.28768,340280
5.29580,342687
5.30393,341329
5.31205,346154
5.32017,332139
5.32830,326817
5.33642,336672
5.34455,349322
5.35267,373513
5.36078,373429
5.36892,348340
5.37703,335328
5.38515,322607
5.39328,331271
5.40140,341084
5.40953,328124
5.41765,328313
5.42577,319650
5.43390,302850
5.44202,300010
5.45015,326353
5.45827,301296
5.46638,308237
5.47452,302237
5.48263,301928
5.49077,295421
5.49888,291726
5.50700,289909
5.51513,291939
5.52325,286426
5.53137,298682
5.53950,298117
5.54762,285182
5.55575,294501
5.56387,274693
5.57198,274748
5.58012,278698
5.58823,283182
5.59637,297038
5.60448,306214
5.61260,285932
5.62073,294020
5.62885,288422
5.63698,296469
5.64510,287654
5.65322,301485
5.66135,303439
5.66947,285126
5.67758,273031
5.68572,285558
5.69383,301535
5.70197,312013
5.71008,318028
5.71820,312524
5.72633,300674
5.73445,276869
5.74258,270450
5.75070,271102
5.75882,265807
5.76695,261325
5.77507,262399
5.78318,253251
5.79132,251822
5.79943,245795
5.80757,248941
5.81568,242526
5.82380,245609
5.83193,242170
5.84005,247383
5.84818,246145
5.85630,245743
5.86442,247238
5.87255,240062
5.88067,246343
5.88880,248515
5.89692,236332
5.90503,235294
5.91317,226504
5.92128,189788
5.92940,179400
5.93753,186760
5.94565,174788
5.95378,178329
5.96190,185657
5.97002,193428
5.97815,227301
5.98627,279763
5.99440,322972
6.00252,330232
6.01063,285401
6.01877,252078
6.02688,242028
6.03500,217720
6.04313,213904
6.05125,204010
6.05938,194344
6.06750,190750
6.07562,189874
6.08375,190344
6.09187,178654
6.10000,182883
6.10812,186358
6.11623,177916
6.12437,183378
6.13248,185756
6.14062,180579
6.14873,188343
6.15685,191602
6.16498,189684
6.17310,195022
6.18122,196870
6.18935,199425
6.19747,202848
6.20560,199194
6.21372,211603
6.22183,205784
6.22997,208761
6.23808,209031
6.24622,212393
6.25433,218217
6.26245,225694
6.27058,219551
6.27870,223215
6.28683,220790
6.29495,233917
6.30307,235925
6.31120,235218
6.31932,238600
6.32743,236973
6.33557,247111
6.34368,238350
6.35182,245876
6.35993,249493
6.36805,264403
6.37618,250555
6.38430,251789
6.39243,256196
6.40055,266278
6.40867,252178
6.41680,263697
6.42492,262504
6.43305,275630
6.44117,261727
6.44928,278048
6.45742,277816
6.46553,282029
6.47365,286125
6.48178,276503
6.48990,286166
6.49803,294414
6.50615,281541
6.51427,302046
6.52240,282060
6.53052,298320
6.53865,307978
6.54677,301881
6.55488,301088
6.56302,303192
6.57113,301787
6.57925,301429
6.58738,306260
6.59550,303334
6.60363,303674
6.61175,311057
6.61987,308386
6.62800,302753
6.63612,305279
6.64425,329833
6.65237,435835
6.66048,804564
6.66862,1760983
6.67673,3023913
6.68487,3933916
6.69298,3714630
6.70110,2761955
6.70923,1795338
6.71735,1204451
6.72547,885558
6.73360,722585
6.74172,608657
6.74985,529460
6.75797,487114
6.76608,443544
6.77422,408993
6.78233,379218
6.79047,344384
6.79858,339043
6.80670,324146
6.81483,306167
6.82295,289823
6.83107,278209
6.83920,274108
6.84732,266327
6.85545,260434
6.86357,255618
6.87168,241339
6.87982,231761
6.88793,221946
6.89607,212824
6.90418,182347
6.91230,167472
6.92043,168703
6.92855,148068
6.93668,140006
6.94480,133767
6.95292,137675
6.96105,144996
6.96917,166633
6.97728,190892
6.98542,207099
6.99353,221333
7.00167,227728
7.00978,205185
7.01790,188415
7.02603,170327
7.03415,169106
7.04228,155121
7.05040,154968
7.05852,146108
7.06665,151926
7.07477,141864
7.08290,133041
7.09102,135033
7.09913,141778
7.10727,138108
7.11538,143226
7.12350,143000
7.13163,134357
7.13975,133411
7.14788,139413
7.15600,144449
7.16412,154680
7.17225,176160
7.18037,186346
7.18850,181281
7.19662,159835
7.20473,161830
7.21287,162055
7.22098,147643
7.22910,144497
7.23723,145501
7.24535,138660
7.25348,137660
7.26160,125634
7.26972,122979
7.27785,122123
7.28597,118044
7.29410,120567
7.30222,127495
7.31033,117093
7.31847,112187
7.32658,116107
7.33472,117894
7.34283,116706
7.35095,120983
7.35908,118825
7.36720,114310
7.37532,114893
7.38345,109518
7.39157,114992
7.39970,114592
7.40782,115090
7.41593,113081
7.42407,118176
7.43218,116228
7.44032,114498
7.44843,111108
7.45655,113609
7.46468,109397
7.47280,107079
7.48093,103209
7.48905,101610
7.49717,99956
7.50530,104516
7.51342,103078
7.52153,98391
7.52967,96574
7.53778,97407
7.54592,102817
7.55403,104431
7.56215,102563
7.57028,104576
7.57840,101367
7.58653,98580
7.59465,100168
7.60277,100004
7.61090,105657
7.61902,94477
7.62713,94667
7.63527,97651
7.64338,99688
7.65152,104153
7.65963,101137
7.66775,108173
7.67588,96867
7.68400,101384
7.69213,95973
7.70025,95541
7.70837,92666
7.71650,98407
7.72462,94953
7.73275,88760
7.74087,96759
7.74898,87675
7.75712,102261
7.76523,92155
7.77335,97865
7.78148,96556
7.78960,100022
7.79773,97736
7.80585,106397
7.81397,103944
7.82210,101470
7.83022,97749
7.83835,94028
7.84647,97087
7.85458,92430
7.86272,86556
7.87083,84710
7.87895,88034
7.88708,87135
7.89520,89488
7.90333,80335
7.91145,84630
7.91957,94207
7.92770,99620
7.93582,120696
7.94395,159548
7.95207,223306
7.96018,250556
7.96832,249145
7.97643,206584
7.98457,175828
7.99268,136228
8.00080,115306
8.00893,99926
8.01705,95394
8.02517,100071
8.03330,91725
8.04142,90107
8.04955,83844
8.05767,90339
8.06578,80089
8.07392,87465
8.08203,87694
8.09017,90783
8.09828,87217
8.10640,94367
8.11453,90788
8.12265,90101
8.13078,90373
8.13890,89721
8.14702,93760
8.15515,94817
8.16327,98518
8.17138,101771
8.17952,106659
8.18763,97285
8.19577,94755
8.20388,89565
8.21200,92912
8.22013,92074
8.22825,86669
8.23638,89215
8.24450,95081
8.25262,95954
8.26075,90896
8.26887,93579
8.27698,84700
8.28512,83911
8.29323,90289
8.30137,87446
8.30948,82797
8.31760,94442
8.32573,97367
8.33385,97980
8.34198,105010
8.35010,100603
8.35822,103520
8.36635,98681
8.37447,99871
8.38260,93440
8.39072,94679
8.39883,91384
8.40697,98192
8.41508,87705
8.42320,86999
8.43133,83401
8.43945,78440
8.44758,84077
8.45570,84009
8.46382,84032
8.47195,90013
8.48007,88709
8.48820,93808
8.49632,96855
8.50443,91936
8.51257,89979
8.52068,95321
8.52882,114734
8.53693,160015
8.54505,208116
8.55318,235989
8.56130,234073
8.56942,184634
8.57755,148385
8.58567,127177
8.59380,107132
8.60192,105494
8.61003,104254
8.61817,110026
8.62628,105854
8.63442,104539
8.64253,98635
8.65065,94321
8.65878,96733
8.66690,96632
8.67502,93859
8.68315,99662
8.69127,93923
8.69940,88642
8.70752,91598
8.71563,94732
8.72377,95531
8.73188,90726
8.74002,89511
8.74813,93411
8.75625,92033
8.76438,91884
8.77250,115201
8.78063,185531
8.78875,337159
8.79687,551313
8.80500,798184
8.81312,908355
8.82123,848796
8.82937,691581
8.83748,542176
8.84562,432951
8.85373,407681
8.86185,381610
8.86998,369232
8.87810,342749
8.88623,332356
8.89435,299296
8.90247,282324
8.91060,266528
8.91872,258678
8.92683,260393
8.93497,246444
8.94308,223876
8.95122,227192
8.95933,214019
8.96745,212107
8.97558,210744
8.98370,206580
8.99183,206753
8.99995,199313
9.00807,199050
9.01620,197341
9.02432,183388
9.03245,190012
9.04057,186033
9.04868,181636
9.05682,187423
9.06493,183122
9.07305,180834
9.08118,172986
9.08930,169903
9.09743,167629
9.10555,172685
9.11367,161572
9.12180,164012
9.12992,178514
9.13805,167101
9.14617,168284
9.15428,157229
9.16242,156703
9.17053,154384
9.17867,162684
9.18678,159987
9.19490,158593
9.20303,154028
9.21115,156567
9.21927,155237
9.22740,151371
9.23552,159437
9.24365,149493
9.25177,154829
9.25988,154869
9.26802,149536
9.27613,156859
9.28427,155202
9.29238,149858
9.30050,153313
9.30863,148074
9.31675,151788
9.32487,143204
9.33300,141882
9.34112,148551
9.34925,145611
9.35737,154086
9.36548,153356
9.37362,146435
9.38173,139163
9.38987,139722
9.39798,130716
9.40610,134165
9.41423,130854
9.42235,127542
9.43048,136440
9.43860,127320
9.44672,129938
9.45485,132463
9.46297,131639
9.47108,126277
9.47922,133172
9.48733,129236
9.49547,122225
9.50358,125290
9.51170,126722
9.51983,130033
9.52795,130712
9.53608,144695
9.54420,145536
9.55232,149597
9.56045,142970
9.56857,132643
9.57670,123006
9.58482,111278
9.59293,99917
9.60107,104553
9.60918,109928
9.61730,107500
9.62543,108461
9.63355,108631
9.64168,93437
9.64980,92891
9.65792,85902
9.66605,88191
9.67417,86553
9.68230,88989
9.69042,83834
9.69853,81294
9.70667,84584
9.71478,83119
9.72290,87322
9.73103,78144
9.73915,73281
9.74728,77748
9.75540,81654
9.76352,82482
9.77165,79181
9.77977,78446
9.78790,78683
9.79602,78377
9.80413,83504
9.81227,80463
9.82038,81264
9.82852,78866
9.83663,76100
9.84475,77447
9.85288,79743
9.86100,79713
9.86912,82400
9.87725,86440
9.88537,84399
9.89350,77366
9.90162,77923
9.90973,78749
9.91787,75414
9.92598,79133
9.93412,82745
9.94223,87866
9.95035,117061
9.95848,160142
9.96660,210886
9.97473,262160
9.98285,288311
9.99097,274196
9.99910,221326
10.00722,178532
10.01533,135128
10.02347,118621
10.03158,115824
10.03972,113082
10.04783,111855
10.05595,112181
10.06408,118799
10.07220,121468
10.08033,121915
10.08845,117896
10.09657,104878
10.10470,105423
10.11282,108396
10.12093,108061
10.12907,102309
10.13718,104518
10.14532,95548
10.15343,93881
10.16155,86915
10.16968,92950
10.17780,93569
10.18593,84712
10.19405,86706
10.20217,80023
10.21030,88345
10.21842,90255
10.22655,85130
10.23467,81288
10.24278,89488
10.25092,94503
10.25903,106243
10.26715,103938
10.27528,99266
10.28340,100942
10.29153,94611
10.29965,89338
10.30777,93284
10.31590,88618
10.32402,91733
10.33215,92232
10.34027,94217
10.34838,102281
10.35652,97429
10.36463,95071
10.37275,94800
10.38088,95911
10.38900,96958
10.39713,89022
10.40525,87798
10.41337,94311
10.42150,90938
10.42962,89624
10.43775,82836
10.44587,83212
10.45398,88301
10.46212,82655
10.47023,82592
10.47837,80265
10.48648,73832
10.49460,75240
10.50273,77277
10.51085,78340
10.51897,76125
10.52710,76846
10.53522,79118
10.54335,77863
10.55147,74611
10.55958,79602
10.56772,77838
10.57583,74900
10.58397,79882
10.59208,81938
10.60020,78234
10.60833,81722
10.61645,79063
10.62458,77628
10.63270,76980
10.64082,71099
10.64895,78102
10.65707,67361
10.66518,71861
10.67332,69677
10.68143,68097
10.68957,71103
10.69768,72058
10.70580,75725
10.71393,76993
10.72205,65991
10.73018,73598
10.73830,75095
10.74642,66769
10.75455,72373
10.76267,77507
10.77078,78331
10.77892,76559
10.78703,77755
10.79517,77322
10.80328,73101
10.81140,70800
10.81953,70071
10.82765,69314
10.83578,70664
10.84390,73894
10.85202,71223
10.86015,68669
10.86827,73744
10.87640,70808
10.88452,66273
10.89263,72538
10.90077,67072
10.90888,66175
10.91700,68695
10.92513,70995
10.93325,68782
10.94138,75575
10.94950,67735
10.95762,70430
10.96575,68198
10.97387,74895
10.98200,68295
10.99012,70819
10.99823,71379
11.00637,67433
11.01448,64735
11.02262,64358
11.03073,65804
11.03885,69637
11.04698,66283
11.05510,72897
11.06322,65792
11.07135,60952
11.07947,60421
11.08760,69383
11.09572,66550
11.10383,66556
11.11197,58664
11.12008,60236
11.12822,61836
11.13633,61149
11.14445,58199
11.15258,62743
11.16070,62253
11.16882,61988
11.17695,65126
11.18507,66087
11.19320,70966
11.20132,72017
11.20943,81591
11.21757,79219
11.22568,73648
11.23382,73779
11.24193,68012
11.25005,63439
11.25818,64938
11.26630,66753
11.27443,63381
11.28255,68815
11.29067,59553
11.29880,61805
11.30692,65586
11.31503,61185
11.32317,60974
11.33128,61819
11.33942,67461
11.34753,64615
11.35565,58742
11.36378,63570
11.37190,64999
11.38003,61089
11.38815,72516
11.39627,64271
11.40440,66804
11.41252,63159
11.42063,60979
11.42877,58542
11.43688,58749
11.44502,60197
11.45313,55383
11.46125,58151
11.46938,54891
11.47750,56357
11.48563,67497
11.49375,74692
11.50187,85998
11.51000,95902
11.51812,93895
11.52625,81129
11.53437,78885
11.54248,77330
11.55062,71658
11.55873,64232
11.56685,64088
11.57498,58677
11.58310,64750
11.59123,57644
11.59935,64417
11.60747,62244
11.61560,61995
11.62372,57817
11.63185,61380
11.63997,64148
11.64808,55319
11.65622,56625
11.66433,57238
11.67247,55388
11.68058,57105
11.68870,60898
11.69683,65741
11.70495,66212
11.71307,72735
11.72120,79919
11.72932,71634
11.73745,70814
11.74557,71300
11.75368,64471
11.76182,63946
11.76993,67976
11.77807,66472
11.78618,66076
11.79430,64826
11.80243,63180
11.81055,59956
11.81868,56724
11.82680,61400
11.83492,62129
11.84305,63440
11.85117,62000
11.85928,71709
11.86742,75683
11.87553,76657
11.88367,70710
11.89178,75744
11.89990,66571
11.90803,60919
11.91615,60493
11.92428,59480
11.93240,65973
11.94052,63225
11.94865,68456
11.95677,62919
11.96488,66556
11.97302,63550
11.98113,59828
11.98927,63931
11.99738,64828
12.00550,67513
12.01363,68877
12.02175,69418
12.02988,73259
12.03800,74018
12.04612,75750
12.05425,65244
12.06237,64950
12.07050,65013
12.07862,58922
12.08673,60258
12.09487,61661
12.10298,56479
12.11110,56856
12.11923,57697
12.12735,63815
12.13548,60478
12.14360,62611
12.15172,62693
12.15985,58925
12.16797,68015
12.17610,60610
12.18422,66978
12.19233,59942
12.20047,65714
12.20858,68013
12.21670,67470
12.22483,69523
12.23295,66582
12.24108,61712
12.24920,67299
12.25732,70943
12.26545,60946
12.27357,61754
12.28170,63744
12.28982,65240
12.29793,62749
12.30607,61961
12.31418,61180
12.32232,60993
12.33043,59582
12.33855,66244
12.34668,58711
12.35480,59376
12.36292,68781
12.37105,76603
12.37917,81703
12.38730,78033
12.39542,72807
12.40353,66271
12.41167,67714
12.41978,62288
12.42792,64913
12.43603,65217
12.44415,74070
12.45228,70183
12.46040,64946
12.46853,75390
12.47665,62908
12.48477,70769
12.49290,70409
12.50102,61976
12.50913,61864
12.51727,59906
12.52538,64014
12.53352,63420
12.54163,58474
12.54975,60103
12.55788,61865
12.56600,69695
12.57413,65848
12.58225,62791
12.59037,65765
12.59850,63429
12.60662,60050
12.61473,64051
12.62287,61780
12.63098,64530
12.63912,66964
12.64723,64629
12.65535,73704
12.66348,67887
12.67160,61988
12.67973,64195
12.68785,57920
12.69597,58343
12.70410,62375
12.71222,56837
12.72035,59778
12.72847,68173
12.73658,70262
12.74472,73487
12.75283,76417
12.76095,75351
12.76908,85441
12.77720,75704
12.78533,72784
12.79345,69004
12.80157,66033
12.80970,71098
12.81782,67820
12.82595,63800
12.83407,68582
12.84218,63918
12.85032,60720
12.85843,62412
12.86657,61793
12.87468,60422
12.88280,64031
12.89093,59238
12.89905,57450
12.90717,60026
12.91530,59608
12.92342,55830
12.93155,59128
12.93967,59033
12.94778,55376
12.95592,54376
12.96403,54889
12.97217,54134
12.98028,58957
12.98840,61659
12.99653,66560
13.00465,60555
13.01277,62354
13.02090,61740
13.02902,63692
13.03715,55407
13.04527,62046
13.05338,57113
13.06152,58779
13.06963,59134
13.07777,63808
13.08588,60187
13.09400,60965
13.10213,61116
13.11025,57033
13.11838,59388
13.12650,59114
13.13462,49400
13.14275,57140
13.15087,54839
13.15898,56167
13.16712,55276
13.17523,52501
13.18337,60359
13.19148,56515
13.19960,58780
13.20773,63382
13.21585,72441
13.22398,65626
13.23210,64405
13.24022,65825
13.24835,64359
13.25647,57912
13.26458,63423
13.27272,59274
13.28083,58405
13.28897,56024
13.29708,55849
13.30520,54015
13.31333,54883
13.32145,54323
13.32958,55688
13.33770,57660
13.34582,55693
13.35395,57684
13.36207,55983
13.37020,51811
13.37832,53988
13.38643,51070
13.39457,53008
13.40268,54574
13.41080,55395
13.41893,54348
13.42705,50991
13.43518,54264
13.44330,49177
13.45142,50471
13.45955,52165
13.46767,51806
13.47580,49158
13.48392,49352
13.49203,49546
13.50017,47974
13.50828,49532
13.51642,49426
13.52453,50349
13.53265,53852
13.54078,52601
13.54890,54027
13.55702,48757
13.56515,54596
13.57327,57894
13.58140,57856
13.58952,49350
13.59763,51672
13.60577,53232
13.61388,54908
13.62202,53971
13.63013,54770
13.63825,51295
13.64638,50186
13.65450,50343
13.66262,53397
13.67075,52557
13.67887,52922
13.68700,50493
13.69512,50253
13.70323,50639
13.71137,49817
13.71948,48476
13.72762,52635
13.73573,52702
13.74385,56275
13.75198,56294
13.76010,59675
13.76823,62126
13.77635,67869
13.78447,80255
13.79260,92428
13.80072,87666
13.80883,87080
13.81697,80819
13.82508,74105
13.83322,61907
13.84133,60895
13.84945,55128
13.85758,57911
13.86570,52928
13.87383,58651
13.88195,52783
13.89007,51557
13.89820,51322
13.90632,54365
13.91445,51052
13.92257,54141
13.93068,50577
13.93882,57599
13.94693,52641
13.95505,57733
13.96318,56937
13.97130,62928
13.97943,74728
13.98755,96839
13.99567,103706
14.00380,97540
14.01192,86612
14.02005,85525
14.02817,80937
14.03628,66285
14.04442,65181
14.05253,64941
14.06065,64481
14.06878,66187
14.07690,65161
14.08503,70376
14.09315,64040
14.10127,67452
14.10940,61336
14.11752,62898
14.12565,63365
14.13377,60872
14.14188,57247
14.15002,59791
14.15813,63700
14.16627,59867
14.17438,61540
14.18250,61775
14.19063,66442
14.19875,87910
14.20687,128159
14.21500,198813
14.22312,277508
14.23125,348645
14.23937,383480
14.24748,362664
14.25562,314867
14.26373,276945
14.27187,256895
14.27998,225868
14.28810,205983
14.29623,192256
14.30435,173984
14.31247,167200
14.32060,150098
14.32872,147572
14.33685,141563
14.34497,129466
14.35308,128812
14.36122,119708
14.36933,112533
14.37747,104471
14.38558,84601
14.39370,78267
14.40183,72567
14.40995,68562
14.41808,65149
14.42620,66058
14.43432,68028
14.44245,65076
14.45057,66760
14.45868,58709
14.46682,62412
14.47493,58772
14.48307,61754
14.49118,61293
14.49930,61979
14.50743,59690
14.51555,59063
14.52368,57605
14.53180,62497
14.53992,59251
14.54805,61825
14.55617,60686
14.56430,56806
14.57242,54597
14.58053,58193
14.58867,55501
14.59678,57711
14.60490,57972
14.61303,59397
14.62115,56080
14.62928,58707
14.63740,60692
14.64552,55024
14.65365,52886
14.66177,52318
14.66990,54113
14.67802,55122
14.68613,50189
14.69427,51592
14.70238,52284
14.71050,57018
14.71863,53991
14.72675,53309
14.73488,60663
14.74300,52683
14.75112,51646
14.75925,52960
14.76737,54501
14.77550,53494
14.78362,53757
14.79173,51754
14.79987,49460
14.80798,53275
14.81612,53882
14.82423,56346
14.83235,66824
14.84048,85614
14.84860,94031
14.85672,107426
14.86485,115438
14.87297,127844
14.88110,124522
14.88922,121675
14.89733,121009
14.90547,118427
14.91358,110665
14.92172,117493
14.92983,105844
14.93795,113211
14.94608,104151
14.95420,107329
14.96233,105402
14.97045,118971
14.97857,102299
14.98670,108373
14.99482,96978
15.00293,101754
15.01107,95508
15.01918,100695
15.02732,95060
15.03543,96452
15.04355,96182
15.05168,88582
15.05980,86347
15.06793,89668
15.07605,86019
15.08417,90375
15.09230,92020
15.10042,86614
15.10853,84871
15.11667,83043
15.12478,79954
15.13292,91014
15.14103,83678
15.14915,78271
15.15728,78477
15.16540,75281
15.17353,68146
15.18165,63977
15.18977,67224
15.19790,60702
15.20602,61195
15.21415,64015
15.22227,61910
15.23038,60627
15.23852,58222
15.24663,60468
15.25475,60480
15.26288,57133
15.27100,61912
15.27913,61837
15.28725,58995
15.29537,57695
15.30350,55855
15.31162,54350
15.31975,53650
15.32787,51767
15.33598,54885
15.34412,50598
15.35223,54455
15.36037,51497
15.36848,55010
15.37660,55116
15.38473,55480
15.39285,61877
15.40097,53207
15.40910,53116
15.41722,57953
15.42535,53850
15.43347,56465
15.44158,51234
15.44972,50288
15.45783,53620
15.46597,52870
15.47408,52098
15.48220,52373
15.49033,51684
15.49845,52410
15.50657,53344
15.51470,57213
15.52282,59652
15.53095,64435
15.53907,79614
15.54718,86970
15.55532,92890
15.56343,106670
15.57157,102005
15.57968,93916
15.58780,76399
15.59593,66928
15.60405,64073
15.61218,55467
15.62030,57135
15.62842,52766
15.63655,61148
15.64467,57101
15.65278,58586
15.66092,50883
15.66903,58195
15.67717,51975
15.68528,53691
15.69340,53651
15.70153,54141
15.70965,53780
15.71778,51920
15.72590,58323
15.73402,52119
15.74215,53967
15.75027,50709
15.75838,55823
15.76652,49597
15.77463,58503
15.78277,54410
15.79088,61448
15.79900,61960
15.80713,64154
15.81525,64324
15.82338,67938
15.83150,65331
15.83962,60888
15.84775,56763
15.85587,56600
15.86400,63660
15.87212,56037
15.88023,61911
15.88837,59050
15.89648,62891
15.90460,59409
15.91273,59270
15.92085,61131
15.92898,59609
15.93710,59347
15.94522,58867
15.95335,57723
15.96147,60409
15.96960,62491
15.97772,57406
15.98583,68927
15.99397,63853
16.00208,74911
16.01022,75025
16.01833,79688
16.02645,81505
16.03458,92668
16.04270,105026
16.05082,110261
16.05895,121771
16.06707,114024
16.07520,119634
16.08332,115421
16.09143,110383
16.09957,108668
16.10768,107259
16.11582,105157
16.12393,98815
16.13205,93817
16.14018,95434
16.14830,91499
16.15642,88266
16.16455,90077
16.17267,89282
16.18080,87231
16.18892,85574
16.19703,89376
16.20517,85162
16.21328,79259
16.22142,82055
16.22953,83098
16.23765,82069
16.24578,80703
16.25390,79379
16.26203,78394
16.27015,75121
16.27827,76821
16.28640,74871
16.29452,74648
16.30263,76635
16.31077,82216
16.31888,75893
16.32702,76538
16.33513,75215
16.34325,70913
16.35138,70400
16.35950,74277
16.36763,78661
16.37575,78832
16.38387,87673
16.39200,95666
16.40012,88720
16.40825,81288
16.41637,70913
16.42448,71698
16.43262,61879
16.44073,66163
16.44885,61381
16.45698,64317
16.46510,62953
16.47323,63904
16.48135,61336
16.48947,65158
16.49760,68089
16.50572,73085
16.51385,72694
16.52197,73614
16.53008,69689
16.53822,70006
16.54633,74530
16.55445,69943
16.56258,68438
16.57070,63392
16.57883,66871
16.58695,69315
16.59507,73148
16.60320,72701
16.61132,72034
16.61945,66856
16.62757,74490
16.63568,74583
16.64382,72021
16.65193,69628
16.66007,66560
16.66818,67028
16.67630,63334
16.68443,61094
16.69255,64699
16.70067,65461
16.70880,63843
16.71692,62928
16.72505,56288
16.73317,55509
16.74128,58778
16.74942,56094
16.75753,58154
16.76567,53716
16.77378,47717
16.78190,49724
16.79003,49736
16.79815,54303
16.80627,52499
16.81440,52400
16.82252,57814
16.83065,53904
16.83877,50758
16.84688,54244
16.85502,52148
16.86313,49425
16.87127,50049
16.87938,47297
16.88750,46742
16.89563,46621
16.90375,49543
16.91188,48283
16.92000,43753
16.92812,46476
16.93625,45077
16.94437,51102
16.95248,50892
16.96062,49004
16.96873,51894
16.97687,48371
16.98498,47537
16.99310,50605
17.00123,46163
17.00935,46771
17.01748,49485
17.02560,52609
17.03372,48448
17.04185,48784
17.04997,49164
17.05810,48452
17.06622,48885
17.07433,47039
17.08247,49090
17.09058,49070
17.09870,51369
17.10683,51399
17.11495,55245
17.12308,57883
17.13120,50840
17.13932,59568
17.14745,62721
17.15557,55486
17.16370,61930
17.17182,51199
17.17993,51664
17.18807,50539
17.19618,52480
17.20430,53083
17.21243,52760
17.22055,48878
17.22868,47545
17.23680,45808
17.24492,51793
17.25305,49001
17.26117,49011
17.26930,46088
17.27742,48745
17.28553,46454
17.29367,50494
17.30178,49057
17.30992,49650
17.31803,53251
17.32615,49046
17.33428,54103
17.34240,50733
17.35052,55504
17.35865,53244
17.36677,56355
17.37490,63289
17.38302,65123
17.39113,73171
17.39927,73550
17.40738,69422
17.41552,67582
17.42363,65031
17.43175,60872
17.43988,67553
17.44800,62218
17.45613,58903
17.46425,59045
17.47237,56133
17.48050,57999
17.48862,60273
17.49673,58692
17.50487,60855
17.51298,63083
17.52112,59425
17.52923,59552
17.53735,59893
17.54548,61405
17.55360,60644
17.56173,60458
17.56985,60659
17.57797,58771
17.58610,59576
17.59422,59595
17.60233,52276
17.61047,55437
17.61858,56013
17.62672,53087
17.63483,53893
17.64295,57848
17.65108,64032
17.65920,78578
17.66733,103221
17.67545,119618
17.68357,139774
17.69170,137483
17.69982,136500
17.70795,110186
17.71607,99925
17.72418,82901
17.73232,78565
17.74043,74433
17.74855,68025
17.75668,64116
17.76480,66887
17.77293,66699
17.78105,59020
17.78917,68023
17.79730,60778
17.80542,56423
17.81355,57106
17.82167,58351
17.82978,60029
17.83792,59777
17.84603,65194
17.85415,59030
17.86228,60609
17.87040,60882
17.87853,56218
17.88665,56645
17.89477,56564
17.90290,52637
17.91102,53588
17.91915,50520
17.92727,53390
17.93538,53435
17.94352,53064
17.95163,53722
17.95977,51521
17.96788,48632
17.97600,48871
17.98413,53092
17.99225,50165
18.00037,51448
18.00850,47723
18.01662,48831
18.02475,45271
18.03287,47582
18.04098,48228
18.04912,45297
18.05723,51524
18.06537,52762
18.07348,56704
18.08160,62054
18.08973,80063
18.09785,101924
18.10598,140060
18.11410,177543
18.12222,201051
18.13035,230307
18.13847,235363
18.14658,233077
18.15472,225730
18.16283,213075
18.17097,207588
18.17908,209703
18.18720,205370
18.19533,196800
18.20345,191092
18.21158,182949
18.21970,188893
18.22782,166116
18.23595,170046
18.24407,165911
18.25220,162169
18.26032,147518
18.26843,149167
18.27657,145642
18.28468,127087
18.29280,119363
18.30093,97343
18.30905,87159
18.31718,79155
18.32530,68034
18.33342,70631
18.34155,66877
18.34967,65195
18.35780,67017
18.36592,59099
18.37403,62072
18.38217,62787
18.39028,62183
18.39840,64543
18.40653,57577
18.41465,61791
18.42278,61606
18.43090,59575
18.43902,53751
18.44715,57861
18.45527,59136
18.46340,56894
18.47152,57633
18.47963,55866
18.48777,54538
18.49588,55361
18.50402,55792
18.51213,58987
18.52025,54201
18.52838,54214
18.53650,52423
18.54462,55651
18.55275,58690
18.56087,53264
18.56900,51389
18.57712,57368
18.58523,55089
18.59337,53990
18.60148,53199
18.60962,55770
18.61773,59059
18.62585,58499
18.63398,56866
18.64210,57355
18.65022,61378
18.65835,53602
18.66647,61814
18.67460,61923
18.68272,50814
18.69083,56978
18.69897,55704
18.70708,45907
18.71522,50942
18.72333,45918
18.73145,46210
18.73958,44530
18.74770,49977
18.75583,47300
18.76395,49489
18.77207,44894
18.78020,46834
18.78832,45003
18.79643,47955
18.80457,47372
18.81268,46773
18.82082,52529
18.82893,44964
18.83705,46268
18.84518,50891
18.85330,49653
18.86143,50409
18.86955,50382
18.87767,46553
18.88580,46781
18.89392,42835
18.90205,52101
18.91017,49953
18.91828,44727
18.92642,49212
18.93453,45596
18.94265,49076
18.95078,47707
18.95890,45844
18.96703,46337
18.97515,50449
18.98327,53783
18.99140,48216
18.99952,46660
19.00765,51637
19.01577,51533
19.02388,53192
19.03202,51850
19.04013,45983
19.04825,45860
19.05638,46621
19.06450,47598
19.07263,46919
19.08075,46895
19.08887,53480
19.09700,62295
19.10512,65998
19.11325,75756
19.12137,89358
19.12948,91368
19.13762,89742
19.14573,84469
19.15387,79560
19.16198,77957
19.17010,80456
19.17823,79616
19.18635,79689
19.19447,84420
19.20260,80276
19.21072,78197
19.21885,76499
19.22697,76442
19.23508,66536
19.24322,62081
19.25133,64969
19.25947,61032
19.26758,53621
19.27570,59616
19.28383,63194
19.29195,70092
19.30008,68202
19.30820,80253
19.31632,76774
19.32445,85809
19.33257,93354
19.34068,87918
19.34882,91633
19.35693,87398
19.36507,83767
19.37318,81324
19.38130,79815
19.38943,81726
19.39755,79259
19.40568,78409
19.41380,80795
19.42192,79165
19.43005,79106
19.43817,78441
19.44628,76075
19.45442,75763
19.46253,73117
19.47067,69061
19.47878,69878
19.48690,73777
19.49503,80624
19.50315,99263
19.51128,151188
19.51940,229094
19.52752,281880
19.53565,335999
19.54377,348085
19.55190,281833
19.56002,233805
19.56813,156004
19.57627,109764
19.58438,94651
19.59250,83636
19.60063,78887
19.60875,72764
19.61688,77566
19.62500,74516
19.63312,74211
19.64125,80868
19.64937,96686
19.65750,141386
19.66562,214228
19.67373,306467
19.68187,424016
19.68998,521293
19.69810,523828
19.70623,496616
19.71435,398245
19.72248,309647
19.73060,252334
19.73872,213837
19.74685,169833
19.75497,148757
19.76310,135242
19.77122,122921
19.77933,108741
19.78747,101085
19.79558,92329
19.80372,87650
19.81183,82257
19.81995,88890
19.82808,92760
19.83620,86844
19.84432,80221
19.85245,91949
19.86057,140455
19.86870,318024
19.87682,912933
19.88493,2289863
19.89307,5014237
19.90118,8711080
19.90932,1.291985E+07
19.91743,1.554955E+07
19.92555,1.592846E+07
19.93368,1.43104E+07
19.94180,1.075214E+07
19.94993,7304427
19.95805,5070590
19.96617,3585552
19.97430,2732929
19.98242,2240424
19.99053,2006754
19.99867,1767589
20.00678,1570018
20.01492,1444482
20.02303,1301216
20.03115,1184133
20.03928,1094202
20.04740,994312
20.05553,859426
20.06365,737945
20.07177,602761
20.07990,444878
20.08802,344366
20.09613,293617
20.10427,246451
20.11238,216406
20.12052,208524
20.12863,197091
20.13675,199609
20.14488,185133
20.15300,183455
20.16113,178846
20.16925,176290
20.17737,171434
20.18550,170417
20.19362,161940
20.20175,155613
20.20987,152487
20.21798,144493
20.22612,138687
20.23423,141151
20.24235,138757
20.25048,139689
20.25860,135806
20.26673,158899
20.27485,197612
20.28297,271693
20.29110,322526
20.29922,400233
20.30735,429259
20.31547,417948
20.32358,365553
20.33172,313008
20.33983,255563
20.34797,209801
20.35608,180406
20.36420,167093
20.37233,140173
20.38045,126809
20.38857,116812
20.39670,117221
20.40482,106419
20.41295,104837
20.42107,103822
20.42918,111208
20.43732,131832
20.44543,151003
20.45357,175851
20.46168,189470
20.46980,218016
20.47793,210066
20.48605,192073
20.49417,177920
20.50230,159811
20.51042,136709
20.51855,123423
20.52667,113323
20.53478,112964
20.54292,102698
20.55103,98434
20.55917,98376
20.56728,96818
20.57540,90012
20.58353,98569
20.59165,91176
20.59978,91039
20.60790,91432
20.61602,91040
20.62415,94081
20.63227,89485
20.64038,90177
20.64852,87876
20.65663,89137
20.66477,87896
20.67288,88418
20.68100,81978
20.68913,87159
20.69725,85809
20.70538,88136
20.71350,87372
20.72162,88169
20.72975,95136
20.73787,89561
20.74600,88093
20.75412,86165
20.76223,86413
20.77037,82744
20.77848,82615
20.78660,86220
20.79473,83929
20.80285,79711
20.81098,82095
20.81910,83613
20.82722,84793
20.83535,87016
20.84347,83113
20.85160,78512
20.85972,80943
20.86783,78212
20.87597,79744
20.88408,80640
20.89220,84066
20.90033,78783
20.90845,79547
20.91658,80112
20.92470,78174
20.93282,82173
20.94095,84045
20.94907,77884
20.95720,87182
20.96532,75883
20.97343,75000
20.98157,86564
20.98968,75303
20.99782,71783
21.00593,75319
21.01405,75344
21.02218,79184
21.03030,75328
21.03842,76655
21.04655,77710
21.05467,78012
21.06280,76126
21.07092,80617
21.07903,71512
21.08717,74473
21.09528,73186
21.10342,78126
21.11153,67447
21.11965,66737
21.12778,74634
21.13590,70100
21.14402,73804
21.15215,73431
21.16027,77211
21.16840,79627
21.17652,76620
21.18463,79579
21.19277,82828
21.20088,81528
21.20902,84599
21.21713,76081
21.22525,81350
21.23338,77630
21.24150,78534
21.24963,72272
21.25775,81690
21.26587,80207
21.27400,79519
21.28212,84187
21.29023,78462
21.29837,78314
21.30648,72907
21.31462,69106
21.32273,70679
21.33085,75361
21.33898,71517
21.34710,71706
21.35523,74517
21.36335,68948
21.37147,71162
21.37960,72005
21.38772,70417
21.39585,71881
21.40397,62031
21.41208,70379
21.42022,76308
21.42833,73197
21.43645,76473
21.44458,77379
21.45270,78767
21.46083,80720
21.46895,80717
21.47707,78944
21.48520,78782
21.49332,78176
21.50145,77496
21.50957,73664
21.51768,71484
21.52582,73197
21.53393,69243
21.54205,67720
21.55018,68727
21.55830,68338
21.56643,64632
21.57455,66503
21.58267,71105
21.59080,75557
21.59892,79117
21.60705,75033
21.61517,77203
21.62328,80415
21.63142,87021
21.63953,99685
21.64767,115320
21.65578,147421
21.66390,171926
21.67203,173138
21.68015,162580
21.68827,137462
21.69640,120904
21.70452,104225
21.71265,91898
21.72077,82340
21.72888,75554
21.73702,72585
21.74513,79123
21.75327,70320
21.76138,74893
21.76950,70990
21.77763,73420
21.78575,68903
21.79388,72515
21.80200,76843
21.81012,67643
21.81825,73880
21.82637,79634
21.83448,88971
21.84262,105464
21.85073,134094
21.85887,148977
21.86698,159671
21.87510,151929
21.88323,133732
21.89135,113594
21.89948,97369
21.90760,89639
21.91572,74875
21.92385,72808
21.93197,69390
21.94008,74592
21.94822,67776
21.95633,61866
21.96447,70128
21.97258,70881
21.98070,67086
21.98883,67706
21.99695,62751
22.00508,67190
22.01320,66492
22.02132,71300
22.02945,66348
22.03757,71489
22.04570,69570
22.05382,68498
22.06193,62253
22.07007,66371
22.07818,62710
22.08630,60526
22.09443,61316
22.10255,67586
22.11068,65694
22.11880,63402
22.12692,73556
22.13505,67948
22.14317,67439
22.15130,65615
22.15942,65484
22.16753,62453
22.17567,64638
22.18378,69252
22.19190,66416
22.20003,66838
22.20815,60580
22.21628,66884
22.22440,68994
22.23252,72856
22.24065,81320
22.24877,86178
22.25690,91406
22.26502,85811
22.27313,80944
22.28127,71070
22.28938,66010
22.29752,68504
22.30563,65420
22.31375,71449
22.32188,68980
22.33000,84551
22.33812,100173
22.34625,101012
22.35437,111003
22.36250,109464
22.37062,106437
22.37873,90022
22.38687,78761
22.39498,77883
22.40312,71937
22.41123,72812
22.41935,67364
22.42748,64353
22.43560,68190
22.44373,66230
22.45185,68469
22.45997,64167
22.46810,67060
22.47622,68047
22.48433,65997
22.49247,66601
22.50058,67899
22.50872,71066
22.51683,59335
22.52495,68712
22.53308,62373
22.54120,61974
22.54933,64105
22.55745,65820
22.56557,62251
22.57370,65557
22.58182,60554
22.58993,60526
22.59807,57890
22.60618,57429
22.61432,55950
22.62243,56124
22.63055,53703
22.63868,55360
22.64680,52753
22.65493,56025
22.66305,55142
22.67117,54480
22.67930,60040
22.68742,71365
22.69555,66039
22.70367,70826
22.71178,78753
22.71992,71806
22.72803,69031
22.73615,71031
22.74428,64987
22.75240,66290
22.76053,75726
22.76865,69271
22.77677,63632
22.78490,63516
22.79302,58317
22.80115,56215
22.80927,59538
22.81738,61688
22.82552,60097
22.83363,67789
22.84177,63708
22.84988,64635
22.85800,62692
22.86613,65378
22.87425,64765
22.88237,70249
22.89050,66743
22.89862,71520
22.90675,69960
22.91487,90536
22.92298,122592
22.93112,172450
22.93923,251531
22.94737,329887
22.95548,404607
22.96360,435590
22.97173,445255
22.97985,442693
22.98797,392131
22.99610,365706
23.00422,334501
23.01235,281509
23.02047,244318
23.02858,213609
23.03672,175683
23.04483,148374
23.05297,124192
23.06108,99347
23.06920,88560
23.07733,88275
23.08545,86342
23.09358,88206
23.10170,75850
23.10982,71863
23.11795,77913
23.12607,71008
23.13418,64782
23.14232,71654
23.15043,66161
23.15857,67117
23.16668,71514
23.17480,66259
23.18293,66890
23.19105,64859
23.19918,61039
23.20730,62270
23.21542,57858
23.22355,65560
23.23167,56500
23.23978,58923
23.24792,55278
23.25603,66012
23.26417,61342
23.27228,61289
23.28040,63109
23.28853,60250
23.29665,64265
23.30478,62516
23.31290,61397
23.32102,56833
23.32915,55932
23.33727,54410
23.34540,55273
23.35352,50601
23.36163,55424
23.36977,57222
23.37788,62651
23.38600,64717
23.39413,59358
23.40225,60205
23.41038,65111
23.41850,59763
23.42662,61974
23.43475,63149
23.44287,59032
23.45100,62055
23.45912,55709
23.46723,62778
23.47537,61254
23.48348,61674
23.49162,66037
23.49973,59185
23.50785,58633
23.51598,62888
23.52410,65126
23.53222,60402
23.54035,58054
23.54847,59435
23.55660,70329
23.56472,72773
23.57283,79476
23.58097,85384
23.58908,88409
23.59722,92565
23.60533,93594
23.61345,89769
23.62158,91667
23.62970,86299
23.63783,87733
23.64595,101908
23.65407,125039
23.66220,162072
23.67032,227175
23.67843,274081
23.68657,316076
23.69468,299360
23.70282,254492
23.71093,204394
23.71905,149761
23.72718,121365
23.73530,105163
23.74343,92331
23.75155,96575
23.75967,135902
23.76780,281662
23.77592,679185
23.78403,1658121
23.79217,3327499
23.80028,5132291
23.80842,6182946
23.81653,6193661
23.82465,5177973
23.83278,3900173
23.84090,2720834
23.84903,1804831
23.85715,1228201
23.86527,931562
23.87340,755994
23.88152,598801
23.88965,509358
23.89777,450017
23.90588,396954
23.91402,356012
23.92213,328853
23.93025,307484
23.93838,279566
23.94650,259645
23.95463,252773
23.96275,238504
23.97087,237977
23.97900,225188
23.98712,203209
23.99525,197863
24.00337,197598
24.01148,180485
24.01962,180784
24.02773,176800
24.03585,180783
24.04398,179368
24.05210,173410
24.06023,175506
24.06835,174055
24.07647,179800
24.08460,170534
24.09272,157872
24.10085,153877
24.10897,142392
24.11708,136434
24.12522,128522
24.13333,135147
24.14147,134480
24.14958,144983
24.15770,149955
24.16583,153199
24.17395,151642
24.18207,138705
24.19020,132767
24.19832,125097
24.20645,124820
24.21457,129867
24.22268,123762
24.23082,133807
24.23893,147129
24.24707,154936
24.25518,151380
24.26330,143927
24.27143,124468
24.27955,117662
24.28768,113263
24.29580,107011
24.30392,108599
24.31205,102566
24.32017,102940
24.32828,101948
24.33642,101372
24.34453,100798
24.35267,92612
24.36078,95354
24.36890,99052
24.37703,100303
24.38515,106060
24.39328,122395
24.40140,160819
24.40952,207503
24.41765,266328
24.42577,308622
24.43388,301540
24.44202,252488
24.45013,193129
24.45827,147002
24.46638,111552
24.47450,103179
24.48263,101081
24.49075,107617
24.49888,103672
24.50700,109666
24.51512,117121
24.52325,116423
24.53137,140497
24.53950,140136
24.54762,143134
24.55573,139674
24.56387,135943
24.57198,141614
24.58010,140573
24.58823,142803
24.59635,136841
24.60448,135124
24.61260,131597
24.62072,118711
24.62885,112639
24.63697,108594
24.64510,109402
24.65322,98824
24.66133,101284
24.66947,98147
24.67758,105583
24.68572,102728
24.69383,100506
24.70195,99371
24.71008,97507
24.71820,96210
24.72632,83696
24.73445,81136
24.74257,84397
24.75070,83238
24.75882,83614
24.76693,77875
24.77507,76071
24.78318,77944
24.79132,77172
24.79943,80214
24.80755,76534
24.81568,79199
24.82380,75022
24.83192,78482
24.84005,70367
24.84817,73908
24.85630,72546
24.86442,77534
24.87253,79871
24.88067,78999
24.88878,80797
24.89692,84321
24.90503,82690
24.91315,81452
24.92128,82089
24.92940,84368
24.93753,75249
24.94565,84501
24.95377,73755
24.96190,69900
24.97002,70059
24.97813,69790
24.98627,69237
24.99438,68205
25.00252,68069
25.01063,64418
25.01875,70369
25.02688,70564
25.03500,65972
25.04313,68436
25.05125,69893
25.05937,70786
25.06750,67082
25.07562,66129
25.08373,73346
25.09187,73758
25.09998,75721
25.10812,73288
25.11623,68664
25.12435,69962
25.13248,82113
25.14060,87949
25.14873,109994
25.15685,128921
25.16497,153773
25.17310,154036
25.18122,161807
25.18935,154525
25.19747,143625
25.20558,130536
25.21372,107636
25.22183,96294
25.22995,90861
25.23808,80952
25.24620,79353
25.25433,82024
25.26245,80653
25.27057,79965
25.27870,80486
25.28682,77983
25.29495,76723
25.30307,73316
25.31118,82800
25.31932,76181
25.32743,78999
25.33557,88915
25.34368,80482
25.35180,83581
25.35993,78931
25.36805,81019
25.37617,72054
25.38430,71186
25.39242,64024
25.40055,66894
25.40867,66542
25.41678,64797
25.42492,65400
25.43303,71592
25.44117,64613
25.44928,66975
25.45740,67153
25.46553,63420
25.47365,65948
25.48177,71306
25.48990,72121
25.49802,80911
25.50615,82763
25.51427,87052
25.52238,85034
25.53052,75390
25.53863,75595
25.54677,74738
25.55488,76037
25.56300,70438
25.57113,70963
25.57925,68924
25.58738,64431
25.59550,60363
25.60362,57439
25.61175,62573
25.61987,63810
25.62798,65034
25.63612,61323
25.64423,63938
25.65237,61405
25.66048,67670
25.66860,62881
25.67673,60083
25.68485,63231
25.69298,67294
25.70110,65053
25.70922,58260
25.71735,59788
25.72547,57583
25.73360,58549
25.74172,65294
25.74983,62322
25.75797,63330
25.76608,62889
25.77420,60845
25.78233,67057
25.79045,61482
25.79858,59561
25.80670,69816
25.81482,67563
25.82295,73865
25.83107,66127
25.83920,70357
25.84732,70393
25.85543,71076
25.86357,68522
25.87168,75103
25.87980,75337
25.88793,63601
25.89605,64140
25.90418,61670
25.91230,64760
25.92042,64890
25.92855,62583
25.93667,61490
25.94480,69505
25.95292,61539
25.96103,61411
25.96917,63717
25.97728,61445
25.98542,61371
25.99353,64634
26.00165,60104
26.00978,59946
26.01790,64181
26.02602,62047
26.03415,66455
26.04227,58078
26.05040,59440
26.05852,58593
26.06663,65235
26.07477,59084
26.08288,67517
26.09102,67683
26.09913,69904
26.10725,68480
26.11538,64018
26.12350,69059
26.13162,63051
26.13975,74377
26.14787,72581
26.15600,82585
26.16412,79866
26.17223,84739
26.18037,87650
26.18848,87381
26.19662,82244
26.20473,87770
26.21285,79456
26.22098,77676
26.22910,80429
26.23723,73957
26.24535,73360
26.25347,65538
26.26160,67958
26.26972,65508
26.27783,71183
26.28597,69689
26.29408,73786
26.30222,74697
26.31033,77407
26.31845,82259
26.32658,85876
26.33470,82079
26.34283,78145
26.35095,75957
26.35907,74748
26.36720,79022
26.37532,75408
26.38345,77205
26.39157,77414
26.39968,81925
26.40782,83440
26.41593,84128
26.42405,89235
26.43218,86062
26.44030,87630
26.44843,79895
26.45655,74647
26.46467,75732
26.47280,70265
26.48092,61777
26.48905,61254
26.49717,64919
26.50528,63825
26.51342,64992
26.52153,65253
26.52965,62837
26.53778,61333
26.54590,57301
26.55403,58828
26.56215,57870
26.57027,60028
26.57840,53054
26.58652,58660
26.59465,60854
26.60277,57144
26.61088,59357
26.61902,55476
26.62713,57238
26.63527,56604
26.64338,57163
26.65150,62153
26.65963,58290
26.66775,63342
26.67587,63035
26.68400,58211
26.69212,61061
26.70025,64838
26.70837,62319
26.71648,60593
26.72462,57371
26.73273,57669
26.74087,55606
26.74898,59477
26.75710,60083
26.76523,59854
26.77335,59651
26.78148,65193
26.78960,56182
26.79772,58358
26.80585,58163
26.81397,62565
26.82208,61972
26.83022,65350
26.83833,66764
26.84647,72985
26.85458,70998
26.86270,73471
26.87083,67122
26.87895,72654
26.88708,75195
26.89520,73900
26.90332,72291
26.91145,68708
26.91957,71759
26.92768,63614
26.93582,59189
26.94393,69078
26.95207,67866
26.96018,70264
26.96830,79455
26.97643,92100
26.98455,146452
26.99268,286912
27.00080,579125
27.00892,1145212
27.01705,2138493
27.02517,3262189
27.03330,4005063
27.04142,4030307
27.04953,3600084
27.05767,2803692
27.06578,1977669
27.07390,1376578
27.08203,1015701
27.09015,750844
27.09828,617452
27.10640,504452
27.11452,454477
27.12265,398618
27.13077,361989
27.13890,327387
27.14702,305217
27.15513,282885
27.16327,260930
27.17138,255698
27.17952,242693
27.18763,230474
27.19575,211627
27.20388,221646
27.21200,208839
27.22012,211074
27.22825,201576
27.23637,179667
27.24450,177996
27.25262,171078
27.26073,168384
27.26887,154152
27.27698,155942
27.28512,145549
27.29323,141116
27.30135,141601
27.30948,137711
27.31760,137174
27.32572,125510
27.33385,133457
27.34197,127173
27.35010,118765
27.35822,123463
27.36633,119827
27.37447,122675
27.38258,119812
27.39072,116738
27.39883,111426
27.40695,115692
27.41508,106948
27.42320,107827
27.43133,106450
27.43945,116203
27.44757,100481
27.45570,100910
27.46382,104827
27.47193,100907
27.48007,98529
27.48818,97105
27.49632,91529
27.50443,94086
27.51255,96787
27.52068,88757
27.52880,88883
27.53693,92951
27.54505,96573
27.55317,101708
27.56130,91746
27.56942,96884
27.57753,91812
27.58567,90393
27.59378,87764
27.60192,89582
27.61003,98901
27.61815,100167
27.62628,102156
27.63440,111604
27.64253,104627
27.65065,96506
27.65877,95798
27.66690,86516
27.67502,88395
27.68315,77899
27.69127,80910
27.69938,82017
27.70752,82064
27.71563,81459
27.72375,80565
27.73188,80540
27.74000,78010
27.74813,73965
27.75625,71421
27.76437,76094
27.77250,74330
27.78062,73955
27.78875,69262
27.79687,80268
27.80498,69772
27.81312,78361
27.82123,69619
27.82937,79536
27.83748,74631
27.84560,74578
27.85373,75230
27.86185,78048
27.86997,76602
27.87810,73181
27.88622,73838
27.89435,78008
27.90247,69251
27.91058,73397
27.91872,67733
27.92683,70314
27.93497,70579
27.94308,69460
27.95120,66577
27.95933,67308
27.96745,69436
27.97557,71343
27.98370,66878
27.99182,68936
27.99995,64748
28.00807,67909
28.01618,62617
28.02432,65930
28.03243,66320
28.04057,63486
28.04868,72052
28.05680,72431
28.06493,70254
28.07305,73629
28.08118,82752
28.08930,71568
28.09742,73188
28.10555,71973
28.11367,71237
28.12178,70588
28.12992,71080
28.13803,70606
28.14617,63460
28.15428,66016
28.16240,64737
28.17053,69295
28.17865,66031
28.18678,63943
28.19490,65117
28.20302,60667
28.21115,74998
28.21927,76962
28.22740,79741
28.23552,91822
28.24363,87463
28.25177,81159
28.25988,76128
28.26800,74331
28.27613,72863
28.28425,69164
28.29238,71298
28.30050,68712
28.30862,76322
28.31675,92731
28.32487,108212
28.33300,145686
28.34112,202814
28.34923,289849
28.35737,374496
28.36548,456164
28.37360,523264
28.38173,546063
28.38985,550829
28.39798,530688
28.40610,488060
28.41422,403157
28.42235,347946
28.43047,313699
28.43860,266189
28.44672,241630
28.45483,207371
28.46297,185205
28.47108,173912
28.47922,165429
28.48733,161766
28.49545,143860
28.50358,149843
28.51170,139738
28.51982,131450
28.52795,126799
28.53607,122203
28.54420,113019
28.55232,113914
28.56043,110989
28.56857,115066
28.57668,112977
28.58482,108477
28.59293,106729
28.60105,101777
28.60918,99492
28.61730,95786
28.62542,93789
28.63355,96653
28.64167,95129
28.64980,99598
28.65792,97867
28.66603,102574
28.67417,101990
28.68228,101317
28.69042,104184
28.69853,99905
28.70665,91983
28.71478,95363
28.72290,90249
28.73103,87200
28.73915,83653
28.74727,87760
28.75540,87425
28.76352,88665
28.77163,106998
28.77977,133158
28.78788,156835
28.79602,181170
28.80413,193348
28.81225,174506
28.82038,138281
28.82850,117935
28.83663,97131
28.84475,85184
28.85287,81111
28.86100,78855
28.86912,73090
28.87725,73144
28.88537,79853
28.89348,82017
28.90162,80512
28.90973,78871
28.91785,77310
28.92598,77233
28.93410,79149
28.94223,82526
28.95035,80318
28.95847,81837
28.96660,82649
28.97472,84954
28.98285,79994
28.99097,84414
28.99908,82972
29.00722,77961
29.01533,72445
29.02347,71916
29.03158,72094
29.03970,76066
29.04783,74310
29.05595,73824
29.06407,77023
29.07220,71810
29.08032,70974
29.08845,71485
29.09657,72914
29.10468,72841
29.11282,69193
29.12093,66942
29.12907,66909
29.13718,69413
29.14530,72707
29.15343,67376
29.16155,78944
29.16967,74344
29.17780,77700
29.18592,75846
29.19405,76580
29.20217,75803
29.21028,75808
29.21842,73524
29.22653,76280
29.23467,76608
29.24278,75361
29.25090,76504
29.25903,79361
29.26715,70688
29.27528,76477
29.28340,72838
29.29152,75279
29.29965,64894
29.30777,71990
29.31588,71646
29.32402,72761
29.33213,69366
29.34027,67877
29.34838,68282
29.35650,72086
29.36463,67798
29.37275,70540
29.38088,68423
29.38900,68360
29.39712,67621
29.40525,68051
29.41337,69942
29.42148,71849
29.42962,70712
29.43773,66749
29.44587,72879
29.45398,72641
29.46210,70586
29.47023,74031
29.47835,66969
29.48648,66785
29.49460,75130
29.50272,71036
29.51085,76618
29.51897,84221
29.52710,85128
29.53522,76104
29.54333,79970
29.55147,73769
29.55958,67810
29.56770,68774
29.57583,68197
29.58395,59218
29.59208,60676
29.60020,62868
29.60832,63674
29.61645,63255
29.62457,66013
29.63270,66175
29.64082,70600
29.64893,63398
29.65707,63588
29.66518,67202
29.67332,65853
29.68143,61210
29.68955,67576
29.69768,65470
29.70580,63895
29.71392,58620
29.72205,62491
29.73017,61347
29.73830,60274
29.74642,66248
29.75453,64596
29.76267,66915
29.77078,66695
29.77892,61633
29.78703,63144
29.79515,58677
29.80328,61943
29.81140,58198
29.81952,63322
29.82765,61773
29.83577,58928
29.84390,62015
29.85202,57150
29.86013,58433
29.86827,58137
29.87638,70401
29.88452,73813
29.89263,76319
29.90075,88031
29.90888,99362
29.91700,101841
29.92513,101266
29.93325,99874
29.94137,88400
29.94950,84502
29.95762,76568
29.96573,79583
29.97387,82070
29.98198,91412
29.99012,114538
29.99823,137416
30.00635,163160
30.01448,194235
30.02260,216342
30.03073,235821
30.03885,252097
30.04697,262333
30.05510,264932
30.06322,253309
30.07135,244061
30.07947,217226
30.08758,203258
30.09572,188831
30.10383,174069
30.11195,153507
30.12008,145921
30.12820,135933
30.13633,127943
30.14445,118441
30.15257,120286
30.16070,112352
30.16882,109487
30.17695,106334
30.18507,103481
30.19318,101864
30.20132,102807
30.20943,102758
30.21755,98388
30.22568,98934
30.23380,94337
30.24193,95446
30.25005,93625
30.25817,89388
30.26630,87583
30.27442,82508
30.28255,82000
30.29067,80532
30.29878,79107
30.30692,78770
30.31503,76011
30.32317,72070
30.33128,71900
30.33940,75510
30.34753,82619
30.35565,74069
30.36377,80007
30.37190,75692
30.38002,73234
30.38815,68820
30.39627,70232
30.40438,70843
30.41252,72576
30.42063,71288
30.42877,71485
30.43688,68863
30.44500,71188
30.45313,71035
30.46125,64049
30.46937,71929
30.47750,61240
30.48562,70366
30.49375,69841
30.50187,68864
30.50998,68626
30.51812,70414
30.52623,62339
30.53437,68780
30.54248,66297
30.55060,62439
30.55873,64465
30.56685,62892
30.57498,62810
30.58310,62446
30.59122,64798
30.59935,59183
30.60747,65686
30.61558,63662
30.62372,61753
30.63183,68515
30.63997,64116
30.64808,58728
30.65620,60031
30.66433,55254
30.67245,57823
30.68058,61549
30.68870,61239
30.69682,61190
30.70495,63010
30.71307,58506
30.72120,63422
30.72932,64787
30.73743,65451
30.74557,60039
30.75368,61701
30.76180,60473
30.76993,63982
30.77805,59203
30.78618,59989
30.79430,66232
30.80242,68513
30.81055,70308
30.81867,81091
30.82680,82293
30.83492,79236
30.84303,75555
30.85117,79541
30.85928,67589
30.86740,68862
30.87553,67028
30.88365,63599
30.89178,63397
30.89990,64346
30.90802,57434
30.91615,59611
30.92427,63217
30.93240,64934
30.94052,56866
30.94863,64243
30.95677,58089
30.96488,63785
30.97302,58617
30.98113,61839
30.98925,60816
30.99738,65111
31.00550,59251
31.01362,58600
31.02175,65837
31.02987,64332
31.03800,75000
31.04612,79485
31.05423,74338
31.06237,75131
31.07048,75192
31.07862,75842
31.08673,77940
31.09485,88397
31.10298,97906
31.11110,121282
31.11923,152391
31.12735,158507
31.13547,152283
31.14360,136956
31.15172,111538
31.15983,94678
31.16797,82152
31.17608,79461
31.18422,80252
31.19233,79058
31.20045,95377
31.20858,116366
31.21670,133367
31.22483,158333
31.23295,165460
31.24107,175438
31.24920,167184
31.25732,147837
31.26543,125750
31.27357,98873
31.28168,88747
31.28982,75839
31.29793,76292
31.30605,73635
31.31418,73926
31.32230,70505
31.33043,64376
31.33855,64004
31.34667,64189
31.35480,64157
31.36292,63690
31.37105,64249
31.37917,64637
31.38728,68355
31.39542,76657
31.40353,80136
31.41165,74614
31.41978,74698
31.42790,74589
31.43603,80228
31.44415,74430
31.45227,76427
31.46040,72107
31.46852,73119
31.47665,67071
31.48477,68638
31.49288,65517
31.50102,63937
31.50913,56659
31.51725,61564
31.52538,68543
31.53350,59586
31.54163,68234
31.54975,64679
31.55787,59509
31.56600,61583
31.57412,61596
31.58225,63087
31.59037,66446
31.59848,59491
31.60662,59083
31.61473,58598
31.62287,61470
31.63098,62941
31.63910,63063
31.64723,67051
31.65535,67481
31.66347,67940
31.67160,68044
31.67972,66006
31.68785,69490
31.69597,66580
31.70408,66717
31.71222,69171
31.72033,62317
31.72847,61481
31.73658,64826
31.74470,60101
31.75283,58673
31.76095,59662
31.76908,62661
31.77720,63441
31.78532,62682
31.79345,66631
31.80157,68032
31.80968,65359
31.81782,64357
31.82593,65247
31.83407,75985
31.84218,70973
31.85030,72834
31.85843,75561
31.86655,81566
31.87468,81906
31.88280,84037
31.89092,81667
31.89905,84797
31.90717,88762
31.91528,81655
31.92342,87092
31.93153,89097
31.93967,98061
31.94778,108782
31.95590,127504
31.96403,151868
31.97215,170208
31.98028,182048
31.98840,199835
31.99652,184092
32.00465,185305
32.01277,172062
32.02090,168251
32.02902,161441
32.03713,141214
32.04527,127579
32.05338,127450
32.06150,116633
32.06963,110291
32.07775,109177
32.08588,110084
32.09400,110467
32.10212,113389
32.11025,111154
32.11837,107328
32.12650,101866
32.13462,96853
32.14273,95662
32.15087,89995
32.15898,87758
32.16712,92800
32.17523,87567
32.18335,84273
32.19148,79577
32.19960,88212
32.20772,81522
32.21585,80308
32.22397,80953
32.23210,76610
32.24022,81188
32.24833,81112
32.25647,76898
32.26458,78907
32.27272,77617
32.28083,75068
32.28895,74167
32.29708,81449
32.30520,79288
32.31332,78905
32.32145,72375
32.32957,76308
32.33770,78363
32.34582,79730
32.35393,80528
32.36207,87476
32.37018,83339
32.37832,88468
32.38643,91614
32.39455,83204
32.40268,80537
32.41080,71006
32.41893,77129
32.42705,79272
32.43517,80064
32.44330,75838
32.45142,74188
32.45953,74758
32.46767,72442
32.47578,70509
32.48392,70406
32.49203,72976
32.50015,74063
32.50828,68742
32.51640,75730
32.52453,68931
32.53265,70971
32.54077,73043
32.54890,72348
32.55702,72468
32.56515,74196
32.57327,68674
32.58138,66016
32.58952,68367
32.59763,69433
32.60575,67745
32.61388,65397
32.62200,71299
32.63013,70036
32.63825,76817
32.64637,72168
32.65450,76328
32.66262,88076
32.67075,107633
32.67887,126688
32.68698,148618
32.69512,162237
32.70323,150809
32.71135,135170
32.71948,108751
32.72760,103021
32.73573,89157
32.74385,79159
32.75197,76778
32.76010,70528
32.76822,73423
32.77635,74413
32.78447,71523
32.79258,70086
32.80072,67905
32.80883,70825
32.81697,68558
32.82508,71343
32.83320,71154
32.84133,68511
32.84945,69641
32.85757,70642
32.86570,64800
32.87382,67848
32.88195,67174
32.89007,68814
32.89818,75814
32.90632,71624
32.91443,71880
32.92257,73486
32.93068,70261
32.93880,76051
32.94693,71863
32.95505,71302
32.96317,67546
32.97130,71915
32.97942,71784
32.98755,77632
32.99567,70884
33.00378,73510
33.01192,78004
33.02003,77183
33.02817,70908
33.03628,72841
33.04440,70216
33.05253,71963
33.06065,71555
33.06878,68818
33.07690,66477
33.08502,69524
33.09315,74089
33.10127,77491
33.10938,84395
33.11752,95303
33.12563,107159
33.13377,105930
33.14188,115126
33.15000,110167
33.15813,101073
33.16625,86420
33.17438,83397
33.18250,75593
33.19062,73604
33.19875,79353
33.20687,82394
33.21500,77375
33.22312,79228
33.23123,82968
33.23937,77197
33.24748,83441
33.25560,79089
33.26373,81095
33.27185,76220
33.27998,74433
33.28810,77629
33.29622,77565
33.30435,77558
33.31247,76487
33.32060,68533
33.32872,70953
33.33683,68846
33.34497,78037
33.35308,74728
33.36120,71987
33.36933,73762
33.37745,76361
33.38558,75193
33.39370,76647
33.40182,78617
33.40995,77001
33.41807,77514
33.42620,72349
33.43432,73305
33.44243,71796
33.45057,70792
33.45868,76969
33.46682,75158
33.47493,82036
33.48305,76775
33.49118,72129
33.49930,79385
33.50742,71155
33.51555,73220
33.52367,75306
33.53180,73212
33.53992,77034
33.54803,72563
33.55617,75743
33.56428,76061
33.57242,77688
33.58053,73940
33.58865,74517
33.59678,72095
33.60490,69965
33.61303,75223
33.62115,71989
33.62927,71601
33.63740,74197
33.64552,79497
33.65363,73760
33.66177,81881
33.66988,80029
33.67802,72861
33.68613,77437
33.69425,78402
33.70238,70014
33.71050,72146
33.71863,71688
33.72675,73784
33.73487,73070
33.74300,76937
33.75112,76679
33.75923,76179
33.76737,73877
33.77548,79028
33.78362,76370
33.79173,75916
33.79985,78013
33.80798,70394
33.81610,77810
33.82423,78161
33.83235,78336
33.84047,79755
33.84860,79122
33.85672,82581
33.86485,83603
33.87297,88747
33.88108,83106
33.88922,78673
33.89733,74537
33.90545,82148
33.91358,79918
33.92170,80973
33.92983,80525
33.93795,81062
33.94607,83958
33.95420,86923
33.96232,81879
33.97045,83123
33.97857,84091
33.98668,77209
33.99482,81244
34.00293,76952
34.01105,76865
34.01918,83201
34.02730,80819
34.03543,80868
34.04355,77089
34.05167,78517
34.05980,74292
34.06792,82170
34.07605,78215
34.08417,75758
34.09228,75693
34.10042,79721
34.10853,75978
34.11667,79825
34.12478,73530
34.13290,79247
34.14103,73017
34.14915,76998
34.15727,76688
34.16540,78511
34.17352,80489
34.18165,77920
34.18977,73664
34.19788,77600
34.20602,81079
34.21413,77776
34.22227,80001
34.23038,72461
34.23850,72856
34.24663,72213
34.25475,79101
34.26288,76355
34.27100,73955
34.27912,77805
34.28725,78129
34.29537,75523
34.30348,72714
34.31162,77454
34.31973,79174
34.32787,82402
34.33598,77724
34.34410,78580
34.35223,80012
34.36035,74816
34.36848,82592
34.37660,78409
34.38472,78373
34.39285,78821
34.40097,79398
34.40910,79285
34.41722,80975
34.42533,78451
34.43347,78569
34.44158,81271
34.44970,83256
34.45783,78511
34.46595,76375
34.47408,76283
34.48220,73127
34.49032,82099
34.49845,80282
34.50657,80549
34.51470,80203
34.52282,83750
34.53093,93755
34.53907,99621
34.54718,116194
34.55530,136235
34.56343,160295
34.57155,165870
34.57968,173227
34.58780,170693
34.59592,176707
34.60405,156288
34.61217,140845
34.62030,134260
34.62842,126302
34.63653,119694
34.64467,116139
34.65278,110543
34.66092,102169
34.66903,105033
34.67715,103905
34.68528,99043
34.69340,105076
34.70152,102577
34.70965,100582
34.71777,94122
34.72590,97494
34.73402,97005
34.74213,97698
34.75027,106566
34.75838,96582
34.76652,94539
34.77463,96790
34.78275,96118
34.79088,94588
34.79900,92968
34.80712,92099
34.81525,92232
34.82337,98446
34.83150,92169
34.83962,90827
34.84773,93007
34.85587,89346
34.86398,90556
34.87212,92756
34.88023,96097
34.88835,88041
34.89648,98274
34.90460,96084
34.91273,99537
34.92085,94574
34.92897,105441
34.93710,104202
34.94522,112980
34.95333,116883
34.96147,138790
34.96958,157545
34.97772,190895
34.98583,213608
34.99395,243076
35.00208,245032
35.01020,226376
35.01833,213268
35.02645,186140
35.03457,169154
35.04270,169335
35.05082,154022
35.05895,150316
35.06707,148966
35.07518,146332
35.08332,148797
35.09143,138836
35.09955,143980
35.10768,134085
35.11580,131472
35.12393,128212
35.13205,120928
35.14017,125443
35.14830,131389
35.15642,125665
35.16455,130390
35.17267,124621
35.18078,122444
35.18892,114232
35.19703,116674
35.20515,110581
35.21328,103729
35.22140,101767
35.22953,100079
35.23765,94080
35.24577,91342
35.25390,92475
35.26202,93706
35.27015,91082
35.27827,92350
35.28638,95005
35.29452,92612
35.30263,98442
35.31077,96963
35.31888,89052
35.32700,90086
35.33513,88231
35.34325,85253
35.35137,91261
35.35950,91112
35.36762,84548
35.37575,86296
35.38387,92141
35.39198,85079
35.40012,83178
35.40823,89001
35.41637,86396
35.42448,91290
35.43260,85235
35.44073,88474
35.44885,92595
35.45698,89003
35.46510,89613
35.47322,91351
35.48135,94792
35.48947,92283
35.49758,95456
35.50572,92802
35.51383,91260
35.52197,89789
35.53008,88833
35.53820,90323
35.54633,87574
35.55445,91289
35.56258,90354
35.57070,89781
35.57882,87149
35.58695,90377
35.59507,86761
35.60318,92740
35.61132,94417
35.61943,94877
35.62757,93369
35.63568,93831
35.64380,93742
35.65193,94185
35.66005,93813
35.66818,88271
35.67630,87906
35.68442,92856
35.69255,92583
35.70067,99983
35.70880,103442
35.71692,106621
35.72503,103800
35.73317,99591
35.74128,96938
35.74940,96099
35.75753,98361
35.76565,95758
35.77378,100147
35.78190,99963
35.79002,104604
35.79815,98395
35.80627,94512
35.81440,93782
35.82252,100101
35.83063,94689
35.83877,88033
35.84688,91870
35.85500,103878
35.86313,91624
35.87125,96532
35.87938,90244
35.88750,96832
35.89562,94617
35.90375,92176
35.91187,88771
35.92000,98838
35.92812,90979
35.93623,103617
35.94437,89649
35.95248,90660
35.96062,94613
35.96873,91732
35.97685,90816
35.98498,89479
35.99310,89714
36.00122,95928
36.00935,92531
36.01747,92344
36.02560,100767
36.03372,100164
36.04183,104921
36.04997,101799
36.05808,103359
36.06622,104506
36.07433,107764
36.08245,110987
36.09058,109845
36.09870,111110
36.10683,110730
36.11495,106366
36.12307,103604
36.13120,98283
36.13932,106258
36.14743,92204
36.15557,98551
36.16368,106215
36.17182,105840
36.17993,103552
36.18805,103186
36.19618,104533
36.20430,107977
36.21243,100023
36.22055,105358
36.22867,101189
36.23680,101205
36.24492,96791
36.25303,97555
36.26117,95366
36.26928,94924
36.27742,100707
36.28553,93089
36.29365,98365
36.30178,109947
36.30990,123695
36.31803,148623
36.32615,176448
36.33427,197905
36.34240,216029
36.35052,201172
36.35865,181894
36.36677,152897
36.37488,145895
36.38302,137367
36.39113,139722
36.39925,143476
36.40738,140792
36.41550,135634
36.42363,123461
36.43175,123433
36.43987,119985
36.44800,115136
36.45612,106847
36.46425,102265
36.47237,98248
36.48048,93436
36.48862,99668
36.49673,93498
36.50487,103509
36.51298,96005
36.52110,93159
36.52923,94111
36.53735,95367
36.54547,99709
36.55360,101832
36.56172,98597
36.56985,97704
36.57797,105167
36.58608,102518
36.59422,93695
36.60233,98711
36.61047,111998
36.61858,103440
36.62670,108256
36.63483,105558
36.64295,107902
36.65107,107953
36.65920,110127
36.66732,104947
36.67545,103657
36.68357,109967
36.69168,115341
36.69982,112202
36.70793,107075
36.71607,106967
36.72418,104973
36.73230,100790
36.74043,109559
36.74855,101801
36.75668,105625
36.76480,103667
36.77292,109924
36.78105,102931
36.78917,106584
36.79728,101114
36.80542,107797
36.81353,100198
36.82167,105526
36.82978,102796
36.83790,104133
36.84603,103828
36.85415,104465
36.86228,98076
36.87040,101966
36.87852,101941
36.88665,103771
36.89477,105050
36.90290,115943
36.91102,106432
36.91913,103120
36.92727,102359
36.93538,99791
36.94350,100626
36.95163,107482
36.95975,102167
36.96788,101219
36.97600,103757
36.98412,104303
36.99225,106248
37.00037,111658
37.00850,108908
37.01662,101025
37.02473,103039
37.03287,99516
37.04098,103118
37.04910,104742
37.05723,107191
37.06535,104720
37.07348,110531
37.08160,105188
37.08972,111409
37.09785,103985
37.10597,115686
37.11410,109652
37.12222,110162
37.13033,105618
37.13847,109176
37.14658,108403
37.15472,107729
37.16283,111173
37.17095,111138
37.17908,107969
37.18720,114119
37.19532,109717
37.20345,109457
37.21157,111708
37.21970,110457
37.22782,119990
37.23593,114575
37.24407,118777
37.25218,114387
37.26032,116589
37.26843,112419
37.27655,109969
37.28468,113027
37.29280,114842
37.30092,116633
37.30905,117798
37.31717,113946
37.32530,114242
37.33342,119448
37.34153,129159
37.34967,130070
37.35778,141825
37.36592,160793
37.37403,168272
37.38215,176747
37.39028,176446
37.39840,179181
37.40653,177893
37.41465,164914
37.42277,177524
37.43090,154639
37.43902,154306
37.44713,148426
37.45527,151474
37.46338,148994
37.47152,152017
37.47963,146799
37.48775,148723
