Z:\data\JTB-E02\BACandBLUE\JTB-E02-205-17.D Sun Mar 10 16:59:18 2019
Start of data points
2.09535	70434
2.10347	57705
2.11160	58438
2.11972	61529
2.12783	64286
2.13597	58777
2.14408	60203
2.15220	61863
2.16033	59018
2.16845	60156
2.17658	57417
2.18470	57396
2.19282	54214
2.20095	52555
2.20907	53120
2.21720	49308
2.22532	50822
2.23343	49788
2.24157	54807
2.24968	52018
2.25782	46129
2.26593	66375
2.27405	389914
2.28218	1221456
2.29030	968133
2.29842	470738
2.30655	317246
2.31467	270298
2.32280	236550
2.33092	210573
2.33903	199211
2.34717	175868
2.35528	166905
2.36342	152440
2.37153	143461
2.37965	139252
2.38778	126744
2.39590	126000
2.40402	120808
2.41215	119928
2.42027	122408
2.42840	128936
2.43652	118785
2.44463	112254
2.45277	122871
2.46088	111201
2.46902	111377
2.47713	105766
2.48525	100014
2.49338	108471
2.50150	112038
2.50963	101941
2.51775	98623
2.52587	101388
2.53400	102709
2.54212	97985
2.55023	102878
2.55837	129494
2.56648	201769
2.57462	176692
2.58273	139435
2.59085	126694
2.59898	130396
2.60710	368359
2.61523	1198503
2.62335	1269921
2.63147	715379
2.63960	427738
2.64772	319551
2.65585	251185
2.66397	208197
2.67208	182646
2.68022	156114
2.68833	145080
2.69645	138046
2.70458	119666
2.71270	118660
2.72083	114207
2.72895	112842
2.73707	110653
2.74520	104128
2.75332	101701
2.76145	98122
2.76957	98925
2.77768	137440
2.78582	386596
2.79393	631164
2.80205	450682
2.81018	280925
2.81830	226647
2.82643	203204
2.83455	184954
2.84267	168485
2.85080	153532
2.85892	136639
2.86705	133757
2.87517	124859
2.88328	119437
2.89142	115969
2.89953	109634
2.90767	109634
2.91578	106496
2.92390	103068
2.93203	99033
2.94015	96811
2.94827	96753
2.95640	97318
2.96452	101611
2.97265	101987
2.98077	96965
2.98888	91448
2.99702	93099
3.00513	109467
3.01327	111007
3.02138	109224
3.02950	100286
3.03763	92673
3.04575	90550
3.05388	94172
3.06200	89105
3.07012	93893
3.07825	117601
3.08637	413190
3.09448	1484508
3.10262	3055072
3.11073	5330823
3.11887	6415534
3.12698	4569588
3.13510	2909798
3.14323	2127088
3.15135	1707580
3.15948	1360412
3.16760	1112720
3.17572	954307
3.18385	867180
3.19197	1088117
3.20008	1485561
3.20822	1358351
3.21633	980950
3.22447	780317
3.23258	678426
3.24070	579294
3.24883	514472
3.25695	474648
3.26508	419406
3.27320	379093
3.28132	355808
3.28945	397795
3.29757	734103
3.30570	1796425
3.31382	3179290
3.32193	3562899
3.33007	2859286
3.33818	1997085
3.34630	1464184
3.35443	1178884
3.36255	965811
3.37068	846587
3.37880	754494
3.38692	682154
3.39505	610427
3.40317	590283
3.41130	537365
3.41942	498984
3.42753	469244
3.43567	449298
3.44378	429261
3.45190	405189
3.46003	391623
3.46815	375127
3.47628	391125
3.48440	385640
3.49252	365573
3.50065	334435
3.50877	331547
3.51690	306846
3.52502	291736
3.53313	301613
3.54127	294482
3.54938	301127
3.55752	286088
3.56563	257890
3.57375	260991
3.58188	261519
3.59000	256457
3.59812	238944
3.60625	224208
3.61437	226000
3.62250	230782
3.63062	239213
3.63873	241175
3.64687	235010
3.65498	230637
3.66312	360647
3.67123	1457147
3.67935	4766092
3.68748	7546198
3.69560	6244932
3.70373	3635549
3.71185	2319137
3.71997	1765669
3.72810	1458509
3.73622	1249999
3.74433	1101720
3.75247	987065
3.76058	880799
3.76872	805468
3.77683	757531
3.78495	695196
3.79308	669353
3.80120	750154
3.80933	1366559
3.81745	2701687
3.82557	3567847
3.83370	2879475
3.84182	1910648
3.84993	1399498
3.85807	1180722
3.86618	1005094
3.87432	893937
3.88243	815898
3.89055	730460
3.89868	688290
3.90680	644489
3.91493	618541
3.92305	674923
3.93117	761303
3.93930	784842
3.94742	783973
3.95555	1172842
3.96367	2444426
3.97178	3780922
3.97992	3653356
3.98803	2512555
3.99615	1912734
4.00428	3396632
4.01240	8091631
4.02053	1.288324E+07
4.02865	1.210118E+07
4.03677	7562609
4.04490	4246271
4.05302	2601638
4.06115	1906524
4.06927	1492298
4.07738	1223069
4.08552	1034751
4.09363	913280
4.10177	826955
4.10988	729416
4.11800	674053
4.12613	612027
4.13425	595152
4.14237	571395
4.15050	595498
4.15862	578798
4.16675	564617
4.17487	560157
4.18298	526514
4.19112	512581
4.19923	465380
4.20737	493290
4.21548	1126188
4.22360	4005994
4.23173	9841836
4.23985	1.50634E+07
4.24797	1.573156E+07
4.25610	1.172692E+07
4.26422	7462189
4.27235	4993077
4.28047	3600395
4.28858	2717808
4.29672	2164513
4.30483	1720245
4.31297	1415842
4.32108	1187948
4.32920	1042462
4.33733	908651
4.34545	802460
4.35358	747624
4.36170	704447
4.36982	699729
4.37795	652753
4.38607	600995
4.39418	525843
4.40232	481840
4.41043	460072
4.41857	426945
4.42668	404369
4.43480	388924
4.44293	371445
4.45105	349778
4.45918	347493
4.46730	329598
4.47542	318050
4.48355	317976
4.49167	308014
4.49978	300734
4.50792	296701
4.51603	289404
4.52417	272768
4.53228	277205
4.54040	269974
4.54853	280413
4.55665	280084
4.56478	275720
4.57290	255626
4.58102	240554
4.58915	240143
4.59727	240314
4.60540	238422
4.61352	233422
4.62163	240073
4.62977	284197
4.63788	404466
4.64600	520136
4.65413	549116
4.66225	464631
4.67038	359839
4.67850	302375
4.68662	277837
4.69475	262991
4.70287	247432
4.71100	231397
4.71912	232287
4.72723	239695
4.73537	225406
4.74348	225742
4.75162	221171
4.75973	202308
4.76785	197617
4.77598	202386
4.78410	242509
4.79222	565620
4.80035	1625571
4.80847	3376102
4.81660	4257767
4.82472	3572005
4.83283	2334506
4.84097	1640227
4.84908	1296303
4.85722	1098393
4.86533	940402
4.87345	817857
4.88158	717523
4.88970	648758
4.89782	584080
4.90595	550795
4.91407	503170
4.92220	478232
4.93032	456733
4.93843	462231
4.94657	608550
4.95468	1002349
4.96282	1632018
4.97093	2182712
4.97905	2313888
4.98718	1969143
4.99530	1482497
5.00343	1090753
5.01155	860383
5.01967	731561
5.02780	660610
5.03592	686639
5.04403	750339
5.05217	751682
5.06028	696665
5.06842	607962
5.07653	539294
5.08465	491953
5.09278	455635
5.10090	427130
5.10903	416324
5.11715	393528
5.12527	376476
5.13340	353822
5.14152	353439
5.14965	356665
5.15777	373024
5.16588	418689
5.17402	438529
5.18213	446569
5.19025	405856
5.19838	381462
5.20650	388696
5.21463	388144
5.22275	389747
5.23087	372752
5.23900	357935
5.24712	343507
5.25525	332198
5.26337	316324
5.27148	276204
5.27962	264898
5.28773	255865
5.29585	248282
5.30398	240207
5.31210	240627
5.32023	234501
5.32835	239096
5.33647	265886
5.34460	289604
5.35272	297461
5.36085	283458
5.36897	248597
5.37708	236463
5.38522	230997
5.39333	232569
5.40147	233168
5.40958	234427
5.41770	226004
5.42583	233571
5.43395	211294
5.44207	214058
5.45020	220233
5.45832	219133
5.46645	215492
5.47457	218300
5.48268	202570
5.49082	199455
5.49893	191379
5.50707	189431
5.51518	195997
5.52330	197002
5.53143	204739
5.53955	192978
5.54767	187305
5.55580	194326
5.56392	218280
5.57205	267573
5.58017	309930
5.58828	322916
5.59642	301226
5.60453	261893
5.61267	225663
5.62078	208033
5.62890	200954
5.63703	194226
5.64515	205053
5.65328	197071
5.66140	190179
5.66952	187829
5.67765	193734
5.68577	240638
5.69388	277619
5.70202	314171
5.71013	301849
5.71827	260926
5.72638	232841
5.73450	206343
5.74263	184228
5.75075	176401
5.75888	171348
5.76700	164025
5.77512	158420
5.78325	158383
5.79137	165698
5.79950	157049
5.80762	152630
5.81573	155576
5.82387	149807
5.83198	151868
5.84010	151738
5.84823	149560
5.85635	148167
5.86448	146858
5.87260	146890
5.88072	148174
5.88885	145000
5.89697	142262
5.90510	136442
5.91322	136029
5.92133	135946
5.92947	125744
5.93758	128189
5.94572	139825
5.95383	151656
5.96195	162576
5.97008	197938
5.97820	244256
5.98632	304211
5.99445	345916
6.00257	353616
6.01070	302412
6.01882	249946
6.02693	204840
6.03507	172758
6.04318	154039
6.05132	142907
6.05943	140974
6.06755	133441
6.07568	128315
6.08380	124439
6.09192	118850
6.10005	131101
6.10817	119381
6.11630	133165
6.12442	149039
6.13253	182883
6.14067	285464
6.14878	406972
6.15692	449019
6.16503	391470
6.17315	307553
6.18128	231970
6.18940	196301
6.19753	185636
6.20565	171705
6.21377	167355
6.22190	169714
6.23002	159741
6.23813	163606
6.24627	157227
6.25438	164384
6.26252	165196
6.27063	166874
6.27875	159588
6.28688	164992
6.29500	164296
6.30313	149971
6.31125	160009
6.31937	163146
6.32750	171018
6.33562	178590
6.34373	205953
6.35187	207176
6.35998	198708
6.36812	186914
6.37623	179582
6.38435	174533
6.39248	168413
6.40060	176919
6.40873	178142
6.41685	163543
6.42497	168362
6.43310	175394
6.44122	178211
6.44935	178868
6.45747	179575
6.46558	176057
6.47372	180377
6.48183	183911
6.48995	177958
6.49808	183385
6.50620	177704
6.51433	180746
6.52245	184734
6.53057	189533
6.53870	180162
6.54682	187474
6.55495	186014
6.56307	196780
6.57118	208362
6.57932	232453
6.58743	262551
6.59557	266430
6.60368	257612
6.61180	220561
6.61993	204916
6.62805	203933
6.63617	204484
6.64430	209053
6.65242	234839
6.66055	348092
6.66867	566072
6.67678	775204
6.68492	789004
6.69303	621480
6.70117	479453
6.70928	312713
6.71740	240457
6.72553	210828
6.73365	189001
6.74177	176650
6.74990	174295
6.75802	162075
6.76615	156429
6.77427	145189
6.78238	138704
6.79052	139657
6.79863	125134
6.80677	124293
6.81488	129486
6.82300	124405
6.83113	114105
6.83925	121024
6.84738	122417
6.85550	129100
6.86362	140879
6.87175	143711
6.87987	144334
6.88798	131605
6.89612	111483
6.90423	103496
6.91237	88578
6.92048	93584
6.92860	88498
6.93673	88766
6.94485	85036
6.95298	88750
6.96110	86734
6.96922	109825
6.97735	131100
6.98547	158358
6.99360	169004
7.00172	150240
7.00983	134363
7.01797	108691
7.02608	99563
7.03420	96732
7.04233	88961
7.05045	87453
7.05858	88630
7.06670	86946
7.07482	89890
7.08295	86549
7.09107	87672
7.09920	85151
7.10732	78417
7.11543	75326
7.12357	86349
7.13168	76264
7.13980	80420
7.14793	93581
7.15605	119604
7.16418	158330
7.17230	187694
7.18042	176825
7.18855	171702
7.19667	167148
7.20480	321828
7.21292	795267
7.22103	1637334
7.22917	2377444
7.23728	2538332
7.24542	1934213
7.25353	1200264
7.26165	691843
7.26978	381968
7.27790	229160
7.28602	146819
7.29415	117485
7.30227	97928
7.31040	95111
7.31852	91362
7.32663	98731
7.33477	106872
7.34288	109586
7.35102	107865
7.35913	96552
7.36725	92415
7.37538	92706
7.38350	88431
7.39162	82581
7.39975	89550
7.40787	92468
7.41600	92126
7.42412	83287
7.43223	89461
7.44037	92871
7.44848	85203
7.45662	81367
7.46473	81732
7.47285	83757
7.48098	79679
7.48910	80733
7.49723	77260
7.50535	72668
7.51347	72397
7.52160	71964
7.52972	81300
7.53783	112232
7.54597	173612
7.55408	246458
7.56222	352172
7.57033	449126
7.57845	468375
7.58658	443085
7.59470	351328
7.60283	259776
7.61095	188461
7.61907	137165
7.62720	106057
7.63532	97823
7.64345	88715
7.65157	86108
7.65968	77669
7.66782	81651
7.67593	72801
7.68405	75435
7.69218	69705
7.70030	72764
7.70843	67236
7.71655	69464
7.72467	72256
7.73280	70212
7.74092	66296
7.74905	70215
7.75717	69502
7.76528	73553
7.77342	76318
7.78153	69562
7.78965	72715
7.79778	83011
7.80590	81065
7.81403	87535
7.82215	89520
7.83027	93931
7.83840	80398
7.84652	78838
7.85465	79985
7.86277	78930
7.87088	87463
7.87902	102687
7.88713	121684
7.89527	149967
7.90338	164391
7.91150	147941
7.91963	130487
7.92775	138880
7.93587	176361
7.94400	250159
7.95212	322668
7.96025	332424
7.96837	292342
7.97648	226558
7.98462	163212
7.99273	117392
8.00087	100713
8.00898	84281
8.01710	82746
8.02523	73569
8.03335	70662
8.04148	73908
8.04960	69927
8.05772	70499
8.06585	68600
8.07397	75406
8.08208	67489
8.09022	65275
8.09833	65217
8.10647	60341
8.11458	66314
8.12270	62481
8.13083	64672
8.13895	71607
8.14708	82050
8.15520	92115
8.16332	98597
8.17145	93806
8.17957	86624
8.18768	75056
8.19582	70919
8.20393	65722
8.21207	61775
8.22018	58486
8.22830	64429
8.23643	60767
8.24455	59541
8.25268	55916
8.26080	56579
8.26892	58567
8.27705	60731
8.28517	54473
8.29330	65326
8.30142	66027
8.30953	66383
8.31767	59308
8.32578	64664
8.33390	69670
8.34203	67850
8.35015	62806
8.35828	62826
8.36640	65744
8.37452	63631
8.38265	63427
8.39077	68473
8.39890	64849
8.40702	70131
8.41513	61646
8.42327	60929
8.43138	60431
8.43950	56983
8.44763	54139
8.45575	56328
8.46388	56370
8.47200	54722
8.48012	51322
8.48825	57644
8.49637	58135
8.50450	61638
8.51262	74446
8.52073	146004
8.52887	360059
8.53698	769105
8.54512	1346972
8.55323	1675224
8.56135	1532735
8.56948	1099830
8.57760	605859
8.58572	311329
8.59385	197937
8.60197	146156
8.61010	136618
8.61822	128751
8.62633	118079
8.63447	115027
8.64258	104788
8.65072	100972
8.65883	90843
8.66695	90737
8.67508	88062
8.68320	83054
8.69133	83982
8.69945	83753
8.70757	79270
8.71570	77194
8.72382	77916
8.73193	76132
8.74007	78008
8.74818	73542
8.75632	73735
8.76443	78320
8.77255	112613
8.78068	173718
8.78880	299496
8.79693	421996
8.80505	489601
8.81317	469927
8.82130	368306
8.82942	276045
8.83753	201520
8.84567	165349
8.85378	156324
8.86192	156542
8.87003	141933
8.87815	139820
8.88628	127464
8.89440	121791
8.90253	123865
8.91065	119288
8.91877	112280
8.92690	115417
8.93502	129258
8.94315	142959
8.95127	156253
8.95938	153253
8.96752	137864
8.97563	118292
8.98375	115257
8.99188	110624
9.00000	113527
9.00813	107066
9.01625	100481
9.02437	96542
9.03250	95535
9.04062	87840
9.04875	85924
9.05687	84580
9.06498	76613
9.07312	83563
9.08123	81410
9.08937	80374
9.09748	79991
9.10560	96306
9.11373	97976
9.12185	104594
9.12997	110049
9.13810	110957
9.14622	97584
9.15435	85373
9.16247	84972
9.17058	82566
9.17872	82310
9.18683	80186
9.19497	78087
9.20308	78447
9.21120	74926
9.21933	73811
9.22745	76166
9.23557	71396
9.24370	72230
9.25182	75080
9.25995	79000
9.26807	71549
9.27618	72569
9.28432	75481
9.29243	66154
9.30057	65596
9.30868	69561
9.31680	62665
9.32493	63924
9.33305	63025
9.34118	64601
9.34930	65552
9.35742	61739
9.36555	62293
9.37367	63388
9.38178	64559
9.38992	63085
9.39803	65028
9.40617	65550
9.41428	70959
9.42240	73835
9.43053	84601
9.43865	85933
9.44678	96124
9.45490	105165
9.46302	95072
9.47115	92033
9.47927	81355
9.48740	73577
9.49552	79884
9.50363	66764
9.51177	71738
9.51988	76529
9.52800	82954
9.53613	86192
9.54425	87321
9.55238	83933
9.56050	81215
9.56862	82601
9.57675	89210
9.58487	100937
9.59300	125571
9.60112	143950
9.60923	149711
9.61737	130959
9.62548	112167
9.63360	81558
9.64173	64281
9.64985	57671
9.65798	55938
9.66610	52437
9.67422	51454
9.68235	51719
9.69047	51877
9.69860	54270
9.70672	49063
9.71483	57271
9.72297	51350
9.73108	47607
9.73922	47903
9.74733	48867
9.75545	51370
9.76358	47028
9.77170	48325
9.77982	47450
9.78795	44046
9.79607	44857
9.80420	43001
9.81232	47514
9.82043	48217
9.82857	44186
9.83668	45420
9.84482	44794
9.85293	42326
9.86105	42527
9.86918	48962
9.87730	52924
9.88542	48650
9.89355	47252
9.90167	43543
9.90980	48426
9.91792	41737
9.92603	46897
9.93417	47302
9.94228	55293
9.95042	59983
9.95853	73126
9.96665	86566
9.97478	80888
9.98290	82764
9.99103	70525
9.99915	69759
10.00727	65300
10.01540	55243
10.02352	57140
10.03163	59195
10.03977	55770
10.04788	56021
10.05602	55755
10.06413	59572
10.07225	51603
10.08038	51570
10.08850	54600
10.09663	52339
10.10475	52507
10.11287	54210
10.12100	50236
10.12912	51294
10.13725	46274
10.14537	45032
10.15348	50412
10.16162	45247
10.16973	45774
10.17785	41689
10.18598	42796
10.19410	44922
10.20223	44333
10.21035	43538
10.21847	41307
10.22660	48393
10.23472	53860
10.24285	47079
10.25097	60067
10.25908	77583
10.26722	170330
10.27533	410095
10.28345	1010290
10.29158	2075450
10.29970	3457638
10.30783	5292325
10.31595	7984650
10.32407	1.222847E+07
10.33220	1.860535E+07
10.34032	2.484832E+07
10.34845	2.915681E+07
10.35657	2.724208E+07
10.36468	1.999426E+07
10.37282	1.059965E+07
10.38093	4780367
10.38907	2310945
10.39718	1403911
10.40530	1013931
10.41343	815501
10.42155	660815
10.42967	578569
10.43780	491270
10.44592	445431
10.45405	414901
10.46217	380178
10.47028	350065
10.47842	320864
10.48653	302355
10.49467	267001
10.50278	258886
10.51090	241194
10.51903	252135
10.52715	252221
10.53528	285790
10.54340	318833
10.55152	328298
10.55965	334638
10.56777	289736
10.57588	247366
10.58402	215789
10.59213	200027
10.60027	180002
10.60838	166160
10.61650	158714
10.62463	145788
10.63275	149706
10.64088	143109
10.64900	137966
10.65712	135941
10.66525	132064
10.67337	130600
10.68148	122757
10.68962	120159
10.69773	126063
10.70587	114622
10.71398	123827
10.72210	117225
10.73023	117105
10.73835	112314
10.74648	111130
10.75460	100615
10.76272	107642
10.77085	102484
10.77897	98449
10.78710	96921
10.79522	94793
10.80333	94663
10.81147	94264
10.81958	95076
10.82770	91314
10.83583	90097
10.84395	93437
10.85208	81712
10.86020	80199
10.86832	83108
10.87645	74987
10.88457	74489
10.89270	74935
10.90082	77804
10.90893	76263
10.91707	73129
10.92518	71374
10.93330	69087
10.94143	68428
10.94955	71295
10.95768	68279
10.96580	70916
10.97392	71439
10.98205	74636
10.99017	69696
10.99830	68488
11.00642	65733
11.01453	71071
11.02267	67381
11.03078	65942
11.03892	63302
11.04703	62723
11.05515	62013
11.06328	61274
11.07140	61800
11.07952	58858
11.08765	62940
11.09577	64370
11.10390	62256
11.11202	62087
11.12013	58770
11.12827	55222
11.13638	55929
11.14452	53806
11.15263	46905
11.16075	45476
11.16888	52234
11.17700	48338
11.18513	54113
11.19325	55055
11.20137	59447
11.20950	58917
11.21762	55343
11.22573	51482
11.23387	50976
11.24198	46300
11.25012	44702
11.25823	41469
11.26635	43620
11.27448	42201
11.28260	40818
11.29073	41830
11.29885	46286
11.30697	52284
11.31510	63143
11.32322	98704
11.33135	141884
11.33947	196216
11.34758	270567
11.35572	303183
11.36383	297770
11.37195	243559
11.38008	182450
11.38820	140972
11.39633	112062
11.40445	96045
11.41257	84417
11.42070	82883
11.42882	75166
11.43695	73730
11.44507	69617
11.45318	61995
11.46132	63677
11.46943	61162
11.47755	69801
11.48568	98922
11.49380	123609
11.50193	153513
11.51005	172796
11.51817	165300
11.52630	163502
11.53442	138183
11.54255	127711
11.55067	117891
11.55878	109898
11.56692	102114
11.57503	86948
11.58317	80613
11.59128	77675
11.59940	85519
11.60753	107618
11.61565	135131
11.62377	155683
11.63190	162522
11.64002	157228
11.64815	125164
11.65627	103373
11.66438	82655
11.67252	73435
11.68063	64812
11.68877	64607
11.69688	58013
11.70500	57794
11.71313	61415
11.72125	58207
11.72937	56907
11.73750	52337
11.74562	60486
11.75375	57332
11.76187	52268
11.76998	54468
11.77812	51324
11.78623	52629
11.79437	45798
11.80248	46077
11.81060	48140
11.81873	46816
11.82685	45724
11.83498	45846
11.84310	45032
11.85122	46373
11.85935	48340
11.86747	45067
11.87558	48522
11.88372	44570
11.89183	49029
11.89997	43795
11.90808	42606
11.91620	43389
11.92433	48554
11.93245	51905
11.94058	48752
11.94870	55623
11.95682	49242
11.96495	52488
11.97307	44257
11.98120	45947
11.98932	46799
11.99743	52810
12.00557	68680
12.01368	83642
12.02180	85093
12.02993	84729
12.03805	77463
12.04618	63910
12.05430	64778
12.06242	50343
12.07055	44990
12.07867	46337
12.08680	46101
12.09492	48115
12.10303	48455
12.11117	45762
12.11928	49181
12.12740	59496
12.13553	65512
12.14365	69432
12.15178	66607
12.15990	63122
12.16802	55114
12.17615	58340
12.18427	46642
12.19240	43926
12.20052	45178
12.20863	44924
12.21677	44451
12.22488	42944
12.23302	46959
12.24113	45192
12.24925	48711
12.25738	46207
12.26550	44095
12.27362	47954
12.28175	48062
12.28987	44928
12.29800	44229
12.30612	43682
12.31423	40975
12.32237	40664
12.33048	43536
12.33862	38089
12.34673	38408
12.35485	37677
12.36298	42424
12.37110	44631
12.37923	37154
12.38735	42179
12.39547	42322
12.40360	46541
12.41172	56964
12.41983	59134
12.42797	81614
12.43608	87964
12.44422	84673
12.45233	77000
12.46045	67824
12.46858	62630
12.47670	55102
12.48483	54153
12.49295	47419
12.50107	44404
12.50920	46007
12.51732	43799
12.52543	46764
12.53357	57362
12.54168	89629
12.54982	157141
12.55793	279330
12.56605	426023
12.57418	508169
12.58230	501201
12.59043	387404
12.59855	257572
12.60667	159749
12.61480	103253
12.62292	81624
12.63105	70786
12.63917	69651
12.64728	61461
12.65542	61086
12.66353	56618
12.67165	56736
12.67978	54393
12.68790	54778
12.69603	52387
12.70415	47698
12.71227	51246
12.72040	53690
12.72852	57188
12.73665	61739
12.74477	66875
12.75288	61442
12.76102	66733
12.76913	60248
12.77725	54805
12.78538	47226
12.79350	45636
12.80163	43155
12.80975	41732
12.81787	46052
12.82600	38969
12.83412	40943
12.84225	42963
12.85037	41795
12.85848	41440
12.86662	40438
12.87473	37963
12.88287	41607
12.89098	39247
12.89910	37133
12.90723	36078
12.91535	39038
12.92347	38549
12.93160	38047
12.93972	43588
12.94785	39876
12.95597	39675
12.96408	41022
12.97222	41393
12.98033	47816
12.98847	45907
12.99658	48472
13.00470	42774
13.01283	37608
13.02095	38521
13.02908	36874
13.03720	35835
13.04532	36406
13.05345	38424
13.06157	36998
13.06968	38898
13.07782	38960
13.08593	38505
13.09407	37469
13.10218	42927
13.11030	42271
13.11843	37635
13.12655	35750
13.13468	40738
13.14280	40065
13.15092	39112
13.15905	35355
13.16717	39401
13.17528	36425
13.18342	40416
13.19153	46484
13.19967	40767
13.20778	43476
13.21590	48727
13.22403	46593
13.23215	50700
13.24028	45641
13.24840	40907
13.25652	41300
13.26465	38289
13.27277	42217
13.28090	41535
13.28902	45566
13.29713	37125
13.30527	36644
13.31338	35856
13.32150	36181
13.32963	35548
13.33775	34497
13.34588	33464
13.35400	32354
13.36212	32822
13.37025	35186
13.37837	31317
13.38650	34209
13.39462	31594
13.40273	34182
13.41087	30269
13.41898	31208
13.42712	32617
13.43523	32214
13.44335	29421
13.45148	33896
13.45960	37746
13.46772	40842
13.47585	34101
13.48397	35247
13.49210	33957
13.50022	31844
13.50833	32927
13.51647	35186
13.52458	39598
13.53272	36969
13.54083	36101
13.54895	33655
13.55708	36259
13.56520	36192
13.57332	34496
13.58145	36470
13.58957	38326
13.59770	42764
13.60582	45813
13.61393	46054
13.62207	52823
13.63018	55936
13.63832	52846
13.64643	49426
13.65455	43836
13.66268	38002
13.67080	34479
13.67893	34885
13.68705	33275
13.69517	34215
13.70330	33691
13.71142	31960
13.71953	35306
13.72767	37649
13.73578	37249
13.74392	40085
13.75203	46199
13.76015	67222
13.76828	95074
13.77640	131423
13.78453	172828
13.79265	198251
13.80077	206484
13.80890	195521
13.81702	191551
13.82515	183501
13.83327	185783
13.84138	182880
13.84952	186814
13.85763	174626
13.86575	149602
13.87388	125714
13.88200	108152
13.89013	89614
13.89825	79426
13.90637	65558
13.91450	63199
13.92262	55793
13.93075	59053
13.93887	55168
13.94698	56171
13.95512	57154
13.96323	71918
13.97135	95940
13.97948	132844
13.98760	162641
13.99573	191917
14.00385	169983
14.01197	151177
14.02010	122970
14.02822	96555
14.03635	80709
14.04447	71305
14.05258	62589
14.06072	61744
14.06883	58899
14.07697	61175
14.08508	62790
14.09320	59678
14.10133	60010
14.10945	54738
14.11757	52663
14.12570	55341
14.13382	49513
14.14195	50159
14.15007	54350
14.15818	52981
14.16632	47816
14.17443	47904
14.18257	56927
14.19068	59225
14.19880	59071
14.20693	78042
14.21505	97369
14.22317	121030
14.23130	138285
14.23942	144255
14.24755	151817
14.25567	140752
14.26378	137845
14.27192	131217
14.28003	116093
14.28817	109702
14.29628	89001
14.30440	81352
14.31253	75420
14.32065	65907
14.32878	66633
14.33690	66185
14.34502	65773
14.35315	65068
14.36127	65548
14.36938	65827
14.37752	56126
14.38563	54852
14.39377	51210
14.40188	56348
14.41000	52704
14.41813	58918
14.42625	63844
14.43438	71188
14.44250	68252
14.45062	58580
14.45875	57551
14.46687	54454
14.47500	47757
14.48312	52365
14.49123	53675
14.49937	47875
14.50748	46857
14.51560	41493
14.52373	46325
14.53185	44519
14.53998	50855
14.54810	48542
14.55622	52322
14.56435	43380
14.57247	41632
14.58060	40572
14.58872	40514
14.59683	37623
14.60497	39893
14.61308	39724
14.62120	39281
14.62933	37866
14.63745	38527
14.64558	33168
14.65370	33186
14.66182	35756
14.66995	34930
14.67807	35838
14.68620	35500
14.69432	34536
14.70243	35557
14.71057	35855
14.71868	35217
14.72682	34897
14.73493	36813
14.74305	38291
14.75118	38352
14.75930	37508
14.76742	37217
14.77555	43009
14.78367	48353
14.79180	61527
14.79992	107834
14.80803	279514
14.81617	698757
14.82428	1461420
14.83242	2580447
14.84053	3489016
14.84865	3780840
14.85678	3226196
14.86490	2324255
14.87303	1472091
14.88115	886747
14.88927	573175
14.89740	411841
14.90552	336553
14.91363	269576
14.92177	232395
14.92988	221890
14.93802	197571
14.94613	186413
14.95425	168463
14.96238	164168
14.97050	154448
14.97863	144270
14.98675	142926
14.99487	128906
15.00300	126536
15.01112	114071
15.01923	117491
15.02737	104775
15.03548	111172
15.04362	106364
15.05173	102673
15.05985	95023
15.06798	88823
15.07610	91909
15.08423	85254
15.09235	83236
15.10047	84465
15.10860	84199
15.11672	77724
15.12485	79415
15.13297	83869
15.14108	88640
15.14922	94935
15.15733	100009
15.16545	96550
15.17358	84418
15.18170	75535
15.18983	64457
15.19795	60097
15.20607	59497
15.21420	55001
15.22232	46812
15.23045	47850
15.23857	47398
15.24668	47608
15.25482	43910
15.26293	48144
15.27105	45021
15.27918	46868
15.28730	39717
15.29543	40523
15.30355	45937
15.31167	41182
15.31980	43870
15.32792	37312
15.33605	40215
15.34417	39458
15.35228	40836
15.36042	37282
15.36853	39930
15.37667	39360
15.38478	45584
15.39290	48320
15.40103	44379
15.40915	40849
15.41727	44715
15.42540	37895
15.43352	37516
15.44165	41336
15.44977	36774
15.45788	39871
15.46602	39939
15.47413	41448
15.48227	46995
15.49038	54954
15.49850	61624
15.50663	74038
15.51475	82445
15.52288	82647
15.53100	80096
15.53912	74809
15.54725	77639
15.55537	68910
15.56348	70115
15.57162	62865
15.57973	61623
15.58787	49670
15.59598	46022
15.60410	44852
15.61223	41223
15.62035	42740
15.62848	44329
15.63660	39083
15.64472	41030
15.65285	41920
15.66097	37714
15.66908	38371
15.67722	37035
15.68533	41551
15.69347	38080
15.70158	37441
15.70970	35400
15.71783	43542
15.72595	40280
15.73408	38153
15.74220	38316
15.75032	38552
15.75845	49932
15.76657	65612
15.77470	103581
15.78282	172745
15.79093	238477
15.79907	282905
15.80718	297211
15.81530	254991
15.82343	192470
15.83155	136271
15.83968	105325
15.84780	81147
15.85592	76477
15.86405	64270
15.87217	61388
15.88030	59319
15.88842	54535
15.89653	62547
15.90467	57236
15.91278	60898
15.92092	48345
15.92903	53519
15.93715	54192
15.94528	54953
15.95340	49677
15.96152	52912
15.96965	61556
15.97777	69201
15.98590	68587
15.99402	74502
16.00213	71032
16.01027	76445
16.01838	68462
16.02652	75760
16.03463	75514
16.04275	81193
16.05088	75839
16.05900	77358
16.06712	70866
16.07525	60703
16.08337	53415
16.09150	45091
16.09962	48536
16.10773	51841
16.11587	48203
16.12398	47137
16.13212	49723
16.14023	46989
16.14835	52283
16.15648	51242
16.16460	46950
16.17273	46637
16.18085	50776
16.18897	42564
16.19710	43164
16.20522	41097
16.21333	40176
16.22147	43128
16.22958	46046
16.23772	44674
16.24583	45589
16.25395	45250
16.26208	44981
16.27020	42832
16.27833	43703
16.28645	42697
16.29457	40278
16.30270	48921
16.31082	45167
16.31893	47742
16.32707	46712
16.33518	46050
16.34332	48532
16.35143	46270
16.35955	55853
16.36768	62286
16.37580	80232
16.38393	85921
16.39205	93086
16.40017	89390
16.40830	85029
16.41642	67596
16.42455	60312
16.43267	55280
16.44078	50717
16.44892	57550
16.45703	74892
16.46515	132981
16.47328	230545
16.48140	380227
16.48953	500222
16.49765	564293
16.50577	513995
16.51390	405207
16.52202	262754
16.53015	172080
16.53827	122968
16.54638	101404
16.55452	88513
16.56263	77002
16.57077	71487
16.57888	68468
16.58700	68658
16.59513	68073
16.60325	78541
16.61137	74362
16.61950	73058
16.62762	69740
16.63575	68156
16.64387	68219
16.65198	61998
16.66012	58308
16.66823	60164
16.67637	52154
16.68448	53072
16.69260	45133
16.70073	48798
16.70885	47958
16.71698	49052
16.72510	45514
16.73322	43692
16.74135	43763
16.74947	45592
16.75758	44562
16.76572	51115
16.77383	52623
16.78197	60209
16.79008	55950
16.79820	52388
16.80633	46936
16.81445	39241
16.82258	41788
16.83070	40181
16.83882	36955
16.84695	37991
16.85507	38677
16.86318	38138
16.87132	37670
16.87943	38928
16.88757	35647
16.89568	36179
16.90380	36155
16.91193	37681
16.92005	39900
16.92818	36144
16.93630	37219
16.94442	39021
16.95255	40331
16.96067	35786
16.96880	44395
16.97692	40404
16.98503	42852
16.99317	38590
17.00128	42509
17.00940	39198
17.01753	37336
17.02565	44052
17.03378	39665
17.04190	44336
17.05002	41948
17.05815	45373
17.06627	47929
17.07440	46314
17.08252	44748
17.09063	45867
17.09877	43697
17.10688	47069
17.11500	42173
17.12313	44721
17.13125	42352
17.13938	42780
17.14750	43694
17.15562	43737
17.16375	42068
17.17187	43486
17.18000	42241
17.18812	41335
17.19623	36881
17.20437	39805
17.21248	37111
17.22062	37915
17.22873	35279
17.23685	35567
17.24498	38270
17.25310	38411
17.26122	39501
17.26935	40707
17.27747	38196
17.28560	39766
17.29372	36217
17.30183	37863
17.30997	36494
17.31808	35465
17.32622	39390
17.33433	43444
17.34245	44601
17.35058	47752
17.35870	48204
17.36683	50831
17.37495	54427
17.38307	48463
17.39120	49480
17.39932	43845
17.40743	46514
17.41557	46806
17.42368	44702
17.43182	45613
17.43993	45658
17.44805	42190
17.45618	45591
17.46430	43261
17.47243	40783
17.48055	41110
17.48867	39936
17.49680	35226
17.50492	38530
17.51303	41870
17.52117	37343
17.52928	39743
17.53742	41821
17.54553	37407
17.55365	43100
17.56178	45054
17.56990	56157
17.57803	81049
17.58615	134595
17.59427	202542
17.60240	299764
17.61052	400033
17.61865	468681
17.62677	475364
17.63488	397654
17.64302	318506
17.65113	266896
17.65925	242027
17.66738	252844
17.67550	269079
17.68363	263288
17.69175	236946
17.69987	203066
17.70800	162505
17.71612	139989
17.72425	107774
17.73237	94906
17.74048	85756
17.74862	77899
17.75673	77107
17.76487	71786
17.77298	72422
17.78110	63604
17.78923	64258
17.79735	63286
17.80547	59119
17.81360	62792
17.82172	60815
17.82985	65229
17.83797	67448
17.84608	73457
17.85422	71481
17.86233	70455
17.87047	74986
17.87858	75319
17.88670	71685
17.89483	63563
17.90295	60263
17.91107	54739
17.91920	52984
17.92732	47727
17.93545	52016
17.94357	42384
17.95168	44520
17.95982	47293
17.96793	43713
17.97607	38818
17.98418	47210
17.99230	41514
18.00043	43924
18.00855	44687
18.01668	47198
18.02480	52651
18.03292	56592
18.04105	64059
18.04917	76851
18.05728	72820
18.06542	78437
18.07353	87253
18.08167	116848
18.08978	149713
18.09790	194834
18.10603	228201
18.11415	224452
18.12228	206473
18.13040	179306
18.13852	149818
18.14665	129048
18.15477	118121
18.16288	108139
18.17102	98236
18.17913	94567
18.18727	87781
18.19538	86995
18.20350	82685
18.21163	80405
18.21975	76101
18.22788	73929
18.23600	63687
18.24412	63364
18.25225	64121
18.26037	63660
18.26850	61544
18.27662	60822
18.28473	57304
18.29287	58385
18.30098	53450
18.30910	46241
18.31723	52347
18.32535	47486
18.33348	52954
18.34160	40671
18.34972	40867
18.35785	42299
18.36597	42020
18.37410	40721
18.38222	40677
18.39033	41010
18.39847	41030
18.40658	42741
18.41472	41434
18.42283	51661
18.43095	46077
18.43908	49433
18.44720	59017
18.45532	58369
18.46345	82355
18.47157	99956
18.47970	140545
18.48782	159659
18.49593	174542
18.50407	171092
18.51218	144155
18.52032	117441
18.52843	97856
18.53655	76817
18.54468	68925
18.55280	64188
18.56092	59715
18.56905	51273
18.57717	48920
18.58530	55525
18.59342	48586
18.60153	51199
18.60967	51600
18.61778	54824
18.62592	56971
18.63403	60362
18.64215	74927
18.65028	110005
18.65840	165500
18.66653	202242
18.67465	230624
18.68277	244587
18.69090	244351
18.69902	247000
18.70713	251922
18.71527	263018
18.72338	255902
18.73152	259398
18.73963	271613
18.74775	261314
18.75588	253702
18.76400	266333
18.77213	259919
18.78025	275889
18.78837	256787
18.79650	261035
18.80462	257810
18.81275	260974
18.82087	258318
18.82898	260986
18.83712	258294
18.84523	254153
18.85335	247551
18.86148	243806
18.86960	247507
18.87773	248595
18.88585	252341
18.89397	246033
18.90210	241048
18.91022	244568
18.91835	231405
18.92647	245889
18.93458	252856
18.94272	244510
18.95083	246355
18.95895	257558
18.96708	257188
18.97520	261103
18.98333	257338
18.99145	255990
18.99957	241679
19.00770	231968
19.01582	236221
19.02395	229631
19.03207	225466
19.04018	221519
19.04832	243750
19.05643	238537
19.06457	257409
19.07268	285205
19.08080	315570
19.08893	348386
19.09705	381620
19.10517	405395
19.11330	416675
19.12142	425026
19.12955	416012
19.13767	386673
19.14578	374610
19.15392	346660
19.16203	344501
19.17017	332919
19.17828	330250
19.18640	322572
19.19453	318889
19.20265	323981
19.21077	305896
19.21890	290971
19.22702	270863
19.23515	263670
19.24327	230551
19.25138	212128
19.25952	213497
19.26763	200838
19.27577	198988
19.28388	202237
19.29200	213120
19.30013	217577
19.30825	224125
19.31638	220293
19.32450	216630
19.33262	208274
19.34075	204612
19.34887	197424
19.35698	196959
19.36512	206007
19.37323	219371
19.38137	233341
19.38948	241432
19.39760	243354
19.40573	220283
19.41385	209441
19.42198	186579
19.43010	181391
19.43822	172942
19.44635	176276
19.45447	170821
19.46260	163206
19.47072	159348
19.47883	153340
19.48697	168290
19.49508	167438
19.50320	165798
19.51133	171978
19.51945	195989
19.52758	202523
19.53570	217608
19.54382	208536
19.55195	195685
19.56007	186620
19.56820	167694
19.57632	155976
19.58443	152424
19.59257	145781
19.60068	147369
19.60880	138153
19.61693	134776
19.62505	135560
19.63318	135931
19.64130	152314
19.64942	164794
19.65755	198460
19.66567	263007
19.67380	317573
19.68192	371132
19.69003	389594
19.69817	382996
19.70628	344919
19.71442	294733
19.72253	265323
19.73065	222373
19.73878	207381
19.74690	185699
19.75502	164144
19.76315	163943
19.77127	157775
19.77940	150136
19.78752	151284
19.79563	155327
19.80377	151648
19.81188	163424
19.82002	153801
19.82813	150463
19.83625	147816
19.84438	135552
19.85250	137425
19.86063	139482
19.86875	183172
19.87687	260385
19.88500	425959
19.89312	696419
19.90123	1053740
19.90937	1375352
19.91748	1617877
19.92562	1585414
19.93373	1463067
19.94185	1288399
19.94998	1128745
19.95810	1018151
19.96623	953250
19.97435	878819
19.98247	828428
19.99060	789413
19.99872	745780
20.00683	723965
20.01497	690525
20.02308	659904
20.03122	635497
20.03933	594823
20.04745	529217
20.05558	489897
20.06370	418337
20.07183	351285
20.07995	285348
20.08807	247557
20.09620	219504
20.10432	210722
20.11245	192693
20.12057	183928
20.12868	185028
20.13682	175066
20.14493	171537
20.15305	165893
20.16118	176136
20.16930	186136
20.17743	197109
20.18555	211507
20.19367	213558
20.20180	221767
20.20992	223182
20.21805	215483
20.22617	202477
20.23428	188723
20.24242	191966
20.25053	172361
20.25867	189698
20.26678	208355
20.27490	253035
20.28303	310558
20.29115	361051
20.29927	374210
20.30740	351131
20.31552	337233
20.32365	282147
20.33177	244894
20.33988	204869
20.34802	184039
20.35613	161431
20.36427	133819
20.37238	118559
20.38050	111306
20.38863	106815
20.39675	105121
20.40487	102637
20.41300	102357
20.42112	99491
20.42925	101696
20.43737	113159
20.44548	116014
20.45362	122173
20.46173	129632
20.46987	133006
20.47798	121852
20.48610	120418
20.49423	114028
20.50235	103723
20.51048	97943
20.51860	92031
20.52672	94382
20.53485	91888
20.54297	86396
20.55108	87397
20.55922	84184
20.56733	94916
20.57547	89510
20.58358	86904
20.59170	86983
20.59983	85069
20.60795	82546
20.61608	81697
20.62420	79276
20.63232	78253
20.64045	76887
20.64857	75553
20.65668	85657
20.66482	79764
20.67293	82854
20.68107	78973
20.68918	81154
20.69730	81961
20.70543	80953
20.71355	75649
20.72168	76917
20.72980	69787
20.73792	77437
20.74605	77098
20.75417	76758
20.76230	77053
20.77042	77717
20.77853	80068
20.78667	86174
20.79478	95922
20.80290	123606
20.81103	139171
20.81915	173227
20.82728	202548
20.83540	207136
20.84352	190357
20.85165	164891
20.85977	129722
20.86790	110411
20.87602	89077
20.88413	89258
20.89227	85189
20.90038	77817
20.90852	77833
20.91663	73448
20.92475	74812
20.93288	72350
20.94100	79793
20.94912	76801
20.95725	82460
20.96537	74254
20.97350	75893
20.98162	75419
20.98973	74941
20.99787	67662
21.00598	66683
21.01412	63831
21.02223	66078
21.03035	70197
21.03848	69056
21.04660	66461
21.05472	70919
21.06285	68883
21.07097	69342
21.07910	67152
21.08722	73569
21.09533	66098
21.10347	68601
21.11158	64387
21.11972	68365
21.12783	70964
21.13595	73028
21.14408	80745
21.15220	84572
21.16033	90100
21.16845	98331
21.17657	100980
21.18470	101162
21.19282	89968
21.20093	87439
21.20907	87079
21.21718	76011
21.22532	74599
21.23343	83672
21.24155	72725
21.24968	75096
21.25780	61492
21.26593	65550
21.27405	69112
21.28217	64534
21.29030	73052
21.29842	62321
21.30655	66792
21.31467	67195
21.32278	61734
21.33092	67670
21.33903	62096
21.34715	61133
21.35528	60865
21.36340	63390
21.37153	60171
21.37965	66311
21.38777	61017
21.39590	61063
21.40402	61381
21.41215	62104
21.42027	65393
21.42838	71590
21.43652	74334
21.44463	64649
21.45275	67764
21.46088	67817
21.46900	65542
21.47713	63042
21.48525	63176
21.49337	60470
21.50150	57274
21.50962	63499
21.51775	59398
21.52587	60534
21.53398	56314
21.54212	55943
21.55023	59923
21.55837	56016
21.56648	57624
21.57460	54335
21.58273	60229
21.59085	63495
21.59897	65197
21.60710	70231
21.61522	72678
21.62335	72741
21.63147	68457
21.63958	70408
21.64772	77081
21.65583	81559
21.66397	88358
21.67208	89044
21.68020	80763
21.68833	90059
21.69645	83707
21.70457	77812
21.71270	73346
21.72082	68742
21.72895	59546
21.73707	61121
21.74518	55653
21.75332	53717
21.76143	55510
21.76957	56696
21.77768	53509
21.78580	55031
21.79393	53122
21.80205	52801
21.81018	51816
21.81830	52694
21.82642	55747
21.83455	58626
21.84267	66029
21.85078	75729
21.85892	75219
21.86703	80991
21.87517	81890
21.88328	78413
21.89140	71899
21.89953	62736
21.90765	54767
21.91578	63192
21.92390	55721
21.93202	52467
21.94015	52162
21.94827	46738
21.95640	47893
21.96452	45539
21.97263	43640
21.98077	42343
21.98888	45200
21.99700	46582
22.00513	43629
22.01325	42581
22.02138	38913
22.02950	46314
22.03762	44489
22.04575	48519
22.05387	47620
22.06200	46046
22.07012	46001
22.07823	44033
22.08637	44740
22.09448	47292
22.10262	43501
22.11073	43408
22.11885	44927
22.12698	37958
22.13510	41865
22.14322	41085
22.15135	42182
22.15947	41436
22.16760	42710
22.17572	44840
22.18383	53037
22.19197	46206
22.20008	52850
22.20822	43993
22.21633	43355
22.22445	39834
22.23258	44734
22.24070	46347
22.24882	47991
22.25695	43611
22.26507	47676
22.27320	48712
22.28132	45070
22.28943	54516
22.29757	50369
22.30568	55610
22.31382	67204
22.32193	84746
22.33005	101067
22.33818	135824
22.34630	153233
22.35443	172759
22.36255	158378
22.37067	144647
22.37880	126190
22.38692	119691
22.39503	114416
22.40317	121871
22.41128	122757
22.41942	139673
22.42753	158492
22.43565	156013
22.44378	149468
22.45190	135012
22.46003	120704
22.46815	117623
22.47627	105719
22.48440	106177
22.49252	103854
22.50063	108656
22.50877	113453
22.51688	110751
22.52502	118412
22.53313	108673
22.54125	103598
22.54938	102497
22.55750	100157
22.56563	102093
22.57375	92892
22.58187	93612
22.59000	87341
22.59812	90930
22.60625	85023
22.61437	81505
22.62248	83863
22.63062	80904
22.63873	81140
22.64685	85833
22.65498	82097
22.66310	85739
22.67123	86325
22.67935	93106
22.68747	92062
22.69560	97951
22.70372	100430
22.71185	102566
22.71997	101781
22.72808	103778
22.73622	99995
22.74433	93303
22.75245	89271
22.76058	85862
22.76870	88647
22.77683	90339
22.78495	84734
22.79307	88990
22.80120	93679
22.80932	95666
22.81745	91661
22.82557	101121
22.83368	89272
22.84182	92089
22.84993	80370
22.85807	72239
22.86618	72197
22.87430	73459
22.88243	70360
22.89055	76851
22.89867	78231
22.90680	80355
22.91492	99010
22.92305	105898
22.93117	127453
22.93928	128088
22.94742	134458
22.95553	129107
22.96367	119355
22.97178	102558
22.97990	89675
22.98803	86166
22.99615	77028
23.00428	72220
23.01240	68397
23.02052	59221
23.02865	59050
23.03677	56182
23.04488	53058
23.05302	51696
23.06113	55317
23.06927	55095
23.07738	63191
23.08550	69105
23.09363	85663
23.10175	94595
23.10988	100808
23.11800	105232
23.12612	106481
23.13425	110725
23.14237	112381
23.15050	107292
23.15862	116996
23.16673	112408
23.17487	120575
23.18298	113790
23.19110	121009
23.19923	117344
23.20735	121992
23.21548	120822
23.22360	118010
23.23172	119887
23.23985	123634
23.24797	132253
23.25610	144737
23.26422	155678
23.27233	163274
23.28047	156494
23.28858	152348
23.29670	149779
23.30483	139026
23.31295	131848
23.32108	127747
23.32920	123334
23.33732	124071
23.34545	130293
23.35357	133688
23.36170	156462
23.36982	167810
23.37793	191939
23.38607	217918
23.39418	242837
23.40232	261283
23.41043	296951
23.41855	303235
23.42668	317895
23.43480	327316
23.44292	323184
23.45105	312730
23.45917	305537
23.46730	292285
23.47542	287494
23.48353	256031
23.49167	246343
23.49978	232086
23.50792	218414
23.51603	215866
23.52415	205043
23.53228	194561
23.54040	183053
23.54852	182067
23.55665	167793
23.56477	167068
23.57290	164749
23.58102	167254
23.58913	176147
23.59727	185915
23.60538	198302
23.61352	207747
23.62163	212548
23.62975	206171
23.63788	220934
23.64600	259855
23.65413	359631
23.66225	463678
23.67037	628046
23.67850	699855
23.68662	690899
23.69473	610849
23.70287	480546
23.71098	384353
23.71912	298624
23.72723	239662
23.73535	200729
23.74348	169016
23.75160	167101
23.75973	171502
23.76785	247608
23.77597	412889
23.78410	722737
23.79222	1160483
23.80035	1597048
23.80847	1889879
23.81658	1907451
23.82472	1667027
23.83283	1308828
23.84095	1005416
23.84908	786726
23.85720	625308
23.86533	514011
23.87345	430550
23.88157	370143
23.88970	323435
23.89782	287257
23.90595	270103
23.91407	259375
23.92218	249113
23.93032	237257
23.93843	210107
23.94655	205392
23.95468	198475
23.96280	183519
23.97093	175188
23.97905	172291
23.98717	168097
23.99530	153438
24.00342	153278
24.01155	169558
24.01967	199977
24.02778	264277
24.03592	332893
24.04403	383986
24.05217	399894
24.06028	352037
24.06840	293164
24.07653	233540
24.08465	184510
24.09277	151290
24.10090	146895
24.10902	133613
24.11715	124233
24.12527	124322
24.13338	117256
24.14152	118409
24.14963	123753
24.15777	118114
24.16588	120603
24.17400	123324
24.18213	122109
24.19025	119070
24.19838	112786
24.20650	115441
24.21462	112808
24.22275	108735
24.23087	113365
24.23898	105665
24.24712	101847
24.25523	104077
24.26337	96096
24.27148	85465
24.27960	91718
24.28773	85161
24.29585	80692
24.30398	82541
24.31210	83252
24.32022	80352
24.32835	79472
24.33647	79467
24.34458	77588
24.35272	73962
24.36083	76667
24.36897	64806
24.37708	67992
24.38520	70963
24.39333	77209
24.40145	80065
24.40958	86464
24.41770	88952
24.42582	95482
24.43395	85737
24.44207	87854
24.45020	76713
24.45832	72315
24.46643	67609
24.47457	64382
24.48268	64193
24.49080	68696
24.49893	67356
24.50705	67025
24.51518	74860
24.52330	78122
24.53142	75999
24.53955	82301
24.54767	88413
24.55580	88794
24.56392	84244
24.57203	83635
24.58017	76327
24.58828	78117
24.59640	72359
24.60453	73150
24.61265	64385
24.62078	68864
24.62890	70659
24.63702	64228
24.64515	63801
24.65327	64153
24.66140	60927
24.66952	61264
24.67763	55270
24.68577	58376
24.69388	59812
24.70202	56733
24.71013	53252
24.71825	59114
24.72638	60128
24.73450	61414
24.74262	58628
24.75075	56472
24.75887	60876
24.76700	58178
24.77512	55237
24.78323	56970
24.79137	68164
24.79948	81433
24.80762	114307
24.81573	137450
24.82385	145791
24.83198	158874
24.84010	183439
24.84823	183191
24.85635	204956
24.86447	238427
24.87260	288543
24.88072	340253
24.88883	406470
24.89697	499296
24.90508	542232
24.91322	545629
24.92133	491139
24.92945	410043
24.93758	344040
24.94570	284536
24.95383	251297
24.96195	227520
24.97007	215670
24.97820	210366
24.98632	210224
24.99443	206382
25.00257	206267
25.01068	204755
25.01882	211606
25.02693	196523
25.03505	209906
25.04318	191733
25.05130	202935
25.05943	196773
25.06755	184171
25.07567	196231
25.08380	192229
25.09192	196412
25.10005	193880
25.10817	225061
25.11628	304904
25.12442	464283
25.13253	768035
25.14065	1242768
25.14878	1757480
25.15690	2087919
25.16503	2025639
25.17315	1780963
25.18127	1394099
25.18940	960971
25.19752	637028
25.20565	423431
25.21377	305760
25.22188	254128
25.23002	221863
25.23813	204760
25.24627	203762
25.25438	213851
25.26250	221813
25.27063	235636
25.27875	244259
25.28687	250246
25.29500	239782
25.30312	216592
25.31125	190173
25.31937	163516
25.32748	141060
25.33562	117658
25.34373	106328
25.35187	101280
25.35998	94445
25.36810	85441
25.37623	82525
25.38435	77465
25.39247	73690
25.40060	72920
25.40872	74645
25.41685	69592
25.42497	71410
25.43308	67171
25.44122	64472
25.44933	65701
25.45747	69836
25.46558	68977
25.47370	64140
25.48183	60845
25.48995	61542
25.49808	63523
25.50620	63880
25.51432	62961
25.52245	66757
25.53057	62368
25.53868	61833
25.54682	65186
25.55493	56703
25.56307	54044
25.57118	57326
25.57930	59786
25.58743	53878
25.59555	53600
25.60368	55367
25.61180	55865
25.61992	52510
25.62805	59864
25.63617	63366
25.64430	67336
25.65242	72507
25.66053	73091
25.66867	78244
25.67678	79750
25.68490	65673
25.69303	62860
25.70115	66941
25.70928	67658
25.71740	88178
25.72552	128405
25.73365	186598
25.74177	233319
25.74990	259352
25.75802	273212
25.76613	287981
25.77427	285388
25.78238	291329
25.79050	304164
25.79863	292374
25.80675	299299
25.81488	307418
25.82300	301436
25.83112	299835
25.83925	299891
25.84737	305052
25.85550	301001
25.86362	298330
25.87173	289793
25.87987	287374
25.88798	287465
25.89612	289337
25.90423	293906
25.91235	282520
25.92048	281575
25.92860	280741
25.93672	272593
25.94485	270508
25.95297	278525
25.96110	274727
25.96922	266860
25.97733	265470
25.98547	254191
25.99358	258128
26.00172	253931
26.00983	254212
26.01795	246898
26.02608	250185
26.03420	242854
26.04232	245231
26.05045	241438
26.05857	233779
26.06670	235303
26.07482	233081
26.08293	231211
26.09107	239464
26.09918	224457
26.10732	232201
26.11543	235583
26.12355	220274
26.13168	227964
26.13980	226479
26.14793	223899
26.15605	232098
26.16417	227967
26.17230	227061
26.18042	232315
26.18853	225801
26.19667	216695
26.20478	222640
26.21292	208697
26.22103	212596
26.22915	195065
26.23728	187818
26.24540	198272
26.25353	192879
26.26165	190903
26.26977	189494
26.27790	185827
26.28602	185544
26.29415	189002
26.30227	177866
26.31038	182597
26.31852	177786
26.32663	175334
26.33475	169907
26.34288	174310
26.35100	172545
26.35913	179770
26.36725	172171
26.37537	182806
26.38350	186567
26.39162	200517
26.39975	197009
26.40787	199385
26.41598	195319
26.42412	194490
26.43223	185194
26.44035	171428
26.44848	176740
26.45660	164144
26.46473	156199
26.47285	160375
26.48097	158417
26.48910	149604
26.49722	148228
26.50535	145482
26.51347	138389
26.52158	138673
26.52972	134182
26.53783	134285
26.54597	131981
26.55408	136082
26.56220	132667
26.57033	128305
26.57845	127681
26.58657	124161
26.59470	126343
26.60282	128052
26.61095	122350
26.61907	121353
26.62718	124133
26.63532	123524
26.64343	123982
26.65157	127063
26.65968	118116
26.66780	125050
26.67593	126650
26.68405	128836
26.69218	126170
26.70030	126571
26.70842	117538
26.71655	113900
26.72467	120243
26.73278	112621
26.74092	105506
26.74903	106908
26.75717	97611
26.76528	99231
26.77340	105388
26.78153	103275
26.78965	105586
26.79778	97552
26.80590	100547
26.81402	102288
26.82215	105184
26.83027	109098
26.83838	100058
26.84652	106949
26.85463	96353
26.86277	96768
26.87088	91139
26.87900	92457
26.88713	94372
26.89525	88983
26.90338	88237
26.91150	82422
26.91962	84048
26.92775	83622
26.93587	80820
26.94400	81268
26.95212	80396
26.96023	78020
26.96837	83226
26.97648	88196
26.98460	100745
26.99273	120920
27.00085	162427
27.00898	226161
27.01710	319806
27.02522	405676
27.03335	487359
27.04147	518831
27.04960	506445
27.05772	455419
27.06583	375008
27.07397	323418
27.08208	269339
27.09020	226988
27.09833	200871
27.10645	182561
27.11458	165919
27.12270	154856
27.13082	151207
27.13895	138882
27.14707	134288
27.15520	128930
27.16332	132189
27.17143	124479
27.17957	126635
27.18768	120863
27.19582	127387
27.20393	120511
27.21205	119646
27.22018	118141
27.22830	105504
27.23642	112056
27.24455	100760
27.25267	97247
27.26080	90546
27.26892	85688
27.27703	83479
27.28517	85867
27.29328	90806
27.30142	81727
27.30953	87528
27.31765	78231
27.32578	82588
27.33390	75292
27.34203	76401
27.35015	78981
27.35827	76921
27.36640	72993
27.37452	78262
27.38263	78686
27.39077	79074
27.39888	74060
27.40702	72051
27.41513	77664
27.42325	72830
27.43138	70066
27.43950	68522
27.44763	71333
27.45575	68442
27.46387	70820
27.47200	67640
27.48012	64408
27.48823	65253
27.49637	66273
27.50448	69048
27.51262	68396
27.52073	70201
27.52885	67957
27.53698	65064
27.54510	68168
27.55323	67151
27.56135	65611
27.56947	69242
27.57760	68782
27.58572	66433
27.59385	73175
27.60197	83907
27.61008	74194
27.61822	84917
27.62633	76959
27.63445	76301
27.64258	63317
27.65070	63389
27.65883	63506
27.66695	57296
27.67507	57527
27.68320	56162
27.69132	57952
27.69945	59131
27.70757	55687
27.71568	55901
27.72382	49555
27.73193	60134
27.74007	57254
27.74818	55639
27.75630	51868
27.76443	57046
27.77255	59214
27.78067	59794
27.78880	57589
27.79692	54688
27.80505	60682
27.81317	58056
27.82128	57548
27.82942	58496
27.83753	62216
27.84567	55674
27.85378	62541
27.86190	58936
27.87003	57926
27.87815	56341
27.88627	52538
27.89440	56584
27.90252	56248
27.91065	50625
27.91877	50243
27.92688	55854
27.93502	49937
27.94313	52805
27.95127	48885
27.95938	55750
27.96750	51692
27.97563	55076
27.98375	50769
27.99188	55883
28.00000	52734
28.00812	53441
28.01625	51259
28.02437	51352
28.03248	58424
28.04062	59883
28.04873	57759
28.05687	56515
28.06498	56518
28.07310	57101
28.08123	56900
28.08935	58282
28.09748	55649
28.10560	51647
28.11372	48630
28.12185	46319
28.12997	47611
28.13808	52837
28.14622	50197
28.15433	51285
28.16247	48137
28.17058	45416
28.17870	49984
28.18683	49357
28.19495	50586
28.20308	56182
28.21120	65224
28.21932	73861
28.22745	79700
28.23557	75724
28.24370	81385
28.25182	75718
28.25993	67944
28.26807	63940
28.27618	58758
28.28430	54136
28.29243	52989
28.30055	50699
28.30868	53929
28.31680	51786
28.32492	52100
28.33305	60638
28.34117	63303
28.34930	70234
28.35742	83041
28.36553	89545
28.37367	103991
28.38178	107137
28.38992	110851
28.39803	122194
28.40615	125053
28.41428	120608
28.42240	119276
28.43052	117158
28.43865	110721
28.44677	105260
28.45490	91269
28.46302	79469
28.47113	79772
28.47927	82291
28.48738	82883
28.49552	77068
28.50363	70116
28.51175	69087
28.51988	69288
28.52800	70651
28.53613	69450
28.54425	68354
28.55237	69251
28.56050	62851
28.56862	64276
28.57673	61766
28.58487	62966
28.59298	62748
28.60112	56141
28.60923	59595
28.61735	54818
28.62548	59133
28.63360	60293
28.64173	54972
28.64985	58491
28.65797	61084
28.66610	65262
28.67422	68526
28.68233	64248
28.69047	64490
28.69858	60595
28.70672	65728
28.71483	54616
28.72295	58405
28.73108	53894
28.73920	51362
28.74733	51806
28.75545	54467
28.76357	62922
28.77170	60533
28.77982	61256
28.78795	62660
28.79607	71744
28.80418	66847
28.81232	68676
28.82043	70522
28.82855	65401
28.83668	66201
28.84480	65609
28.85293	58440
28.86105	66168
28.86917	58761
28.87730	58704
28.88542	60524
28.89355	66877
28.90167	67226
28.90978	64567
28.91792	59826
28.92603	67069
28.93415	68029
28.94228	64351
28.95040	62139
28.95853	70008
28.96665	67416
28.97477	67194
28.98290	67037
28.99102	67835
28.99915	64130
29.00727	62576
29.01538	58986
29.02352	53971
29.03163	56360
29.03977	56685
29.04788	52514
29.05600	51920
29.06413	52712
29.07225	56241
29.08037	56619
29.08850	57599
29.09662	55687
29.10475	56951
29.11287	55548
29.12098	54927
29.12912	58691
29.13723	56964
29.14537	50473
29.15348	54005
29.16160	52022
29.16973	54674
29.17785	57976
29.18598	61710
29.19410	55101
29.20222	68435
29.21035	78222
29.21847	89391
29.22658	92443
29.23472	97547
29.24283	91997
29.25097	75863
29.25908	66032
29.26720	65151
29.27533	60197
29.28345	52942
29.29158	55396
29.29970	51145
29.30782	56285
29.31595	51006
29.32407	51077
29.33218	46118
29.34032	51030
29.34843	48450
29.35657	45476
29.36468	50679
29.37280	47529
29.38093	48619
29.38905	50806
29.39718	46018
29.40530	51155
29.41342	52915
29.42155	56922
29.42967	59561
29.43780	58315
29.44592	60695
29.45403	61032
29.46217	57272
29.47028	58090
29.47840	51024
29.48653	50630
29.49465	54824
29.50278	53181
29.51090	51940
29.51902	56433
29.52715	53159
29.53527	53210
29.54340	53425
29.55152	54604
29.55963	52234
29.56777	48608
29.57588	47117
29.58402	49996
29.59213	44830
29.60025	43111
29.60838	46615
29.61650	47300
29.62462	47458
29.63275	48636
29.64087	46592
29.64900	44693
29.65712	48108
29.66523	45324
29.67337	48720
29.68148	49937
29.68962	48043
29.69773	47814
29.70585	52576
29.71398	52924
29.72210	52740
29.73022	48495
29.73835	49342
29.74647	49219
29.75460	46748
29.76272	45804
29.77083	43607
29.77897	47079
29.78708	43118
29.79522	42043
29.80333	44319
29.81145	45618
29.81958	41826
29.82770	40481
29.83583	45695
29.84395	42400
29.85207	51187
29.86020	55895
29.86832	82654
29.87643	155426
29.88457	297567
29.89268	556447
29.90082	866636
29.90893	1150874
29.91705	1263023
29.92518	1087533
29.93330	780513
29.94143	482665
29.94955	288942
29.95767	177514
29.96580	111375
29.97392	93753
29.98203	81019
29.99017	78451
29.99828	77975
30.00642	83208
30.01453	81419
30.02265	90719
30.03078	90039
30.03890	90515
30.04703	92356
30.05515	86392
30.06327	88968
30.07140	89683
30.07952	88862
30.08765	85396
30.09577	86546
30.10388	87898
30.11202	88915
30.12013	81496
30.12825	79469
30.13638	76745
30.14450	79938
30.15263	75421
30.16075	70760
30.16887	69252
30.17700	68964
30.18512	65821
30.19325	65063
30.20137	68936
30.20948	61617
30.21762	68075
30.22573	62514
30.23387	61883
30.24198	68762
30.25010	64501
30.25823	57563
30.26635	57295
30.27447	56675
30.28260	56789
30.29072	58176
30.29885	57285
30.30697	51829
30.31508	54538
30.32322	54112
30.33133	54495
30.33947	51259
30.34758	50983
30.35570	52438
30.36383	52961
30.37195	53510
30.38007	53176
30.38820	55153
30.39632	55208
30.40445	52427
30.41257	51879
30.42068	50503
30.42882	50158
30.43693	48405
30.44507	52762
30.45318	44597
30.46130	50681
30.46943	49912
30.47755	47827
30.48568	51384
30.49380	50748
30.50192	55422
30.51005	52712
30.51817	50166
30.52628	51398
30.53442	53696
30.54253	53166
30.55067	54937
30.55878	54385
30.56690	53585
30.57503	53443
30.58315	51985
30.59128	53449
30.59940	56822
30.60752	54464
30.61565	47885
30.62377	51939
30.63190	48081
30.64002	53095
30.64813	50542
30.65627	49933
30.66438	57246
30.67250	50279
30.68063	53397
30.68875	52274
30.69688	51311
30.70500	54873
30.71312	49085
30.72125	59697
30.72937	53032
30.73750	52415
30.74562	53018
30.75373	52798
30.76187	48413
30.76998	53231
30.77810	58570
30.78623	68236
30.79435	94184
30.80248	123656
30.81060	162879
30.81872	185305
30.82685	190069
30.83497	184185
30.84310	146277
30.85122	113451
30.85933	85657
30.86747	69833
30.87558	61634
30.88372	62414
30.89183	54791
30.89995	60800
30.90808	56076
30.91620	50926
30.92432	49178
30.93245	50041
30.94057	51937
30.94870	56900
30.95682	55697
30.96493	52010
30.97307	51012
30.98118	51503
30.98932	49673
30.99743	48234
31.00555	48163
31.01368	50248
31.02180	51746
31.02993	54856
31.03805	52821
31.04617	54116
31.05430	57948
31.06242	53388
31.07053	54047
31.07867	57547
31.08678	75504
31.09492	93272
31.10303	130303
31.11115	165228
31.11928	178212
31.12740	185608
31.13553	167701
31.14365	134092
31.15177	103730
31.15990	81963
31.16802	72159
31.17613	64338
31.18427	64358
31.19238	61697
31.20052	73611
31.20863	83501
31.21675	100139
31.22488	112754
31.23300	124481
31.24113	125082
31.24925	106290
31.25737	93370
31.26550	79344
31.27362	64808
31.28175	60960
31.28987	50770
31.29798	49327
31.30612	48285
31.31423	56023
31.32235	48062
31.33048	50061
31.33860	51478
31.34673	51379
31.35485	51905
31.36297	52676
31.37110	60355
31.37922	65994
31.38735	78186
31.39547	79552
31.40358	85113
31.41172	86295
31.41983	83377
31.42795	77364
31.43608	75286
31.44420	73626
31.45233	69918
31.46045	70061
31.46857	75681
31.47670	72694
31.48482	65786
31.49295	70692
31.50107	77126
31.50918	73993
31.51732	70470
31.52543	73755
31.53357	66859
31.54168	71464
31.54980	75893
31.55793	73417
31.56605	73220
31.57417	75328
31.58230	68373
31.59042	72326
31.59855	74025
31.60667	67363
31.61478	68294
31.62292	68706
31.63103	64494
31.63917	68411
31.64728	66105
31.65540	68967
31.66353	68423
31.67165	76590
31.67978	73650
31.68790	73099
31.69602	81056
31.70415	72133
31.71227	71143
31.72038	73230
31.72852	67696
31.73663	64974
31.74477	63627
31.75288	66482
31.76100	65523
31.76913	60240
31.77725	63662
31.78538	63791
31.79350	59322
31.80162	61210
31.80975	63744
31.81787	62385
31.82598	70017
31.83412	63918
31.84223	60894
31.85037	64429
31.85848	67352
31.86660	64300
31.87473	68028
31.88285	70901
31.89098	66992
31.89910	67730
31.90722	70876
31.91535	71953
31.92347	76385
31.93160	80102
31.93972	80510
31.94783	75958
31.95597	77306
31.96408	75018
31.97220	80344
31.98033	85565
31.98845	85223
31.99658	80488
32.00470	81291
32.01282	80314
32.02095	84815
32.02907	83766
32.03720	83752
32.04532	75728
32.05343	71393
32.06157	75485
32.06968	72698
32.07782	72939
32.08593	67246
32.09405	67513
32.10218	71213
32.11030	67186
32.11842	62714
32.12655	62852
32.13467	61584
32.14280	64202
32.15092	63274
32.15903	56403
32.16717	57018
32.17528	56537
32.18342	58758
32.19153	56690
32.19965	54702
32.20778	56997
32.21590	54015
32.22402	58241
32.23215	54402
32.24027	55967
32.24840	58242
32.25652	58870
32.26463	55251
32.27277	55503
32.28088	59233
32.28902	64776
32.29713	56350
32.30525	55745
32.31338	53358
32.32150	52100
32.32963	56184
32.33775	50806
32.34587	51913
32.35400	56269
32.36212	54930
32.37023	57708
32.37837	63313
32.38648	64993
32.39462	57551
32.40273	50744
32.41085	51689
32.41898	52821
32.42710	54099
32.43523	52298
32.44335	47760
32.45147	51563
32.45960	51116
32.46772	48550
32.47583	47484
32.48397	54067
32.49208	46512
32.50022	50912
32.50833	45904
32.51645	46624
32.52458	52108
32.53270	46080
32.54083	48040
32.54895	47530
32.55707	50088
32.56520	45484
32.57332	47417
32.58145	45315
32.58957	48619
32.59768	49088
32.60582	45215
32.61393	44038
32.62205	48259
32.63018	43751
32.63830	48140
32.64643	45630
32.65455	42826
32.66267	47039
32.67080	53238
32.67892	59018
32.68705	54110
32.69517	53693
32.70328	55746
32.71142	50495
32.71953	53713
32.72767	49472
32.73578	50336
32.74390	53445
32.75203	48975
32.76015	48772
32.76827	46743
32.77640	43544
32.78452	46760
32.79265	44425
32.80077	49020
32.80888	48778
32.81702	44741
32.82513	46155
32.83327	46287
32.84138	45523
32.84950	49009
32.85763	44483
32.86575	45325
32.87388	46016
32.88200	45024
32.89012	47567
32.89825	53320
32.90637	44721
32.91448	47862
32.92262	46977
32.93073	45033
32.93887	43569
32.94698	46786
32.95510	47203
32.96323	47824
32.97135	46844
32.97948	50240
32.98760	46530
32.99572	54798
33.00385	57856
33.01197	63690
33.02008	64465
33.02822	64800
33.03633	61271
33.04447	58808
33.05258	56495
33.06070	53906
33.06883	58653
33.07695	60380
33.08508	65373
33.09320	64137
33.10132	69542
33.10945	74604
33.11757	86652
33.12570	94898
33.13382	103546
33.14193	92779
33.15007	83050
33.15818	70819
33.16630	62213
33.17443	55993
33.18255	52260
33.19068	49548
33.19880	54261
33.20692	51363
33.21505	44771
33.22317	47748
33.23130	47363
33.23942	46490
33.24753	48704
33.25567	48391
33.26378	51510
33.27190	48764
33.28003	48387
33.28815	47287
33.29628	42696
33.30440	43742
33.31252	47225
33.32065	47873
33.32877	45549
33.33690	47129
33.34502	48931
33.35313	53042
33.36127	52614
33.36938	50043
33.37752	49841
33.38563	45449
33.39375	48726
33.40188	50298
33.41000	49271
33.41812	46826
33.42625	45838
33.43437	42906
33.44250	42021
33.45062	46384
33.45873	46139
33.46687	51292
33.47498	48289
33.48312	46728
33.49123	44975
33.49935	42613
33.50748	45608
33.51560	47799
33.52373	48025
33.53185	50553
33.53997	46648
33.54810	49200
33.55622	50680
33.56433	50939
33.57247	58206
33.58058	52259
33.58872	51460
33.59683	51478
33.60495	44394
33.61308	49285
33.62120	47171
33.62933	50375
33.63745	43837
33.64557	46884
33.65370	46891
33.66182	47228
33.66993	49986
33.67807	46546
33.68618	50159
33.69432	48776
33.70243	47978
33.71055	48126
33.71868	46091
33.72680	49052
33.73493	43780
33.74305	43029
33.75117	45651
33.75930	42826
33.76742	43358
33.77555	48519
33.78367	45366
33.79178	46949
33.79992	46976
33.80803	45134
33.81615	43453
33.82428	43953
33.83240	43893
33.84053	45339
33.84865	45445
33.85677	45558
33.86490	49238
33.87302	49770
33.88115	49342
33.88927	48869
33.89738	47238
33.90552	54055
33.91363	49143
33.92177	52968
33.92988	53020
33.93800	44559
33.94613	48536
33.95425	45746
33.96237	44985
33.97050	49642
33.97862	46335
33.98675	47067
33.99487	48713
34.00298	44477
34.01112	43642
34.01923	45264
34.02737	43244
34.03548	45835
34.04360	45971
34.05173	55504
34.05985	48241
34.06797	45141
34.07610	48007
34.08422	47805
34.09235	43706
34.10047	44597
34.10858	45564
34.11672	46000
34.12483	42164
34.13297	47130
34.14108	41005
34.14920	46592
34.15733	44525
34.16545	43866
34.17358	50048
34.18170	44642
34.18982	46029
34.19795	46136
34.20607	44355
34.21418	44005
34.22232	42794
34.23043	42951
34.23857	46864
34.24668	43337
34.25480	42230
34.26293	43591
34.27105	46756
34.27918	43889
34.28730	43394
34.29542	43572
34.30355	41404
34.31167	41839
34.31978	47050
34.32792	45173
34.33603	44291
34.34417	44131
34.35228	43807
34.36040	47717
34.36853	47780
34.37665	47970
34.38478	45921
34.39290	46665
34.40102	40013
34.40915	50518
34.41727	43399
34.42540	42976
34.43352	43028
34.44163	45442
34.44977	43768
34.45788	44108
34.46600	45395
34.47413	47942
34.48225	43147
34.49038	40280
34.49850	44063
34.50662	42646
34.51475	44433
34.52287	47650
34.53100	48273
34.53912	47313
34.54723	46077
34.55537	51931
34.56348	62668
34.57162	57449
34.57973	57483
34.58785	58993
34.59598	58240
34.60410	59447
34.61222	58646
34.62035	56430
34.62847	53416
34.63660	55543
34.64472	49927
34.65283	52837
34.66097	54000
34.66908	52333
34.67722	50142
34.68533	47879
34.69345	47846
34.70158	46985
34.70970	48406
34.71782	57027
34.72595	53799
34.73407	48097
34.74220	49041
34.75032	52415
34.75843	52376
34.76657	47769
34.77468	46790
34.78282	47530
34.79093	48247
34.79905	48202
34.80718	49530
34.81530	46415
34.82343	56458
34.83155	45285
34.83967	46061
34.84780	45852
34.85592	46120
34.86403	44825
34.87217	47466
34.88028	48786
34.88842	50164
34.89653	50346
34.90465	53151
34.91278	50231
34.92090	46305
34.92903	52684
34.93715	54783
34.94527	64000
34.95340	85876
34.96152	129166
34.96965	193324
34.97777	291071
34.98588	357539
34.99402	394874
35.00213	334899
35.01025	253052
35.01838	163356
35.02650	113851
35.03463	83907
35.04275	67681
35.05087	62553
35.05900	58318
35.06712	55886
35.07525	59700
35.08337	60199
35.09148	58150
35.09962	57632
35.10773	58999
35.11585	54531
35.12398	55641
35.13210	54543
35.14023	53548
35.14835	52462
35.15647	50672
35.16460	53687
35.17272	57867
35.18085	55947
35.18897	54426
35.19708	48833
35.20522	55536
35.21333	45876
35.22147	55570
35.22958	46022
35.23770	51138
35.24583	49183
35.25395	48510
35.26207	51776
35.27020	58351
35.27832	53135
35.28645	53065
35.29457	52345
35.30268	53531
35.31082	51957
35.31893	47986
35.32707	50621
35.33518	49510
35.34330	47501
35.35143	51265
35.35955	48294
35.36767	50167
35.37580	48707
35.38392	49518
35.39205	45875
35.40017	50416
35.40828	52949
35.41642	52007
35.42453	50420
35.43267	49529
35.44078	53268
35.44890	50483
35.45703	53574
35.46515	50436
35.47328	54695
35.48140	53684
35.48952	54558
35.49765	58743
35.50577	52119
35.51388	54088
35.52202	51941
35.53013	52576
35.53827	54858
35.54638	49954
35.55450	52482
35.56263	50555
35.57075	52621
35.57888	49207
35.58700	55894
35.59512	52809
35.60325	55726
35.61137	52480
35.61950	50683
35.62762	47231
35.63573	50051
35.64387	48047
35.65198	52303
35.66010	49259
35.66823	47963
35.67635	48267
35.68448	51079
35.69260	53774
35.70072	51024
35.70885	54448
35.71697	53224
35.72510	49883
35.73322	52592
35.74133	51976
35.74947	59862
35.75758	54481
35.76570	57474
35.77383	58905
35.78195	54269
35.79008	54414
35.79820	56685
35.80632	54172
35.81445	49423
35.82257	46150
35.83070	50894
35.83882	46678
35.84693	51748
35.85507	54235
35.86318	49245
35.87132	53272
35.87943	49236
35.88755	48438
35.89568	51201
35.90380	58827
35.91192	50689
35.92005	58665
35.92817	55121
35.93630	52569
35.94442	55403
35.95253	48823
35.96067	51091
35.96878	49291
35.97692	46537
35.98503	51876
35.99315	52096
36.00128	50658
36.00940	52832
36.01753	50480
36.02565	50453
36.03377	54918
36.04190	54975
36.05002	51460
36.05813	51188
36.06627	56158
36.07438	52456
36.08252	47325
36.09063	52490
36.09875	54410
36.10688	55351
36.11500	51802
36.12313	52039
36.13125	49808
36.13937	53261
36.14750	53059
36.15562	53913
36.16373	57509
36.17187	52391
36.17998	54997
36.18812	55694
36.19623	53926
36.20435	56353
36.21248	55740
36.22060	51770
36.22873	51911
36.23685	48822
36.24497	50278
36.25310	50261
36.26122	55674
36.26935	52468
36.27747	54848
36.28558	46446
36.29372	53837
36.30183	62426
36.30995	55066
36.31808	60349
36.32620	55666
36.33433	56127
36.34245	58212
36.35057	57366
36.35870	59120
36.36682	53745
36.37495	53940
36.38307	52105
36.39118	49191
36.39932	52495
36.40743	54329
36.41557	51752
36.42368	54868
36.43180	54906
36.43993	53222
36.44805	53379
36.45617	52234
36.46430	52779
36.47242	51153
36.48055	52748
36.48867	55205
36.49678	53570
36.50492	45406
36.51303	52419
36.52117	56627
36.52928	55771
36.53740	49744
36.54553	52493
36.55365	53227
36.56177	52350
36.56990	51726
36.57802	50112
36.58615	53452
36.59427	53612
36.60238	52343
36.61052	50003
36.61863	52580
36.62677	52148
36.63488	55532
36.64300	49626
36.65113	53795
36.65925	54634
36.66738	53128
36.67550	53582
36.68362	55689
36.69175	54337
36.69987	52185
36.70798	54446
36.71612	53112
36.72423	51300
36.73237	51492
36.74048	50565
36.74860	52304
36.75673	52994
36.76485	54596
36.77298	51130
36.78110	54503
36.78922	54511
36.79735	57141
36.80547	54331
36.81358	54730
36.82172	57457
36.82983	60572
36.83797	63134
36.84608	68235
36.85420	63559
36.86233	60142
36.87045	72413
36.87858	65243
36.88670	68812
36.89482	67558
36.90295	69914
36.91107	66124
36.91920	71460
36.92732	64755
36.93543	69870
36.94357	70472
36.95168	74119
36.95980	79859
36.96793	80469
36.97605	84043
36.98418	82139
36.99230	83758
37.00042	81534
37.00855	78403
37.01667	71658
37.02480	74329
37.03292	68919
37.04103	67744
37.04917	73214
37.05728	72089
37.06542	65837
37.07353	69548
37.08165	71717
37.08978	72404
37.09790	67736
37.10602	67099
37.11415	69061
37.12227	74565
37.13040	72388
37.13852	68559
37.14663	68438
37.15477	73200
37.16288	69095
37.17102	69487
37.17913	70430
37.18725	71943
37.19538	72368
37.20350	63000
37.21162	65842
37.21975	68357
37.22787	69003
37.23600	62201
37.24412	67018
37.25223	73183
37.26037	70032
37.26848	66350
37.27662	63943
37.28473	69511
37.29285	62834
37.30098	63187
37.30910	64644
37.31723	66551
37.32535	60995
37.33347	68667
37.34160	64965
37.34972	67741
37.35783	70460
37.36597	69471
37.37408	71394
37.38222	75265
37.39033	71632
37.39845	70566
37.40658	74838
37.41470	70394
37.42283	72901
37.43095	71556
37.43907	69497
37.44720	67643
37.45532	65848
37.46345	64910
37.47157	71406
37.47968	67225
37.48782	66381
