C:\MassHunter\GCMS\1\data\JTB-E18\JTB-E18-024-10.D Wed Sep 11 15:13:10 2019
Start of data points
2.09527	138847
2.10338	135422
2.11150	139108
2.11963	140386
2.12775	147908
2.13588	134269
2.14400	142135
2.15212	138219
2.16025	129942
2.16837	136473
2.17650	129309
2.18462	126058
2.19273	126619
2.20087	121769
2.20898	122603
2.21712	119622
2.22523	114583
2.23335	119333
2.24148	107714
2.24960	117137
2.25772	116232
2.26585	118556
2.27397	292651
2.28210	1694919
2.29022	2470732
2.29833	1182923
2.30647	587335
2.31458	444330
2.32272	369896
2.33083	341380
2.33895	301775
2.34708	286166
2.35520	258408
2.36333	232898
2.37145	225328
2.37957	222998
2.38770	307278
2.39582	390584
2.40393	266586
2.41207	223950
2.42018	216897
2.42832	224887
2.43643	234549
2.44455	202454
2.45268	217583
2.46080	218626
2.46893	196910
2.47705	190015
2.48517	181454
2.49330	187698
2.50142	231213
2.50953	221111
2.51767	184211
2.52578	186004
2.53392	181123
2.54203	172986
2.55015	170310
2.55828	184917
2.56640	183139
2.57453	170716
2.58265	164706
2.59077	175537
2.59890	174184
2.60702	171768
2.61515	178775
2.62327	199940
2.63138	205311
2.63952	189087
2.64763	168472
2.65575	166481
2.66388	169467
2.67200	168501
2.68013	196200
2.68825	238025
2.69637	203322
2.70450	174588
2.71262	163916
2.72075	160625
2.72887	157046
2.73698	157756
2.74512	158141
2.75323	153235
2.76135	157359
2.76948	151542
2.77760	159423
2.78573	157164
2.79385	151551
2.80197	149147
2.81010	162458
2.81822	169013
2.82635	228435
2.83447	586419
2.84258	935991
2.85072	635544
2.85883	339622
2.86697	286496
2.87508	287523
2.88320	226738
2.89133	196355
2.89945	184950
2.90757	180922
2.91570	174621
2.92382	168305
2.93195	159239
2.94007	160784
2.94818	153199
2.95632	158502
2.96443	153545
2.97257	149065
2.98068	149218
2.98880	153413
2.99693	164805
3.00505	173198
3.01318	192812
3.02130	209828
3.02942	294616
3.03755	592932
3.04567	894453
3.05378	1655039
3.06192	5173774
3.07003	8824642
3.07817	6881648
3.08628	3245974
3.09440	1619464
3.10253	1055339
3.11065	807999
3.11878	683833
3.12690	572451
3.13502	487865
3.14315	428540
3.15127	378742
3.15938	346600
3.16752	323113
3.17563	320929
3.18377	309369
3.19188	289341
3.20000	267415
3.20813	252950
3.21625	239532
3.22438	240973
3.23250	254526
3.24062	255236
3.24875	232836
3.25687	224620
3.26500	215567
3.27312	209572
3.28123	237624
3.28937	441162
3.29748	1428471
3.30560	3744436
3.31373	6035051
3.32185	5981328
3.32998	4225251
3.33810	2664993
3.34622	1868579
3.35435	1434337
3.36247	1153072
3.37060	1040140
3.37872	1127285
3.38683	1309531
3.39497	1225050
3.40308	1074953
3.41122	1803907
3.41933	3561679
3.42745	4172561
3.43558	2815538
3.44370	1502437
3.45182	929624
3.45995	753096
3.46807	649783
3.47620	605233
3.48432	541054
3.49243	509182
3.50057	471082
3.50868	451080
3.51682	425981
3.52493	406066
3.53305	389196
3.54118	392437
3.54930	371763
3.55742	362627
3.56555	356794
3.57367	344361
3.58180	351559
3.58992	336808
3.59803	330995
3.60617	326360
3.61428	352805
3.62242	540754
3.63053	1169541
3.63865	2155562
3.64678	2375608
3.65490	1699605
3.66303	960565
3.67115	617403
3.67927	495500
3.68740	434777
3.69552	413672
3.70363	370438
3.71177	352062
3.71988	347630
3.72802	338210
3.73613	327622
3.74425	336825
3.75238	334317
3.76050	338580
3.76863	337215
3.77675	319641
3.78487	301893
3.79300	300970
3.80112	294963
3.80923	286231
3.81737	292189
3.82548	287583
3.83362	290100
3.84173	303442
3.84985	287757
3.85798	279517
3.86610	258729
3.87423	268400
3.88235	262860
3.89047	262839
3.89860	261587
3.90672	269528
3.91485	262674
3.92297	261170
3.93108	258074
3.93922	254443
3.94733	250881
3.95545	248450
3.96358	241885
3.97170	230522
3.97983	233556
3.98795	229533
3.99607	225733
4.00420	229778
4.01232	232013
4.02045	233018
4.02857	238916
4.03668	233514
4.04482	225846
4.05293	235771
4.06107	233431
4.06918	238205
4.07730	230345
4.08543	231625
4.09355	235811
4.10167	223828
4.10980	216625
4.11792	216877
4.12605	220464
4.13417	230582
4.14228	243915
4.15042	275998
4.15853	307136
4.16667	298631
4.17478	265482
4.18290	236384
4.19103	227848
4.19915	220473
4.20727	214981
4.21540	220167
4.22352	254156
4.23165	350997
4.23977	446714
4.24788	445628
4.25602	376489
4.26413	321132
4.27227	275501
4.28038	258801
4.28850	239599
4.29663	240935
4.30475	225628
4.31288	221461
4.32100	229506
4.32912	221006
4.33725	215463
4.34537	221137
4.35348	222579
4.36162	207059
4.36973	209812
4.37787	207004
4.38598	210295
4.39410	206845
4.40223	211503
4.41035	201228
4.41848	197418
4.42660	197281
4.43472	194901
4.44285	206387
4.45097	215451
4.45910	215771
4.46722	225750
4.47533	225512
4.48347	214065
4.49158	210345
4.49970	211446
4.50783	203081
4.51595	199027
4.52408	195206
4.53220	197834
4.54032	197906
4.54845	193161
4.55657	189211
4.56470	188569
4.57282	195549
4.58093	188947
4.58907	189491
4.59718	194728
4.60530	190238
4.61343	188746
4.62155	186385
4.62968	189723
4.63780	194143
4.64592	190629
4.65405	184233
4.66217	182116
4.67030	185132
4.67842	194563
4.68653	188737
4.69467	192580
4.70278	183674
4.71092	188419
4.71903	187482
4.72715	181423
4.73528	181287
4.74340	188068
4.75152	187285
4.75965	180133
4.76777	182417
4.77590	186929
4.78402	181821
4.79213	183104
4.80027	183457
4.80838	185542
4.81652	192509
4.82463	193155
4.83275	186249
4.84088	187784
4.84900	190794
4.85712	181076
4.86525	194084
4.87337	202868
4.88150	198652
4.88962	191897
4.89773	181392
4.90587	188604
4.91398	196256
4.92212	216349
4.93023	312541
4.93835	574246
4.94648	1038610
4.95460	1530321
4.96273	1678817
4.97085	1472096
4.97897	1145211
4.98710	831629
4.99522	653363
5.00333	538760
5.01147	486411
5.01958	428119
5.02772	400726
5.03583	364919
5.04395	359286
5.05208	336678
5.06020	334950
5.06833	319430
5.07645	311195
5.08457	303366
5.09270	306179
5.10082	318194
5.10895	347934
5.11707	387834
5.12518	417089
5.13332	395614
5.14143	353167
5.14955	311401
5.15768	294286
5.16580	303504
5.17393	319372
5.18205	356030
5.19017	398199
5.19830	398403
5.20642	360250
5.21455	317953
5.22267	289798
5.23078	275203
5.23892	261670
5.24703	269020
5.25515	269537
5.26328	258772
5.27140	240852
5.27953	249601
5.28765	245963
5.29577	250536
5.30390	243690
5.31202	236766
5.32015	233917
5.32827	236764
5.33638	234290
5.34452	238503
5.35263	233449
5.36077	232134
5.36888	228217
5.37700	219252
5.38513	215988
5.39325	220449
5.40137	217838
5.40950	209715
5.41762	211265
5.42575	204467
5.43387	206832
5.44198	216717
5.45012	218724
5.45823	210436
5.46637	205779
5.47448	212535
5.48260	205648
5.49073	205282
5.49885	205796
5.50698	202980
5.51510	209456
5.52322	218135
5.53135	210099
5.53947	207686
5.54758	196811
5.55572	206992
5.56383	217556
5.57197	202877
5.58008	212456
5.58820	213162
5.59633	226640
5.60445	214139
5.61258	224157
5.62070	215873
5.62882	232558
5.63695	247552
5.64507	257095
5.65318	247038
5.66132	244739
5.66943	227429
5.67757	225636
5.68568	227720
5.69380	238027
5.70193	246384
5.71005	238409
5.71818	240899
5.72630	254060
5.73442	267613
5.74255	262370
5.75067	244988
5.75880	251751
5.76692	257137
5.77503	263877
5.78317	265098
5.79128	247909
5.79940	246709
5.80753	292182
5.81565	441029
5.82378	686353
5.83190	957182
5.84002	1073666
5.84815	965400
5.85627	751356
5.86440	501075
5.87252	375526
5.88063	293304
5.88877	256286
5.89688	249980
5.90502	254878
5.91313	278343
5.92125	365897
5.92938	475658
5.93750	543251
5.94562	513529
5.95375	419617
5.96187	320261
5.97000	260198
5.97812	234083
5.98623	227217
5.99437	214463
6.00248	207043
6.01062	189924
6.01873	191471
6.02685	181370
6.03498	164851
6.04310	166372
6.05122	163779
6.05935	160209
6.06747	168772
6.07560	155994
6.08372	158825
6.09183	166173
6.09997	159074
6.10808	155768
6.11622	152571
6.12433	151409
6.13245	153482
6.14058	155781
6.14870	160084
6.15683	149825
6.16495	157179
6.17307	163930
6.18120	165653
6.18932	178277
6.19743	188022
6.20557	210872
6.21368	214721
6.22182	200350
6.22993	189598
6.23805	175298
6.24618	170582
6.25430	180501
6.26243	179683
6.27055	188396
6.27867	186914
6.28680	189599
6.29492	190001
6.30303	190069
6.31117	190962
6.31928	194235
6.32742	200124
6.33553	200407
6.34365	199503
6.35178	203519
6.35990	212830
6.36803	213983
6.37615	216257
6.38427	223870
6.39240	214507
6.40052	216090
6.40865	209303
6.41677	224782
6.42488	225544
6.43302	228454
6.44113	235211
6.44925	229770
6.45738	234256
6.46550	234954
6.47363	243716
6.48175	240789
6.48987	244152
6.49800	245514
6.50612	246311
6.51425	246216
6.52237	245945
6.53048	250829
6.53862	259212
6.54673	255378
6.55487	263353
6.56298	260791
6.57110	274078
6.57923	262589
6.58735	249588
6.59547	216778
6.60360	196929
6.61172	181733
6.61985	176191
6.62797	171167
6.63608	173148
6.64422	165509
6.65233	166234
6.66047	161253
6.66858	157080
6.67670	159143
6.68483	158066
6.69295	154555
6.70107	169532
6.70920	188091
6.71732	210380
6.72545	235606
6.73357	238306
6.74168	220839
6.74982	197310
6.75793	177798
6.76607	166135
6.77418	151676
6.78230	150739
6.79043	148405
6.79855	136242
6.80668	140668
6.81480	144677
6.82292	156006
6.83105	188670
6.83917	267129
6.84728	376155
6.85542	522805
6.86353	636829
6.87167	642298
6.87978	575148
6.88790	433810
6.89603	306767
6.90415	207220
6.91228	151812
6.92040	129282
6.92852	123840
6.93665	113845
6.94477	112779
6.95290	110216
6.96102	104844
6.96913	103547
6.97727	107171
6.98538	123628
6.99350	141941
7.00163	190622
7.00975	246926
7.01788	290540
7.02600	310742
7.03412	271830
7.04225	235702
7.05037	181559
7.05850	146365
7.06662	124215
7.07473	110524
7.08287	115357
7.09098	110409
7.09910	114717
7.10723	111550
7.11535	117758
7.12348	114774
7.13160	110713
7.13972	114969
7.14785	109516
7.15597	105860
7.16410	104193
7.17222	102658
7.18033	107045
7.18847	108738
7.19658	103861
7.20472	103242
7.21283	106679
7.22095	119867
7.22908	116330
7.23720	123797
7.24532	131911
7.25345	143786
7.26157	154373
7.26970	161081
7.27782	156919
7.28593	144530
7.29407	132901
7.30218	126771
7.31032	132223
7.31843	129439
7.32655	131824
7.33468	129153
7.34280	125316
7.35092	125498
7.35905	130847
7.36717	151203
7.37530	183747
7.38342	233483
7.39153	253883
7.39967	244969
7.40778	215705
7.41592	176929
7.42403	154208
7.43215	127860
7.44028	125386
7.44840	118063
7.45653	121930
7.46465	123520
7.47277	136758
7.48090	145565
7.48902	168850
7.49713	193038
7.50527	192374
7.51338	170341
7.52152	150411
7.52963	126171
7.53775	109481
7.54588	106647
7.55400	98046
7.56213	103058
7.57025	100730
7.57837	95824
7.58650	96402
7.59462	99270
7.60275	97670
7.61087	94568
7.61898	92042
7.62712	95272
7.63523	93241
7.64335	94480
7.65148	97073
7.65960	91363
7.66773	95164
7.67585	93595
7.68397	88744
7.69210	100585
7.70022	87577
7.70835	91671
7.71647	89178
7.72458	88841
7.73272	89975
7.74083	88387
7.74897	84992
7.75708	85066
7.76520	78714
7.77333	82027
7.78145	81555
7.78957	78830
7.79770	80736
7.80582	84200
7.81395	82720
7.82207	78326
7.83018	79317
7.83832	75315
7.84643	78238
7.85457	74681
7.86268	76070
7.87080	73878
7.87893	78892
7.88705	82816
7.89517	81294
7.90330	78596
7.91142	78600
7.91955	82098
7.92767	76248
7.93578	79172
7.94392	76581
7.95203	79909
7.96017	81764
7.96828	88812
7.97640	83389
7.98453	89642
7.99265	88867
8.00078	80807
8.00890	80011
8.01702	84755
8.02515	80807
8.03327	82260
8.04138	80839
8.04952	76212
8.05763	74784
8.06577	77822
8.07388	80037
8.08200	82156
8.09013	80274
8.09825	81871
8.10638	79643
8.11450	81991
8.12262	78758
8.13075	82562
8.13887	82386
8.14698	84308
8.15512	81805
8.16323	87412
8.17137	83611
8.17948	85390
8.18760	85948
8.19573	85929
8.20385	81572
8.21198	83324
8.22010	80788
8.22822	81095
8.23635	86567
8.24447	82064
8.25260	77553
8.26072	77170
8.26883	80388
8.27697	82674
8.28508	83520
8.29320	82496
8.30133	78763
8.30945	77783
8.31758	78710
8.32570	80590
8.33382	91965
8.34195	95428
8.35007	94194
8.35820	94340
8.36632	87165
8.37443	83619
8.38257	85677
8.39068	82549
8.39882	81534
8.40693	80677
8.41505	81174
8.42318	78714
8.43130	77936
8.43942	83613
8.44755	77676
8.45567	80644
8.46380	77717
8.47192	85654
8.48003	79124
8.48817	76839
8.49628	81324
8.50442	85032
8.51253	81393
8.52065	94841
8.52878	100505
8.53690	105879
8.54502	95012
8.55315	96353
8.56127	92453
8.56940	88126
8.57752	88568
8.58563	81919
8.59377	79460
8.60188	85260
8.61002	81695
8.61813	74553
8.62625	83349
8.63438	81728
8.64250	79869
8.65063	80261
8.65875	78160
8.66687	76895
8.67500	76907
8.68312	81334
8.69123	82515
8.69937	81081
8.70748	82738
8.71562	82579
8.72373	82576
8.73185	90557
8.73998	109041
8.74810	171420
8.75623	290647
8.76435	427672
8.77247	542238
8.78060	541875
8.78872	445323
8.79685	328027
8.80497	253535
8.81308	214215
8.82122	186258
8.82933	185336
8.83745	162809
8.84558	155609
8.85370	151412
8.86183	145281
8.86995	141832
8.87807	133737
8.88620	134558
8.89432	129819
8.90245	125086
8.91057	126615
8.91868	125591
8.92682	123206
8.93493	122567
8.94305	115034
8.95118	111331
8.95930	118725
8.96743	111909
8.97555	111004
8.98367	112709
8.99180	112937
8.99992	112237
9.00805	115329
9.01617	113858
9.02428	113808
9.03242	113783
9.04053	114762
9.04867	111356
9.05678	109475
9.06490	107176
9.07303	108394
9.08115	108145
9.08927	106612
9.09740	107908
9.10552	107161
9.11365	102213
9.12177	111191
9.12988	107621
9.13802	112788
9.14613	102926
9.15427	105616
9.16238	102381
9.17050	110141
9.17863	100493
9.18675	108585
9.19487	99387
9.20300	104163
9.21112	101896
9.21925	100720
9.22737	101890
9.23548	99002
9.24362	97953
9.25173	95749
9.25987	104932
9.26798	99434
9.27610	102105
9.28423	104366
9.29235	108392
9.30048	106787
9.30860	105209
9.31672	104966
9.32485	99426
9.33297	92458
9.34108	96923
9.34922	94685
9.35733	96465
9.36547	97536
9.37358	95258
9.38170	90251
9.38983	91312
9.39795	89660
9.40608	86418
9.41420	94244
9.42232	90581
9.43045	89623
9.43857	87004
9.44670	87827
9.45482	84450
9.46293	84984
9.47107	87708
9.47918	81820
9.48730	86102
9.49543	85049
9.50355	88043
9.51168	83485
9.51980	91226
9.52792	91709
9.53605	88558
9.54417	83110
9.55230	80815
9.56042	71893
9.56853	67158
9.57667	66977
9.58478	65165
9.59290	68975
9.60103	73605
9.60915	67299
9.61728	70152
9.62540	66858
9.63352	62550
9.64165	66272
9.64977	73802
9.65790	79020
9.66602	71558
9.67413	63772
9.68227	67722
9.69038	62621
9.69852	63327
9.70663	60921
9.71475	62992
9.72288	63549
9.73100	64601
9.73912	62531
9.74725	66617
9.75537	64633
9.76350	64713
9.77162	65413
9.77973	63897
9.78787	62106
9.79598	67990
9.80412	66166
9.81223	66003
9.82035	64081
9.82848	66036
9.83660	63396
9.84473	69307
9.85285	64973
9.86097	67164
9.86910	66942
9.87722	71028
9.88533	69043
9.89347	62220
9.90158	65613
9.90972	70016
9.91783	68341
9.92595	63919
9.93408	64823
9.94220	66885
9.95033	65739
9.95845	67221
9.96657	73405
9.97470	73933
9.98282	83647
9.99093	83035
9.99907	81114
10.00718	80956
10.01532	74822
10.02343	72050
10.03155	74809
10.03968	65691
10.04780	68893
10.05593	68703
10.06405	69444
10.07217	61898
10.08030	67164
10.08842	63818
10.09655	69046
10.10467	63664
10.11278	57508
10.12092	58368
10.12903	60330
10.13715	59915
10.14528	56291
10.15340	57464
10.16153	61311
10.16965	55105
10.17777	56307
10.18590	57002
10.19402	59229
10.20215	58216
10.21027	63434
10.21838	60854
10.22652	60654
10.23463	64906
10.24277	62425
10.25088	63223
10.25900	65137
10.26713	66929
10.27525	60904
10.28337	64681
10.29150	63339
10.29962	64703
10.30775	58075
10.31587	60138
10.32398	59593
10.33212	55744
10.34023	53314
10.34837	54399
10.35648	54086
10.36460	60438
10.37273	58374
10.38085	62863
10.38897	64138
10.39710	67478
10.40522	71845
10.41335	67955
10.42147	64349
10.42958	64620
10.43772	58594
10.44583	55718
10.45397	54975
10.46208	62316
10.47020	58814
10.47833	57782
10.48645	55419
10.49458	56616
10.50270	59451
10.51082	60753
10.51895	58650
10.52707	59920
10.53518	63914
10.54332	58978
10.55143	60705
10.55957	56737
10.56768	56431
10.57580	54992
10.58393	56494
10.59205	55518
10.60018	52630
10.60830	54723
10.61642	58745
10.62455	56140
10.63267	53542
10.64078	56632
10.64892	55506
10.65703	55104
10.66517	52675
10.67328	53207
10.68140	52905
10.68953	51241
10.69765	53690
10.70578	55520
10.71390	55973
10.72202	59578
10.73015	57739
10.73827	56855
10.74640	52799
10.75452	56334
10.76263	58477
10.77077	57433
10.77888	57813
10.78700	55238
10.79513	50885
10.80325	48609
10.81138	45000
10.81950	47386
10.82762	45419
10.83575	49876
10.84387	48684
10.85200	48579
10.86012	45439
10.86823	50191
10.87637	50088
10.88448	48385
10.89262	49115
10.90073	50482
10.90885	47917
10.91698	46825
10.92510	47746
10.93322	49072
10.94135	51005
10.94947	49802
10.95760	49141
10.96572	47559
10.97383	53966
10.98197	51413
10.99008	52580
10.99822	52852
11.00633	48898
11.01445	48068
11.02258	44898
11.03070	46406
11.03882	41652
11.04695	44867
11.05507	46624
11.06320	51211
11.07132	53603
11.07943	59874
11.08757	68628
11.09568	71188
11.10382	77908
11.11193	89404
11.12005	93541
11.12818	102439
11.13630	110448
11.14443	110189
11.15255	116297
11.16067	116362
11.16880	112781
11.17692	113459
11.18503	118496
11.19317	117311
11.20128	113666
11.20942	121645
11.21753	113543
11.22565	118735
11.23378	112000
11.24190	110128
11.25003	114358
11.25815	108154
11.26627	111240
11.27440	111052
11.28252	121794
11.29065	133953
11.29877	148342
11.30688	168864
11.31502	172665
11.32313	166593
11.33125	157774
11.33938	142746
11.34750	134588
11.35563	125986
11.36375	137248
11.37187	121226
11.38000	119941
11.38812	116630
11.39625	116328
11.40437	106099
11.41248	105569
11.42062	102720
11.42873	100585
11.43685	105423
11.44498	102667
11.45310	100174
11.46123	101952
11.46935	96965
11.47747	94253
11.48560	93681
11.49372	95382
11.50185	96753
11.50997	98669
11.51808	105635
11.52622	100520
11.53433	108800
11.54247	107447
11.55058	113306
11.55870	112377
11.56683	111264
11.57495	104132
11.58307	101834
11.59120	102488
11.59932	102356
11.60745	97438
11.61557	99273
11.62368	99559
11.63182	93797
11.63993	102616
11.64807	96370
11.65618	95493
11.66430	99306
11.67243	94957
11.68055	96050
11.68867	102834
11.69680	106786
11.70492	124436
11.71305	128308
11.72117	129729
11.72928	126742
11.73742	132094
11.74553	129622
11.75367	129355
11.76178	126598
11.76990	122814
11.77803	119929
11.78615	111114
11.79428	111378
11.80240	118270
11.81052	109157
11.81865	106546
11.82677	106541
11.83488	95933
11.84302	90794
11.85113	81915
11.85927	82680
11.86738	83882
11.87550	77724
11.88363	76594
11.89175	78373
11.89988	74010
11.90800	76075
11.91612	73158
11.92425	78377
11.93237	80801
11.94050	82721
11.94862	88372
11.95673	91023
11.96487	91201
11.97298	86825
11.98110	82075
11.98923	79409
11.99735	78284
12.00548	72069
12.01360	73092
12.02172	74371
12.02985	68272
12.03797	73789
12.04610	67538
12.05422	71437
12.06233	66513
12.07047	72225
12.07858	71344
12.08670	72001
12.09483	66811
12.10295	68616
12.11108	68317
12.11920	68723
12.12732	67668
12.13545	68231
12.14357	73744
12.15170	72497
12.15982	67173
12.16793	66046
12.17607	63458
12.18418	65897
12.19232	66010
12.20043	67034
12.20855	64470
12.21668	63496
12.22480	63096
12.23292	63091
12.24105	62011
12.24917	65241
12.25730	60683
12.26542	62289
12.27353	70156
12.28167	68297
12.28978	73872
12.29792	77827
12.30603	79621
12.31415	83905
12.32228	77453
12.33040	88418
12.33853	80163
12.34665	81664
12.35477	79671
12.36290	77304
12.37102	75882
12.37913	78841
12.38727	76987
12.39538	81717
12.40352	76533
12.41163	78479
12.41975	76892
12.42788	77276
12.43600	73071
12.44413	77424
12.45225	75101
12.46037	76429
12.46850	73722
12.47662	71484
12.48473	68955
12.49287	69310
12.50098	66375
12.50912	64585
12.51723	65051
12.52535	65252
12.53348	59770
12.54160	68405
12.54973	67528
12.55785	63994
12.56597	67841
12.57410	67409
12.58222	67640
12.59035	63377
12.59847	65604
12.60658	61378
12.61472	63944
12.62283	61146
12.63095	61849
12.63908	64416
12.64720	58360
12.65533	58751
12.66345	60351
12.67157	61950
12.67970	59690
12.68782	60526
12.69595	63775
12.70407	62160
12.71218	63886
12.72032	62940
12.72843	73920
12.73655	68340
12.74468	71529
12.75280	65666
12.76093	65360
12.76905	66476
12.77717	66898
12.78530	62374
12.79342	65249
12.80155	72280
12.80967	65862
12.81778	71285
12.82592	65504
12.83403	64730
12.84217	66599
12.85028	62511
12.85840	62102
12.86653	60318
12.87465	57843
12.88277	57244
12.89090	55493
12.89902	59185
12.90715	51455
12.91527	47970
12.92338	55130
12.93152	50971
12.93963	56326
12.94777	60252
12.95588	70430
12.96400	76949
12.97213	98550
12.98025	97651
12.98838	109503
12.99650	98579
13.00462	95330
13.01275	85115
13.02087	82666
13.02898	78430
13.03712	72051
13.04523	69790
13.05337	62985
13.06148	61591
13.06960	58861
13.07773	56927
13.08585	56607
13.09398	55377
13.10210	53529
13.11022	51078
13.11835	53995
13.12647	53397
13.13460	49989
13.14272	50928
13.15083	50446
13.15897	53226
13.16708	54398
13.17520	52602
13.18333	52939
13.19145	55759
13.19958	59833
13.20770	52790
13.21582	51417
13.22395	52354
13.23207	50334
13.24020	51724
13.24832	54026
13.25643	50092
13.26457	56745
13.27268	58844
13.28080	62759
13.28893	59791
13.29705	61724
13.30518	60993
13.31330	61403
13.32142	58855
13.32955	62350
13.33767	63474
13.34580	62025
13.35392	61866
13.36203	56849
13.37017	56186
13.37828	53998
13.38642	51978
13.39453	52193
13.40265	53645
13.41078	50359
13.41890	48248
13.42702	48144
13.43515	46266
13.44327	47576
13.45140	46743
13.45952	48950
13.46763	46118
13.47577	49407
13.48388	46757
13.49202	49207
13.50013	47898
13.50825	43969
13.51638	42655
13.52450	43936
13.53262	44594
13.54075	49849
13.54887	46224
13.55700	51213
13.56512	50812
13.57323	52000
13.58137	56426
13.58948	51624
13.59762	57028
13.60573	58432
13.61385	61294
13.62198	63841
13.63010	63676
13.63823	67457
13.64635	64969
13.65447	66685
13.66260	61913
13.67072	65267
13.67883	56991
13.68697	53772
13.69508	53107
13.70322	55267
13.71133	52477
13.71945	53276
13.72758	50854
13.73570	50025
13.74383	52264
13.75195	47565
13.76007	51904
13.76820	48254
13.77632	47384
13.78445	53662
13.79257	45687
13.80068	48848
13.80882	49262
13.81693	47759
13.82505	45929
13.83318	46434
13.84130	43675
13.84943	48657
13.85755	49115
13.86567	50924
13.87380	50473
13.88192	45790
13.89005	48312
13.89817	52408
13.90628	52061
13.91442	54513
13.92253	57078
13.93065	53991
13.93878	54610
13.94690	50965
13.95503	52442
13.96315	55080
13.97127	50037
13.97940	49904
13.98752	48077
13.99565	46600
14.00377	50189
14.01188	55564
14.02002	51913
14.02813	54869
14.03627	55518
14.04438	53184
14.05250	59269
14.06063	58260
14.06875	56081
14.07687	54775
14.08500	59594
14.09312	55038
14.10125	55378
14.10937	53607
14.11748	58750
14.12562	55575
14.13373	59254
14.14187	59961
14.14998	74328
14.15810	98258
14.16623	136465
14.17435	173544
14.18248	196038
14.19060	202455
14.19872	187410
14.20685	156622
14.21497	140793
14.22308	126565
14.23122	122534
14.23933	118411
14.24747	112751
14.25558	110512
14.26370	98371
14.27183	94931
14.27995	93534
14.28808	90094
14.29620	87231
14.30432	84125
14.31245	78868
14.32057	71394
14.32868	65720
14.33682	61956
14.34493	60645
14.35307	54060
14.36118	47590
14.36930	45562
14.37743	45349
14.38555	48391
14.39368	48454
14.40180	49132
14.40992	46771
14.41805	44973
14.42617	43851
14.43430	44672
14.44242	45062
14.45053	48908
14.45867	44276
14.46678	42217
14.47490	46214
14.48303	43661
14.49115	42631
14.49928	44491
14.50740	41247
14.51552	42945
14.52365	43208
14.53177	41678
14.53990	46645
14.54802	49238
14.55613	50435
14.56427	47075
14.57238	49554
14.58050	47009
14.58863	48264
14.59675	42170
14.60488	47592
14.61300	45116
14.62112	45588
14.62925	45988
14.63737	45043
14.64550	47559
14.65362	42832
14.66173	44126
14.66987	43508
14.67798	45277
14.68612	43136
14.69423	43575
14.70235	41383
14.71048	42911
14.71860	48718
14.72672	43905
14.73485	41173
14.74297	45132
14.75110	43304
14.75922	41300
14.76733	41861
14.77547	41317
14.78358	45292
14.79172	41706
14.79983	40650
14.80795	43449
14.81608	43303
14.82420	44506
14.83233	44842
14.84045	46610
14.84857	51841
14.85670	46213
14.86482	45058
14.87293	43544
14.88107	46858
14.88918	43355
14.89732	41381
14.90543	46729
14.91355	46729
14.92168	44504
14.92980	43318
14.93793	45823
14.94605	44986
14.95417	40589
14.96230	44787
14.97042	41570
14.97853	43562
14.98667	43218
14.99478	43121
15.00292	41224
15.01103	45036
15.01915	40187
15.02728	39896
15.03540	41216
15.04353	43360
15.05165	42323
15.05977	44483
15.06790	43002
15.07602	48264
15.08415	40614
15.09227	40269
15.10038	41971
15.10852	40175
15.11663	41146
15.12475	37562
15.13288	38555
15.14100	41337
15.14913	41287
15.15725	43237
15.16537	38379
15.17350	38875
15.18162	37027
15.18975	42632
15.19787	34903
15.20598	36450
15.21412	38204
15.22223	39415
15.23037	42014
15.23848	42436
15.24660	39738
15.25473	40814
15.26285	39250
15.27097	39495
15.27910	37254
15.28722	39419
15.29535	36894
15.30347	37550
15.31158	36518
15.31972	38446
15.32783	36368
15.33597	36791
15.34408	35101
15.35220	40732
15.36033	36456
15.36845	37201
15.37657	39722
15.38470	39231
15.39282	37913
15.40095	36043
15.40907	38296
15.41718	36675
15.42532	37179
15.43343	37595
15.44157	37470
15.44968	38217
15.45780	38170
15.46593	38632
15.47405	39108
15.48218	37663
15.49030	42743
15.49842	36637
15.50655	36386
15.51467	34380
15.52278	37232
15.53092	38696
15.53903	35873
15.54717	41082
15.55528	37706
15.56340	38041
15.57153	37721
15.57965	38815
15.58778	40011
15.59590	38071
15.60402	39257
15.61215	36484
15.62027	37789
15.62840	39419
15.63652	33608
15.64463	35707
15.65277	37957
15.66088	36759
15.66900	37507
15.67713	36945
15.68525	36922
15.69338	34446
15.70150	35206
15.70962	36537
15.71775	39211
15.72587	39888
15.73400	35809
15.74212	37749
15.75023	38321
15.75837	37751
15.76648	38665
15.77460	40132
15.78273	39137
15.79085	41056
15.79898	39735
15.80710	38030
15.81522	37893
15.82335	37952
15.83147	39314
15.83960	37499
15.84772	40464
15.85583	37182
15.86397	39057
15.87208	38198
15.88022	35265
15.88833	42799
15.89645	39710
15.90458	41285
15.91270	41743
15.92082	38691
15.92895	38385
15.93707	40164
15.94520	38824
15.95332	40856
15.96143	38040
15.96957	40611
15.97768	40302
15.98582	42966
15.99393	38953
16.00205	41795
16.01018	46746
16.01830	48261
16.02642	55721
16.03455	54925
16.04267	59987
16.05080	55016
16.05892	54001
16.06703	50250
16.07517	49277
16.08328	49258
16.09142	47259
16.09953	49814
16.10765	48324
16.11578	48284
16.12390	47571
16.13203	49685
16.14015	49312
16.14827	43579
16.15640	45614
16.16452	45815
16.17263	46066
16.18077	48673
16.18888	45138
16.19702	45306
16.20513	48734
16.21325	47727
16.22138	48901
16.22950	44929
16.23763	49534
16.24575	45998
16.25387	45051
16.26200	44875
16.27012	49829
16.27825	49108
16.28637	43996
16.29448	47214
16.30262	48708
16.31073	47295
16.31885	47741
16.32698	53057
16.33510	47435
16.34323	47458
16.35135	49992
16.35947	46390
16.36760	48471
16.37572	47944
16.38385	46291
16.39197	40868
16.40008	40510
16.40822	45365
16.41633	42411
16.42445	43067
16.43258	40621
16.44070	41641
16.44883	40205
16.45695	45260
16.46507	43052
16.47320	42839
16.48132	40124
16.48945	41923
16.49757	43716
16.50568	40491
16.51382	43174
16.52193	41441
16.53007	43352
16.53818	39408
16.54630	44125
16.55443	45657
16.56255	38671
16.57067	43608
16.57880	40745
16.58692	43114
16.59505	44030
16.60317	39763
16.61128	42587
16.61942	45359
16.62753	39984
16.63567	45937
16.64378	41170
16.65190	42728
16.66003	41591
16.66815	40488
16.67628	40012
16.68440	35456
16.69252	36928
16.70065	38888
16.70877	42224
16.71688	38233
16.72502	40555
16.73313	41648
16.74127	40813
16.74938	41473
16.75750	38993
16.76563	41376
16.77375	45215
16.78188	41123
16.79000	40200
16.79812	44283
16.80625	43769
16.81437	43654
16.82248	45214
16.83062	46830
16.83873	45376
16.84687	44377
16.85498	45617
16.86310	44205
16.87123	41411
16.87935	42476
16.88748	43392
16.89560	41922
16.90372	43168
16.91185	45264
16.91997	41093
16.92810	40292
16.93622	47309
16.94433	42267
16.95247	43922
16.96058	42665
16.96870	45818
16.97683	45262
16.98495	43426
16.99308	42775
17.00120	37799
17.00932	41833
17.01745	40703
17.02557	38937
17.03370	40649
17.04182	41975
17.04993	41141
17.05807	42033
17.06618	39593
17.07430	42737
17.08243	43613
17.09055	45556
17.09868	41327
17.10680	42276
17.11492	44063
17.12305	43592
17.13117	42463
17.13930	40436
17.14742	41408
17.15553	42813
17.16367	40231
17.17178	41908
17.17992	41177
17.18803	41965
17.19615	42363
17.20428	41397
17.21240	43880
17.22052	44532
17.22865	40980
17.23677	43291
17.24490	45157
17.25302	42579
17.26113	44126
17.26927	40586
17.27738	40301
17.28552	39957
17.29363	41934
17.30175	40007
17.30988	41036
17.31800	47131
17.32613	44437
17.33425	43047
17.34237	44851
17.35050	43610
17.35862	44842
17.36673	48113
17.37487	52885
17.38298	46826
17.39112	51334
17.39923	52365
17.40735	54201
17.41548	54848
17.42360	55053
17.43173	48930
17.43985	47622
17.44797	47203
17.45610	49103
17.46422	47666
17.47235	45581
17.48047	47753
17.48858	45687
17.49672	47965
17.50483	47894
17.51295	51232
17.52108	54230
17.52920	59236
17.53733	58686
17.54545	63860
17.55357	61491
17.56170	60070
17.56982	65606
17.57795	60609
17.58607	57346
17.59418	51624
17.60232	48246
17.61043	50602
17.61855	46441
17.62668	46285
17.63480	46403
17.64293	47612
17.65105	44132
17.65917	42338
17.66730	46545
17.67542	47511
17.68355	49274
17.69167	45275
17.69978	49488
17.70792	49075
17.71603	46039
17.72417	50452
17.73228	44869
17.74040	46900
17.74853	46905
17.75665	48466
17.76477	45265
17.77290	47847
17.78102	42281
17.78915	48145
17.79727	39879
17.80538	43343
17.81352	42177
17.82163	44831
17.82977	45698
17.83788	45928
17.84600	49471
17.85413	51603
17.86225	48305
17.87037	48883
17.87850	47435
17.88662	44738
17.89475	44444
17.90287	41943
17.91098	43165
17.91912	42198
17.92723	40809
17.93537	41401
17.94348	44045
17.95160	42877
17.95973	42476
17.96785	41420
17.97598	42001
17.98410	43736
17.99222	43266
18.00035	37088
18.00847	40743
18.01658	40168
18.02472	44044
18.03283	45682
18.04097	48421
18.04908	46034
18.05720	45764
18.06533	49363
18.07345	43684
18.08158	50653
18.08970	47529
18.09782	44562
18.10595	46801
18.11407	47849
18.12220	45963
18.13032	47234
18.13843	46023
18.14657	43595
18.15468	46112
18.16280	44163
18.17093	43907
18.17905	48569
18.18718	47760
18.19530	45089
18.20342	44303
18.21155	47410
18.21967	47871
18.22780	46007
18.23592	44707
18.24403	48792
18.25217	47666
18.26028	48020
18.26840	49028
18.27653	50690
18.28465	50094
18.29278	46862
18.30090	45063
18.30902	45418
18.31715	42377
18.32527	42882
18.33340	43996
18.34152	46488
18.34963	53584
18.35777	53682
18.36588	56739
18.37402	53393
18.38213	56270
18.39025	59487
18.39838	56550
18.40650	59317
18.41462	57028
18.42275	58167
18.43087	56677
18.43900	57813
18.44712	55408
18.45523	60721
18.46337	58413
18.47148	59175
18.47962	56507
18.48773	57847
18.49585	55867
18.50398	55365
18.51210	56611
18.52023	56526
18.52835	56949
18.53647	53384
18.54460	52030
18.55272	54372
18.56083	50068
18.56897	57267
18.57708	55121
18.58522	54257
18.59333	54789
18.60145	60191
18.60958	56478
18.61770	58144
18.62583	56689
18.63395	53035
18.64207	52968
18.65020	57516
18.65832	57553
18.66643	53404
18.67457	52641
18.68268	56057
18.69082	51930
18.69893	52045
18.70705	51659
18.71518	55662
18.72330	53531
18.73143	49919
18.73955	49292
18.74767	53293
18.75580	48586
18.76392	49302
18.77205	51024
18.78017	49880
18.78828	47276
18.79642	47915
18.80453	49497
18.81265	45953
18.82078	46899
18.82890	45136
18.83703	48579
18.84515	47563
18.85327	45830
18.86140	49028
18.86952	44429
18.87765	47578
18.88577	46208
18.89388	54601
18.90202	46177
18.91013	48934
18.91825	49070
18.92638	49457
18.93450	49269
18.94263	46187
18.95075	45980
18.95887	42793
18.96700	45489
18.97512	46916
18.98325	46018
18.99137	43934
18.99948	46397
19.00762	48012
19.01573	46215
19.02387	48603
19.03198	44724
19.04010	42675
19.04823	48408
19.05635	46139
19.06447	45439
19.07260	48958
19.08072	52327
19.08885	56199
19.09697	59057
19.10508	62456
19.11322	62373
19.12133	64351
19.12947	69666
19.13758	64933
19.14570	70509
19.15383	67897
19.16195	70587
19.17008	68277
19.17820	66879
19.18632	66181
19.19445	63041
19.20257	58484
19.21068	59236
19.21882	54576
19.22693	51366
19.23507	48948
19.24318	48868
19.25130	48136
19.25943	49752
19.26755	51154
19.27568	50312
19.28380	52798
19.29192	52362
19.30005	52768
19.30817	58113
19.31628	55872
19.32442	52841
19.33253	53759
19.34067	48604
19.34878	53449
19.35690	52137
19.36503	49024
19.37315	49878
19.38128	46579
19.38940	48623
19.39752	48978
19.40565	46863
19.41377	44578
19.42190	47028
19.43002	51762
19.43813	51595
19.44627	64628
19.45438	84121
19.46250	106481
19.47063	136121
19.47875	163364
19.48688	167629
19.49500	144619
19.50312	120429
19.51125	88360
19.51937	72733
19.52750	60209
19.53562	53128
19.54373	55374
19.55187	52949
19.55998	51146
19.56812	51450
19.57623	47375
19.58435	49221
19.59248	47789
19.60060	46780
19.60872	45563
19.61685	51029
19.62497	54226
19.63310	65298
19.64122	82965
19.64933	102024
19.65747	132483
19.66558	145030
19.67372	141650
19.68183	133095
19.68995	116585
19.69808	100697
19.70620	86268
19.71432	75859
19.72245	69437
19.73057	69519
19.73870	60759
19.74682	65597
19.75493	57619
19.76307	52974
19.77118	52057
19.77932	56452
19.78743	49410
19.79555	52398
19.80368	52443
19.81180	48142
19.81993	48040
19.82805	45148
19.83617	51482
19.84430	48335
19.85242	49069
19.86053	51138
19.86867	55946
19.87678	60330
19.88492	68814
19.89303	82670
19.90115	94863
19.90928	108635
19.91740	118378
19.92553	118143
19.93365	121297
19.94177	111846
19.94990	113769
19.95802	111879
19.96613	111841
19.97427	102752
19.98238	97149
19.99052	94432
19.99863	98536
20.00675	94213
20.01488	90077
20.02300	96154
20.03113	89583
20.03925	79490
20.04737	76850
20.05550	68192
20.06362	56122
20.07175	62178
20.07987	57141
20.08798	54880
20.09612	55137
20.10423	54747
20.11235	51596
20.12048	54573
20.12860	52557
20.13673	52819
20.14485	52387
20.15297	48394
20.16110	53791
20.16922	55691
20.17735	51620
20.18547	52772
20.19358	53762
20.20172	55696
20.20983	56987
20.21797	55081
20.22608	55083
20.23420	65995
20.24233	78440
20.25045	91878
20.25857	109376
20.26670	121661
20.27482	124235
20.28295	128381
20.29107	114635
20.29918	111252
20.30732	88324
20.31543	77481
20.32357	78614
20.33168	63672
20.33980	61295
20.34793	59655
20.35605	58388
20.36417	55474
20.37230	54860
20.38042	55172
20.38855	56530
20.39667	51973
20.40478	57551
20.41292	59869
20.42103	64320
20.42917	68039
20.43728	66635
20.44540	62809
20.45353	64222
20.46165	63820
20.46978	60452
20.47790	52377
20.48602	51872
20.49415	53983
20.50227	49598
20.51038	46738
20.51852	49552
20.52663	49306
20.53477	46275
20.54288	46871
20.55100	46433
20.55913	47376
20.56725	50413
20.57538	45061
20.58350	50809
20.59162	44492
20.59975	43235
20.60787	45629
20.61600	43975
20.62412	41815
20.63223	41835
20.64037	49625
20.64848	45732
20.65660	43552
20.66473	45551
20.67285	48001
20.68098	47698
20.68910	46695
20.69722	46869
20.70535	49375
20.71347	47575
20.72160	48162
20.72972	46347
20.73783	47968
20.74597	50114
20.75408	48978
20.76220	47560
20.77033	48088
20.77845	49727
20.78658	46957
20.79470	51010
20.80282	47010
20.81095	47693
20.81907	46433
20.82720	47135
20.83532	46529
20.84343	48385
20.85157	43924
20.85968	48174
20.86782	47875
20.87593	46990
20.88405	45017
20.89218	46763
20.90030	48517
20.90842	43884
20.91655	44554
20.92467	44428
20.93280	42291
20.94092	49593
20.94903	46264
20.95717	48248
20.96528	48508
20.97342	43672
20.98153	46612
20.98965	48111
20.99778	50867
21.00590	46384
21.01403	45200
21.02215	47494
21.03027	49805
21.03840	48685
21.04652	48130
21.05463	52289
21.06277	45401
21.07088	48193
21.07902	50613
21.08713	45985
21.09525	50197
21.10338	46688
21.11150	48715
21.11963	44590
21.12775	52514
21.13587	48857
21.14400	50976
21.15212	48957
21.16023	52179
21.16837	53075
21.17648	52866
21.18462	54176
21.19273	50132
21.20085	51501
21.20898	49694
21.21710	49164
21.22523	50794
21.23335	51947
21.24147	55321
21.24960	50934
21.25772	53455
21.26585	49417
21.27397	52186
21.28208	50056
21.29022	47704
21.29833	51158
21.30645	48965
21.31458	47053
21.32270	51975
21.33083	48940
21.33895	51730
21.34707	49566
21.35520	47761
21.36332	47961
21.37145	47374
21.37957	49091
21.38768	47224
21.39582	55402
21.40393	52346
21.41205	45330
21.42018	49567
21.42830	52162
21.43643	53001
21.44455	49856
21.45267	45343
21.46080	47425
21.46892	51385
21.47705	53072
21.48517	49450
21.49328	47161
21.50142	50331
21.50953	48951
21.51767	48452
21.52578	46927
21.53390	46081
21.54203	49288
21.55015	50311
21.55827	48120
21.56640	49618
21.57452	50679
21.58265	53293
21.59077	60277
21.59888	58682
21.60702	71921
21.61513	76628
21.62327	74401
21.63138	76839
21.63950	69777
21.64763	61287
21.65575	55847
21.66388	55671
21.67200	49791
21.68012	53663
21.68825	51019
21.69637	51290
21.70448	50633
21.71262	44353
21.72073	51633
21.72887	48443
21.73698	48619
21.74510	49512
21.75323	47975
21.76135	49699
21.76948	49408
21.77760	50817
21.78572	55909
21.79385	56918
21.80197	63431
21.81008	65709
21.81822	67725
21.82633	62086
21.83447	63410
21.84258	58305
21.85070	52766
21.85883	45811
21.86695	50939
21.87508	49553
21.88320	48665
21.89132	47970
21.89945	46380
21.90757	48965
21.91570	48714
21.92382	43630
21.93193	48489
21.94007	47567
21.94818	42963
21.95630	42389
21.96443	45721
21.97255	45725
21.98068	46434
21.98880	42211
21.99692	44499
22.00505	46721
22.01317	41458
22.02130	43643
22.02942	43065
22.03753	49503
22.04567	42840
22.05378	44107
22.06192	44801
22.07003	44995
22.07815	49059
22.08628	53411
22.09440	46873
22.10252	50304
22.11065	46929
22.11877	47467
22.12690	51632
22.13502	49859
22.14313	45234
22.15127	48297
22.15938	44602
22.16752	47216
22.17563	45215
22.18375	43755
22.19188	46516
22.20000	49458
22.20812	48719
22.21625	50395
22.22437	45636
22.23250	45400
22.24062	46427
22.24873	43819
22.25687	41490
22.26498	40673
22.27312	45961
22.28123	43201
22.28935	45198
22.29748	41770
22.30560	46907
22.31373	44870
22.32185	48000
22.32997	45310
22.33810	44570
22.34622	50092
22.35433	43650
22.36247	45196
22.37058	44538
22.37872	48087
22.38683	44542
22.39495	47071
22.40308	40241
22.41120	44778
22.41933	45317
22.42745	46805
22.43557	41230
22.44370	44132
22.45182	44692
22.45993	43460
22.46807	48961
22.47618	48318
22.48432	45587
22.49243	45753
22.50055	43303
22.50868	47088
22.51680	41890
22.52493	44590
22.53305	43307
22.54117	45439
22.54930	45955
22.55742	42239
22.56555	43646
22.57367	44233
22.58178	40166
22.58992	39352
22.59803	40252
22.60615	41967
22.61428	39642
22.62240	39303
22.63053	38201
22.63865	42941
22.64677	42190
22.65490	39571
22.66302	40955
22.67115	42744
22.67927	43974
22.68738	41117
22.69552	42622
22.70363	41943
22.71177	42362
22.71988	45861
22.72800	44359
22.73613	42733
22.74425	43124
22.75237	45411
22.76050	46701
22.76862	42118
22.77675	38875
22.78487	40947
22.79298	42062
22.80112	45313
22.80923	44103
22.81737	42768
22.82548	39579
22.83360	42955
22.84173	43281
22.84985	43026
22.85798	44939
22.86610	45032
22.87422	45883
22.88235	49485
22.89047	49541
22.89858	53641
22.90672	57447
22.91483	62984
22.92297	64943
22.93108	76319
22.93920	80581
22.94733	81595
22.95545	80076
22.96358	76855
22.97170	78202
22.97982	71430
22.98795	68733
22.99607	64455
23.00418	64731
23.01232	59412
23.02043	58959
23.02857	60552
23.03668	49798
23.04480	49993
23.05293	50366
23.06105	50231
23.06918	46933
23.07730	47571
23.08542	46203
23.09355	47519
23.10167	44552
23.10980	49850
23.11792	46070
23.12603	44530
23.13417	46354
23.14228	45406
23.15040	44907
23.15853	45133
23.16665	45192
23.17478	44869
23.18290	44548
23.19102	44511
23.19915	45690
23.20727	44916
23.21540	44640
23.22352	43108
23.23163	45854
23.23977	44449
23.24788	46833
23.25600	42120
23.26413	42956
23.27225	47854
23.28038	46742
23.28850	45535
23.29662	44654
23.30475	45403
23.31287	45656
23.32100	44546
23.32912	49104
23.33723	44565
23.34537	45065
23.35348	43850
23.36162	43221
23.36973	43979
23.37785	47057
23.38598	46252
23.39410	50239
23.40222	47455
23.41035	44911
23.41847	49874
23.42660	48282
23.43472	47393
23.44283	44267
23.45097	44909
23.45908	45080
23.46722	45195
23.47533	46568
23.48345	40769
23.49158	46250
23.49970	42745
23.50783	41497
23.51595	43887
23.52407	47687
23.53220	45757
23.54032	45688
23.54843	48289
23.55657	48596
23.56468	43260
23.57282	50096
23.58093	44265
23.58905	49266
23.59718	50146
23.60530	47334
23.61343	45393
23.62155	48474
23.62967	46707
23.63780	49786
23.64592	51320
23.65403	55111
23.66217	56576
23.67028	60504
23.67842	62305
23.68653	67143
23.69465	68112
23.70278	64059
23.71090	66564
23.71903	65378
23.72715	76829
23.73527	90004
23.74340	153185
23.75152	318877
23.75965	692005
23.76777	1376747
23.77588	2219038
23.78402	2839491
23.79213	3013767
23.80025	2755598
23.80838	2147659
23.81650	1637076
23.82463	1226306
23.83275	907435
23.84087	687860
23.84900	551812
23.85712	446437
23.86525	379573
23.87337	323457
23.88148	286389
23.88962	250266
23.89773	234799
23.90587	210123
23.91398	200152
23.92210	181776
23.93023	177312
23.93835	158680
23.94647	159250
23.95460	152717
23.96272	138621
23.97085	137434
23.97897	134746
23.98708	121243
23.99522	124275
24.00333	123878
24.01147	114073
24.01958	106470
24.02770	110867
24.03583	106433
24.04395	105626
24.05207	100028
24.06020	95688
24.06832	97635
24.07645	98674
24.08457	93724
24.09268	94448
24.10082	97263
24.10893	99114
24.11707	94091
24.12518	97492
24.13330	88707
24.14143	85417
24.14955	85174
24.15768	84581
24.16580	90184
24.17392	91998
24.18205	93887
24.19017	98610
24.19828	107544
24.20642	116501
24.21453	114333
24.22267	105479
24.23078	107852
24.23890	98429
24.24703	94656
24.25515	84757
24.26328	79044
24.27140	77799
24.27952	75073
24.28765	73589
24.29577	68645
24.30388	69786
24.31202	64951
24.32013	69296
24.32827	67468
24.33638	82072
24.34450	94489
24.35263	114542
24.36075	138284
24.36888	140603
24.37700	136273
24.38512	114814
24.39325	93821
24.40137	78436
24.40950	63916
24.41762	64738
24.42573	55195
24.43387	62395
24.44198	66864
24.45010	70464
24.45823	67927
24.46635	73123
24.47448	77208
24.48260	72644
24.49072	71234
24.49885	72713
24.50697	70190
24.51510	61939
24.52322	60589
24.53133	66183
24.53947	58610
24.54758	59727
24.55572	56004
24.56383	56740
24.57195	60954
24.58008	57053
24.58820	60754
24.59632	56845
24.60445	54003
24.61257	54814
24.62070	54627
24.62882	58116
24.63693	54889
24.64507	62215
24.65318	57380
24.66132	56581
24.66943	51886
24.67755	56359
24.68568	56090
24.69380	55857
24.70192	52009
24.71005	52061
24.71817	52235
24.72630	50807
24.73442	51409
24.74253	50502
24.75067	52410
24.75878	52587
24.76692	51422
24.77503	55124
24.78315	51868
24.79128	48931
24.79940	52428
24.80753	49654
24.81565	52703
24.82377	51545
24.83190	51105
24.84002	51280
24.84813	48133
24.85627	48333
24.86438	51611
24.87252	49605
24.88063	48089
24.88875	48558
24.89688	48451
24.90500	49581
24.91313	47495
24.92125	46738
24.92937	48491
24.93750	48903
24.94562	48357
24.95375	50426
24.96187	47822
24.96998	48608
24.97812	46438
24.98623	45882
24.99435	47356
25.00248	42406
25.01060	45904
25.01873	45617
25.02685	44478
25.03497	48296
25.04310	44739
25.05122	43579
25.05935	48234
25.06747	46298
25.07558	50381
25.08372	48108
25.09183	45288
25.09995	46878
25.10808	47920
25.11620	46122
25.12433	47518
25.13245	47245
25.14057	53707
25.14870	50715
25.15682	49705
25.16495	48654
25.17307	51319
25.18118	51263
25.18932	50361
25.19743	47318
25.20557	45528
25.21368	48733
25.22180	43819
25.22993	44199
25.23805	46364
25.24617	45292
25.25430	45907
25.26242	45068
25.27055	45373
25.27867	47094
25.28678	47020
25.29492	55075
25.30303	61468
25.31117	59795
25.31928	59092
25.32740	62498
25.33553	56388
25.34365	57266
25.35178	55186
25.35990	46410
25.36802	45712
25.37615	44412
25.38427	47576
25.39238	45170
25.40052	46427
25.40863	42350
25.41677	49383
25.42488	47952
25.43300	47674
25.44113	45496
25.44925	48890
25.45738	49617
25.46550	46336
25.47362	48984
25.48175	45985
25.48987	48291
25.49798	50128
25.50612	46376
25.51423	48322
25.52237	44218
25.53048	46407
25.53860	42687
25.54673	46106
25.55485	45345
25.56298	43204
25.57110	47053
25.57922	46062
25.58735	44398
25.59547	42891
25.60360	39870
25.61172	39577
25.61983	39966
25.62797	43262
25.63608	40549
25.64420	40850
25.65233	43040
25.66045	41596
25.66858	42931
25.67670	39025
25.68482	40835
25.69295	42267
25.70107	39236
25.70920	38833
25.71732	42308
25.72543	40385
25.73357	45122
25.74168	40481
25.74980	41093
25.75793	42921
25.76605	41089
25.77418	43932
25.78230	40517
25.79042	43455
25.79855	43694
25.80667	43960
25.81480	43973
25.82292	45543
25.83103	39790
25.83917	44500
25.84728	40647
25.85542	41016
25.86353	39897
25.87165	41472
25.87978	40917
25.88790	40619
25.89602	40823
25.90415	44424
25.91227	41544
25.92040	39041
25.92852	43338
25.93663	42588
25.94477	40794
25.95288	44487
25.96102	49137
25.96913	43581
25.97725	44356
25.98538	41316
25.99350	39960
26.00163	39789
26.00975	41124
26.01787	39526
26.02600	39025
26.03412	41411
26.04223	36215
26.05037	38217
26.05848	35931
26.06662	37279
26.07473	39323
26.08285	41253
26.09098	43035
26.09910	40642
26.10723	43078
26.11535	41251
26.12347	48711
26.13160	52681
26.13972	55944
26.14783	58177
26.15597	59336
26.16408	62603
26.17222	57124
26.18033	55147
26.18845	55608
26.19658	51420
26.20470	50894
26.21283	48232
26.22095	47111
26.22907	44840
26.23720	43985
26.24532	43230
26.25345	41661
26.26157	38534
26.26968	42951
26.27782	43556
26.28593	41161
26.29405	40345
26.30218	41787
26.31030	39844
26.31843	39180
26.32655	39624
26.33467	36626
26.34280	37529
26.35092	39494
26.35905	38812
26.36717	39541
26.37528	40567
26.38342	37471
26.39153	38716
26.39967	42037
26.40778	40009
26.41590	38840
26.42403	36022
26.43215	43232
26.44027	38288
26.44840	41301
26.45652	37174
26.46465	40948
26.47277	38836
26.48088	41665
26.48902	41920
26.49713	39814
26.50527	40740
26.51338	35570
26.52150	42307
26.52963	43231
26.53775	37574
26.54587	40018
26.55400	38834
26.56212	39956
26.57025	38621
26.57837	36079
26.58648	39293
26.59462	37758
26.60273	37728
26.61087	40730
26.61898	39119
26.62710	40907
26.63523	40229
26.64335	39824
26.65148	39849
26.65960	39370
26.66772	41998
26.67585	40337
26.68397	37329
26.69208	42914
26.70022	41346
26.70833	37012
26.71647	43095
26.72458	40793
26.73270	39985
26.74083	42405
26.74895	44293
26.75708	41598
26.76520	41215
26.77332	40639
26.78145	44544
26.78957	45511
26.79768	39732
26.80582	39677
26.81393	42815
26.82207	43012
26.83018	40155
26.83830	40483
26.84643	43181
26.85455	43993
26.86268	40793
26.87080	43116
26.87892	42360
26.88705	47714
26.89517	41992
26.90330	41721
26.91142	43781
26.91953	45654
26.92767	44525
26.93578	47611
26.94390	54335
26.95203	70584
26.96015	98548
26.96828	158426
26.97640	268880
26.98452	400926
26.99265	548343
27.00077	704740
27.00890	791846
27.01702	798353
27.02513	712674
27.03327	620650
27.04138	485487
27.04952	370482
27.05763	284402
27.06575	244345
27.07388	198796
27.08200	171342
27.09012	151079
27.09825	131164
27.10637	122875
27.11450	112694
27.12262	102514
27.13073	103064
27.13887	97309
27.14698	92591
27.15512	89324
27.16323	87874
27.17135	91217
27.17948	87349
27.18760	89989
27.19572	77373
27.20385	85636
27.21197	77496
27.22010	74002
27.22822	73012
27.23633	69498
27.24447	63902
27.25258	62159
27.26072	64478
27.26883	62376
27.27695	60700
27.28508	56140
27.29320	62409
27.30133	60025
27.30945	54507
27.31757	55241
27.32570	56438
27.33382	54771
27.34193	53346
27.35007	53918
27.35818	53457
27.36632	58563
27.37443	53967
27.38255	54942
27.39068	54824
27.39880	51897
27.40693	52005
27.41505	54443
27.42317	49905
27.43130	49930
27.43942	46383
27.44755	52528
27.45567	53059
27.46378	52389
27.47192	52960
27.48003	52572
27.48815	49481
27.49628	48645
27.50440	49937
27.51253	50612
27.52065	48964
27.52877	47530
27.53690	46484
27.54502	47915
27.55315	49164
27.56127	48506
27.56938	47493
27.57752	51590
27.58563	48195
27.59375	47395
27.60188	46914
27.61000	48939
27.61813	49528
27.62625	45980
27.63437	50549
27.64250	42483
27.65062	41685
27.65875	44739
27.66687	41319
27.67498	43994
27.68312	43438
27.69123	50853
27.69937	43311
27.70748	45772
27.71560	46032
27.72373	45625
27.73185	50586
27.73997	49413
27.74810	46667
27.75622	55860
27.76435	49060
27.77247	45691
27.78058	46637
27.78872	45173
27.79683	44485
27.80497	46573
27.81308	44741
27.82120	43488
27.82933	44533
27.83745	44133
27.84557	46834
27.85370	46777
27.86182	46046
27.86995	44736
27.87807	40870
27.88618	44792
27.89432	44998
27.90243	45301
27.91057	42313
27.91868	41153
27.92680	44967
27.93493	41995
27.94305	44032
27.95118	41669
27.95930	44083
27.96742	45622
27.97555	44710
27.98367	42471
27.99178	43451
27.99992	46243
28.00803	44600
28.01617	43276
28.02428	43823
28.03240	45642
28.04053	43279
28.04865	40722
28.05678	41947
28.06490	41514
28.07302	46648
28.08115	49138
28.08927	63006
28.09740	64238
28.10552	68913
28.11363	70937
28.12177	72280
28.12988	68527
28.13800	64341
28.14613	59968
28.15425	54562
28.16238	54492
28.17050	50918
28.17862	51953
28.18675	51363
28.19487	47988
28.20300	42683
28.21112	46868
28.21923	44144
28.22737	45437
28.23548	43226
28.24362	47594
28.25173	49540
28.25985	60464
28.26798	72022
28.27610	91687
28.28422	124162
28.29235	174342
28.30047	204855
28.30860	250275
28.31672	271313
28.32483	306515
28.33297	309109
28.34108	312226
28.34922	289216
28.35733	275335
28.36545	248162
28.37358	218587
28.38170	200950
28.38982	174767
28.39795	157045
28.40607	138864
28.41420	131415
28.42232	121857
28.43043	120707
28.43857	100397
28.44668	86765
28.45482	84905
28.46293	84560
28.47105	82259
28.47918	83889
28.48730	70853
28.49543	72901
28.50355	70417
28.51167	69097
28.51980	67414
28.52792	67302
28.53603	67248
28.54417	71921
28.55228	63334
28.56042	65681
28.56853	58454
28.57665	61995
28.58478	63531
28.59290	61249
28.60103	58204
28.60915	61243
28.61727	61644
28.62540	60815
28.63352	62542
28.64163	71031
28.64977	65269
28.65788	71166
28.66602	69572
28.67413	69805
28.68225	65094
28.69038	63379
28.69850	63517
28.70663	65170
28.71475	68759
28.72287	82455
28.73100	87356
28.73912	85627
28.74725	86759
28.75537	75089
28.76348	68645
28.77162	61012
28.77973	58387
28.78785	54233
28.79598	54649
28.80410	53198
28.81223	48864
28.82035	52750
28.82847	49671
28.83660	52948
28.84472	51563
28.85285	51646
28.86097	50667
28.86908	46186
28.87722	50539
28.88533	51465
28.89347	46824
28.90158	53572
28.90970	51749
28.91783	53046
28.92595	49310
28.93407	47793
28.94220	52070
28.95032	52709
28.95845	54119
28.96657	51038
28.97468	53551
28.98282	51313
28.99093	50177
28.99907	47597
29.00718	51786
29.01530	47672
29.02343	51115
29.03155	46511
29.03967	46096
29.04780	47930
29.05592	45461
29.06405	48824
29.07217	46103
29.08028	48102
29.08842	48494
29.09653	47348
29.10467	42838
29.11278	48446
29.12090	45244
29.12903	47568
29.13715	51355
29.14528	49104
29.15340	48415
29.16152	48727
29.16965	52992
29.17777	50321
29.18588	54680
29.19402	47073
29.20213	48269
29.21027	50920
29.21838	48844
29.22650	49297
29.23463	49680
29.24275	49371
29.25088	49379
29.25900	49693
29.26712	49961
29.27525	48384
29.28337	45344
29.29150	49336
29.29962	44235
29.30773	47543
29.31587	46888
29.32398	47184
29.33210	46501
29.34023	48926
29.34835	45791
29.35648	47271
29.36460	45175
29.37272	44482
29.38085	46844
29.38897	48410
29.39710	50241
29.40522	49798
29.41333	45544
29.42147	45953
29.42958	46815
29.43770	47001
29.44583	48977
29.45395	47105
29.46208	50892
29.47020	48221
29.47832	46332
29.48645	50003
29.49457	54512
29.50270	56199
29.51082	54165
29.51893	54331
29.52707	55221
29.53518	48617
29.54332	49166
29.55143	44872
29.55955	46485
29.56768	51221
29.57580	51308
29.58392	53756
29.59205	58907
29.60017	61633
29.60830	60188
29.61642	58936
29.62453	52129
29.63267	51140
29.64078	51080
29.64892	51044
29.65703	46788
29.66515	45959
29.67328	46409
29.68140	47319
29.68953	45538
29.69765	47347
29.70577	47024
29.71390	46126
29.72202	48254
29.73013	50546
29.73827	45298
29.74638	50782
29.75452	47138
29.76263	48560
29.77075	46952
29.77888	50755
29.78700	45687
29.79513	48041
29.80325	47785
29.81137	45982
29.81950	48275
29.82762	47564
29.83573	50325
29.84387	45255
29.85198	43463
29.86012	44258
29.86823	52881
29.87635	52500
29.88448	53365
29.89260	64143
29.90073	68969
29.90885	89482
29.91697	96812
29.92510	104902
29.93322	117000
29.94135	130472
29.94947	146955
29.95758	153474
29.96572	166864
29.97383	169193
29.98195	165723
29.99008	153321
29.99820	146922
30.00633	137219
30.01445	131656
30.02257	124992
30.03070	115302
30.03882	110936
30.04695	99061
30.05507	98743
30.06318	92140
30.07132	89425
30.07943	85928
30.08755	82355
30.09568	84094
30.10380	84692
30.11193	77642
30.12005	71855
30.12817	66694
30.13630	70510
30.14442	68366
30.15255	65405
30.16067	64241
30.16878	57091
30.17692	54581
30.18503	61655
30.19317	62438
30.20128	61120
30.20940	62068
30.21753	58619
30.22565	52201
30.23377	56349
30.24190	53806
30.25002	50472
30.25815	59413
30.26627	54108
30.27438	52550
30.28252	55702
30.29063	56434
30.29877	52957
30.30688	53391
30.31500	51650
30.32313	50981
30.33125	52141
30.33938	49374
30.34750	50537
30.35562	49634
30.36375	53852
30.37187	55241
30.37998	52254
30.38812	48482
30.39623	50137
30.40437	49871
30.41248	51298
30.42060	53465
30.42873	53162
30.43685	49679
30.44498	49164
30.45310	50358
30.46122	52644
30.46935	50433
30.47747	52342
30.48558	48377
30.49372	50473
30.50183	49524
30.50997	49387
30.51808	48660
30.52620	47034
30.53433	44412
30.54245	48868
30.55058	47663
30.55870	46678
30.56682	46407
30.57495	45945
30.58307	48318
30.59120	48071
30.59932	48433
30.60743	47229
30.61557	49207
30.62368	48749
30.63180	48543
30.63993	48655
30.64805	49850
30.65618	55306
30.66430	54308
30.67242	46284
30.68055	46435
30.68867	46900
30.69680	47510
30.70492	45369
30.71303	44416
30.72117	48217
30.72928	47727
30.73742	48641
30.74553	46160
30.75365	49004
30.76178	47148
30.76990	49103
30.77802	54918
30.78615	53198
30.79427	53434
30.80240	53584
30.81052	53517
30.81863	52642
30.82677	52672
30.83488	52675
30.84302	50073
30.85113	52462
30.85925	53263
30.86738	48125
30.87550	45302
30.88362	49123
30.89175	45803
30.89987	48156
30.90800	46824
30.91612	46398
30.92423	43413
30.93237	47359
30.94048	41341
30.94862	44033
30.95673	45675
30.96485	47777
30.97298	45647
30.98110	46514
30.98923	44505
30.99735	45112
31.00547	46856
31.01360	50315
31.02172	53150
31.02983	49691
31.03797	48490
31.04608	46984
31.05422	48578
31.06233	48036
31.07045	51198
31.07858	51045
31.08670	56498
31.09483	58602
31.10295	60952
31.11107	56437
31.11920	60550
31.12732	58385
31.13543	55715
31.14357	53988
31.15168	55001
31.15982	57176
31.16793	61161
31.17605	72287
31.18418	83132
31.19230	111005
31.20043	129642
31.20855	158104
31.21667	154798
31.22480	148998
31.23292	130801
31.24105	100663
31.24917	85820
31.25728	74192
31.26542	59809
31.27353	56570
31.28165	50317
31.28978	50993
31.29790	52056
31.30603	52110
31.31415	47946
31.32227	46106
31.33040	47116
31.33852	49817
31.34665	46956
31.35477	48784
31.36288	54045
31.37102	53239
31.37913	50121
31.38727	51519
31.39538	49417
31.40350	48852
31.41163	50910
31.41975	52251
31.42787	49027
31.43600	50600
31.44412	49051
31.45225	47440
31.46037	46401
31.46848	52664
31.47662	50604
31.48473	47692
31.49287	50064
31.50098	45457
31.50910	49052
31.51723	48467
31.52535	52259
31.53348	53367
31.54160	52023
31.54972	46595
31.55785	45134
31.56597	50990
31.57408	47165
31.58222	48920
31.59033	50894
31.59847	48169
31.60658	46037
31.61470	50210
31.62283	47214
31.63095	52172
31.63908	52707
31.64720	48151
31.65532	48963
31.66345	49696
31.67157	52572
31.67968	53498
31.68782	55826
31.69593	58203
31.70407	57845
31.71218	54887
31.72030	51370
31.72843	51064
31.73655	49748
31.74468	50939
31.75280	53081
31.76092	47475
31.76905	49266
31.77717	51056
31.78530	50384
31.79342	49220
31.80153	55164
31.80967	57425
31.81778	53117
31.82590	55333
31.83403	58091
31.84215	67563
31.85028	73748
31.85840	80665
31.86652	89595
31.87465	100896
31.88277	104772
31.89090	117383
31.89902	117287
31.90713	113491
31.91527	115302
31.92338	111626
31.93150	107107
31.93963	103453
31.94775	99493
31.95588	93717
31.96400	97438
31.97212	87421
31.98025	84296
31.98837	83674
31.99650	79666
32.00462	79461
32.01273	78759
32.02087	76424
32.02898	78111
32.03712	78068
32.04523	77510
32.05335	71294
32.06148	65776
32.06960	66105
32.07772	62740
32.08585	64208
32.09397	62290
32.10210	56685
32.11022	59451
32.11833	56988
32.12647	56417
32.13458	59641
32.14272	59569
32.15083	54255
32.15895	51687
32.16708	53832
32.17520	58291
32.18333	56679
32.19145	56205
32.19957	56637
32.20770	58015
32.21582	52519
32.22393	52413
32.23207	49460
32.24018	55634
32.24832	51369
32.25643	51439
32.26455	52134
32.27268	53047
32.28080	52046
32.28893	50817
32.29705	54752
32.30517	49365
32.31330	55513
32.32142	52656
32.32953	52566
32.33767	58248
32.34578	57866
32.35392	60434
32.36203	53433
32.37015	57151
32.37828	56632
32.38640	53743
32.39453	55153
32.40265	50198
32.41077	57223
32.41890	52077
32.42702	58114
32.43515	55905
32.44327	53218
32.45138	52229
32.45952	50913
32.46763	52364
32.47575	51753
32.48388	50009
32.49200	53020
32.50013	50969
32.50825	54935
32.51637	53565
32.52450	52814
32.53262	58205
32.54075	55458
32.54887	57080
32.55698	53649
32.56512	53166
32.57323	58979
32.58137	54315
32.58948	60430
32.59760	65736
32.60573	65515
32.61385	74182
32.62197	79549
32.63010	81451
32.63822	74528
32.64635	70753
32.65447	61452
32.66258	61136
32.67072	62691
32.67883	61100
32.68697	59769
32.69508	56474
32.70320	63279
32.71133	61411
32.71945	58963
32.72757	62570
32.73570	55469
32.74382	55125
32.75195	56056
32.76007	55158
32.76818	52322
32.77632	52446
32.78443	54423
32.79257	50516
32.80068	53140
32.80880	49571
32.81693	51782
32.82505	50028
32.83318	51598
32.84130	53422
32.84942	52882
32.85755	55500
32.86567	50880
32.87378	49051
32.88192	52436
32.89003	55060
32.89817	51828
32.90628	53574
32.91440	53786
32.92253	54257
32.93065	55910
32.93878	54098
32.94690	53852
32.95502	55464
32.96315	57053
32.97127	55779
32.97938	53391
32.98752	54299
32.99563	58082
33.00377	50871
33.01188	50931
33.02000	55928
33.02813	50960
33.03625	53948
33.04438	52276
33.05250	53416
33.06062	52269
33.06875	49301
33.07687	55553
33.08500	59255
33.09312	63560
33.10123	70777
33.10937	82096
33.11748	80308
33.12560	82355
33.13373	75887
33.14185	76114
33.14998	67200
33.15810	62780
33.16622	56326
33.17435	55153
33.18247	57204
33.19060	55849
33.19872	56898
33.20683	54020
33.21497	53249
33.22308	53534
33.23122	54948
33.23933	51529
33.24745	53344
33.25558	57209
33.26370	51418
33.27182	55521
33.27995	58363
33.28807	50327
33.29620	52370
33.30432	55932
33.31243	53506
33.32057	55321
33.32868	55708
33.33682	55069
33.34493	54193
33.35305	54493
33.36118	52197
33.36930	55123
33.37742	54961
33.38555	54932
33.39367	60933
33.40180	52900
33.40992	56166
33.41803	53305
33.42617	53217
33.43428	55349
33.44242	50313
33.45053	53252
33.45865	56347
33.46678	57748
33.47490	52551
33.48303	54333
33.49115	56876
33.49927	52796
33.50740	57332
33.51552	55263
33.52363	54850
33.53177	58585
33.53988	58305
33.54802	62689
33.55613	54637
33.56425	54240
33.57238	56469
33.58050	56152
33.58863	56473
33.59675	55136
33.60487	57325
33.61300	54916
33.62112	53511
33.62925	52622
33.63737	54300
33.64548	59750
33.65362	58645
33.66173	57923
33.66985	57581
33.67798	54672
33.68610	59199
33.69423	52403
33.70235	52819
33.71047	55180
33.71860	55441
33.72672	59040
33.73485	56303
33.74297	55723
33.75108	54240
33.75922	54174
33.76733	60809
33.77545	57572
33.78358	61155
33.79170	60233
33.79983	61074
33.80795	61620
33.81607	59698
33.82420	62488
33.83232	60674
33.84045	63371
33.84857	65291
33.85668	62126
33.86482	66029
33.87293	62645
33.88107	64063
33.88918	70214
33.89730	68559
33.90543	65409
33.91355	68007
33.92167	71365
33.92980	71300
33.93792	65967
33.94605	71859
33.95417	72500
33.96228	74305
33.97042	73492
33.97853	73528
33.98667	74097
33.99478	70306
34.00290	72301
34.01103	71164
34.01915	67836
34.02727	67675
34.03540	68236
34.04352	70620
34.05165	71148
34.05977	72153
34.06788	71107
34.07602	66331
34.08413	69428
34.09227	68163
34.10038	67713
34.10850	65770
34.11663	65095
34.12475	64911
34.13288	66673
34.14100	66202
34.14912	63405
34.15725	72357
34.16537	64232
34.17348	60817
34.18162	58335
34.18973	62684
34.19787	63180
34.20598	64706
34.21410	60493
34.22223	68321
34.23035	58132
34.23848	66155
34.24660	63776
34.25472	66265
34.26285	60674
34.27097	66136
34.27910	62234
34.28722	58052
34.29533	61636
34.30347	61497
34.31158	65517
34.31970	62454
34.32783	60580
34.33595	63201
34.34408	66908
34.35220	63449
34.36032	61080
34.36845	59412
34.37657	66956
34.38470	64408
34.39282	61635
34.40093	64086
34.40907	59467
34.41718	61083
34.42530	62332
34.43343	61712
34.44155	62516
34.44968	66965
34.45780	69012
34.46592	77729
34.47405	84642
34.48217	93839
34.49030	103015
34.49842	119379
34.50653	119020
34.51467	113892
34.52278	114014
34.53092	113545
34.53903	101258
34.54715	99937
34.55528	90556
34.56340	86774
34.57152	84702
34.57965	81909
34.58777	82133
34.59590	75687
34.60402	74645
34.61213	75337
34.62027	81352
34.62838	81017
34.63652	79933
34.64463	74508
34.65275	74829
34.66088	73488
34.66900	78203
34.67713	73777
34.68525	78860
34.69337	75686
34.70150	74195
34.70962	73950
34.71773	77492
34.72587	77108
34.73398	80350
34.74212	76916
34.75023	78422
34.75835	78630
34.76648	77107
34.77460	78736
34.78273	74620
34.79085	76298
34.79897	74332
34.80710	73591
34.81522	74669
34.82333	77222
34.83147	73725
34.83958	73332
34.84772	72301
34.85583	73064
34.86395	72503
34.87208	73380
34.88020	72136
34.88833	68783
34.89645	71524
34.90457	72076
34.91270	76378
34.92082	71840
34.92895	72741
34.93707	74676
34.94518	73828
34.95332	71214
34.96143	68867
34.96955	68281
34.97768	73772
34.98580	70697
34.99393	73186
35.00205	69755
35.01017	69797
35.01830	67295
35.02642	65134
35.03455	65905
35.04267	67677
35.05078	69226
35.05892	69736
35.06703	63030
35.07517	69802
35.08328	69930
35.09140	68419
35.09953	66062
35.10765	66869
35.11577	68063
35.12390	68005
35.13202	71373
35.14015	74919
35.14827	73063
35.15638	76648
35.16452	72289
35.17263	72324
35.18077	76322
35.18888	73859
35.19700	72217
35.20513	69909
35.21325	72717
35.22137	72495
35.22950	74344
35.23762	73499
35.24575	76441
35.25387	80847
35.26198	76730
35.27012	80775
35.27823	80022
35.28637	78430
35.29448	80469
35.30260	75475
35.31073	75941
35.31885	67199
35.32698	69399
35.33510	72682
35.34322	65586
35.35135	68076
35.35947	69562
35.36758	74583
35.37572	71058
35.38383	69300
35.39197	70793
35.40008	69110
35.40820	72677
35.41633	72694
35.42445	76561
35.43258	75126
35.44070	80438
35.44882	80696
35.45695	81515
35.46507	84782
35.47318	82051
35.48132	81645
35.48943	81303
35.49757	77290
35.50568	76903
35.51380	76414
35.52193	74467
35.53005	76409
35.53818	78100
35.54630	78250
35.55442	79539
35.56255	86620
35.57067	76811
35.57880	78293
35.58692	79401
35.59503	83301
35.60317	84420
35.61128	87217
35.61940	79478
35.62753	81446
35.63565	80678
35.64378	80475
35.65190	82852
35.66002	77351
35.66815	79635
35.67627	73313
35.68440	77923
35.69252	78327
35.70063	74007
35.70877	72008
35.71688	74302
35.72502	75925
35.73313	72042
35.74125	70884
35.74938	79534
35.75750	77776
35.76562	68372
35.77375	72165
35.78187	71711
35.79000	76437
35.79812	76358
35.80623	73436
35.81437	75303
35.82248	77973
35.83062	75279
35.83873	74997
35.84685	72548
35.85498	74890
35.86310	72506
35.87122	78590
35.87935	78188
35.88747	75485
35.89560	77065
35.90372	71796
35.91183	72783
35.91997	82726
35.92808	76035
35.93622	77693
35.94433	76499
35.95245	74882
35.96058	77388
35.96870	77589
35.97683	78423
35.98495	77831
35.99307	78335
36.00120	80036
36.00932	83551
36.01743	83979
36.02557	86962
36.03368	84441
36.04182	84079
36.04993	85863
36.05805	80751
36.06618	84120
36.07430	83723
36.08243	78642
36.09055	77402
36.09867	83597
36.10680	76628
36.11492	84402
36.12305	81942
36.13117	79425
36.13928	80822
36.14742	84016
36.15553	80876
36.16365	80582
36.17178	78548
36.17990	78849
36.18803	80580
36.19615	73932
36.20427	78228
36.21240	76934
36.22052	79215
36.22865	80218
36.23677	79293
36.24488	87362
36.25302	92270
36.26113	98402
36.26925	103593
36.27738	108711
36.28550	103331
36.29363	102656
36.30175	100171
36.30987	88718
36.31800	85748
36.32612	86274
36.33425	81480
36.34237	81520
36.35048	84591
36.35862	82996
36.36673	82985
36.37487	86776
36.38298	82908
36.39110	92383
36.39923	91387
36.40735	87158
36.41547	88528
36.42360	90007
36.43172	81801
36.43985	81624
36.44797	85273
36.45608	83286
36.46422	82439
36.47233	85499
36.48047	85359
36.48858	79646
36.49670	79060
36.50483	78070
36.51295	83004
36.52107	85384
36.52920	81169
36.53732	80366
36.54545	81842
36.55357	81893
36.56168	83398
36.56982	81936
36.57793	83596
36.58607	88097
36.59418	84367
36.60230	89543
36.61043	88808
36.61855	89815
36.62668	91181
36.63480	84647
36.64292	89693
36.65105	85586
36.65917	85834
36.66728	87103
36.67542	83117
36.68353	82280
36.69167	87957
36.69978	87521
36.70790	83073
36.71603	84281
36.72415	84575
36.73228	84172
36.74040	85318
36.74852	90958
36.75665	88948
36.76477	85809
36.77290	88000
36.78102	85855
36.78913	84343
36.79727	82688
36.80538	84659
36.81350	87599
36.82163	89232
36.82975	91167
36.83788	85173
36.84600	89470
36.85412	85545
36.86225	90605
36.87037	89129
36.87850	86586
36.88662	86660
36.89473	91580
36.90287	85586
36.91098	87487
36.91912	89101
36.92723	86856
36.93535	87475
36.94348	93996
36.95160	90256
36.95972	95618
36.96785	91885
36.97597	91739
36.98410	94857
36.99222	106550
37.00033	120136
37.00847	144247
37.01658	172811
37.02472	190814
37.03283	197582
37.04095	195351
37.04908	163908
37.05720	143881
37.06532	127658
37.07345	115991
37.08157	110133
37.08970	98280
37.09782	95763
37.10593	95614
37.11407	92265
37.12218	93583
37.13032	96132
37.13843	97530
37.14655	93630
37.15468	96957
37.16280	96223
37.17093	93783
37.17905	90917
37.18717	96029
37.19530	95877
37.20342	93581
37.21153	97344
37.21967	96139
37.22778	93764
37.23592	97705
37.24403	91217
37.25215	95313
37.26028	95076
37.26840	102719
37.27653	111920
37.28465	113235
37.29277	127424
37.30090	134842
37.30902	136153
37.31713	137640
37.32527	141701
37.33338	131139
37.34152	129940
37.34963	116730
37.35775	117856
37.36588	110144
37.37400	112395
37.38213	115647
37.39025	113200
37.39837	107928
37.40650	105998
37.41462	105471
37.42275	112388
37.43087	101810
37.43898	102007
37.44712	102171
37.45523	111013
37.46335	103905
37.47148	109595
37.47960	110254
37.48773	113687
