Z:\data\JTB-E02\BACandBLUE\JTB-E02-191-11.D Wed Dec 12 13:39:48 2018
Start of data points
2.09538	75833
2.10350	76230
2.11163	73182
2.11975	77854
2.12787	78100
2.13600	76530
2.14412	76955
2.15225	77158
2.16037	78651
2.16848	72751
2.17662	69001
2.18473	71144
2.19287	69732
2.20098	71500
2.20910	66160
2.21723	66060
2.22535	62411
2.23348	68787
2.24160	65837
2.24972	62749
2.25785	69092
2.26597	245534
2.27408	830131
2.28222	1327210
2.29033	1010594
2.29847	529987
2.30658	362537
2.31470	283284
2.32283	244395
2.33095	216531
2.33908	198359
2.34720	196881
2.35532	177207
2.36345	170273
2.37157	168123
2.37970	158062
2.38782	153601
2.39593	153612
2.40407	154447
2.41218	159498
2.42030	156076
2.42843	153535
2.43655	154343
2.44468	148147
2.45280	142534
2.46092	141555
2.46905	146534
2.47717	136274
2.48530	143751
2.49342	138071
2.50153	145436
2.50967	136381
2.51778	139230
2.52590	134705
2.53403	135271
2.54215	129628
2.55028	131990
2.55840	143992
2.56652	139860
2.57465	130942
2.58277	126610
2.59090	122617
2.59902	145435
2.60713	272541
2.61527	517989
2.62338	491309
2.63152	322547
2.63963	229424
2.64775	189498
2.65588	165858
2.66400	149232
2.67212	143216
2.68025	134742
2.68837	130204
2.69650	124125
2.70462	123901
2.71273	117122
2.72087	117901
2.72898	110905
2.73712	113087
2.74523	106947
2.75335	109242
2.76148	110063
2.76960	133476
2.77773	338182
2.78585	850247
2.79397	1075406
2.80210	704626
2.81022	423606
2.81833	370448
2.82647	337040
2.83458	275778
2.84272	219979
2.85083	197142
2.85895	183544
2.86708	170150
2.87520	149189
2.88333	147249
2.89145	133024
2.89957	134842
2.90770	130395
2.91582	120936
2.92393	120061
2.93207	121909
2.94018	117375
2.94832	108143
2.95643	115838
2.96455	121793
2.97268	128396
2.98080	125277
2.98893	116703
2.99705	115987
3.00517	126085
3.01330	116235
3.02142	116024
3.02955	113882
3.03767	109234
3.04578	106344
3.05392	103798
3.06203	98716
3.07015	103215
3.07828	145106
3.08640	380448
3.09453	1027746
3.10265	2480027
3.11077	4916621
3.11890	5980922
3.12702	4279544
3.13515	2629346
3.14327	1806771
3.15138	1374526
3.15952	1097282
3.16763	923582
3.17575	913674
3.18388	1352196
3.19200	3046106
3.20013	4888031
3.20825	4557467
3.21637	3052053
3.22450	2176927
3.23262	1670220
3.24075	1347028
3.24887	1133112
3.25698	942317
3.26512	827258
3.27323	714374
3.28137	642871
3.28948	642578
3.29760	931540
3.30573	1683397
3.31385	2529604
3.32197	2657712
3.33010	2194134
3.33822	1647018
3.34635	1256896
3.35447	1055671
3.36258	907203
3.37072	797938
3.37883	737944
3.38697	666863
3.39508	609739
3.40320	574941
3.41133	546008
3.41945	511908
3.42758	494495
3.43570	491712
3.44382	488200
3.45195	459699
3.46007	488952
3.46818	606771
3.47632	780933
3.48443	790783
3.49257	632651
3.50068	502389
3.50880	406825
3.51693	375192
3.52505	363795
3.53318	375498
3.54130	406041
3.54942	437755
3.55755	395233
3.56567	344110
3.57378	309353
3.58192	309385
3.59003	286180
3.59817	277260
3.60628	259840
3.61440	266212
3.62253	268269
3.63065	283144
3.63878	269852
3.64690	278556
3.65502	395073
3.66315	2074574
3.67127	1.045132E+07
3.67940	2.567368E+07
3.68752	3.612561E+07
3.69563	3.357654E+07
3.70377	2.325197E+07
3.71188	1.56857E+07
3.72000	1.182577E+07
3.72813	9538649
3.73625	7925336
3.74438	6807719
3.75250	5861300
3.76062	5127617
3.76875	4522830
3.77687	4020535
3.78500	3628920
3.79312	3345499
3.80123	3159387
3.80937	3147871
3.81748	3425646
3.82562	3557844
3.83373	3271307
3.84185	2812974
3.84998	2461467
3.85810	2252649
3.86622	2054998
3.87435	1913751
3.88247	1792470
3.89060	1714344
3.89872	1618450
3.90683	1559658
3.91497	1557082
3.92308	1778587
3.93122	2149490
3.93933	2325898
3.94745	2046556
3.95558	1802982
3.96370	1760871
3.97182	1857898
3.97995	1743620
3.98807	1508928
3.99620	1307538
4.00432	1414689
4.01243	1878760
4.02057	2296623
4.02868	2216822
4.03682	1740402
4.04493	1334912
4.05305	1091464
4.06118	986551
4.06930	906061
4.07743	844523
4.08555	803675
4.09367	798724
4.10180	758841
4.10992	743297
4.11803	703723
4.12617	673716
4.13428	666732
4.14242	666894
4.15053	661582
4.15865	685999
4.16678	683708
4.17490	674865
4.18303	646997
4.19115	639444
4.19927	631280
4.20740	919777
4.21552	2863296
4.22363	8516624
4.23177	1.750828E+07
4.23988	2.546983E+07
4.24802	3.095279E+07
4.25613	3.482921E+07
4.26425	3.56164E+07
4.27238	2.874691E+07
4.28050	1.539571E+07
4.28863	9304512
4.29675	6937812
4.30487	5554844
4.31300	4618228
4.32112	3905215
4.32925	3373799
4.33737	2907734
4.34548	2579206
4.35362	2336731
4.36173	2151194
4.36985	2078237
4.37798	2015072
4.38610	1847472
4.39423	1639120
4.40235	1444988
4.41047	1310884
4.41860	1223051
4.42672	1124100
4.43485	1066373
4.44297	999162
4.45108	960650
4.45922	889932
4.46733	860971
4.47547	819066
4.48358	789777
4.49170	765523
4.49983	732776
4.50795	709780
4.51607	685091
4.52420	669659
4.53232	643129
4.54045	635355
4.54857	637153
4.55668	655297
4.56482	636115
4.57293	589411
4.58107	561176
4.58918	554508
4.59730	529501
4.60543	528531
4.61355	506973
4.62167	533989
4.62980	700693
4.63792	1043751
4.64605	1508647
4.65417	1693421
4.66228	1461327
4.67042	1078763
4.67853	844153
4.68667	722400
4.69478	655250
4.70290	589168
4.71103	542749
4.71915	500304
4.72728	469410
4.73540	458103
4.74352	449551
4.75165	427647
4.75977	420835
4.76788	404249
4.77602	388315
4.78413	398720
4.79227	428940
4.80038	499901
4.80850	624882
4.81663	689186
4.82475	640531
4.83288	575908
4.84100	552935
4.84912	602013
4.85725	652039
4.86537	644405
4.87350	572186
4.88162	499400
4.88973	450554
4.89787	417859
4.90598	403370
4.91410	384913
4.92223	376171
4.93035	372637
4.93848	387128
4.94660	479369
4.95472	741107
4.96285	1222921
4.97097	1653024
4.97910	1791825
4.98722	1562126
4.99533	1255858
5.00347	989447
5.01158	815729
5.01970	726893
5.02783	790335
5.03595	1062487
5.04408	1505969
5.05220	1772586
5.06032	1629434
5.06845	1355563
5.07657	1095857
5.08470	951441
5.09282	859624
5.10093	762857
5.10907	708878
5.11718	658508
5.12532	619824
5.13343	587145
5.14155	555050
5.14968	566715
5.15780	656665
5.16592	801709
5.17405	947386
5.18217	967897
5.19030	854918
5.19842	761936
5.20653	753306
5.21467	821433
5.22278	837282
5.23092	779555
5.23903	699595
5.24715	696093
5.25528	587228
5.26340	518990
5.27153	477781
5.27965	411333
5.28777	396673
5.29590	392005
5.30402	375130
5.31213	364629
5.32027	359184
5.32838	354981
5.33652	362966
5.34463	382153
5.35275	376056
5.36088	365588
5.36900	354758
5.37713	344108
5.38525	329601
5.39337	338386
5.40150	336836
5.40962	364381
5.41773	358381
5.42587	334152
5.43398	313244
5.44212	308000
5.45023	322991
5.45835	352117
5.46648	369197
5.47460	367613
5.48273	336816
5.49085	310791
5.49897	289103
5.50710	276383
5.51522	268598
5.52335	288362
5.53147	277578
5.53958	271208
5.54772	283746
5.55583	303923
5.56395	390972
5.57208	536022
5.58020	702178
5.58833	715544
5.59645	619860
5.60457	480019
5.61270	377552
5.62082	325845
5.62895	310257
5.63707	292329
5.64518	283299
5.65332	278569
5.66143	276259
5.66955	269142
5.67768	279189
5.68580	295766
5.69393	355817
5.70205	418055
5.71017	435269
5.71830	416012
5.72642	361621
5.73455	305778
5.74267	276245
5.75078	255825
5.75892	254242
5.76703	247663
5.77517	240112
5.78328	229200
5.79140	233385
5.79953	225800
5.80765	226479
5.81577	224705
5.82390	230718
5.83202	239956
5.84015	226516
5.84827	233854
5.85638	219470
5.86452	216047
5.87263	216209
5.88077	211096
5.88888	212155
5.89700	208210
5.90513	211509
5.91325	205024
5.92138	212265
5.92950	215756
5.93762	221103
5.94575	226957
5.95387	254687
5.96198	333414
5.97012	462710
5.97823	601181
5.98637	771844
5.99448	955728
6.00260	1073332
6.01073	1060212
6.01885	854874
6.02698	641112
6.03510	474281
6.04322	357923
6.05135	304002
6.05947	267935
6.06758	245119
6.07572	238401
6.08383	236816
6.09197	218073
6.10008	208314
6.10820	200902
6.11633	203741
6.12445	240262
6.13258	396131
6.14070	755335
6.14882	1217521
6.15695	1498379
6.16507	1365796
6.17320	1024455
6.18132	733925
6.18943	555820
6.19757	464404
6.20568	409297
6.21380	362893
6.22193	331456
6.23005	306062
6.23818	293575
6.24630	291509
6.25442	303277
6.26255	313311
6.27067	319117
6.27880	323785
6.28692	299879
6.29503	282339
6.30317	269242
6.31128	268913
6.31942	259080
6.32753	264070
6.33565	268379
6.34378	289500
6.35190	298066
6.36002	290439
6.36815	272184
6.37627	261416
6.38440	249824
6.39252	269539
6.40063	255819
6.40877	248851
6.41688	253712
6.42502	243816
6.43313	240476
6.44125	242223
6.44938	243673
6.45750	256040
6.46562	247855
6.47375	249465
6.48187	248135
6.49000	261560
6.49812	253573
6.50623	246190
6.51437	254125
6.52248	258157
6.53062	264764
6.53873	260868
6.54685	256368
6.55498	250216
6.56310	261840
6.57123	325268
6.57935	423295
6.58747	558097
6.59560	599148
6.60372	537485
6.61183	425919
6.61997	358815
6.62808	307915
6.63622	250599
6.64433	223830
6.65245	202833
6.66058	192822
6.66870	191526
6.67683	184933
6.68495	187596
6.69307	174531
6.70120	168408
6.70932	164156
6.71743	153698
6.72557	169135
6.73368	159623
6.74182	165865
6.74993	159060
6.75805	160058
6.76618	150052
6.77430	150762
6.78243	152900
6.79055	147789
6.79867	154342
6.80680	150682
6.81492	146240
6.82305	136886
6.83117	134513
6.83928	136222
6.84742	144027
6.85553	142938
6.86365	159783
6.87178	174753
6.87990	195207
6.88803	206008
6.89615	193911
6.90427	178067
6.91240	147311
6.92052	132640
6.92865	131416
6.93677	115264
6.94488	115417
6.95302	113415
6.96113	110337
6.96927	119586
6.97738	132257
6.98550	147495
6.99363	152663
7.00175	148512
7.00987	146643
7.01800	129834
7.02612	131716
7.03425	132676
7.04237	126691
7.05048	120256
7.05862	116878
7.06673	123581
7.07487	134341
7.08298	151500
7.09110	184092
7.09923	189332
7.10735	186140
7.11548	168114
7.12360	141760
7.13172	130931
7.13985	123952
7.14797	131321
7.15608	158523
7.16422	201011
7.17233	287230
7.18047	552090
7.18858	1468504
7.19670	3575264
7.20483	6862155
7.21295	9837307
7.22108	1.034556E+07
7.22920	8020576
7.23732	4598651
7.24545	2015276
7.25357	768292
7.26168	337715
7.26982	207971
7.27793	188390
7.28607	170586
7.29418	164648
7.30230	157542
7.31043	154278
7.31855	153418
7.32668	156113
7.33480	169444
7.34292	195702
7.35105	244552
7.35917	283529
7.36730	294477
7.37542	279254
7.38353	239818
7.39167	194505
7.39978	171507
7.40790	142092
7.41603	131465
7.42415	135146
7.43228	127790
7.44040	128238
7.44852	123044
7.45665	116014
7.46477	124042
7.47290	121240
7.48102	126990
7.48913	127438
7.49727	124483
7.50538	118147
7.51350	110099
7.52163	120378
7.52975	116723
7.53788	133926
7.54600	215665
7.55412	372793
7.56225	748223
7.57037	1333659
7.57850	2089594
7.58662	2680559
7.59473	2898745
7.60287	2664441
7.61098	2054900
7.61912	1408838
7.62723	918542
7.63535	572852
7.64348	397234
7.65160	298173
7.65972	239394
7.66785	197108
7.67597	163189
7.68410	148913
7.69222	128853
7.70033	119231
7.70847	119075
7.71658	129156
7.72472	148887
7.73283	176705
7.74095	204640
7.74908	209418
7.75720	210947
7.76533	204997
7.77345	188956
7.78157	176170
7.78970	165522
7.79782	159487
7.80593	160178
7.81407	178249
7.82218	204178
7.83032	209332
7.83843	207483
7.84655	183823
7.85468	149430
7.86280	140252
7.87093	128242
7.87905	135550
7.88717	153020
7.89530	183479
7.90342	214220
7.91153	238612
7.91967	225292
7.92778	209553
7.93592	182530
7.94403	188927
7.95215	213231
7.96028	230518
7.96840	244544
7.97653	241344
7.98465	210666
7.99277	176455
8.00090	146573
8.00902	125976
8.01715	118242
8.02527	105687
8.03338	98450
8.04152	103136
8.04963	101497
8.05775	101435
8.06588	96937
8.07400	91498
8.08213	98773
8.09025	93106
8.09837	90173
8.10650	89232
8.11462	89613
8.12275	85255
8.13087	95337
8.13898	121528
8.14712	184847
8.15523	265008
8.16337	320547
8.17148	331876
8.17960	273491
8.18773	207540
8.19585	159426
8.20397	125942
8.21210	119402
8.22022	108414
8.22835	98941
8.23647	92091
8.24458	89762
8.25272	90404
8.26083	84120
8.26897	85421
8.27708	84275
8.28520	82135
8.29333	86766
8.30145	85141
8.30957	80340
8.31770	78133
8.32582	83482
8.33395	90291
8.34207	96764
8.35018	93502
8.35832	92508
8.36643	86162
8.37457	89881
8.38268	75900
8.39080	78801
8.39893	76976
8.40705	70174
8.41518	68892
8.42330	70464
8.43142	65704
8.43955	69407
8.44767	78544
8.45578	71810
8.46392	69371
8.47203	70466
8.48017	70430
8.48828	71907
8.49640	63202
8.50453	69605
8.51265	81495
8.52078	104723
8.52890	166827
8.53702	251800
8.54515	310297
8.55327	280445
8.56138	214069
8.56952	145161
8.57763	99754
8.58577	88602
8.59388	77690
8.60200	80706
8.61013	85076
8.61825	101780
8.62638	127464
8.63450	142524
8.64262	163625
8.65075	165763
8.65887	150222
8.66700	125820
8.67512	113250
8.68323	87668
8.69137	81934
8.69948	79440
8.70760	72371
8.71573	69359
8.72385	66835
8.73198	72536
8.74010	71856
8.74822	77232
8.75635	71447
8.76447	83759
8.77260	102475
8.78072	181841
8.78883	347512
8.79697	631303
8.80508	935553
8.81322	1136993
8.82133	1053024
8.82945	824224
8.83758	571940
8.84570	428262
8.85382	337442
8.86195	288853
8.87007	260403
8.87820	231260
8.88632	209413
8.89443	197107
8.90257	175929
8.91068	176794
8.91882	188933
8.92693	239712
8.93505	324550
8.94318	408428
8.95130	430974
8.95942	387474
8.96755	295791
8.97567	229192
8.98380	198225
8.99192	206294
9.00003	225921
9.00817	219981
9.01628	204002
9.02442	185243
9.03253	159118
9.04065	134863
9.04878	134721
9.05690	124751
9.06503	121524
9.07315	116849
9.08127	115857
9.08940	115263
9.09752	117314
9.10563	133201
9.11377	174861
9.12188	218043
9.13002	247901
9.13813	254842
9.14625	251937
9.15438	199476
9.16250	169693
9.17063	148917
9.17875	135681
9.18687	124628
9.19500	121856
9.20312	111440
9.21125	111710
9.21937	113675
9.22748	112334
9.23562	123902
9.24373	121983
9.25185	122151
9.25998	115265
9.26810	109470
9.27623	113379
9.28435	101639
9.29247	97546
9.30060	95581
9.30872	99947
9.31685	99401
9.32497	92104
9.33308	94679
9.34122	92735
9.34933	86675
9.35745	94927
9.36558	86606
9.37370	92208
9.38183	92204
9.38995	88747
9.39807	93913
9.40620	98250
9.41432	123277
9.42245	140032
9.43057	168511
9.43868	211936
9.44682	257016
9.45493	296117
9.46307	304040
9.47118	292934
9.47930	232374
9.48743	193379
9.49555	146646
9.50367	127739
9.51180	122315
9.51992	127870
9.52805	140451
9.53617	158252
9.54428	156949
9.55242	150876
9.56053	140053
9.56867	123219
9.57678	106297
9.58490	93261
9.59303	88385
9.60115	82644
9.60927	81255
9.61740	83283
9.62552	74524
9.63365	70444
9.64177	77947
9.64988	67422
9.65802	64287
9.66613	68058
9.67427	68728
9.68238	64975
9.69050	64647
9.69863	69683
9.70675	73839
9.71488	76049
9.72300	78619
9.73112	76596
9.73925	80605
9.74737	74203
9.75548	68032
9.76362	62927
9.77173	64018
9.77987	63789
9.78798	57936
9.79610	58853
9.80423	61489
9.81235	61465
9.82048	61590
9.82860	63020
9.83672	61173
9.84485	61055
9.85297	63788
9.86110	63770
9.86922	65851
9.87733	65620
9.88547	60248
9.89358	61748
9.90170	57708
9.90983	59466
9.91795	57866
9.92608	61400
9.93420	62102
9.94232	76188
9.95045	96801
9.95857	145707
9.96670	196655
9.97482	260771
9.98293	292607
9.99107	283519
9.99918	243436
10.00730	185631
10.01543	136851
10.02355	111536
10.03168	95178
10.03980	96744
10.04792	95083
10.05605	96160
10.06417	100665
10.07230	100115
10.08042	98234
10.08853	105149
10.09667	97364
10.10478	96244
10.11292	92554
10.12103	86694
10.12915	82349
10.13728	81641
10.14540	84588
10.15352	82410
10.16165	85774
10.16977	78628
10.17790	80864
10.18602	74677
10.19413	77975
10.20227	71270
10.21038	70295
10.21852	72049
10.22663	71814
10.23475	76092
10.24288	81217
10.25100	91807
10.25913	143557
10.26725	319644
10.27537	875875
10.28350	2079635
10.29162	4139601
10.29973	6926334
10.30787	9913928
10.31598	1.328491E+07
10.32412	1.712765E+07
10.33223	2.302613E+07
10.34035	3.046437E+07
10.34848	3.847801E+07
10.35660	4.518039E+07
10.36473	4.66816E+07
10.37285	3.88677E+07
10.38097	2.229737E+07
10.38910	9637581
10.39722	4650175
10.40533	3082240
10.41347	2217629
10.42158	1698242
10.42972	1271980
10.43783	1070396
10.44595	954077
10.45408	894269
10.46220	835222
10.47033	803036
10.47845	737772
10.48657	677617
10.49470	596547
10.50282	542981
10.51095	489615
10.51907	449228
10.52718	420720
10.53532	400080
10.54343	401982
10.55155	394085
10.55968	376582
10.56780	365457
10.57593	372750
10.58405	350981
10.59217	340845
10.60030	338376
10.60842	313669
10.61655	298510
10.62467	278913
10.63278	264183
10.64092	257993
10.64903	240072
10.65717	235708
10.66528	226434
10.67340	225141
10.68153	219017
10.68965	211082
10.69777	210551
10.70590	216771
10.71402	223303
10.72215	222945
10.73027	224338
10.73838	222345
10.74652	215999
10.75463	199160
10.76277	192664
10.77088	190020
10.77900	194275
10.78713	184297
10.79525	174627
10.80337	164031
10.81150	172647
10.81962	179736
10.82775	181106
10.83587	183450
10.84398	177403
10.85212	167418
10.86023	155836
10.86837	144348
10.87648	134864
10.88460	139457
10.89273	134489
10.90085	130931
10.90898	134088
10.91710	131720
10.92522	129547
10.93335	132019
10.94147	128967
10.94958	126515
10.95772	126179
10.96583	125862
10.97397	121721
10.98208	130064
10.99020	128331
10.99833	124338
11.00645	125361
11.01458	126733
11.02270	132041
11.03082	134343
11.03895	127730
11.04707	127575
11.05518	124334
11.06332	124803
11.07143	118516
11.07957	130791
11.08768	134752
11.09580	143768
11.10393	149525
11.11205	141102
11.12018	143445
11.12830	137177
11.13642	116364
11.14455	113061
11.15267	100721
11.16080	96925
11.16892	93893
11.17703	93124
11.18517	90827
11.19328	88332
11.20140	89237
11.20953	82997
11.21765	85166
11.22578	79042
11.23390	74833
11.24202	72988
11.25015	74625
11.25827	71514
11.26640	68403
11.27452	69303
11.28263	68701
11.29077	66581
11.29888	68329
11.30702	75849
11.31513	108012
11.32325	186768
11.33138	396648
11.33950	743937
11.34762	1257839
11.35575	1712552
11.36387	1959745
11.37200	1868337
11.38012	1535627
11.38823	1164009
11.39637	843836
11.40448	652572
11.41262	534441
11.42073	443661
11.42885	356128
11.43698	317853
11.44510	253226
11.45322	226937
11.46135	199133
11.46947	178408
11.47760	166343
11.48572	168323
11.49383	195933
11.50197	228484
11.51008	291240
11.51822	365999
11.52633	411885
11.53445	421449
11.54258	398888
11.55070	356735
11.55883	313051
11.56695	261830
11.57507	236960
11.58320	225062
11.59132	226445
11.59943	257617
11.60757	359643
11.61568	522218
11.62382	677567
11.63193	755852
11.64005	690792
11.64818	570118
11.65630	405705
11.66443	281012
11.67255	195235
11.68067	156641
11.68880	147099
11.69692	126101
11.70505	129269
11.71317	127678
11.72128	130576
11.72942	131308
11.73753	134322
11.74565	134265
11.75378	121010
11.76190	108591
11.77003	98594
11.77815	90260
11.78627	88031
11.79440	78914
11.80252	88283
11.81065	77390
11.81877	76176
11.82688	79533
11.83502	76995
11.84313	75910
11.85125	71625
11.85938	75864
11.86750	72404
11.87563	69966
11.88375	66984
11.89187	71819
11.90000	63938
11.90812	66692
11.91625	68091
11.92437	73590
11.93248	79648
11.94062	84448
11.94873	86759
11.95687	78568
11.96498	80410
11.97310	72016
11.98123	62671
11.98935	63605
11.99747	60151
12.00560	62894
12.01372	60226
12.02185	62790
12.02997	65583
12.03808	58560
12.04622	59415
12.05433	65109
12.06247	70181
12.07058	62988
12.07870	69383
12.08683	71830
12.09495	72097
12.10307	78920
12.11120	86466
12.11932	114406
12.12745	168012
12.13557	249503
12.14368	359969
12.15182	443044
12.15993	444733
12.16807	403003
12.17618	321120
12.18430	237226
12.19243	183640
12.20055	159742
12.20868	152832
12.21680	134845
12.22492	126450
12.23305	119087
12.24117	117136
12.24928	119244
12.25742	108173
12.26553	110416
12.27367	106098
12.28178	101763
12.28990	100401
12.29803	93592
12.30615	93334
12.31428	89925
12.32240	85188
12.33052	90004
12.33865	88380
12.34677	80519
12.35490	86660
12.36302	85881
12.37113	89210
12.37927	83401
12.38738	88897
12.39550	93656
12.40363	105611
12.41175	145500
12.41988	217934
12.42800	314524
12.43612	386006
12.44425	387335
12.45237	341307
12.46050	270485
12.46862	205289
12.47673	168252
12.48487	134179
12.49298	118094
12.50112	112630
12.50923	101973
12.51735	99511
12.52548	99948
12.53360	96659
12.54172	124795
12.54985	167071
12.55797	219680
12.56610	276602
12.57422	312621
12.58233	294685
12.59047	247753
12.59858	190051
12.60672	144316
12.61483	129347
12.62295	112961
12.63108	101891
12.63920	102057
12.64732	93551
12.65545	87753
12.66357	97471
12.67170	90374
12.67982	91030
12.68793	86423
12.69607	88869
12.70418	84458
12.71232	75428
12.72043	78903
12.72855	82979
12.73668	81565
12.74480	83639
12.75293	89598
12.76105	89963
12.76917	84072
12.77730	81543
12.78542	74504
12.79353	71183
12.80167	69138
12.80978	67369
12.81792	63088
12.82603	65211
12.83415	61912
12.84228	59362
12.85040	51122
12.85853	51772
12.86665	51858
12.87477	55424
12.88290	51953
12.89102	52838
12.89913	56770
12.90727	50688
12.91538	52874
12.92352	52103
12.93163	53004
12.93975	53484
12.94788	51871
12.95600	49380
12.96413	55244
12.97225	58483
12.98037	73432
12.98850	76370
12.99662	78968
13.00475	79664
13.01287	70591
13.02098	64715
13.02912	55008
13.03723	56132
13.04535	53137
13.05348	53307
13.06160	58822
13.06973	55097
13.07785	57717
13.08597	61214
13.09410	65555
13.10222	69003
13.11035	70107
13.11847	61290
13.12658	66060
13.13472	55903
13.14283	51773
13.15097	54842
13.15908	55826
13.16720	53711
13.17533	61309
13.18345	65403
13.19157	61739
13.19970	61194
13.20782	66101
13.21595	63201
13.22407	69353
13.23218	69305
13.24032	68028
13.24843	72488
13.25657	70337
13.26468	83377
13.27280	83563
13.28093	77140
13.28905	76171
13.29717	75226
13.30530	59297
13.31342	56205
13.32155	57768
13.32967	55807
13.33778	52451
13.34592	51294
13.35403	53862
13.36217	49717
13.37028	51528
13.37840	54289
13.38653	51079
13.39465	47795
13.40278	55891
13.41090	51803
13.41902	47207
13.42715	54459
13.43527	47590
13.44338	51243
13.45152	47439
13.45963	50870
13.46777	54019
13.47588	58454
13.48400	57763
13.49213	54323
13.50025	50892
13.50838	58662
13.51650	60184
13.52462	60237
13.53275	72445
13.54087	77053
13.54900	79501
13.55712	66329
13.56523	66150
13.57337	60434
13.58148	61910
13.58960	57908
13.59773	68396
13.60585	86050
13.61398	93111
13.62210	120855
13.63022	137691
13.63835	143189
13.64647	124554
13.65460	105043
13.66272	87308
13.67083	71772
13.67897	65649
13.68708	60068
13.69520	54189
13.70333	49797
13.71145	48707
13.71958	48472
13.72770	45756
13.73582	46270
13.74395	51412
13.75207	56396
13.76020	71013
13.76832	102696
13.77643	141741
13.78457	206591
13.79268	278092
13.80082	391409
13.80893	484803
13.81705	571732
13.82518	607147
13.83330	662409
13.84142	782278
13.84955	884722
13.85767	947400
13.86580	890745
13.87392	761099
13.88203	599536
13.89017	425579
13.89828	301858
13.90642	230863
13.91453	175071
13.92265	149584
13.93078	130755
13.93890	104854
13.94702	98850
13.95515	90853
13.96327	84457
13.97140	81886
13.97952	76724
13.98763	74230
13.99577	81912
14.00388	76734
14.01202	85561
14.02013	83045
14.02825	87687
14.03638	88967
14.04450	80843
14.05263	69433
14.06075	63563
14.06887	63158
14.07700	62942
14.08512	63835
14.09323	61813
14.10137	66714
14.10948	62982
14.11762	59090
14.12573	60966
14.13385	55901
14.14198	54636
14.15010	59228
14.15823	66273
14.16635	66222
14.17447	71469
14.18260	71748
14.19072	73476
14.19885	84338
14.20697	91295
14.21508	108172
14.22322	134355
14.23133	159629
14.23945	175132
14.24758	197572
14.25570	211840
14.26383	218680
14.27195	231744
14.28007	216855
14.28820	198135
14.29632	168653
14.30445	143477
14.31257	128373
14.32068	119493
14.32882	106118
14.33693	100946
14.34505	97994
14.35318	100527
14.36130	100916
14.36943	95247
14.37755	90264
14.38567	82693
14.39380	83797
14.40192	84564
14.41005	104884
14.41817	141000
14.42628	188707
14.43442	233065
14.44253	265123
14.45067	235853
14.45878	202251
14.46690	153623
14.47503	131465
14.48315	116268
14.49127	112160
14.49940	106072
14.50752	102957
14.51565	92580
14.52377	97779
14.53188	86173
14.54002	81932
14.54813	74220
14.55627	71280
14.56438	71056
14.57250	69846
14.58063	64813
14.58875	59862
14.59688	57813
14.60500	61082
14.61312	57513
14.62125	54736
14.62937	52861
14.63748	49906
14.64562	58281
14.65373	54897
14.66187	52751
14.66998	56500
14.67810	55008
14.68623	49392
14.69435	47565
14.70248	49498
14.71060	49747
14.71872	47506
14.72685	45754
14.73497	51222
14.74308	56076
14.75122	52398
14.75933	54261
14.76747	58239
14.77558	58184
14.78370	61264
14.79183	90382
14.79995	187233
14.80808	539714
14.81620	1534265
14.82432	3692279
14.83245	7565893
14.84057	1.267499E+07
14.84870	1.751738E+07
14.85682	2.071165E+07
14.86493	2.016263E+07
14.87307	1.614723E+07
14.88118	1.025469E+07
14.88930	5622076
14.89743	3123179
14.90555	1976369
14.91368	1487719
14.92180	1228813
14.92992	1067745
14.93805	957898
14.94617	839208
14.95430	778921
14.96242	710976
14.97053	642781
14.97867	588588
14.98678	563591
14.99492	540312
15.00303	514115
15.01115	482903
15.01928	463793
15.02740	437597
15.03552	413788
15.04365	375284
15.05177	354874
15.05990	336180
15.06802	325850
15.07613	319617
15.08427	300523
15.09238	285355
15.10052	267575
15.10863	269288
15.11675	265298
15.12488	277580
15.13300	273772
15.14112	309684
15.14925	364780
15.15737	417946
15.16550	446676
15.17362	400393
15.18173	310631
15.18987	232333
15.19798	178350
15.20612	143009
15.21423	122839
15.22235	110977
15.23048	108902
15.23860	99327
15.24673	96717
15.25485	95276
15.26297	93905
15.27110	92307
15.27922	84756
15.28733	84552
15.29547	83969
15.30358	80367
15.31172	68078
15.31983	78326
15.32795	76598
15.33608	70837
15.34420	73950
15.35233	72006
15.36045	73165
15.36857	71463
15.37670	71315
15.38482	74984
15.39293	84449
15.40107	88366
15.40918	86414
15.41732	78059
15.42543	71369
15.43355	70958
15.44168	69646
15.44980	66079
15.45793	65045
15.46605	64461
15.47417	71377
15.48230	93058
15.49042	126407
15.49855	188227
15.50667	249486
15.51478	317750
15.52292	364174
15.53103	364673
15.53915	337561
15.54728	277691
15.55540	218689
15.56353	173367
15.57165	137511
15.57977	111644
15.58790	98432
15.59602	93501
15.60415	80741
15.61227	78121
15.62038	77369
15.62852	73804
15.63663	72121
15.64477	76712
15.65288	79636
15.66100	68689
15.66913	75313
15.67725	68007
15.68537	68695
15.69350	63932
15.70162	65692
15.70975	57460
15.71787	56802
15.72598	55689
15.73412	54960
15.74223	58679
15.75037	63131
15.75848	83015
15.76660	146187
15.77473	322233
15.78285	662202
15.79097	1159316
15.79910	1688619
15.80722	1925586
15.81535	1819984
15.82347	1385365
15.83158	946595
15.83972	578699
15.84783	372232
15.85597	263400
15.86408	211975
15.87220	179602
15.88033	169711
15.88845	151938
15.89658	148872
15.90470	137662
15.91282	133037
15.92095	121423
15.92907	119781
15.93718	111075
15.94532	115513
15.95343	106048
15.96157	106410
15.96968	98706
15.97780	102039
15.98593	89542
15.99405	89805
16.00218	85469
16.01030	90860
16.01842	97094
16.02655	104995
16.03467	114948
16.04280	121040
16.05092	120211
16.05903	115653
16.06717	104562
16.07528	88052
16.08340	84994
16.09153	74020
16.09965	69747
16.10778	68392
16.11590	71941
16.12402	68800
16.13215	74421
16.14027	86335
16.14840	101816
16.15652	109250
16.16463	120297
16.17277	124739
16.18088	118783
16.18900	104838
16.19713	91359
16.20525	90491
16.21338	82277
16.22150	89650
16.22962	91381
16.23775	89961
16.24587	85318
16.25400	82167
16.26212	69826
16.27023	68612
16.27837	65289
16.28648	73781
16.29462	78794
16.30273	81150
16.31085	97529
16.31898	103167
16.32710	100529
16.33522	105279
16.34335	88478
16.35147	82711
16.35960	80568
16.36772	80851
16.37583	77397
16.38397	74995
16.39208	70571
16.40022	70717
16.40833	64350
16.41645	68748
16.42458	69412
16.43270	66931
16.44082	75442
16.44895	101474
16.45707	191436
16.46520	463835
16.47332	1187748
16.48143	2420398
16.48957	4028035
16.49768	5376399
16.50582	5686639
16.51393	4827466
16.52205	3378713
16.53018	2047539
16.53830	1163877
16.54643	710754
16.55455	482636
16.56267	388514
16.57080	311445
16.57892	290109
16.58703	256626
16.59517	247923
16.60328	238928
16.61142	213757
16.61953	202028
16.62765	193125
16.63578	169460
16.64390	158940
16.65203	148342
16.66015	145750
16.66827	135675
16.67640	142087
16.68452	134643
16.69265	131953
16.70077	120453
16.70888	115183
16.71702	110269
16.72513	104368
16.73325	94328
16.74138	89578
16.74950	90460
16.75763	100248
16.76575	117982
16.77387	158235
16.78200	169654
16.79012	173571
16.79825	148593
16.80637	123728
16.81448	102848
16.82262	86242
16.83073	74196
16.83885	68191
16.84698	66396
16.85510	61571
16.86323	61667
16.87135	62388
16.87947	58491
16.88760	61582
16.89572	58573
16.90385	58037
16.91197	57091
16.92008	54506
16.92822	53496
16.93633	53220
16.94447	53781
16.95258	61505
16.96070	56870
16.96883	57741
16.97695	58753
16.98507	55591
16.99320	65328
17.00132	60155
17.00945	64696
17.01757	63937
17.02568	62033
17.03382	72639
17.04193	75341
17.05007	90387
17.05818	111060
17.06630	142046
17.07443	154040
17.08255	157644
17.09068	134443
17.09880	117919
17.10692	91614
17.11505	76023
17.12317	75406
17.13128	82520
17.13942	81896
17.14753	82478
17.15567	82396
17.16378	75852
17.17190	81747
17.18003	75836
17.18815	78940
17.19628	77961
17.20440	64978
17.21252	62941
17.22065	57021
17.22877	58995
17.23688	59217
17.24502	55863
17.25313	56572
17.26127	61866
17.26938	66663
17.27750	65161
17.28563	60815
17.29375	60166
17.30188	56981
17.31000	56522
17.31812	64160
17.32625	74203
17.33437	91762
17.34250	137300
17.35062	181594
17.35873	214480
17.36687	231036
17.37498	227378
17.38310	202299
17.39123	170062
17.39935	149078
17.40748	141224
17.41560	133903
17.42372	130261
17.43185	126188
17.43997	124886
17.44810	123201
17.45622	122554
17.46433	117782
17.47247	106983
17.48058	109887
17.48872	96303
17.49683	89482
17.50495	85496
17.51308	83591
17.52120	80346
17.52932	85777
17.53745	88381
17.54557	80906
17.55370	90110
17.56182	95368
17.56993	130610
17.57807	256517
17.58618	538278
17.59432	1178876
17.60243	2287555
17.61055	3707737
17.61868	4831546
17.62680	5291174
17.63492	4930081
17.64305	3898800
17.65117	2685696
17.65930	1684982
17.66742	986306
17.67553	609255
17.68367	430600
17.69178	318858
17.69992	275986
17.70803	232322
17.71615	208521
17.72428	190924
17.73240	177428
17.74053	168635
17.74865	154313
17.75677	127850
17.76490	126929
17.77302	118762
17.78113	102460
17.78927	104170
17.79738	91530
17.80552	92291
17.81363	85333
17.82175	89694
17.82988	90760
17.83800	88552
17.84613	95483
17.85425	110984
17.86237	132536
17.87050	161644
17.87862	190576
17.88675	217520
17.89487	208593
17.90298	176375
17.91112	130922
17.91923	109531
17.92735	78173
17.93548	77269
17.94360	73548
17.95173	69257
17.95985	68781
17.96797	66982
17.97610	63123
17.98422	60636
17.99235	67932
18.00047	61184
18.00858	67347
18.01672	76585
18.02483	94206
18.03295	125297
18.04108	195178
18.04920	269565
18.05733	356976
18.06545	510260
18.07357	953717
18.08170	1991113
18.08982	3976763
18.09795	6650017
18.10607	9341463
18.11418	1.051917E+07
18.12232	1.017142E+07
18.13043	8313485
18.13857	5999883
18.14668	4174828
18.15480	2971973
18.16293	2348351
18.17105	1931716
18.17917	1633996
18.18730	1436902
18.19542	1213479
18.20355	1103488
18.21167	990089
18.21978	910262
18.22792	837875
18.23603	740400
18.24417	704965
18.25228	647993
18.26040	597488
18.26853	558976
18.27665	514642
18.28477	445967
18.29290	392802
18.30102	310570
18.30915	243401
18.31727	180661
18.32538	154124
18.33352	130583
18.34163	129448
18.34977	113362
18.35788	110233
18.36600	109440
18.37413	108662
18.38225	96912
18.39038	100276
18.39850	92497
18.40662	105151
18.41475	95138
18.42287	99494
18.43098	112830
18.43912	123046
18.44723	152162
18.45537	217620
18.46348	322649
18.47160	547574
18.47973	923477
18.48785	1361145
18.49598	1753393
18.50410	1894258
18.51222	1733258
18.52035	1365884
18.52847	946937
18.53660	599651
18.54472	388131
18.55283	251220
18.56097	177841
18.56908	156149
18.57720	125068
18.58533	117950
18.59345	114108
18.60158	104907
18.60970	94865
18.61782	99799
18.62595	106982
18.63407	119206
18.64220	107735
18.65032	112854
18.65843	106323
18.66657	100130
18.67468	89030
18.68280	81476
18.69093	78249
18.69905	74890
18.70718	67881
18.71530	68257
18.72342	73792
18.73155	65200
18.73967	64705
18.74780	65216
18.75592	60839
18.76403	60309
18.77217	57286
18.78028	57798
18.78842	57546
18.79653	58631
18.80465	58838
18.81278	63723
18.82090	61173
18.82902	66424
18.83715	62083
18.84527	64015
18.85340	61348
18.86152	65916
18.86963	60807
18.87777	65848
18.88588	69252
18.89402	70849
18.90213	72500
18.91025	77041
18.91838	74981
18.92650	75372
18.93463	82773
18.94275	97721
18.95087	100544
18.95900	111130
18.96712	123252
18.97523	127054
18.98337	125592
18.99148	117263
18.99962	109115
19.00773	103752
19.01585	94110
19.02398	79480
19.03210	70531
19.04023	65785
19.04835	68075
19.05647	61658
19.06460	63283
19.07272	62877
19.08083	59246
19.08897	69399
19.09708	72640
19.10522	98754
19.11333	119148
19.12145	137251
19.12958	139749
19.13770	132995
19.14583	116578
19.15395	100976
19.16207	83302
19.17020	76143
19.17832	64763
19.18645	62050
19.19457	59611
19.20268	59119
19.21082	60041
19.21893	59717
19.22705	58679
19.23518	60679
19.24330	62022
19.25143	65451
19.25955	67361
19.26767	59754
19.27580	61483
19.28392	65966
19.29205	57718
19.30017	67330
19.30828	73723
19.31642	81424
19.32453	89715
19.33267	109088
19.34078	141104
19.34890	174101
19.35703	204232
19.36515	247629
19.37327	324607
19.38140	421668
19.38952	514231
19.39765	554724
19.40577	518954
19.41388	446681
19.42202	372436
19.43013	302406
19.43827	269610
19.44638	248584
19.45450	246239
19.46263	239214
19.47075	231688
19.47887	223009
19.48700	223844
19.49512	221969
19.50325	238780
19.51137	245085
19.51948	267562
19.52762	291675
19.53573	297022
19.54387	319346
19.55198	332131
19.56010	312352
19.56823	291106
19.57635	267284
19.58448	245663
19.59260	226683
19.60072	210337
19.60885	202757
19.61697	195261
19.62508	183049
19.63322	190043
19.64133	200981
19.64947	201488
19.65758	227807
19.66570	264351
19.67383	336032
19.68195	414160
19.69008	482819
19.69820	554908
19.70632	559178
19.71445	561665
19.72257	526582
19.73068	484849
19.73882	431719
19.74693	378636
19.75507	339185
19.76318	293084
19.77130	279939
19.77943	253183
19.78755	257305
19.79568	275712
19.80380	303901
19.81192	334589
19.82005	355592
19.82817	349027
19.83630	332104
19.84442	291009
19.85253	265659
19.86067	247078
19.86878	239186
19.87690	260100
19.88503	352002
19.89315	512708
19.90128	751480
19.90940	983408
19.91752	1160207
19.92565	1178066
19.93377	1034704
19.94190	815389
19.95002	611814
19.95813	476711
19.96627	405547
19.97438	342326
19.98252	311537
19.99063	308317
19.99875	285733
20.00688	271558
20.01500	264377
20.02312	268909
20.03125	255227
20.03937	248312
20.04750	251184
20.05562	237269
20.06373	236898
20.07187	236386
20.07998	235657
20.08812	266180
20.09623	279490
20.10435	301147
20.11248	307221
20.12060	290071
20.12872	262131
20.13685	232628
20.14497	218945
20.15310	213849
20.16122	222513
20.16933	272320
20.17747	348767
20.18558	469970
20.19372	614887
20.20183	779583
20.20995	861678
20.21808	868853
20.22620	803396
20.23433	678248
20.24245	573831
20.25057	486494
20.25870	463904
20.26682	516553
20.27493	629756
20.28307	782192
20.29118	923692
20.29932	1032708
20.30743	1046010
20.31555	950578
20.32368	803695
20.33180	640436
20.33993	497071
20.34805	372866
20.35617	305788
20.36430	248290
20.37242	224598
20.38055	200743
20.38867	194313
20.39678	182925
20.40492	170062
20.41303	164453
20.42115	161724
20.42928	165971
20.43740	167657
20.44553	172369
20.45365	188815
20.46177	203225
20.46990	210132
20.47802	209403
20.48615	206760
20.49427	196462
20.50238	175705
20.51052	163108
20.51863	158139
20.52675	150382
20.53488	154154
20.54300	155151
20.55113	159081
20.55925	165613
20.56737	163723
20.57550	168862
20.58362	164598
20.59175	161141
20.59987	151697
20.60798	139743
20.61612	135257
20.62423	133204
20.63237	138817
20.64048	137890
20.64860	134491
20.65673	144246
20.66485	149239
20.67297	149921
20.68110	153008
20.68922	149121
20.69735	145391
20.70547	139542
20.71358	130441
20.72172	130416
20.72983	127594
20.73797	128177
20.74608	126157
20.75420	136857
20.76233	136559
20.77045	146397
20.77857	164936
20.78670	179171
20.79482	217195
20.80295	315147
20.81107	513296
20.81918	825712
20.82732	1183384
20.83543	1474227
20.84357	1484656
20.85168	1284830
20.85980	945474
20.86793	644483
20.87605	400488
20.88418	280302
20.89230	201559
20.90042	179433
20.90855	179611
20.91667	165141
20.92478	157831
20.93292	162558
20.94103	165417
20.94917	162236
20.95728	175692
20.96540	173216
20.97353	171298
20.98165	158401
20.98978	151269
20.99790	135524
21.00602	132584
21.01415	126245
21.02227	126017
21.03040	124673
21.03852	130274
21.04663	131893
21.05477	129239
21.06288	140246
21.07100	135762
21.07913	134368
21.08725	129548
21.09538	128827
21.10350	123921
21.11162	125817
21.11975	127112
21.12787	115554
21.13600	124389
21.14412	145718
21.15223	176154
21.16037	238571
21.16848	328698
21.17660	400135
21.18473	431623
21.19285	416914
21.20098	362601
21.20910	274348
21.21722	239762
21.22535	211106
21.23347	176121
21.24160	169512
21.24972	160688
21.25783	141796
21.26597	139941
21.27408	129543
21.28222	117049
21.29033	116449
21.29845	114411
21.30658	117194
21.31470	109952
21.32282	109948
21.33095	106550
21.33907	103624
21.34720	108976
21.35532	109247
21.36343	110309
21.37157	107423
21.37968	111438
21.38782	117259
21.39593	143352
21.40405	176581
21.41218	233908
21.42030	290438
21.42843	353790
21.43655	337006
21.44467	334729
21.45280	284080
21.46092	230132
21.46903	197302
21.47717	164126
21.48528	154385
21.49342	144544
21.50153	138967
21.50965	129205
21.51778	119253
21.52590	110786
21.53403	108757
21.54215	109011
21.55027	107227
21.55840	102152
21.56652	104703
21.57463	104168
21.58277	115302
21.59088	131422
21.59902	154360
21.60713	184419
21.61525	198292
21.62338	199992
21.63150	177905
21.63963	163753
21.64775	156188
21.65587	157029
21.66400	188792
21.67212	204745
21.68025	228687
21.68837	254584
21.69648	264294
21.70462	275367
21.71273	255204
21.72085	227856
21.72898	190198
21.73710	158188
21.74523	135024
21.75335	124252
21.76147	117703
21.76960	114956
21.77772	112675
21.78585	105621
21.79397	112211
21.80208	104528
21.81022	101546
21.81833	104103
21.82645	108549
21.83458	111608
21.84270	108470
21.85083	123041
21.85895	139116
21.86707	146918
21.87520	157803
21.88332	160330
21.89145	144690
21.89957	146555
21.90768	134446
21.91582	138214
21.92393	129949
21.93207	121016
21.94018	122528
21.94830	112339
21.95643	105062
21.96455	97717
21.97267	87923
21.98080	88532
21.98892	85953
21.99705	81442
22.00517	82771
22.01328	85393
22.02142	83136
22.02953	83866
22.03767	92895
22.04578	99455
22.05390	106740
22.06203	112552
22.07015	115688
22.07828	113871
22.08640	106100
22.09452	99509
22.10265	94906
22.11077	90070
22.11888	93511
22.12702	84224
22.13513	84189
22.14327	81339
22.15138	86866
22.15950	81817
22.16763	79141
22.17575	81680
22.18388	75090
22.19200	73799
22.20012	78016
22.20825	74982
22.21637	71520
22.22450	79502
22.23262	77522
22.24073	84287
22.24887	95259
22.25698	87817
22.26510	92044
22.27323	94121
22.28135	102330
22.28948	106251
22.29760	108762
22.30572	114831
22.31385	115584
22.32197	111452
22.33010	111728
22.33822	115976
22.34633	107933
22.35447	108616
22.36258	97015
22.37070	96691
22.37883	90899
22.38695	97693
22.39508	112856
22.40320	133324
22.41132	186574
22.41945	272793
22.42757	380262
22.43570	451286
22.44382	490825
22.45193	466840
22.46007	386033
22.46818	291879
22.47632	222578
22.48443	185378
22.49255	166176
22.50068	171654
22.50880	209229
22.51692	218402
22.52505	236955
22.53317	235573
22.54130	227913
22.54942	199829
22.55753	179430
22.56567	147618
22.57378	140289
22.58192	121267
22.59003	112181
22.59815	104720
22.60628	96975
22.61440	88386
22.62252	83274
22.63065	80735
22.63877	81892
22.64690	85684
22.65502	92445
22.66313	92980
22.67127	96163
22.67938	102405
22.68752	108055
22.69563	121126
22.70375	142847
22.71188	187535
22.72000	248830
22.72813	313751
22.73625	369142
22.74437	347246
22.75250	323538
22.76062	271835
22.76873	219609
22.77687	192073
22.78498	183523
22.79312	225120
22.80123	300851
22.80935	421458
22.81748	552124
22.82560	664980
22.83373	718302
22.84185	649830
22.84997	557960
22.85810	424175
22.86622	334137
22.87435	271166
22.88247	239939
22.89058	237117
22.89872	240928
22.90683	249723
22.91495	266851
22.92308	290757
22.93120	330293
22.93933	382347
22.94745	430989
22.95557	420128
22.96370	393914
22.97182	305582
22.97995	239084
22.98807	185564
22.99618	141720
23.00432	128428
23.01243	107554
23.02055	96809
23.02868	100478
23.03680	89638
23.04493	86300
23.05305	80117
23.06117	81268
23.06930	87745
23.07742	90053
23.08555	96452
23.09367	88810
23.10178	93485
23.10992	90012
23.11803	90710
23.12617	77329
23.13428	83110
23.14240	77176
23.15053	80734
23.15865	78895
23.16677	80964
23.17490	77109
23.18302	78539
23.19115	77007
23.19927	72518
23.20738	73868
23.21552	69765
23.22363	70055
23.23177	67670
23.23988	66511
23.24800	72621
23.25613	81491
23.26425	99979
23.27238	127914
23.28050	146105
23.28862	168535
23.29675	158778
23.30487	146816
23.31298	119977
23.32112	102303
23.32923	94940
23.33737	93692
23.34548	105075
23.35360	134900
23.36173	180263
23.36985	226362
23.37798	279153
23.38610	304807
23.39422	313839
23.40235	298330
23.41047	252296
23.41858	224293
23.42672	187877
23.43483	168561
23.44297	150702
23.45108	144277
23.45920	139728
23.46733	128351
23.47545	126410
23.48358	120999
23.49170	116813
23.49982	109005
23.50795	110057
23.51607	99187
23.52420	94337
23.53232	99919
23.54043	99524
23.54857	93611
23.55668	93718
23.56480	98485
23.57293	107204
23.58105	124642
23.58918	147709
23.59730	185089
23.60542	222458
23.61355	248123
23.62167	276250
23.62980	267237
23.63792	237861
23.64603	192509
23.65417	156018
23.66228	133198
23.67040	115891
23.67853	116992
23.68665	122000
23.69478	118229
23.70290	108513
23.71102	109628
23.71915	92696
23.72727	89694
23.73540	78432
23.74352	78114
23.75163	82532
23.75977	83437
23.76788	88860
23.77602	132912
23.78413	229183
23.79225	425603
23.80038	707951
23.80850	1033198
23.81662	1248335
23.82475	1255478
23.83287	1135881
23.84100	918166
23.84912	703539
23.85723	544421
23.86537	420683
23.87348	349501
23.88162	292795
23.88973	261133
23.89785	244175
23.90598	233338
23.91410	263496
23.92223	289113
23.93035	348568
23.93847	375455
23.94660	360971
23.95472	334689
23.96283	269229
23.97097	225542
23.97908	185913
23.98722	160632
23.99533	145801
24.00345	131788
24.01158	131313
24.01970	127243
24.02783	126187
24.03595	133893
24.04407	142436
24.05220	144631
24.06032	151513
24.06843	139721
24.07657	129622
24.08468	114756
24.09282	112099
24.10093	99209
24.10905	96555
24.11718	96619
24.12530	94028
24.13343	88461
24.14155	103025
24.14967	108560
24.15780	116168
24.16592	134837
24.17405	142850
24.18217	157403
24.19028	159894
24.19842	164705
24.20653	169130
24.21465	161889
24.22278	172074
24.23090	148242
24.23903	144853
24.24715	126813
24.25527	117014
24.26340	115013
24.27152	103913
24.27965	102682
24.28777	97306
24.29588	99411
24.30402	88889
24.31213	98305
24.32027	100128
24.32838	99379
24.33650	105410
24.34463	103237
24.35275	102314
24.36087	101107
24.36900	99432
24.37712	92480
24.38525	89472
24.39337	88427
24.40148	83633
24.40962	88962
24.41773	99160
24.42587	113020
24.43398	121616
24.44210	121390
24.45023	121196
24.45835	107778
24.46647	101598
24.47460	93971
24.48272	94060
24.49085	93998
24.49897	89535
24.50708	89275
24.51522	97087
24.52333	93679
24.53147	104199
24.53958	109495
24.54770	126686
24.55583	143273
24.56395	160982
24.57208	185086
24.58020	190690
24.58832	195556
24.59645	181838
24.60457	170709
24.61268	149788
24.62082	139232
24.62893	129820
24.63707	110808
24.64518	99212
24.65330	92257
24.66143	90447
24.66955	89979
24.67768	86727
24.68580	85487
24.69392	82573
24.70205	82636
24.71017	78540
24.71830	75962
24.72642	83470
24.73453	83528
24.74267	85281
24.75078	94561
24.75890	89450
24.76703	88975
24.77515	95027
24.78328	99755
24.79140	127670
24.79952	130478
24.80765	131745
24.81577	133963
24.82390	131531
24.83202	121831
24.84013	138614
24.84827	186221
24.85638	265325
24.86450	386603
24.87263	579034
24.88075	890334
24.88888	1270728
24.89700	1857696
24.90512	2413634
24.91325	2669119
24.92137	2656385
24.92950	2246423
24.93762	1607207
24.94573	1070187
24.95387	638709
24.96198	384916
24.97012	244009
24.97823	178687
24.98635	137656
24.99448	124177
25.00260	110995
25.01072	110510
25.01885	111515
25.02697	112209
25.03510	113208
25.04322	104639
25.05133	111589
25.05947	110705
25.06758	108367
25.07572	105989
25.08383	111089
25.09195	114768
25.10008	128398
25.10820	172894
25.11632	325204
25.12445	765269
25.13257	1846817
25.14070	3859421
25.14882	6678561
25.15693	9862740
25.16507	1.22481E+07
25.17318	1.259478E+07
25.18132	1.105433E+07
25.18943	8232903
25.19755	5301708
25.20568	3093659
25.21380	1608658
25.22193	860027
25.23005	486045
25.23817	321269
25.24630	273360
25.25442	271429
25.26253	350806
25.27067	471773
25.27878	606313
25.28692	697648
25.29503	731792
25.30315	672573
25.31128	560608
25.31940	413024
25.32753	292902
25.33565	217125
25.34377	159671
25.35190	137669
25.36002	116332
25.36815	107592
25.37627	99341
25.38438	92681
25.39252	88979
25.40063	89031
25.40875	81367
25.41688	80641
25.42500	76187
25.43313	78631
25.44125	77316
25.44937	79821
25.45750	77960
25.46562	77094
25.47375	73955
25.48187	77565
25.48998	75528
25.49812	76505
25.50623	77504
25.51435	80750
25.52248	83778
25.53060	70582
25.53873	72941
25.54685	68096
25.55497	69932
25.56310	72328
25.57122	68948
25.57935	70443
25.58747	73260
25.59558	75286
25.60372	74471
25.61183	76654
25.61997	73082
25.62808	68242
25.63620	66571
25.64433	66133
25.65245	65552
25.66057	64046
25.66870	65085
25.67682	64519
25.68495	67178
25.69307	68757
25.70118	72291
25.70932	72554
25.71743	78462
25.72557	78694
25.73368	78392
25.74180	75386
25.74993	76070
25.75805	80488
25.76618	78408
25.77430	91997
25.78242	101285
25.79055	91291
25.79867	82448
25.80678	73964
25.81492	67202
25.82303	68960
25.83117	71959
25.83928	70531
25.84740	68512
25.85553	68850
25.86365	64955
25.87178	64703
25.87990	67101
25.88802	66486
25.89615	64798
25.90427	67765
25.91238	61148
25.92052	66364
25.92863	68904
25.93677	65323
25.94488	63607
25.95300	69466
25.96113	74409
25.96925	73233
25.97738	77384
25.98550	74653
25.99362	73929
26.00175	63926
26.00987	65077
26.01800	62273
26.02612	62986
26.03423	61357
26.04237	61440
26.05048	68687
26.05860	66625
26.06673	61618
26.07485	68355
26.08298	69058
26.09110	70837
26.09922	76165
26.10735	77795
26.11547	76971
26.12360	76876
26.13172	80496
26.13983	76848
26.14797	81128
26.15608	85919
26.16420	118432
26.17233	170934
26.18045	236886
26.18858	292178
26.19670	329224
26.20482	335083
26.21295	351928
26.22107	352109
26.22920	356004
26.23732	347115
26.24543	367442
26.25357	353346
26.26168	345691
26.26982	340078
26.27793	340264
26.28605	351785
26.29418	336087
26.30230	332976
26.31042	336144
26.31855	347748
26.32667	342240
26.33480	338665
26.34292	330306
26.35103	325330
26.35917	335902
26.36728	345980
26.37542	369110
26.38353	428858
26.39165	476976
26.39978	577208
26.40790	666918
26.41603	713378
26.42415	714786
26.43227	657665
26.44040	586771
26.44852	518081
26.45663	464006
26.46477	406149
26.47288	369527
26.48102	357722
26.48913	347497
26.49725	347605
26.50538	337324
26.51350	329735
26.52163	322587
26.52975	317224
26.53787	304298
26.54600	298083
26.55412	286294
26.56223	286124
26.57037	281912
26.57848	291870
26.58662	273639
26.59473	278446
26.60285	282089
26.61098	279198
26.61910	271393
26.62723	281817
26.63535	271152
26.64347	273265
26.65160	279259
26.65972	264792
26.66785	273821
26.67597	264551
26.68408	267746
26.69222	255203
26.70033	253742
26.70845	255038
26.71658	260846
26.72470	253139
26.73283	263214
26.74095	247583
26.74907	252278
26.75720	246991
26.76532	250959
26.77345	250167
26.78157	243732
26.78968	240395
26.79782	245659
26.80593	241891
26.81407	244073
26.82218	251945
26.83030	249528
26.83843	249959
26.84655	248120
26.85467	240153
26.86280	244640
26.87092	239838
26.87905	230229
26.88717	226455
26.89528	230272
26.90342	226497
26.91153	224009
26.91967	220422
26.92778	213719
26.93590	223206
26.94403	225213
26.95215	214667
26.96027	209775
26.96840	215374
26.97652	221990
26.98465	230390
26.99277	266843
27.00088	285463
27.00902	332999
27.01713	408335
27.02527	512756
27.03338	609238
27.04150	665688
27.04963	689670
27.05775	637415
27.06588	568431
27.07400	496507
27.08212	422045
27.09025	364922
27.09837	339805
27.10648	315211
27.11462	291970
27.12273	294532
27.13087	293254
27.13898	286689
27.14710	285852
27.15523	281698
27.16335	283083
27.17148	274643
27.17960	284747
27.18772	299814
27.19585	323369
27.20397	354811
27.21208	372038
27.22022	358608
27.22833	342579
27.23647	310043
27.24458	281770
27.25270	261409
27.26083	239479
27.26895	224709
27.27708	214743
27.28520	198824
27.29332	192423
27.30145	197450
27.30957	187159
27.31770	183039
27.32582	177539
27.33393	177270
27.34207	185672
27.35018	183594
27.35830	192375
27.36643	195188
27.37455	197087
27.38268	187882
27.39080	188521
27.39892	194054
27.40705	177475
27.41517	175205
27.42330	165683
27.43142	172362
27.43953	161141
27.44767	155446
27.45578	161659
27.46392	164884
27.47203	162249
27.48015	158060
27.48828	161618
27.49640	152787
27.50452	155644
27.51265	152917
27.52077	153264
27.52890	153649
27.53702	158241
27.54513	150055
27.55327	154668
27.56138	147317
27.56952	150902
27.57763	155263
27.58575	181724
27.59388	198663
27.60200	237667
27.61013	281376
27.61825	284170
27.62637	287841
27.63450	264309
27.64262	232921
27.65073	201048
27.65887	171912
27.66698	158845
27.67512	148257
27.68323	149818
27.69135	137454
27.69948	141049
27.70760	151784
27.71573	149737
27.72385	141921
27.73197	137318
27.74010	127554
27.74822	131647
27.75633	125826
27.76447	121924
27.77258	128268
27.78072	123512
27.78883	129415
27.79695	140953
27.80508	145639
27.81320	156563
27.82133	155324
27.82945	149562
27.83757	137092
27.84570	136947
27.85382	124473
27.86195	117433
27.87007	107411
27.87818	111482
27.88632	118344
27.89443	110811
27.90255	111539
27.91068	111986
27.91880	111124
27.92693	110211
27.93505	108575
27.94317	109420
27.95130	102297
27.95942	104982
27.96755	103051
27.97567	98391
27.98378	101794
27.99192	97805
28.00003	105244
28.00815	107750
28.01628	108970
28.02440	115169
28.03253	121852
28.04065	132466
28.04877	136534
28.05690	148743
28.06502	165972
28.07315	175508
28.08127	169107
28.08938	151949
28.09752	138054
28.10563	127440
28.11377	110384
28.12188	104407
28.13000	99129
28.13813	97336
28.14625	96258
28.15437	88450
28.16250	93605
28.17062	96237
28.17875	90903
28.18687	94696
28.19498	101114
28.20312	117516
28.21123	143507
28.21937	188490
28.22748	226532
28.23560	266048
28.24373	280241
28.25185	282662
28.25998	246132
28.26810	205650
28.27622	167164
28.28435	133334
28.29247	115437
28.30058	101178
28.30872	101809
28.31683	115391
28.32497	138840
28.33308	157219
28.34120	173403
28.34933	180325
28.35745	176895
28.36558	163014
28.37370	156479
28.38182	149454
28.38995	149452
28.39807	150715
28.40618	159457
28.41432	151635
28.42243	158624
28.43057	159423
28.43868	158340
28.44680	150187
28.45493	131594
28.46305	132699
28.47118	116317
28.47930	112720
28.48742	106849
28.49555	112187
28.50367	110051
28.51180	106318
28.51992	115830
28.52803	113648
28.53617	117711
28.54428	106797
28.55240	105172
28.56053	96515
28.56865	94469
28.57678	91366
28.58490	84842
28.59302	82502
28.60115	83507
28.60927	85812
28.61740	85029
28.62552	83076
28.63363	84929
28.64177	90717
28.64988	102564
28.65802	96408
28.66613	100492
28.67425	104495
28.68238	93332
28.69050	95219
28.69862	90827
28.70675	90174
28.71487	87550
28.72300	82223
28.73112	74129
28.73923	77393
28.74737	74670
28.75548	75983
28.76362	76069
28.77173	83405
28.77985	85571
28.78798	92470
28.79610	97928
28.80422	108382
28.81235	121518
28.82047	140514
28.82860	142748
28.83672	136955
28.84483	132546
28.85297	126483
28.86108	120574
28.86922	110246
28.87733	108801
28.88545	117202
28.89358	128701
28.90170	155792
28.90983	180336
28.91795	206871
28.92607	197521
28.93420	197355
28.94232	165805
28.95043	133903
28.95857	116923
28.96668	102089
28.97482	99555
28.98293	99447
28.99105	89895
28.99918	85479
29.00730	83208
29.01543	80784
29.02355	86096
29.03167	79776
29.03980	82286
29.04792	78414
29.05603	85718
29.06417	79947
29.07228	82174
29.08042	91216
29.08853	86656
29.09665	100380
29.10478	107100
29.11290	105236
29.12103	101813
29.12915	107067
29.13727	94643
29.14540	84506
29.15352	82167
29.16165	79616
29.16977	74942
29.17788	80217
29.18602	84153
29.19413	94422
29.20225	120706
29.21038	173821
29.21850	239170
29.22663	312645
29.23475	365123
29.24287	362557
29.25100	343228
29.25912	287905
29.26725	231626
29.27537	188560
29.28348	154563
29.29162	136005
29.29973	110125
29.30787	98755
29.31598	87240
29.32410	85852
29.33223	82982
29.34035	78367
29.34847	74175
29.35660	70763
29.36472	77404
29.37285	70960
29.38097	68533
29.38908	71192
29.39722	66504
29.40533	76689
29.41347	76307
29.42158	72108
29.42970	77697
29.43783	78586
29.44595	83373
29.45407	86363
29.46220	81583
29.47032	82865
29.47845	80400
29.48657	76887
29.49468	75495
29.50282	73115
29.51093	75372
29.51907	76207
29.52718	84289
29.53530	85526
29.54343	82143
29.55155	87663
29.55968	86772
29.56780	80494
29.57592	78301
29.58405	76530
29.59217	75572
29.60028	73474
29.60842	73755
29.61653	76589
29.62467	76247
29.63278	73541
29.64090	79082
29.64903	75957
29.65715	69543
29.66528	70109
29.67340	76153
29.68152	80768
29.68965	84061
29.69777	95161
29.70590	102150
29.71402	115884
29.72213	119163
29.73027	116238
29.73838	99386
29.74650	83462
29.75463	75873
29.76275	80196
29.77088	78876
29.77900	73240
29.78712	69886
29.79525	71037
29.80337	67497
29.81150	70663
29.81962	67804
29.82773	65226
29.83587	68049
29.84398	64698
29.85210	67094
29.86023	70299
29.86835	70830
29.87648	72962
29.88460	86911
29.89272	104577
29.90085	140923
29.90897	192732
29.91710	226136
29.92522	239517
29.93333	213843
29.94147	177646
29.94958	138192
29.95772	110154
29.96583	88894
29.97395	80944
29.98208	83501
29.99020	77903
29.99832	86601
30.00645	89023
30.01457	93929
30.02270	100482
30.03082	106806
30.03893	105868
30.04707	110178
30.05518	109093
30.06332	110683
30.07143	107814
30.07955	111519
30.08768	109100
30.09580	104432
30.10393	102143
30.11205	106278
30.12017	105037
30.12830	103424
30.13642	101761
30.14453	94392
30.15267	93227
30.16078	91133
30.16892	88133
30.17703	95304
30.18515	91311
30.19328	91774
30.20140	93502
30.20953	89284
30.21765	93415
30.22577	91081
30.23390	86606
30.24202	82223
30.25013	85745
30.25827	80545
30.26638	84222
30.27452	74777
30.28263	75419
30.29075	72459
30.29888	74415
30.30700	78999
30.31513	71459
30.32325	73246
30.33137	69028
30.33950	71155
30.34762	69161
30.35575	70526
30.36387	72438
30.37198	74906
30.38012	70845
30.38823	73576
30.39635	72673
30.40448	69885
30.41260	68007
30.42073	72650
30.42885	72708
30.43697	69130
30.44510	65986
30.45322	71269
30.46135	63470
30.46947	71207
30.47758	66315
30.48572	69521
30.49383	66929
30.50195	71125
30.51008	76017
30.51820	72198
30.52633	73331
30.53445	71987
30.54257	69271
30.55070	70853
30.55882	71033
30.56695	65079
30.57507	72626
30.58318	72774
30.59132	70595
30.59943	76105
30.60757	71612
30.61568	71734
30.62380	75746
30.63193	73869
30.64005	77373
30.64817	72191
30.65630	67339
30.66442	70509
30.67255	71885
30.68067	70381
30.68878	64703
30.69692	60801
30.70503	60076
30.71317	62811
30.72128	60990
30.72940	61171
30.73753	66721
30.74565	68101
30.75378	66490
30.76190	66409
30.77002	64035
30.77815	66883
30.78627	75766
30.79438	99244
30.80252	145411
30.81063	212854
30.81877	293315
30.82688	353206
30.83500	383677
30.84313	337792
30.85125	280969
30.85938	197354
30.86750	152770
30.87562	115016
30.88375	94740
30.89187	91868
30.89998	86325
30.90812	78825
30.91623	75766
30.92437	77488
30.93248	66948
30.94060	68940
30.94873	73775
30.95685	73821
30.96498	79064
30.97310	76578
30.98122	77929
30.98935	82756
30.99747	80910
31.00560	73580
31.01372	74513
31.02183	70245
31.02997	68741
31.03808	76433
31.04620	74155
31.05433	73081
31.06245	70225
31.07058	73126
31.07870	71979
31.08682	73322
31.09495	77229
31.10307	87343
31.11120	94359
31.11932	109662
31.12743	114499
31.13557	123716
31.14368	121932
31.15182	112014
31.15993	107456
31.16805	105565
31.17618	106931
31.18430	116998
31.19242	115902
31.20055	120033
31.20867	145415
31.21680	178772
31.22492	227741
31.23303	274838
31.24117	312233
31.24928	312537
31.25742	290003
31.26553	242444
31.27365	172699
31.28178	131192
31.28990	104327
31.29802	88475
31.30615	79247
31.31427	75512
31.32240	77364
31.33052	88041
31.33863	100100
31.34677	105633
31.35488	114575
31.36302	111969
31.37113	110795
31.37925	98337
31.38738	92421
31.39550	82631
31.40363	76049
31.41175	76510
31.41987	69152
31.42800	73512
31.43612	71870
31.44423	72338
31.45237	71524
31.46048	73357
31.46862	70584
31.47673	73523
31.48485	74785
31.49298	73513
31.50110	74482
31.50923	83621
31.51735	79905
31.52547	80665
31.53360	81230
31.54172	83536
31.54983	86676
31.55797	81544
31.56608	87555
31.57422	83525
31.58233	86371
31.59045	88949
31.59858	83952
31.60670	79390
31.61483	73458
31.62295	71917
31.63107	72566
31.63920	76338
31.64732	75641
31.65545	74912
31.66357	83172
31.67168	94182
31.67982	99877
31.68793	116137
31.69605	125616
31.70418	124886
31.71230	124963
31.72043	105031
31.72855	94403
31.73667	89140
31.74480	84870
31.75292	74516
31.76105	71450
31.76917	70234
31.77728	64103
31.78542	69508
31.79353	62513
31.80167	69482
31.80978	70243
31.81790	68155
31.82603	65316
31.83415	76155
31.84227	78783
31.85040	72958
31.85852	74623
31.86665	73446
31.87477	74074
31.88288	77016
31.89102	75701
31.89913	82151
31.90727	76997
31.91538	69474
31.92350	70654
31.93163	70463
31.93975	73760
31.94788	75600
31.95600	73544
31.96412	82073
31.97225	84876
31.98037	88817
31.98848	98188
31.99662	95793
32.00473	103082
32.01287	110268
32.02098	105245
32.02910	116288
32.03723	117391
32.04535	107552
32.05348	99123
32.06160	96004
32.06972	94948
32.07785	93029
32.08597	83671
32.09408	78345
32.10222	85719
32.11033	84224
32.11847	89668
32.12658	86301
32.13470	77736
32.14283	76846
32.15095	74295
32.15908	70627
32.16720	75987
32.17532	69646
32.18345	70109
32.19157	69956
32.19970	69455
32.20782	69083
32.21593	67362
32.22407	68626
32.23218	72367
32.24030	72809
32.24843	63303
32.25655	69166
32.26468	69133
32.27280	73617
32.28092	77804
32.28905	77164
32.29717	75720
32.30530	75849
32.31342	73853
32.32153	73809
32.32967	70666
32.33778	68684
32.34590	68151
32.35403	71248
32.36215	67635
32.37028	70150
32.37840	70137
32.38652	70279
32.39465	68797
32.40277	70297
32.41090	68713
32.41902	63234
32.42713	70731
32.43527	70363
32.44338	71032
32.45152	73434
32.45963	70272
32.46775	63413
32.47588	65578
32.48400	66745
32.49212	64928
32.50025	66888
32.50837	67068
32.51650	75295
32.52462	67666
32.53273	73390
32.54087	72073
32.54898	76106
32.55712	69669
32.56523	67661
32.57335	65769
32.58148	69362
32.58960	65698
32.59773	68724
32.60585	63399
32.61397	72993
32.62210	65365
32.63022	64729
32.63833	63984
32.64647	69680
32.65458	65307
32.66272	70791
32.67083	74033
32.67895	69513
32.68708	69868
32.69520	73543
32.70333	82319
32.71145	74863
32.71957	76381
32.72770	80907
32.73582	74153
32.74393	73664
32.75207	72574
32.76018	65958
32.76832	64983
32.77643	68086
32.78455	66180
32.79268	63368
32.80080	62307
32.80893	66525
32.81705	62880
32.82517	65729
32.83330	70539
32.84142	68045
32.84955	69136
32.85767	65782
32.86578	66577
32.87392	70076
32.88203	76668
32.89015	74076
32.89828	77433
32.90640	84437
32.91453	93809
32.92265	105387
32.93077	107242
32.93890	108346
32.94702	93642
32.95515	87928
32.96327	84120
32.97138	72662
32.97952	86956
32.98763	90522
32.99577	116549
33.00388	161960
33.01200	200994
33.02013	245729
33.02825	271372
33.03637	252872
33.04450	213790
33.05262	168500
33.06075	142984
33.06887	135583
33.07698	140581
33.08512	147969
33.09323	159950
33.10137	170293
33.10948	166771
33.11760	181267
33.12573	181316
33.13385	172263
33.14197	165825
33.15010	154123
33.15822	145419
33.16635	140835
33.17447	126481
33.18258	118336
33.19072	108990
33.19883	98027
33.20697	91911
33.21508	87002
33.22320	81415
33.23133	85348
33.23945	80695
33.24758	83953
33.25570	82558
33.26382	81320
33.27195	82450
33.28007	79231
33.28818	73285
33.29632	77585
33.30443	76253
33.31257	78794
33.32068	77372
33.32880	79588
33.33693	84842
33.34505	78037
33.35318	80843
33.36130	89472
33.36942	93026
33.37755	105108
33.38567	100171
33.39378	107859
33.40192	104533
33.41003	95204
33.41817	82104
33.42628	81837
33.43440	75485
33.44253	75703
33.45065	70311
33.45878	72348
33.46690	68468
33.47502	66958
33.48315	71206
33.49127	71832
33.49940	71908
33.50752	71976
33.51563	77053
33.52377	83924
33.53188	87217
33.54000	85257
33.54813	96744
33.55625	104568
33.56438	122106
33.57250	136950
33.58062	141882
33.58875	135960
33.59687	123565
33.60500	110523
33.61312	89271
33.62123	75796
33.62937	75790
33.63748	76777
33.64562	71832
33.65373	75544
33.66185	82268
33.66998	82791
33.67810	84613
33.68622	92602
33.69435	91267
33.70247	90281
33.71060	79733
33.71872	78609
33.72683	78055
33.73497	69031
33.74308	69939
33.75122	74417
33.75933	71950
33.76745	72645
33.77558	71913
33.78370	71711
33.79182	69433
33.79995	70119
33.80807	67083
33.81620	66313
33.82432	70184
33.83243	70358
33.84057	72450
33.84868	73575
33.85682	69639
33.86493	73482
33.87305	76310
33.88118	75790
33.88930	75094
33.89743	79556
33.90555	78338
33.91367	75250
33.92180	79039
33.92992	75604
33.93803	74913
33.94617	68175
33.95428	73693
33.96242	72489
33.97053	67499
33.97865	70931
33.98678	73073
33.99490	66988
34.00303	69317
34.01115	76310
34.01927	73857
34.02740	73266
34.03552	71602
34.04365	65668
34.05177	73134
34.05988	67890
34.06802	72893
34.07613	70471
34.08425	72597
34.09238	66945
34.10050	71120
34.10863	69671
34.11675	71632
34.12487	72357
34.13300	70464
34.14112	70212
34.14925	75493
34.15737	71834
34.16548	74061
34.17362	72791
34.18173	73599
34.18985	76685
34.19798	73833
34.20610	69909
34.21423	75207
34.22235	73250
34.23047	69293
34.23860	69690
34.24672	71272
34.25485	70368
34.26297	64788
34.27108	70498
34.27922	68798
34.28733	65447
34.29547	65655
34.30358	68080
34.31170	65501
34.31983	67622
34.32795	66839
34.33607	66690
34.34420	73361
34.35232	70822
34.36045	70661
34.36857	71690
34.37668	74004
34.38482	71447
34.39293	74003
34.40107	69915
34.40918	70706
34.41730	69272
34.42543	71597
34.43355	77673
34.44167	72259
34.44980	75333
34.45792	75068
34.46605	71046
34.47417	68955
34.48228	71540
34.49042	70680
34.49853	72064
34.50667	69781
34.51478	69839
34.52290	70700
34.53103	67738
34.53915	74023
34.54728	77620
34.55540	81723
34.56352	86065
34.57165	93098
34.57977	100737
34.58788	100555
34.59602	105098
34.60413	103469
34.61227	98048
34.62038	99889
34.62850	88010
34.63663	90367
34.64475	81245
34.65288	88137
34.66100	81689
34.66912	81390
34.67725	82786
34.68537	78462
34.69350	82355
34.70162	78808
34.70973	79926
34.71787	79916
34.72598	77971
34.73410	71444
34.74223	73260
34.75035	74415
34.75848	72322
34.76660	73088
34.77472	81147
34.78285	73615
34.79097	85356
34.79910	89561
34.80722	81380
34.81533	80591
34.82347	79764
34.83158	80671
34.83970	71619
34.84783	82059
34.85595	73067
34.86408	74225
34.87220	77268
34.88032	75475
34.88845	73760
34.89657	76947
34.90470	77504
34.91282	71953
34.92093	72832
34.92907	70805
34.93718	73013
34.94532	76075
34.95343	78686
34.96155	85226
34.96968	81795
34.97780	88063
34.98592	94094
34.99405	100152
35.00217	99634
35.01030	95792
35.01842	91835
35.02653	84580
35.03467	80404
35.04278	78792
35.05092	77723
35.05903	79805
35.06715	77736
35.07528	77426
35.08340	74229
35.09153	79171
35.09965	77533
35.10777	75704
35.11590	79136
35.12402	72890
35.13213	75607
35.14027	74540
35.14838	76519
35.15652	78832
35.16463	81308
35.17275	81838
35.18088	88385
35.18900	83069
35.19713	80844
35.20525	82704
35.21337	81438
35.22150	79842
35.22962	80636
35.23773	82024
35.24587	73965
35.25398	76621
35.26212	77791
35.27023	73558
35.27835	79879
35.28648	80230
35.29460	79570
35.30273	77238
35.31085	77392
35.31897	77647
35.32710	72003
35.33522	72203
35.34335	75116
35.35147	77922
35.35958	70491
35.36772	75891
35.37583	76955
35.38395	75939
35.39208	76733
35.40020	74959
35.40833	80353
35.41645	77649
35.42457	74450
35.43270	84792
35.44082	87048
35.44895	90415
35.45707	91267
35.46518	89235
35.47332	81430
35.48143	94639
35.48957	87324
35.49768	83092
35.50580	89518
35.51393	88805
35.52205	81159
35.53017	84992
35.53830	82853
35.54642	83332
35.55455	79440
35.56267	71814
35.57078	76434
35.57892	76407
35.58703	77494
35.59517	78444
35.60328	76630
35.61140	72526
35.61953	81762
35.62765	75627
35.63577	85201
35.64390	77598
35.65202	81233
35.66015	75217
35.66827	76368
35.67638	78232
35.68452	76317
35.69263	77001
35.70077	74344
35.70888	79229
35.71700	80363
35.72513	83860
35.73325	82137
35.74138	86839
35.74950	85514
35.75762	94487
35.76575	111350
35.77387	116615
35.78198	128396
35.79012	134829
35.79823	139353
35.80637	124856
35.81448	117384
35.82260	103785
35.83073	91958
35.83885	88263
35.84698	85367
35.85510	83335
35.86322	77826
35.87135	79338
35.87947	82441
35.88758	77117
35.89572	80861
35.90383	78595
35.91197	83085
35.92008	81459
35.92820	82021
35.93633	76603
35.94445	77294
35.95258	76414
35.96070	75412
35.96882	78803
35.97695	82649
35.98507	77127
35.99320	79748
36.00132	77272
36.00943	78460
36.01757	81404
36.02568	82279
36.03380	84842
36.04193	79671
36.05005	85890
36.05818	80169
36.06630	83856
36.07442	78737
36.08255	87385
36.09067	77633
36.09880	77426
36.10692	82415
36.11503	81192
36.12317	82196
36.13128	85518
36.13942	84841
36.14753	89164
36.15565	96357
36.16378	97143
36.17190	98446
36.18002	100560
36.18815	95801
36.19627	90861
36.20440	88528
36.21252	84083
36.22063	85104
36.22877	84838
36.23688	79058
36.24502	81865
36.25313	81982
36.26125	76315
36.26938	82078
36.27750	84625
36.28562	76741
36.29375	82137
36.30187	81128
36.31000	80030
36.31812	90170
36.32623	81431
36.33437	80840
36.34248	91653
36.35062	92579
36.35873	92856
36.36685	92501
36.37498	89404
36.38310	89018
36.39123	88966
36.39935	86962
36.40747	89206
36.41560	89795
36.42372	89449
36.43183	96024
36.43997	102348
36.44808	92404
36.45622	93179
36.46433	97518
36.47245	87659
36.48058	90971
36.48870	83807
36.49683	82286
36.50495	83905
36.51307	77004
36.52120	85531
36.52932	82540
36.53745	77764
36.54557	82056
36.55368	81400
36.56182	81675
36.56993	83035
36.57805	82517
36.58618	80315
36.59430	80628
36.60243	79809
36.61055	77953
36.61867	82475
36.62680	84020
36.63492	86709
36.64305	81540
36.65117	82160
36.65928	81396
36.66742	80885
36.67553	79176
36.68365	84004
36.69178	81815
36.69990	86032
36.70803	83798
36.71615	84384
36.72427	81885
36.73240	85360
36.74052	87332
36.74865	87830
36.75677	95063
36.76488	88955
36.77302	88579
36.78113	81369
36.78927	85436
36.79738	87031
36.80550	90030
36.81363	82280
36.82175	84408
36.82987	82289
36.83800	86527
36.84612	81167
36.85425	79250
36.86237	80452
36.87048	87522
36.87862	78182
36.88673	80668
36.89487	80182
36.90298	79846
36.91110	81053
36.91923	76056
36.92735	79726
36.93547	72521
36.94360	85747
36.95172	96864
36.95985	120701
36.96797	148470
36.97608	186155
36.98422	244150
36.99233	256673
37.00047	256356
37.00858	221774
37.01670	187312
37.02483	144990
37.03295	120583
37.04108	105283
37.04920	95467
37.05732	95116
37.06545	92006
37.07357	94974
37.08168	90778
37.08982	98861
37.09793	99967
37.10607	110669
37.11418	100954
37.12230	102481
37.13043	101239
37.13855	100599
37.14668	92699
37.15480	87768
37.16292	93772
37.17105	91557
37.17917	88308
37.18730	88256
37.19542	84609
37.20353	85995
37.21167	83693
37.21978	85635
37.22790	89067
37.23603	87878
37.24415	87093
37.25228	94588
37.26040	94429
37.26852	90549
37.27665	86901
37.28477	90227
37.29290	92198
37.30102	92183
37.30913	89486
37.31727	88468
37.32538	88425
37.33352	85792
37.34163	82186
37.34975	87390
37.35788	91008
37.36600	95491
37.37412	93791
37.38225	95339
37.39037	96173
37.39850	96199
37.40662	93424
37.41473	96728
37.42287	98526
37.43098	101775
37.43912	104905
37.44723	105767
37.45535	105089
37.46348	113229
37.47160	106716
37.47972	100359
37.48785	98264
