Z:\data\JTB-E02\BACandBLUE\JTB-E02-189-21.D Mon Dec 10 16:54:31 2018
Start of data points
2.09527	100002
2.10338	105233
2.11152	108553
2.11963	107317
2.12777	109085
2.13588	106788
2.14400	110963
2.15213	105398
2.16025	105013
2.16838	101757
2.17650	107620
2.18462	100291
2.19275	100759
2.20087	93759
2.20898	93856
2.21712	92379
2.22523	92879
2.23337	89352
2.24148	85258
2.24960	88334
2.25773	84483
2.26585	159389
2.27398	755161
2.28210	1312597
2.29022	838009
2.29835	422264
2.30647	314505
2.31458	269088
2.32272	236507
2.33083	224952
2.33897	208988
2.34708	195980
2.35520	196653
2.36333	181653
2.37145	182631
2.37958	178543
2.38770	177367
2.39582	160886
2.40395	167034
2.41207	167795
2.42020	163218
2.42832	163587
2.43643	155618
2.44457	153671
2.45268	153995
2.46080	156933
2.46893	153031
2.47705	148245
2.48518	144837
2.49330	152396
2.50142	163952
2.50955	148586
2.51767	150925
2.52580	143341
2.53392	146187
2.54203	141677
2.55017	141645
2.55828	159709
2.56642	156962
2.57453	147894
2.58265	142877
2.59078	128231
2.59890	139808
2.60702	197715
2.61515	307765
2.62327	303619
2.63140	215790
2.63952	176202
2.64763	169032
2.65577	154018
2.66388	152316
2.67202	139905
2.68013	134553
2.68825	132351
2.69638	131827
2.70450	128021
2.71262	130984
2.72075	129082
2.72887	127752
2.73700	129047
2.74512	121202
2.75323	124591
2.76137	122324
2.76948	192617
2.77762	1393990
2.78573	5948965
2.79385	8029357
2.80198	4873453
2.81010	2604323
2.81823	1867539
2.82635	1467024
2.83447	1137231
2.84260	895368
2.85072	734232
2.85883	628299
2.86697	541575
2.87508	486047
2.88322	430952
2.89133	397073
2.89945	352261
2.90758	323534
2.91570	306980
2.92383	283016
2.93195	263191
2.94007	256356
2.94820	236970
2.95632	230996
2.96443	227395
2.97257	227460
2.98068	216741
2.98882	212579
2.99693	216289
3.00505	224493
3.01318	224097
3.02130	220265
3.02943	204368
3.03755	191787
3.04567	172479
3.05380	170187
3.06192	167362
3.07005	170814
3.07817	175152
3.08628	252513
3.09442	502655
3.10253	1286222
3.11065	2969252
3.11878	3531840
3.12690	2370347
3.13503	1464622
3.14315	1029977
3.15127	806159
3.15940	665830
3.16752	677517
3.17565	832212
3.18377	1560945
3.19188	4498568
3.20002	7470316
3.20813	6328730
3.21627	4006547
3.22438	2819927
3.23250	2184994
3.24063	1734050
3.24875	1424025
3.25687	1186582
3.26500	1017885
3.27312	891797
3.28125	883231
3.28937	1809365
3.29748	6855954
3.30562	1.78437E+07
3.31373	2.547607E+07
3.32187	2.445172E+07
3.32998	1.775347E+07
3.33810	1.09951E+07
3.34623	6920821
3.35435	4682163
3.36247	3437628
3.37060	2662762
3.37872	2136029
3.38685	1746668
3.39497	1499762
3.40308	1273022
3.41122	1114411
3.41933	1033830
3.42747	930978
3.43558	907791
3.44370	892046
3.45183	810576
3.45995	790449
3.46808	921826
3.47620	1182063
3.48432	1151236
3.49245	898068
3.50057	668288
3.50868	582826
3.51682	516313
3.52493	494675
3.53307	513688
3.54118	581330
3.54930	615453
3.55743	548321
3.56555	475391
3.57368	420551
3.58180	384336
3.58992	366031
3.59805	357709
3.60617	347719
3.61430	329111
3.62242	325429
3.63053	337899
3.63867	361657
3.64678	371170
3.65490	533185
3.66303	3109480
3.67115	1.712747E+07
3.67928	4.130651E+07
3.68740	5.539494E+07
3.69552	5.212475E+07
3.70365	3.76787E+07
3.71177	2.521923E+07
3.71990	1.949334E+07
3.72802	1.581636E+07
3.73613	1.324329E+07
3.74427	1.13622E+07
3.75238	9766065
3.76050	8608695
3.76863	7592922
3.77675	6702880
3.78488	6105706
3.79300	5580337
3.80112	5173535
3.80925	5096202
3.81737	5386348
3.82550	5504513
3.83362	4987390
3.84173	4258974
3.84987	3855401
3.85798	3491605
3.86612	3248025
3.87423	3010104
3.88235	2869077
3.89048	2715190
3.89860	2562503
3.90672	2431542
3.91485	2450490
3.92297	2797138
3.93110	3408553
3.93922	3645043
3.94733	3173194
3.95547	2599485
3.96358	2305909
3.97172	2230727
3.97983	2074656
3.98795	1888078
3.99608	1727423
4.00420	1664282
4.01232	1687405
4.02045	1726944
4.02857	1651524
4.03670	1524846
4.04482	1404241
4.05293	1344157
4.06107	1275029
4.06918	1218887
4.07732	1209932
4.08543	1177884
4.09355	1175225
4.10168	1169439
4.10980	1130571
4.11793	1075774
4.12605	1035961
4.13417	1001968
4.14230	977286
4.15042	982343
4.15853	994673
4.16667	970456
4.17478	993025
4.18292	973641
4.19103	942719
4.19915	928132
4.20728	1085271
4.21540	2556739
4.22353	7561824
4.23165	1.657941E+07
4.23977	2.484799E+07
4.24790	3.090429E+07
4.25602	3.495162E+07
4.26415	3.53682E+07
4.27227	2.669842E+07
4.28038	1.309001E+07
4.28852	8332752
4.29663	6292319
4.30475	5050667
4.31288	4169604
4.32100	3576652
4.32913	3065949
4.33725	2703060
4.34537	2396885
4.35350	2261215
4.36162	2300327
4.36975	2621823
4.37787	2826933
4.38598	2555262
4.39412	2072236
4.40223	1679765
4.41035	1454829
4.41848	1322282
4.42660	1227197
4.43473	1129788
4.44285	1056917
4.45097	1024699
4.45910	962423
4.46722	924317
4.47535	905042
4.48347	867527
4.49158	857595
4.49972	809179
4.50783	780363
4.51597	790174
4.52408	786312
4.53220	768351
4.54033	777835
4.54845	859141
4.55657	906344
4.56470	898413
4.57282	805466
4.58095	713197
4.58907	684865
4.59718	656972
4.60532	641158
4.61343	645013
4.62157	712347
4.62968	1089077
4.63780	2007971
4.64593	3101494
4.65405	3476079
4.66218	2847569
4.67030	2022352
4.67842	1557188
4.68655	1364321
4.69467	1196405
4.70278	1002878
4.71092	832480
4.71903	729941
4.72717	676923
4.73528	642821
4.74340	616759
4.75153	586335
4.75965	571925
4.76778	549510
4.77590	539302
4.78402	529254
4.79215	566728
4.80027	692001
4.80838	867334
4.81652	924563
4.82463	829332
4.83277	711876
4.84088	717924
4.84900	815981
4.85713	921018
4.86525	898896
4.87338	770978
4.88150	646379
4.88962	578977
4.89775	537990
4.90587	506245
4.91400	484546
4.92212	478216
4.93023	503036
4.93837	712361
4.94648	1542026
4.95460	3649968
4.96273	6728563
4.97085	9047060
4.97898	9003118
4.98710	7001226
4.99522	4695868
5.00335	3126848
5.01147	2220801
5.01960	1752542
5.02772	1659819
5.03583	1865760
5.04397	2377022
5.05208	2583822
5.06020	2266160
5.06833	1823493
5.07645	1471123
5.08458	1274856
5.09270	1130199
5.10082	1022921
5.10895	962835
5.11707	908955
5.12520	830883
5.13332	797744
5.14143	747218
5.14957	784572
5.15768	1002868
5.16582	1363737
5.17393	1675580
5.18205	1684088
5.19018	1449744
5.19830	1292542
5.20642	1380986
5.21455	1561519
5.22267	1572235
5.23080	1400328
5.23892	1143065
5.24703	955409
5.25517	812431
5.26328	703184
5.27142	646766
5.27953	543858
5.28765	519551
5.29578	498480
5.30390	474430
5.31203	467460
5.32015	459182
5.32827	461449
5.33640	498425
5.34452	512613
5.35263	516516
5.36077	499244
5.36888	475222
5.37702	440917
5.38513	450018
5.39325	524656
5.40138	652671
5.40950	731585
5.41763	708724
5.42575	613662
5.43387	515568
5.44200	488919
5.45012	565282
5.45825	699239
5.46637	816440
5.47448	804716
5.48262	660491
5.49073	524585
5.49885	455720
5.50698	393597
5.51510	380944
5.52323	382267
5.53135	381943
5.53947	368340
5.54760	415172
5.55572	596697
5.56385	1115805
5.57197	2029659
5.58008	2948273
5.58822	3103401
5.59633	2519139
5.60445	1726039
5.61258	1112011
5.62070	780846
5.62883	617699
5.63695	535572
5.64507	480287
5.65320	443266
5.66132	413704
5.66945	398218
5.67757	403354
5.68568	437485
5.69382	478552
5.70193	551209
5.71007	586676
5.71818	570617
5.72630	508264
5.73443	459237
5.74255	395958
5.75067	365345
5.75880	352281
5.76692	337882
5.77505	330544
5.78317	318427
5.79128	309753
5.79942	308644
5.80753	304991
5.81567	297108
5.82378	299960
5.83190	304593
5.84003	296178
5.84815	297635
5.85627	298354
5.86440	289118
5.87252	284391
5.88065	283263
5.88877	274296
5.89688	286376
5.90502	302943
5.91313	362424
5.92127	425474
5.92938	487446
5.93750	474100
5.94563	423257
5.95375	396744
5.96188	450575
5.97000	563165
5.97812	700621
5.98625	850063
5.99437	1065413
6.00248	1115866
6.01062	1020554
6.01873	800790
6.02687	618772
6.03498	459403
6.04310	384734
6.05123	332140
6.05935	303365
6.06748	289968
6.07560	292922
6.08372	291190
6.09185	287125
6.09997	271125
6.10810	261068
6.11622	259217
6.12433	335962
6.13247	595901
6.14058	1230007
6.14870	1995761
6.15683	2426191
6.16495	2135289
6.17308	1511100
6.18120	1024505
6.18932	788779
6.19745	645747
6.20557	563217
6.21370	495145
6.22182	442406
6.22993	424686
6.23807	415586
6.24618	424047
6.25430	512660
6.26243	641611
6.27055	748761
6.27868	741318
6.28680	624999
6.29492	502689
6.30305	434081
6.31117	409422
6.31930	377777
6.32742	391259
6.33553	386120
6.34367	393590
6.35178	395748
6.35992	377812
6.36803	356641
6.37615	351721
6.38428	356812
6.39240	364343
6.40052	369243
6.40865	341953
6.41677	318475
6.42490	310352
6.43302	303593
6.44113	313336
6.44927	319937
6.45738	348648
6.46552	368149
6.47363	379550
6.48175	342465
6.48988	322250
6.49800	318645
6.50613	324224
6.51425	317490
6.52237	341139
6.53050	341592
6.53862	345713
6.54673	340546
6.55487	353264
6.56298	479947
6.57112	943458
6.57923	1856733
6.58735	2861100
6.59548	3189812
6.60360	2642114
6.61173	1696625
6.61985	1048406
6.62797	725127
6.63610	580647
6.64422	448364
6.65233	394361
6.66047	362498
6.66858	354204
6.67672	341246
6.68483	333703
6.69295	295482
6.70108	281470
6.70920	259920
6.71733	252737
6.72545	238654
6.73357	243542
6.74170	239984
6.74982	229627
6.75795	224182
6.76607	226972
6.77418	223850
6.78232	215658
6.79043	225172
6.79855	222753
6.80668	204896
6.81480	190793
6.82293	181167
6.83105	173574
6.83917	168660
6.84730	187166
6.85542	199173
6.86355	206714
6.87167	220017
6.87978	226627
6.88792	218834
6.89603	207394
6.90415	197206
6.91228	177816
6.92040	171319
6.92853	160616
6.93665	158766
6.94477	144652
6.95290	151026
6.96102	152583
6.96915	169243
6.97727	171508
6.98538	209530
6.99352	216391
7.00163	209447
7.00977	202294
7.01788	180897
7.02600	178119
7.03413	176838
7.04225	178927
7.05037	172726
7.05850	200504
7.06662	281746
7.07475	439196
7.08287	666063
7.09098	814986
7.09912	871220
7.10723	790179
7.11537	611646
7.12348	450793
7.13160	333277
7.13973	294271
7.14785	282507
7.15598	316555
7.16410	342687
7.17222	390577
7.18035	520567
7.18847	1161505
7.19658	2889736
7.20472	5798511
7.21283	8926059
7.22097	9880115
7.22908	7951827
7.23720	4801029
7.24533	2274658
7.25345	936391
7.26158	403700
7.26970	245789
7.27782	206861
7.28595	194896
7.29407	206512
7.30218	215942
7.31032	209983
7.31843	210588
7.32657	220327
7.33468	236317
7.34280	295630
7.35093	368993
7.35905	427439
7.36718	443938
7.37530	409073
7.38342	365601
7.39155	309994
7.39967	266816
7.40780	226690
7.41592	209602
7.42403	192970
7.43217	179119
7.44028	159979
7.44840	153329
7.45653	167852
7.46465	170470
7.47278	182358
7.48090	198551
7.48902	186426
7.49715	175719
7.50527	164945
7.51340	154689
7.52152	172042
7.52963	221642
7.53777	417547
7.54588	946982
7.55402	2229179
7.56213	4683169
7.57025	8249288
7.57838	1.22985E+07
7.58650	1.522614E+07
7.59462	1.586633E+07
7.60275	1.397787E+07
7.61087	1.055483E+07
7.61900	6926083
7.62712	4204669
7.63523	2498203
7.64337	1576608
7.65148	1092906
7.65962	799670
7.66773	613639
7.67585	458565
7.68398	351561
7.69210	273062
7.70022	235411
7.70835	225812
7.71647	268183
7.72460	368232
7.73272	502307
7.74083	638301
7.74897	689069
7.75708	702334
7.76522	644095
7.77333	572382
7.78145	498207
7.78958	451392
7.79770	422953
7.80583	428794
7.81395	468949
7.82207	524906
7.83020	536139
7.83832	492488
7.84643	403027
7.85457	349911
7.86268	328066
7.87082	348347
7.87893	410163
7.88705	518008
7.89518	672014
7.90330	822060
7.91143	884588
7.91955	800609
7.92767	630017
7.93580	472987
7.94392	410399
7.95203	391103
7.96017	400105
7.96828	383430
7.97642	354013
7.98453	312048
7.99265	253231
8.00078	220495
8.00890	194827
8.01703	175323
8.02515	165931
8.03327	160824
8.04140	148924
8.04952	148345
8.05765	149098
8.06577	148354
8.07388	157840
8.08202	168039
8.09013	157498
8.09825	146592
8.10638	143823
8.11450	138124
8.12263	130817
8.13075	150702
8.13887	188127
8.14700	285446
8.15512	387301
8.16325	478337
8.17137	485175
8.17948	399667
8.18762	314447
8.19573	244565
8.20387	195297
8.21198	179513
8.22010	165168
8.22823	153448
8.23635	137477
8.24447	140412
8.25260	127234
8.26072	126970
8.26885	118630
8.27697	116407
8.28508	113526
8.29322	116023
8.30133	112799
8.30947	116715
8.31758	134747
8.32570	161487
8.33383	206042
8.34195	246762
8.35007	251409
8.35820	218198
8.36632	183234
8.37445	147804
8.38257	123852
8.39068	114701
8.39882	105523
8.40693	105563
8.41507	91856
8.42318	99195
8.43130	94965
8.43943	93999
8.44755	94645
8.45568	94676
8.46380	99557
8.47192	101412
8.48005	95086
8.48817	96627
8.49628	97138
8.50442	99037
8.51253	99350
8.52067	129047
8.52878	181923
8.53690	255656
8.54503	324385
8.55315	294125
8.56128	240285
8.56940	172216
8.57752	124598
8.58565	115401
8.59377	103038
8.60190	103696
8.61002	111753
8.61813	120234
8.62627	149144
8.63438	153334
8.64250	161950
8.65063	157489
8.65875	139667
8.66688	127320
8.67500	109884
8.68312	103966
8.69125	96376
8.69937	94571
8.70750	95316
8.71562	97171
8.72373	99477
8.73187	98471
8.73998	93489
8.74810	92244
8.75623	90743
8.76435	101623
8.77248	130189
8.78060	203740
8.78872	359071
8.79685	592437
8.80497	789819
8.81310	853891
8.82122	750858
8.82933	578949
8.83747	416989
8.84558	342953
8.85372	290244
8.86183	259482
8.86995	241905
8.87808	224971
8.88620	212273
8.89432	202985
8.90245	188280
8.91057	192303
8.91870	195173
8.92682	252278
8.93493	331700
8.94307	431307
8.95118	443887
8.95932	393598
8.96743	322557
8.97555	306618
8.98368	336752
8.99180	401165
8.99993	477359
9.00805	470308
9.01617	420612
9.02430	327854
9.03242	260767
9.04053	209891
9.04867	187216
9.05678	169467
9.06492	162115
9.07303	154681
9.08115	151161
9.08928	169445
9.09740	202908
9.10553	278096
9.11365	439451
9.12177	629479
9.12990	763706
9.13802	794739
9.14613	678692
9.15427	505053
9.16238	359808
9.17052	281258
9.17863	237348
9.18675	217467
9.19488	205936
9.20300	194775
9.21113	194335
9.21925	180664
9.22737	178994
9.23550	176881
9.24362	191669
9.25175	201223
9.25987	198870
9.26798	201474
9.27612	192161
9.28423	177650
9.29235	162960
9.30048	162199
9.30860	161498
9.31673	158359
9.32485	154954
9.33297	148931
9.34110	156156
9.34922	144278
9.35735	138230
9.36547	132926
9.37358	143823
9.38172	149650
9.38983	179770
9.39795	265153
9.40608	409257
9.41420	620233
9.42233	828587
9.43045	992511
9.43857	1127884
9.44670	1229074
9.45482	1278572
9.46295	1218533
9.47107	1044076
9.47918	808527
9.48732	547865
9.49543	380365
9.50357	299091
9.51168	293154
9.51980	314978
9.52793	374313
9.53605	465611
9.54417	491365
9.55230	495246
9.56042	430561
9.56855	357733
9.57667	270841
9.58478	214621
9.59292	181188
9.60103	169174
9.60917	156449
9.61728	147106
9.62540	149725
9.63353	139558
9.64165	135176
9.64978	128964
9.65790	124364
9.66602	130561
9.67415	130164
9.68227	132395
9.69038	137190
9.69852	136703
9.70663	127215
9.71477	119315
9.72288	122990
9.73100	128864
9.73913	118917
9.74725	116417
9.75538	101687
9.76350	98984
9.77162	103022
9.77975	95585
9.78787	104991
9.79598	102094
9.80412	91638
9.81223	99585
9.82037	104846
9.82848	95162
9.83660	94844
9.84473	92305
9.85285	94476
9.86098	99796
9.86910	98658
9.87722	93835
9.88535	93949
9.89347	88784
9.90160	89666
9.90972	87982
9.91783	90394
9.92597	103714
9.93408	121296
9.94220	186168
9.95033	347564
9.95845	604652
9.96658	986486
9.97470	1291028
9.98282	1435589
9.99095	1269818
9.99907	956142
10.00720	650908
10.01532	409046
10.02343	290284
10.03157	246840
10.03968	244572
10.04782	256611
10.05593	263255
10.06405	265024
10.07218	271565
10.08030	265008
10.08842	253437
10.09655	232221
10.10467	221243
10.11280	210919
10.12092	196515
10.12903	185524
10.13717	181406
10.14528	165019
10.15342	168403
10.16153	166381
10.16965	150297
10.17778	161599
10.18590	153688
10.19402	145083
10.20215	128757
10.21027	128703
10.21840	128034
10.22652	133219
10.23463	126796
10.24277	134272
10.25088	156684
10.25902	206021
10.26713	419204
10.27525	990579
10.28338	2295165
10.29150	4484724
10.29963	7423035
10.30775	1.073202E+07
10.31587	1.417164E+07
10.32400	1.844205E+07
10.33212	2.379703E+07
10.34023	3.084101E+07
10.34837	3.961728E+07
10.35648	4.680985E+07
10.36462	4.912068E+07
10.37273	4.311437E+07
10.38085	2.942969E+07
10.38898	2.007024E+07
10.39710	1.572725E+07
10.40523	1.250488E+07
10.41335	8796113
10.42147	5543917
10.42960	3461248
10.43772	2513961
10.44583	2301210
10.45397	2370130
10.46208	2480537
10.47022	2453174
10.47833	2229643
10.48645	1888065
10.49458	1523213
10.50270	1235782
10.51083	1029520
10.51895	888556
10.52707	804180
10.53520	741343
10.54332	687333
10.55145	666414
10.55957	618594
10.56768	591158
10.57582	578956
10.58393	565879
10.59205	541275
10.60018	515477
10.60830	473723
10.61643	440303
10.62455	427164
10.63267	421144
10.64080	397617
10.64892	377616
10.65705	368482
10.66517	350034
10.67328	341262
10.68142	328141
10.68953	339727
10.69767	341158
10.70578	378733
10.71390	400329
10.72203	412608
10.73015	417627
10.73827	393267
10.74640	361142
10.75452	328622
10.76265	315350
10.77077	286885
10.77888	274824
10.78702	264514
10.79513	262278
10.80327	280158
10.81138	320666
10.81950	381325
10.82763	418612
10.83575	440883
10.84388	402219
10.85200	350005
10.86012	284828
10.86825	254524
10.87637	218442
10.88448	210459
10.89262	211791
10.90073	198653
10.90887	192308
10.91698	198804
10.92510	197442
10.93323	195021
10.94135	192262
10.94948	194766
10.95760	183344
10.96572	180788
10.97385	176286
10.98197	177561
10.99008	181746
10.99822	201297
11.00633	220727
11.01447	267378
11.02258	308012
11.03070	338675
11.03883	324983
11.04695	300972
11.05508	260174
11.06320	241934
11.07132	248277
11.07945	284007
11.08757	334860
11.09570	407035
11.10382	452281
11.11193	456308
11.12007	426642
11.12818	385251
11.13630	332706
11.14443	278717
11.15255	245658
11.16068	216879
11.16880	210810
11.17692	210527
11.18505	207110
11.19317	190618
11.20130	169020
11.20942	156448
11.21753	140498
11.22567	133895
11.23378	126966
11.24190	112654
11.25003	115384
11.25815	113660
11.26628	112246
11.27440	100391
11.28252	95761
11.29065	92279
11.29877	113071
11.30690	196652
11.31502	450501
11.32313	1181056
11.33127	2777314
11.33938	5443391
11.34752	8735057
11.35563	1.161772E+07
11.36375	1.324265E+07
11.37188	1.272179E+07
11.38000	1.034093E+07
11.38812	7538409
11.39625	5370562
11.40437	3937665
11.41250	3078134
11.42062	2432622
11.42873	1996886
11.43687	1586025
11.44498	1279179
11.45312	1076450
11.46123	911250
11.46935	781964
11.47748	674093
11.48560	620985
11.49373	613030
11.50185	634801
11.50997	732337
11.51810	800526
11.52622	854878
11.53433	855009
11.54247	796616
11.55058	706403
11.55872	661781
11.56683	623140
11.57495	602323
11.58308	601962
11.59120	596112
11.59933	594425
11.60745	655790
11.61557	766396
11.62370	896429
11.63182	930184
11.63993	851304
11.64807	704584
11.65618	534626
11.66432	405100
11.67243	321597
11.68055	274066
11.68868	274897
11.69680	266674
11.70493	272737
11.71305	269105
11.72117	256032
11.72930	239414
11.73742	234723
11.74555	220482
11.75367	197131
11.76178	185331
11.76992	180847
11.77803	168333
11.78615	159272
11.79428	151745
11.80240	142944
11.81053	142051
11.81865	135535
11.82677	127471
11.83490	126431
11.84302	132694
11.85115	119794
11.85927	120988
11.86738	121673
11.87552	115943
11.88363	108326
11.89177	115293
11.89988	107770
11.90800	107896
11.91613	110646
11.92425	106620
11.93237	113642
11.94050	115198
11.94862	119493
11.95675	114232
11.96487	107960
11.97298	105099
11.98112	94142
11.98923	91111
11.99737	91792
12.00548	93230
12.01360	90024
12.02173	88825
12.02985	87685
12.03797	87133
12.04610	89896
12.05422	91501
12.06235	88940
12.07047	101028
12.07858	118138
12.08672	140456
12.09483	181666
12.10297	279782
12.11108	499993
12.11920	1009744
12.12733	1992738
12.13545	3443040
12.14358	5139550
12.15170	6194683
12.15982	6191407
12.16795	5258639
12.17607	3840174
12.18418	2628814
12.19232	1825934
12.20043	1454561
12.20857	1235245
12.21668	1112310
12.22480	977071
12.23293	885824
12.24105	778921
12.24918	695376
12.25730	653998
12.26542	609201
12.27355	609932
12.28167	577093
12.28978	529259
12.29792	510946
12.30603	478297
12.31417	428183
12.32228	406488
12.33040	386148
12.33853	364502
12.34665	348068
12.35478	328076
12.36290	327402
12.37102	323733
12.37915	319002
12.38727	311915
12.39540	307105
12.40352	323552
12.41163	362853
12.41977	449829
12.42788	571386
12.43600	634663
12.44413	634849
12.45225	574411
12.46038	491721
12.46850	406362
12.47662	348956
12.48475	334197
12.49287	314353
12.50100	305509
12.50912	295657
12.51723	286445
12.52537	294639
12.53348	315907
12.54162	383144
12.54973	498573
12.55785	589883
12.56598	671388
12.57410	690633
12.58222	613006
12.59035	501127
12.59847	412570
12.60660	338977
12.61472	323560
12.62283	293680
12.63097	266317
12.63908	248249
12.64722	239618
12.65533	217092
12.66345	208839
12.67158	208466
12.67970	197676
12.68782	191846
12.69595	191775
12.70407	183512
12.71220	188020
12.72032	185845
12.72843	183578
12.73657	186016
12.74468	188477
12.75282	192215
12.76093	185215
12.76905	175076
12.77718	173198
12.78530	161930
12.79343	156157
12.80155	154692
12.80967	146023
12.81780	135825
12.82592	125450
12.83403	120403
12.84217	93190
12.85028	86119
12.85842	87795
12.86653	81580
12.87465	75452
12.88278	80632
12.89090	79462
12.89903	84166
12.90715	82808
12.91527	82426
12.92340	81811
12.93152	80346
12.93965	79267
12.94777	77268
12.95588	75317
12.96402	82328
12.97213	86457
12.98025	101605
12.98838	108485
12.99650	109216
13.00463	99135
13.01275	100143
13.02087	85965
13.02900	82726
13.03712	78291
13.04525	82038
13.05337	74421
13.06148	78739
13.06962	80307
13.07773	82420
13.08585	88679
13.09398	86082
13.10210	95016
13.11023	90459
13.11835	82578
13.12647	72207
13.13460	79584
13.14272	76110
13.15085	77073
13.15897	74982
13.16708	83839
13.17522	86626
13.18333	88246
13.19147	92958
13.19958	93421
13.20770	96173
13.21583	94083
13.22395	103735
13.23207	111308
13.24020	115050
13.24832	129204
13.25645	120929
13.26457	122055
13.27268	121181
13.28082	114822
13.28893	109173
13.29707	100034
13.30518	91187
13.31330	85872
13.32143	82863
13.32955	77176
13.33768	76800
13.34580	71015
13.35392	68626
13.36205	74061
13.37017	70993
13.37828	77105
13.38642	64673
13.39453	68627
13.40267	71615
13.41078	75365
13.41890	73132
13.42703	69972
13.43515	71790
13.44328	65141
13.45140	73907
13.45952	89100
13.46765	87620
13.47577	106725
13.48388	115031
13.49202	111861
13.50013	110085
13.50827	101873
13.51638	100373
13.52450	90749
13.53263	97353
13.54075	100902
13.54888	94062
13.55700	90074
13.56512	86342
13.57325	81908
13.58137	89535
13.58950	107835
13.59762	134580
13.60573	167880
13.61387	196736
13.62198	205891
13.63010	217568
13.63823	213802
13.64635	174201
13.65448	151729
13.66260	133178
13.67072	110760
13.67885	88955
13.68697	80031
13.69510	71204
13.70322	64558
13.71133	62670
13.71947	61735
13.72758	59018
13.73570	60359
13.74383	68066
13.75195	71821
13.76008	90074
13.76820	122818
13.77632	170174
13.78445	258561
13.79257	378943
13.80070	552699
13.80882	734955
13.81693	966989
13.82507	1227092
13.83318	1569669
13.84132	2003855
13.84943	2430753
13.85755	2513924
13.86568	2304125
13.87380	1955137
13.88192	1484144
13.89005	1034747
13.89817	717700
13.90630	496661
13.91442	374629
13.92253	285287
13.93067	229297
13.93878	194937
13.94692	175277
13.95503	155666
13.96315	135596
13.97128	127271
13.97940	119133
13.98753	110021
13.99565	110738
14.00377	117348
14.01190	114969
14.02002	117079
14.02813	112662
14.03627	112823
14.04438	104192
14.05252	93128
14.06063	94084
14.06875	93119
14.07688	92576
14.08500	100435
14.09313	97728
14.10125	95140
14.10937	90340
14.11750	82965
14.12562	86766
14.13373	87620
14.14187	88648
14.14998	109385
14.15812	133465
14.16623	175183
14.17435	205919
14.18248	229421
14.19060	232073
14.19873	222930
14.20685	224876
14.21497	231300
14.22310	260817
14.23122	292062
14.23935	332199
14.24747	361805
14.25558	391973
14.26372	464020
14.27183	493589
14.27995	460334
14.28808	408072
14.29620	319020
14.30433	246597
14.31245	207757
14.32057	175497
14.32870	161154
14.33682	148953
14.34495	149144
14.35307	144392
14.36118	139121
14.36932	135655
14.37743	130080
14.38557	120517
14.39368	116006
14.40180	118304
14.40993	131018
14.41805	171662
14.42617	213040
14.43430	261309
14.44242	261661
14.45055	247612
14.45867	212908
14.46678	184861
14.47492	178939
14.48303	179155
14.49117	190366
14.49928	203069
14.50740	218272
14.51553	199271
14.52365	177204
14.53177	167305
14.53990	150068
14.54802	140310
14.55615	128755
14.56427	125692
14.57238	112517
14.58052	104008
14.58863	101668
14.59677	90186
14.60488	82936
14.61300	81159
14.62113	75027
14.62925	76827
14.63738	71988
14.64550	67916
14.65362	64985
14.66175	67208
14.66987	70296
14.67798	73209
14.68612	58269
14.69423	63856
14.70237	61341
14.71048	61054
14.71860	67235
14.72673	68396
14.73485	80088
14.74298	80082
14.75110	87075
14.75922	94338
14.76735	97847
14.77547	106781
14.78358	114620
14.79172	142538
14.79983	258605
14.80797	659663
14.81608	1802918
14.82420	4306563
14.83233	8440784
14.84045	1.408268E+07
14.84858	1.968671E+07
14.85670	2.385962E+07
14.86482	2.414724E+07
14.87295	1.959043E+07
14.88107	1.264892E+07
14.88920	7021223
14.89732	3777589
14.90543	2401386
14.91357	1816679
14.92168	1480368
14.92980	1313250
14.93793	1209542
14.94605	1096112
14.95418	987099
14.96230	919359
14.97042	847776
14.97855	783483
14.98667	713521
14.99480	680174
15.00292	635616
15.01103	591282
15.01917	571769
15.02728	557689
15.03542	545922
15.04353	527163
15.05165	511055
15.05978	487701
15.06790	463993
15.07602	448351
15.08415	423251
15.09227	390122
15.10040	371968
15.10852	341967
15.11663	339499
15.12477	323160
15.13288	334087
15.14102	386340
15.14913	435403
15.15725	479211
15.16538	504516
15.17350	443884
15.18162	345925
15.18975	264307
15.19787	199789
15.20600	163881
15.21412	147457
15.22223	134166
15.23037	133486
15.23848	129835
15.24662	122069
15.25473	118715
15.26285	123807
15.27098	126464
15.27910	111513
15.28723	112481
15.29535	109485
15.30347	97789
15.31160	95158
15.31972	89885
15.32783	97288
15.33597	88726
15.34408	90121
15.35222	82441
15.36033	83333
15.36845	87888
15.37658	89458
15.38470	97361
15.39283	105315
15.40095	104352
15.40907	104851
15.41720	101820
15.42532	98043
15.43345	92967
15.44157	100590
15.44968	93859
15.45782	105155
15.46593	120006
15.47405	175205
15.48218	327944
15.49030	613198
15.49843	1077191
15.50655	1624434
15.51467	2096880
15.52280	2323306
15.53092	2289854
15.53905	2047031
15.54717	1607407
15.55528	1188294
15.56342	851055
15.57153	607534
15.57965	442193
15.58778	351351
15.59590	279355
15.60403	240514
15.61215	215042
15.62027	195379
15.62840	187848
15.63652	172687
15.64465	161251
15.65277	154555
15.66088	150868
15.66902	143662
15.67713	135596
15.68527	125613
15.69338	112980
15.70150	113190
15.70963	100172
15.71775	101012
15.72587	100384
15.73400	94965
15.74212	96358
15.75025	105893
15.75837	127617
15.76648	196932
15.77462	392656
15.78273	755406
15.79087	1247976
15.79898	1722773
15.80710	1984437
15.81523	1870739
15.82335	1414520
15.83147	970601
15.83960	601563
15.84772	397631
15.85585	301585
15.86397	249050
15.87208	223092
15.88022	212504
15.88833	199478
15.89647	193721
15.90458	184388
15.91270	178306
15.92083	176146
15.92895	155935
15.93708	156032
15.94520	140065
15.95332	152145
15.96145	142154
15.96957	143733
15.97768	138940
15.98582	126400
15.99393	123013
16.00207	125219
16.01018	120352
16.01830	137590
16.02643	149092
16.03455	160026
16.04268	176078
16.05080	176479
16.05892	168413
16.06705	149499
16.07517	132896
16.08330	116382
16.09142	109826
16.09953	98601
16.10767	100393
16.11578	99568
16.12390	107745
16.13203	122921
16.14015	149848
16.14828	187175
16.15640	228698
16.16452	241067
16.17265	250139
16.18077	232075
16.18890	211656
16.19702	179001
16.20513	148288
16.21327	137339
16.22138	134944
16.22952	132522
16.23763	139208
16.24575	119298
16.25388	116954
16.26200	105181
16.27012	97944
16.27825	98735
16.28637	106983
16.29450	128859
16.30262	163495
16.31073	198289
16.31887	218029
16.32698	226470
16.33512	217795
16.34323	197989
16.35135	170940
16.35948	141671
16.36760	130656
16.37572	121833
16.38385	120391
16.39197	114403
16.40010	113147
16.40822	112936
16.41633	101077
16.42447	105139
16.43258	108010
16.44072	106158
16.44883	139374
16.45695	236429
16.46508	586440
16.47320	1360535
16.48133	2756553
16.48945	4324532
16.49757	5578702
16.50570	5928872
16.51382	5023704
16.52193	3582128
16.53007	2155095
16.53818	1274299
16.54632	774657
16.55443	562485
16.56255	436951
16.57068	375452
16.57880	338910
16.58693	311175
16.59505	288777
16.60317	287950
16.61130	272308
16.61942	257760
16.62753	251751
16.63567	243747
16.64378	218899
16.65192	205208
16.66003	184609
16.66815	174754
16.67628	173732
16.68440	173541
16.69253	160008
16.70065	154512
16.70877	150340
16.71690	147217
16.72502	131678
16.73315	117590
16.74127	108173
16.74938	119563
16.75752	125655
16.76563	141889
16.77375	167662
16.78188	194298
16.79000	199971
16.79813	166175
16.80625	140693
16.81437	111189
16.82250	94340
16.83062	89639
16.83875	83105
16.84687	83295
16.85498	82410
16.86312	75046
16.87123	72471
16.87937	75417
16.88748	74128
16.89560	77779
16.90373	71392
16.91185	67155
16.91997	70536
16.92810	71017
16.93622	75895
16.94435	78134
16.95247	78945
16.96058	75437
16.96872	73010
16.97683	76318
16.98497	72155
16.99308	81166
17.00120	77198
17.00933	83132
17.01745	84476
17.02557	86199
17.03370	95765
17.04182	102045
17.04995	112745
17.05807	137369
17.06618	167590
17.07432	185582
17.08243	170003
17.09057	157014
17.09868	131382
17.10680	111500
17.11493	105738
17.12305	101868
17.13118	109848
17.13930	120660
17.14742	130965
17.15555	136904
17.16367	143249
17.17178	132349
17.17992	126425
17.18803	127195
17.19617	111181
17.20428	97363
17.21240	95776
17.22053	84789
17.22865	78858
17.23678	78857
17.24490	82346
17.25302	88023
17.26115	88741
17.26927	97518
17.27740	97299
17.28552	88641
17.29363	84959
17.30177	77720
17.30988	79220
17.31800	84471
17.32613	101075
17.33425	135493
17.34238	188877
17.35050	257026
17.35862	290261
17.36675	316941
17.37487	319543
17.38300	285389
17.39112	260938
17.39923	242220
17.40737	233913
17.41548	230670
17.42360	236810
17.43173	241941
17.43985	256950
17.44798	260474
17.45610	247749
17.46422	215907
17.47235	198438
17.48047	171517
17.48860	150655
17.49672	141056
17.50483	127894
17.51297	125448
17.52108	121244
17.52922	113497
17.53733	117813
17.54545	119556
17.55358	116895
17.56170	125361
17.56982	174553
17.57795	310377
17.58607	650549
17.59420	1364898
17.60232	2478132
17.61043	3874662
17.61857	5048648
17.62668	5381925
17.63482	4840742
17.64293	3769270
17.65105	2597705
17.65918	1627538
17.66730	977282
17.67542	589511
17.68355	417001
17.69167	327733
17.69980	279969
17.70792	261252
17.71603	249409
17.72417	245967
17.73228	243319
17.74042	257155
17.74853	258650
17.75665	256447
17.76478	245540
17.77290	228367
17.78103	210801
17.78915	180631
17.79727	156404
17.80540	141631
17.81352	128175
17.82163	128631
17.82977	127130
17.83788	146125
17.84602	160286
17.85413	211209
17.86225	280674
17.87038	360210
17.87850	444003
17.88663	471270
17.89475	429288
17.90287	346854
17.91100	253443
17.91912	194341
17.92725	136892
17.93537	119284
17.94348	108351
17.95162	108889
17.95973	97741
17.96785	96835
17.97598	89072
17.98410	90892
17.99223	82628
18.00035	81784
18.00847	84429
18.01660	106821
18.02472	150552
18.03285	233012
18.04097	345446
18.04908	486750
18.05722	607669
18.06533	781965
18.07345	1152203
18.08158	2107311
18.08970	3829943
18.09783	6198336
18.10595	8391390
18.11407	9302856
18.12220	8784233
18.13032	7119208
18.13845	5300978
18.14657	3787423
18.15468	2804778
18.16282	2239386
18.17093	1882891
18.17907	1587238
18.18718	1398913
18.19530	1244767
18.20343	1092916
18.21155	991538
18.21967	896622
18.22780	829659
18.23592	757876
18.24405	673763
18.25217	635022
18.26028	591593
18.26842	567307
18.27653	513530
18.28467	469812
18.29278	403515
18.30090	322147
18.30903	251456
18.31715	203012
18.32528	162304
18.33340	144846
18.34152	135300
18.34965	127947
18.35777	125667
18.36588	125410
18.37402	117119
18.38213	114612
18.39027	115063
18.39838	124816
18.40650	130914
18.41463	138862
18.42275	178878
18.43088	260247
18.43900	374043
18.44712	516789
18.45525	702142
18.46337	880414
18.47148	1102917
18.47962	1389455
18.48773	1679215
18.49587	1974303
18.50398	2014386
18.51210	1801982
18.52023	1424437
18.52835	970301
18.53648	627094
18.54460	409607
18.55272	289695
18.56085	227044
18.56897	183261
18.57710	167525
18.58522	145875
18.59333	148252
18.60147	145606
18.60958	165118
18.61770	194715
18.62583	234463
18.63395	257229
18.64208	279103
18.65020	272695
18.65832	278239
18.66645	236651
18.67457	192010
18.68270	155704
18.69082	134108
18.69893	125078
18.70707	120984
18.71518	122395
18.72332	132146
18.73143	128146
18.73955	128446
18.74768	130970
18.75580	116859
18.76392	114115
18.77205	110990
18.78017	100123
18.78830	91211
18.79642	98682
18.80453	97484
18.81267	97853
18.82078	106968
18.82892	98768
18.83703	98793
18.84515	97819
18.85328	98374
18.86140	104127
18.86952	124541
18.87765	160274
18.88577	191222
18.89390	222108
18.90202	226038
18.91013	215470
18.91827	196257
18.92638	189027
18.93452	168473
18.94263	171567
18.95075	177162
18.95888	187155
18.96700	189294
18.97513	198571
18.98325	188123
18.99137	178897
18.99950	164044
19.00762	145437
19.01573	133342
19.02387	114955
19.03198	111880
19.04012	110967
19.04823	110824
19.05635	98177
19.06448	92812
19.07260	96092
19.08073	98734
19.08885	113360
19.09697	148478
19.10510	210043
19.11322	264340
19.12133	326543
19.12947	331158
19.13758	309979
19.14572	240485
19.15383	182592
19.16195	141844
19.17008	116241
19.17820	95658
19.18633	91420
19.19445	82751
19.20257	83413
19.21070	84921
19.21882	74900
19.22695	81317
19.23507	84519
19.24318	78713
19.25132	84263
19.25943	82147
19.26755	83984
19.27568	89031
19.28380	94443
19.29193	116330
19.30005	141454
19.30817	169978
19.31630	188404
19.32442	187894
19.33255	186521
19.34067	159031
19.34878	139457
19.35692	141486
19.36503	159209
19.37317	231770
19.38128	317162
19.38940	400971
19.39753	444396
19.40565	411543
19.41377	359919
19.42190	270420
19.43002	218285
19.43815	170290
19.44627	153212
19.45438	144639
19.46252	136229
19.47063	132665
19.47877	120166
19.48688	122200
19.49500	133202
19.50313	146403
19.51125	170592
19.51937	202431
19.52750	246075
19.53562	284433
19.54375	330748
19.55187	334097
19.55998	339091
19.56812	317239
19.57623	280899
19.58437	230940
19.59248	196592
19.60060	154757
19.60873	122059
19.61685	115966
19.62498	99634
19.63310	93095
19.64122	93999
19.64935	106458
19.65747	140813
19.66558	198526
19.67372	280924
19.68183	387224
19.68997	490343
19.69808	586235
19.70620	597710
19.71433	635325
19.72245	573704
19.73058	507878
19.73870	442404
19.74682	384323
19.75495	326086
19.76307	271760
19.77120	246554
19.77932	246790
19.78743	303745
19.79557	430376
19.80368	585369
19.81180	774780
19.81993	884196
19.82805	898048
19.83618	812097
19.84430	642426
19.85242	472311
19.86055	352648
19.86867	266947
19.87680	244130
19.88492	261292
19.89303	330651
19.90117	420761
19.90928	553233
19.91740	623338
19.92553	625992
19.93365	561232
19.94178	481453
19.94990	393075
19.95802	305318
19.96615	267123
19.97427	226778
19.98240	216145
19.99052	196200
19.99863	190906
20.00677	183268
20.01488	191928
20.02302	200607
20.03113	204143
20.03925	219619
20.04738	232546
20.05550	242854
20.06362	299214
20.07175	405486
20.07987	601567
20.08800	896848
20.09612	1183690
20.10423	1343321
20.11237	1349019
20.12048	1212787
20.12862	987901
20.13673	783938
20.14485	657083
20.15298	689501
20.16110	980675
20.16922	1647704
20.17735	2916811
20.18547	4715188
20.19360	6692132
20.20172	8762208
20.20983	1.006871E+07
20.21797	1.003392E+07
20.22608	8807653
20.23422	7174901
20.24233	5435277
20.25045	4349962
20.25858	3989457
20.26670	4455621
20.27483	5348364
20.28295	6373866
20.29107	7046592
20.29920	7131642
20.30732	6441131
20.31543	5267179
20.32357	3948420
20.33168	2782494
20.33982	1876642
20.34793	1303028
20.35605	946047
20.36418	696317
20.37230	554624
20.38043	458003
20.38855	407194
20.39667	344067
20.40480	310952
20.41292	287563
20.42105	273522
20.42917	253538
20.43728	242312
20.44542	249154
20.45353	253802
20.46165	281582
20.46978	289684
20.47790	296473
20.48603	280737
20.49415	264171
20.50227	241785
20.51040	216807
20.51852	196452
20.52665	184212
20.53477	181341
20.54288	176656
20.55102	190710
20.55913	190921
20.56725	199048
20.57538	187936
20.58350	193278
20.59163	182909
20.59975	174086
20.60787	168470
20.61600	165462
20.62412	159540
20.63225	172377
20.64037	186422
20.64848	213396
20.65662	228479
20.66473	255190
20.67287	263912
20.68098	261959
20.68910	234556
20.69723	214946
20.70535	184301
20.71347	181405
20.72160	155933
20.72972	150271
20.73785	147655
20.74597	147462
20.75408	162197
20.76222	185271
20.77033	215969
20.77847	246709
20.78658	303650
20.79470	422886
20.80283	721578
20.81095	1335869
20.81908	2265858
20.82720	3317369
20.83532	3950140
20.84345	3911490
20.85157	3370552
20.85968	2496456
20.86782	1575467
20.87593	881312
20.88407	546283
20.89218	367590
20.90030	299215
20.90843	288576
20.91655	293968
20.92468	331408
20.93280	382536
20.94092	444373
20.94905	481383
20.95717	495123
20.96528	479020
20.97342	405925
20.98153	361171
20.98967	303765
20.99778	245403
21.00590	207151
21.01403	200224
21.02215	194166
21.03028	190932
21.03840	198757
21.04652	206249
21.05465	204874
21.06277	207034
21.07090	196373
21.07902	183135
21.08713	164845
21.09527	170860
21.10338	156594
21.11150	146169
21.11963	139713
21.12775	148355
21.13588	164432
21.14400	237609
21.15212	360981
21.16025	620480
21.16837	933052
21.17650	1191030
21.18462	1296737
21.19273	1214455
21.20087	976067
21.20898	712533
21.21710	502892
21.22523	384537
21.23335	306473
21.24148	254497
21.24960	232671
21.25772	202512
21.26585	183693
21.27397	164364
21.28210	152897
21.29022	155113
21.29833	140003
21.30647	142199
21.31458	136817
21.32272	134223
21.33083	136175
21.33895	134123
21.34708	135143
21.35520	135441
21.36332	138033
21.37145	137389
21.37957	138480
21.38770	148292
21.39582	165503
21.40393	208686
21.41207	255368
21.42018	312913
21.42832	364879
21.43643	385444
21.44455	374800
21.45268	334687
21.46080	293323
21.46893	269112
21.47705	231345
21.48517	219964
21.49330	197962
21.50142	189481
21.50953	164836
21.51767	148885
21.52578	142796
21.53392	137310
21.54203	139254
21.55015	130070
21.55828	127540
21.56640	131264
21.57453	129968
21.58265	143774
21.59077	155859
21.59890	183445
21.60702	211690
21.61515	230892
21.62327	225902
21.63138	212501
21.63952	202974
21.64763	205089
21.65575	236013
21.66388	275686
21.67200	320827
21.68013	355147
21.68825	407338
21.69637	433253
21.70450	427715
21.71262	384947
21.72075	324687
21.72887	261494
21.73698	213301
21.74512	171569
21.75323	162499
21.76135	138372
21.76948	138903
21.77760	139173
21.78573	139171
21.79385	134989
21.80197	151088
21.81010	146385
21.81822	157247
21.82635	159545
21.83447	168726
21.84258	180036
21.85072	182194
21.85883	203381
21.86697	217557
21.87508	231638
21.88320	226646
21.89133	214189
21.89945	204667
21.90757	186417
21.91570	177504
21.92382	167121
21.93195	166246
21.94007	153089
21.94818	137843
21.95632	129186
21.96443	120763
21.97257	117744
21.98068	101302
21.98880	96477
21.99693	93901
22.00505	95797
22.01317	102428
22.02130	106677
22.02942	116083
22.03755	129312
22.04567	149855
22.05378	148862
22.06192	164342
22.07003	161423
22.07817	159887
22.08628	154696
22.09440	149883
22.10253	126877
22.11065	131762
22.11878	117983
22.12690	120292
22.13502	107109
22.14315	101065
22.15127	94301
22.15938	96298
22.16752	92023
22.17563	91749
22.18377	93767
22.19188	96349
22.20000	91096
22.20813	89592
22.21625	96326
22.22438	90374
22.23250	97886
22.24062	103514
22.24875	116075
22.25687	123141
22.26500	132442
22.27312	132537
22.28123	152408
22.28937	165357
22.29748	187650
22.30560	215703
22.31373	226727
22.32185	222421
22.32998	206573
22.33810	182582
22.34622	157073
22.35435	151337
22.36247	139524
22.37060	129994
22.37872	123327
22.38683	130441
22.39497	162153
22.40308	226596
22.41120	352568
22.41933	546336
22.42745	749631
22.43558	948235
22.44370	1005280
22.45182	927971
22.45995	737219
22.46807	527999
22.47620	392150
22.48432	291384
22.49243	254699
22.50057	292859
22.50868	338431
22.51682	414711
22.52493	520074
22.53305	569270
22.54118	604355
22.54930	565748
22.55742	483029
22.56555	399434
22.57367	311424
22.58180	267787
22.58992	217277
22.59803	198700
22.60617	172537
22.61428	157900
22.62242	150230
22.63053	134507
22.63865	122374
22.64678	128272
22.65490	127383
22.66303	135793
22.67115	151026
22.67927	154411
22.68740	164483
22.69552	182009
22.70363	220433
22.71177	286148
22.71988	380361
22.72802	473714
22.73613	530204
22.74425	512132
22.75238	470782
22.76050	378157
22.76863	311161
22.77675	265165
22.78487	247896
22.79300	256074
22.80112	312509
22.80923	402536
22.81737	525248
22.82548	571577
22.83362	592338
22.84173	579665
22.84985	500367
22.85798	415122
22.86610	355029
22.87423	351127
22.88235	398441
22.89047	503641
22.89860	625034
22.90672	715619
22.91485	766795
22.92297	751210
22.93108	689160
22.93922	647652
22.94733	585197
22.95545	531850
22.96358	441613
22.97170	369746
22.97983	284347
22.98795	220590
22.99607	186834
23.00420	148881
23.01232	132617
23.02045	115700
23.02857	111226
23.03668	106974
23.04482	105119
23.05293	106470
23.06105	117077
23.06918	133955
23.07730	143978
23.08543	162619
23.09355	173372
23.10167	170500
23.10980	172334
23.11792	157440
23.12605	146676
23.13417	127359
23.14228	123962
23.15042	110854
23.15853	109411
23.16667	108457
23.17478	101152
23.18290	98644
23.19103	94002
23.19915	94521
23.20727	89377
23.21540	91038
23.22352	83110
23.23165	88802
23.23977	82899
23.24788	90890
23.25602	108887
23.26413	143027
23.27227	185751
23.28038	228110
23.28850	244335
23.29663	240778
23.30475	213253
23.31288	174626
23.32100	144262
23.32912	132024
23.33725	140847
23.34537	172587
23.35348	238224
23.36162	333034
23.36973	471689
23.37787	596634
23.38598	654972
23.39410	640028
23.40223	543742
23.41035	445930
23.41848	328912
23.42660	234199
23.43472	176573
23.44285	136527
23.45097	117211
23.45908	103884
23.46722	97624
23.47533	88460
23.48347	87275
23.49158	90262
23.49970	85497
23.50783	83676
23.51595	84607
23.52408	86609
23.53220	87813
23.54032	92784
23.54845	104828
23.55657	121053
23.56470	146715
23.57282	190548
23.58093	282399
23.58907	425812
23.59718	650408
23.60530	906904
23.61343	1101372
23.62155	1271075
23.62968	1211232
23.63780	1009706
23.64592	741811
23.65405	502427
23.66217	340846
23.67030	239786
23.67842	200387
23.68653	176113
23.69467	151189
23.70278	143000
23.71092	123670
23.71903	129019
23.72715	125858
23.73528	116394
23.74340	108976
23.75152	103170
23.75965	103490
23.76777	122150
23.77590	200993
23.78402	384735
23.79213	697604
23.80027	1165692
23.80838	1594663
23.81652	1826697
23.82463	1760982
23.83275	1447469
23.84088	1192003
23.84900	877338
23.85712	662205
23.86525	526415
23.87337	416360
23.88150	360413
23.88962	308261
23.89773	302297
23.90587	329154
23.91398	391203
23.92212	477404
23.93023	584239
23.93835	655248
23.94648	618903
23.95460	534857
23.96273	416229
23.97085	319923
23.97897	251033
23.98710	220957
23.99522	192008
24.00333	183723
24.01147	174098
24.01958	174427
24.02772	170427
24.03583	184007
24.04395	191470
24.05208	188828
24.06020	188246
24.06833	166098
24.07645	157853
24.08457	142551
24.09270	130936
24.10082	123402
24.10895	114898
24.11707	123735
24.12518	123764
24.13332	135989
24.14143	166511
24.14955	219253
24.15768	291663
24.16580	387020
24.17393	453438
24.18205	491779
24.19017	478175
24.19830	452183
24.20642	427584
24.21455	421433
24.22267	401821
24.23078	363047
24.23892	315438
24.24703	259739
24.25515	221794
24.26328	196136
24.27140	176803
24.27953	150182
24.28765	150228
24.29577	136078
24.30390	142839
24.31202	132031
24.32015	148414
24.32827	154597
24.33638	163543
24.34452	168756
24.35263	171110
24.36077	160980
24.36888	147562
24.37700	128718
24.38513	124323
24.39325	112814
24.40137	117118
24.40950	121589
24.41762	129894
24.42575	153064
24.43387	162549
24.44198	161049
24.45012	154481
24.45823	142477
24.46637	128694
24.47448	118905
24.48260	125147
24.49073	129168
24.49885	130675
24.50697	140029
24.51510	146301
24.52322	153160
24.53135	166481
24.53947	187540
24.54758	236151
24.55572	314304
24.56383	376932
24.57197	472382
24.58008	517487
24.58820	489580
24.59633	442774
24.60445	377998
24.61258	319951
24.62070	266340
24.62882	228781
24.63695	187909
24.64507	159558
24.65318	146862
24.66132	145463
24.66943	143523
24.67757	132207
24.68568	147728
24.69380	134726
24.70193	136907
24.71005	126532
24.71818	133452
24.72630	134377
24.73442	127026
24.74255	125892
24.75067	129519
24.75880	132447
24.76692	131211
24.77503	138735
24.78317	151155
24.79128	164177
24.79940	185187
24.80753	199818
24.81565	208963
24.82378	216101
24.83190	215559
24.84002	252597
24.84815	318159
24.85627	431881
24.86440	617243
24.87252	881514
24.88063	1270143
24.88877	1762112
24.89688	2356389
24.90500	2910019
24.91313	3181775
24.92125	3073515
24.92938	2529069
24.93750	1791786
24.94562	1185755
24.95375	694165
24.96187	414362
24.97000	283667
24.97812	190762
24.98623	160338
24.99437	143988
25.00248	135223
25.01062	119373
25.01873	124676
25.02685	122118
25.03498	114328
25.04310	119614
25.05122	114242
25.05935	114182
25.06747	115609
25.07560	116335
25.08372	119183
25.09183	127510
25.09997	140582
25.10808	230962
25.11622	478274
25.12433	1147092
25.13245	2683981
25.14058	5500345
25.14870	9489028
25.15683	1.403111E+07
25.16495	1.740146E+07
25.17307	1.83262E+07
25.18120	1.622592E+07
25.18932	1.213818E+07
25.19743	7849395
25.20557	4489969
25.21368	2422033
25.22182	1307299
25.22993	712481
25.23805	458022
25.24618	365128
25.25430	400692
25.26243	503198
25.27055	706418
25.27867	913207
25.28680	1075215
25.29492	1109556
25.30303	1018754
25.31117	849133
25.31928	619451
25.32742	418936
25.33553	297508
25.34365	208158
25.35178	178996
25.35990	159626
25.36803	145285
25.37615	137541
25.38427	130270
25.39240	119371
25.40052	113098
25.40865	109963
25.41677	106180
25.42488	100028
25.43302	109355
25.44113	97725
25.44925	107397
25.45738	104135
25.46550	110000
25.47363	116843
25.48175	113425
25.48987	112207
25.49800	117171
25.50612	124723
25.51425	127589
25.52237	119983
25.53048	118635
25.53862	114675
25.54673	103107
25.55485	104358
25.56298	94868
25.57110	92482
25.57923	95823
25.58735	97415
25.59547	110813
25.60360	105263
25.61172	104811
25.61985	100780
25.62797	100023
25.63608	99803
25.64422	86926
25.65233	91387
25.66047	93549
25.66858	98798
25.67670	106623
25.68483	125612
25.69295	146311
25.70107	169839
25.70920	195540
25.71732	205680
25.72545	201607
25.73357	182701
25.74168	164051
25.74982	141875
25.75793	134355
25.76607	123215
25.77418	114245
25.78230	99716
25.79043	94325
25.79855	91068
25.80668	87080
25.81480	88701
25.82292	91553
25.83105	97393
25.83917	97759
25.84728	93625
25.85542	101417
25.86353	102330
25.87167	109671
25.87978	104736
25.88790	111582
25.89603	104539
25.90415	105267
25.91228	113802
25.92040	112177
25.92852	108179
25.93665	111235
25.94477	102556
25.95290	105061
25.96102	109126
25.96913	119180
25.97727	124020
25.98538	117600
25.99350	117329
26.00163	106753
26.00975	107003
26.01788	96419
26.02600	93538
26.03412	91071
26.04225	90815
26.05037	90582
26.05850	86805
26.06662	95944
26.07473	99947
26.08287	118321
26.09098	127339
26.09910	135519
26.10723	152410
26.11535	149647
26.12348	152089
26.13160	139564
26.13972	138091
26.14785	126748
26.15597	140605
26.16410	141136
26.17222	150677
26.18033	163227
26.18847	168549
26.19658	182657
26.20472	168483
26.21283	154251
26.22095	146414
26.22908	129431
26.23720	120415
26.24532	123686
26.25345	112743
26.26157	110126
26.26970	95877
26.27782	97554
26.28593	89572
26.29407	93471
26.30218	83186
26.31032	94132
26.31843	88370
26.32655	89787
26.33468	87625
26.34280	89802
26.35092	106385
26.35905	160443
26.36717	322747
26.37530	615790
26.38342	1176351
26.39153	2028059
26.39967	3094722
26.40778	3971700
26.41592	4473110
26.42403	4355653
26.43215	3833087
26.44028	2897285
26.44840	2075140
26.45653	1327758
26.46465	810604
26.47277	512026
26.48090	359066
26.48902	255562
26.49713	205345
26.50527	175461
26.51338	155716
26.52152	136069
26.52963	120295
26.53775	106846
26.54588	97698
26.55400	90699
26.56213	83094
26.57025	85440
26.57837	80986
26.58650	86225
26.59462	85849
26.60275	84295
26.61087	89216
26.61898	92605
26.62712	95242
26.63523	90653
26.64335	87084
26.65148	90609
26.65960	88540
26.66773	84849
26.67585	86714
26.68397	84138
26.69210	77750
26.70022	80396
26.70835	71795
26.71647	80511
26.72458	81916
26.73272	82919
26.74083	85802
26.74895	91111
26.75708	91224
26.76520	92362
26.77333	95356
26.78145	100165
26.78957	100236
26.79770	99296
26.80582	106129
26.81395	113593
26.82207	118266
26.83018	137674
26.83832	161609
26.84643	189617
26.85457	195419
26.86268	198462
26.87080	194102
26.87893	205451
26.88705	202537
26.89517	211323
26.90330	218243
26.91142	213497
26.91955	221045
26.92767	208707
26.93578	212489
26.94392	201232
26.95203	200776
26.96017	205773
26.96828	211813
26.97640	220521
26.98453	238381
26.99265	265748
27.00078	308006
27.00890	387044
27.01702	497407
27.02515	648588
27.03327	781972
27.04138	862751
27.04952	882779
27.05763	829361
27.06577	703912
27.07388	588288
27.08200	495132
27.09013	411028
27.09825	369654
27.10638	350061
27.11450	338245
27.12262	329049
27.13075	307027
27.13887	305338
27.14698	296699
27.15512	296465
27.16323	288178
27.17137	301890
27.17948	337896
27.18760	417077
27.19573	505783
27.20385	621674
27.21198	699510
27.22010	713803
27.22822	655806
27.23635	578774
27.24447	481735
27.25260	398656
27.26072	334678
27.26883	296148
27.27697	265059
27.28508	247713
27.29320	239650
27.30133	228299
27.30945	221914
27.31758	228762
27.32570	238206
27.33382	249225
27.34195	251047
27.35007	257999
27.35820	257104
27.36632	256470
27.37443	264165
27.38257	256568
27.39068	249672
27.39880	250445
27.40693	244577
27.41505	234076
27.42318	228170
27.43130	235741
27.43942	232476
27.44755	233800
27.45567	227377
27.46380	222156
27.47192	219434
27.48003	203462
27.48817	202563
27.49628	190035
27.50442	184685
27.51253	181978
27.52065	183399
27.52878	184628
27.53690	184305
27.54502	190399
27.55315	186977
27.56127	186761
27.56940	188316
27.57752	195116
27.58563	218187
27.59377	264565
27.60188	322249
27.61002	370309
27.61813	386041
27.62625	399877
27.63438	370838
27.64250	338612
27.65063	298972
27.65875	273995
27.66687	252923
27.67500	239146
27.68312	243079
27.69123	249350
27.69937	260544
27.70748	279934
27.71562	296849
27.72373	282098
27.73185	272737
27.73998	227294
27.74810	204125
27.75623	177371
27.76435	162632
27.77247	159471
27.78060	166676
27.78872	176830
27.79683	191759
27.80497	210161
27.81308	217732
27.82122	210838
27.82933	201813
27.83745	172895
27.84558	171135
27.85370	158850
27.86183	149332
27.86995	138371
27.87807	139039
27.88620	128747
27.89432	132600
27.90245	135715
27.91057	135911
27.91868	141224
27.92682	150559
27.93493	143971
27.94305	140217
27.95118	139268
27.95930	143167
27.96743	138123
27.97555	133950
27.98367	131778
27.99180	131437
27.99992	142984
28.00805	143011
28.01617	161164
28.02428	193614
28.03242	225905
28.04053	307072
28.04867	386985
28.05678	499652
28.06490	595512
28.07303	641824
28.08115	613960
28.08927	514956
28.09740	387466
28.10552	272897
28.11365	204715
28.12177	168341
28.12988	141579
28.13802	137051
28.14613	129650
28.15427	125889
28.16238	127756
28.17050	120149
28.17863	123882
28.18675	122189
28.19487	134220
28.20300	156402
28.21112	186715
28.21925	228712
28.22737	294986
28.23548	333967
28.24362	353723
28.25173	355473
28.25987	333729
28.26798	271267
28.27610	213111
28.28423	173884
28.29235	145751
28.30048	142624
28.30860	147851
28.31672	180869
28.32485	229956
28.33297	276075
28.34108	314661
28.34922	337856
28.35733	319494
28.36547	287075
28.37358	256249
28.38170	244266
28.38983	235463
28.39795	235451
28.40608	240720
28.41420	252706
28.42232	238976
28.43045	247970
28.43857	236788
28.44668	216390
28.45482	200030
28.46293	186197
28.47107	174496
28.47918	174327
28.48730	184794
28.49543	203407
28.50355	242742
28.51168	282367
28.51980	323045
28.52792	355505
28.53605	346067
28.54417	311088
28.55230	269069
28.56042	200610
28.56853	159676
28.57667	132699
28.58478	121051
28.59290	111744
28.60103	113965
28.60915	113952
28.61728	116406
28.62540	131254
28.63352	150812
28.64165	168407
28.64977	188977
28.65790	197117
28.66602	204827
28.67413	193122
28.68227	174785
28.69038	157481
28.69852	141481
28.70663	126387
28.71475	117109
28.72288	106726
28.73100	108321
28.73912	98799
28.74725	96026
28.75537	106074
28.76350	101138
28.77162	101999
28.77973	109529
28.78787	115615
28.79598	132621
28.80412	139045
28.81223	163339
28.82035	166335
28.82848	193455
28.83660	193970
28.84472	165372
28.85285	158114
28.86097	146078
28.86910	138915
28.87722	137371
28.88533	150600
28.89347	159294
28.90158	195296
28.90972	226142
28.91783	268335
28.92595	271887
28.93408	260807
28.94220	220808
28.95033	191777
28.95845	175729
28.96657	151586
28.97470	147711
28.98282	131216
28.99093	117098
28.99907	118351
29.00718	112457
29.01532	107674
29.02343	104787
29.03155	105794
29.03968	105918
29.04780	102204
29.05593	110007
29.06405	96339
29.07217	104987
29.08030	104096
29.08842	104913
29.09655	116023
29.10467	124010
29.11278	122230
29.12092	118563
29.12903	117636
29.13715	116928
29.14528	95578
29.15340	97143
29.16153	87238
29.16965	90207
29.17777	88594
29.18590	93971
29.19402	114469
29.20215	134131
29.21027	187930
29.21838	258813
29.22652	349244
29.23463	401551
29.24275	418729
29.25088	401719
29.25900	372760
29.26713	337447
29.27525	313166
29.28337	298136
29.29150	265299
29.29962	214908
29.30775	184539
29.31587	149603
29.32398	121299
29.33212	113124
29.34023	98486
29.34837	92998
29.35648	86500
29.36460	94447
29.37273	88726
29.38085	88373
29.38897	88724
29.39710	90879
29.40522	96058
29.41335	102220
29.42147	106687
29.42958	109907
29.43772	117847
29.44583	115693
29.45397	109833
29.46208	102719
29.47020	100572
29.47833	101789
29.48645	99258
29.49458	92745
29.50270	93836
29.51082	96161
29.51895	104258
29.52707	103473
29.53518	104498
29.54332	102246
29.55143	102843
29.55957	98519
29.56768	99788
29.57580	89330
29.58393	87837
29.59205	87082
29.60018	83106
29.60830	85867
29.61642	80438
29.62455	87041
29.63267	84541
29.64078	87408
29.64892	87554
29.65703	84737
29.66517	87940
29.67328	85892
29.68140	86363
29.68953	97654
29.69765	110885
29.70578	129299
29.71390	142248
29.72202	149030
29.73015	138357
29.73827	134673
29.74640	118790
29.75452	110766
29.76263	97403
29.77077	95992
29.77888	89816
29.78700	85094
29.79513	86050
29.80325	81747
29.81138	86108
29.81950	77310
29.82762	75588
29.83575	82098
29.84387	75339
29.85200	78798
29.86012	79105
29.86823	85233
29.87637	84641
29.88448	98311
29.89260	120874
29.90073	153673
29.90885	198180
29.91698	241464
29.92510	257799
29.93322	248228
29.94135	209732
29.94947	170465
29.95760	138184
29.96572	115253
29.97383	100008
29.98197	97159
29.99008	98384
29.99822	102971
30.00633	104589
30.01445	116441
30.02258	123177
30.03070	131617
30.03882	136313
30.04695	134593
30.05507	131907
30.06320	142211
30.07132	135318
30.07943	139928
30.08757	131678
30.09568	128024
30.10382	139556
30.11193	131402
30.12005	133207
30.12818	122295
30.13630	117110
30.14443	118047
30.15255	118755
30.16067	116976
30.16880	115308
30.17692	118367
30.18503	122774
30.19317	135380
30.20128	149606
30.20942	174737
30.21753	184860
30.22565	189736
30.23378	178836
30.24190	177896
30.25003	154056
30.25815	126473
30.26627	116044
30.27440	102564
30.28252	87918
30.29063	91967
30.29877	91171
30.30688	87944
30.31502	83502
30.32313	87085
30.33125	84843
30.33938	85646
30.34750	88080
30.35563	90928
30.36375	90516
30.37187	96561
30.38000	97876
30.38812	95092
30.39625	87444
30.40437	87187
30.41248	79319
30.42062	82728
30.42873	81077
30.43685	77847
30.44498	73912
30.45310	81241
30.46123	74765
30.46935	78823
30.47747	81098
30.48560	84548
30.49372	86073
30.50185	93306
30.50997	101528
30.51808	98307
30.52622	99399
30.53433	100215
30.54247	92066
30.55058	94016
30.55870	87495
30.56683	89259
30.57495	89197
30.58307	93730
30.59120	101502
30.59932	99197
30.60745	105036
30.61557	100985
30.62368	102420
30.63182	96249
30.63993	100316
30.64807	100153
30.65618	91389
30.66430	90533
30.67243	88760
30.68055	87894
30.68867	86071
30.69680	81417
30.70492	74485
30.71305	76697
30.72117	82104
30.72928	86483
30.73742	75563
30.74553	79005
30.75367	84030
30.76178	83268
30.76990	83192
30.77803	87620
30.78615	94676
30.79428	118144
30.80240	155498
30.81052	221620
30.81865	297975
30.82677	375012
30.83488	386788
30.84302	348851
30.85113	289918
30.85927	232837
30.86738	182452
30.87550	155579
30.88363	142096
30.89175	145569
30.89988	147134
30.90800	152519
30.91612	155790
30.92425	135558
30.93237	129561
30.94048	109553
30.94862	102052
30.95673	100885
30.96487	96755
30.97298	106274
30.98110	108082
30.98923	107647
30.99735	103094
31.00548	103190
31.01360	94806
31.02172	92929
31.02985	86668
31.03797	90273
31.04610	88495
31.05422	92669
31.06233	94176
31.07047	90476
31.07858	93520
31.08670	93806
31.09483	99561
31.10295	110889
31.11108	128816
31.11920	150046
31.12732	157226
31.13545	166504
31.14357	153236
31.15170	144024
31.15982	134127
31.16793	133721
31.17607	132408
31.18418	134996
31.19232	139729
31.20043	135845
31.20855	139998
31.21668	145240
31.22480	162189
31.23292	179827
31.24105	190161
31.24917	188491
31.25730	178700
31.26542	156124
31.27353	129118
31.28167	116012
31.28978	96732
31.29792	95715
31.30603	91967
31.31415	88812
31.32228	92446
31.33040	98123
31.33853	104718
31.34665	117541
31.35477	133982
31.36290	132924
31.37102	123254
31.37913	118716
31.38727	108281
31.39538	100917
31.40352	97300
31.41163	90022
31.41975	89316
31.42788	88399
31.43600	86562
31.44413	87136
31.45225	90156
31.46037	86019
31.46850	92662
31.47662	90135
31.48473	92488
31.49287	99151
31.50098	108200
31.50912	123469
31.51723	130309
31.52535	147011
31.53348	169336
31.54160	189692
31.54973	195445
31.55785	200283
31.56597	188192
31.57410	173478
31.58222	156485
31.59035	135419
31.59847	129676
31.60658	112027
31.61472	106538
31.62283	98009
31.63095	94978
31.63908	94534
31.64720	103037
31.65533	95739
31.66345	112896
31.67157	121471
31.67970	126437
31.68782	144704
31.69595	151313
31.70407	141901
31.71218	143662
31.72032	127315
31.72843	121087
31.73655	104713
31.74468	91852
31.75280	94883
31.76093	88479
31.76905	83024
31.77717	77253
31.78530	85681
31.79342	83711
31.80155	87030
31.80967	86473
31.81778	83832
31.82592	91478
31.83403	91701
31.84217	84749
31.85028	79981
31.85840	89715
31.86653	88477
31.87465	92819
31.88277	98165
31.89090	99108
31.89902	98506
31.90715	108413
31.91527	96454
31.92338	93060
31.93152	89425
31.93963	93473
31.94777	98800
31.95588	102363
31.96400	93806
31.97213	104958
31.98025	114324
31.98838	126214
31.99650	137612
32.00462	151779
32.01275	177398
32.02087	200834
32.02898	215606
32.03712	223266
32.04523	220385
32.05337	199104
32.06148	172534
32.06960	155497
32.07773	139803
32.08585	120978
32.09398	113182
32.10210	111869
32.11022	112995
32.11835	115851
32.12647	108996
32.13458	105394
32.14272	102255
32.15083	102089
32.15897	95531
32.16708	93262
32.17520	92034
32.18333	99824
32.19145	95052
32.19958	98831
32.20770	95249
32.21582	100889
32.22395	103083
32.23207	96525
32.24020	98089
32.24832	103834
32.25643	100443
32.26457	103310
32.27268	101152
32.28080	114614
32.28893	108318
32.29705	118649
32.30518	119169
32.31330	118662
32.32142	122316
32.32955	112366
32.33767	116980
32.34580	106850
32.35392	115254
32.36203	127141
32.37017	119051
32.37828	128524
32.38642	121868
32.39453	121677
32.40265	113989
32.41078	104328
32.41890	102046
32.42702	101803
32.43515	97793
32.44327	105749
32.45140	94963
32.45952	93094
32.46763	97296
32.47577	94079
32.48388	84879
32.49202	85649
32.50013	85268
32.50825	86439
32.51638	86982
32.52450	88211
32.53262	83771
32.54075	85388
32.54887	92838
32.55700	90602
32.56512	85809
32.57323	95909
32.58137	93885
32.58948	95025
32.59762	92454
32.60573	94960
32.61385	95442
32.62198	95326
32.63010	90116
32.63823	99991
32.64635	94507
32.65447	93660
32.66260	93304
32.67072	98738
32.67883	105362
32.68697	99998
32.69508	110061
32.70322	111577
32.71133	112698
32.71945	113908
32.72758	109667
32.73570	110825
32.74383	105566
32.75195	106209
32.76007	102175
32.76820	91936
32.77632	91248
32.78443	91973
32.79257	91502
32.80068	95005
32.80882	92552
32.81693	88061
32.82505	94976
32.83318	97785
32.84130	103704
32.84943	102110
32.85755	98286
32.86567	98307
32.87380	99874
32.88192	100161
32.89005	93770
32.89817	105395
32.90628	116836
32.91442	120952
32.92253	129569
32.93065	125123
32.93878	119213
32.94690	116846
32.95503	109426
32.96315	102673
32.97127	96019
32.97940	101161
32.98752	128612
32.99565	157069
33.00377	217006
33.01188	296115
33.02002	372292
33.02813	400282
33.03627	378010
33.04438	323098
33.05250	252428
33.06063	191759
33.06875	169435
33.07687	182715
33.08500	210994
33.09312	253270
33.10125	333155
33.10937	397481
33.11748	470223
33.12562	509685
33.13373	496130
33.14187	436803
33.14998	359596
33.15810	282305
33.16623	234621
33.17435	213791
33.18247	190817
33.19060	169191
33.19872	155378
33.20685	125624
33.21497	111036
33.22308	112140
33.23122	119696
33.23933	114968
33.24747	130458
33.25558	118288
33.26370	116412
33.27183	114519
33.27995	115061
33.28808	110160
33.29620	111816
33.30432	113894
33.31245	116028
33.32057	115004
33.32868	122232
33.33682	117891
33.34493	124331
33.35307	127065
33.36118	140211
33.36930	154807
33.37743	166833
33.38555	175705
33.39368	170804
33.40180	154270
33.40992	141516
33.41805	114052
33.42617	105210
33.43430	100355
33.44242	88312
33.45053	93866
33.45867	92408
33.46678	85211
33.47490	88231
33.48303	89837
33.49115	91483
33.49928	93950
33.50740	95669
33.51552	104747
33.52365	113549
33.53177	114277
33.53990	118088
33.54802	127418
33.55613	132685
33.56427	145110
33.57238	155049
33.58050	173532
33.58863	173595
33.59675	150476
33.60488	133582
33.61300	119466
33.62112	100052
33.62925	95654
33.63737	103601
33.64550	105322
33.65362	114758
33.66173	118861
33.66987	129562
33.67798	128010
33.68612	136221
33.69423	122613
33.70235	115960
33.71048	103556
33.71860	101692
33.72672	95330
33.73485	87784
33.74297	91505
33.75110	94038
33.75922	89384
33.76733	88735
33.77547	87158
33.78358	87970
33.79172	86610
33.79983	83312
33.80795	87346
33.81608	89746
33.82420	83367
33.83232	83032
33.84045	87697
33.84857	94984
33.85670	87403
33.86482	90907
33.87293	91818
33.88107	99604
33.88918	101205
33.89732	101322
33.90543	105474
33.91355	110441
33.92168	103483
33.92980	105262
33.93793	100672
33.94605	94304
33.95417	96993
33.96230	94990
33.97042	91268
33.97853	84443
33.98667	87403
33.99478	91634
34.00292	94951
34.01103	91891
34.01915	88460
34.02728	90500
34.03540	92356
34.04353	88320
34.05165	91240
34.05977	93509
34.06790	89547
34.07602	92639
34.08415	97784
34.09227	99190
34.10038	95200
34.10852	93003
34.11663	97834
34.12475	97851
34.13288	94462
34.14100	100940
34.14913	95767
34.15725	93861
34.16537	101598
34.17350	90480
34.18162	92744
34.18975	96550
34.19787	92848
34.20598	88371
34.21412	93425
34.22223	91948
34.23035	93630
34.23848	91527
34.24660	86947
34.25473	89988
34.26285	90548
34.27097	83029
34.27910	84139
34.28722	84445
34.29535	93823
34.30347	83051
34.31158	86757
34.31972	94154
34.32783	88029
34.33597	87387
34.34408	82233
34.35220	87361
34.36033	87632
34.36845	94327
34.37657	94598
34.38470	90172
34.39282	92435
34.40095	85690
34.40907	90504
34.41718	90433
34.42532	92262
34.43343	90302
34.44157	94050
34.44968	87291
34.45780	89506
34.46593	90864
34.47405	91889
34.48218	89738
34.49030	92552
34.49842	95641
34.50655	86881
34.51467	85674
34.52278	94587
34.53092	92001
34.53903	93219
34.54717	108263
34.55528	118623
34.56340	136050
34.57153	144462
34.57965	155051
34.58778	159578
34.59590	157811
34.60402	154441
34.61215	139897
34.62027	131869
34.62838	121973
34.63652	116207
34.64463	107953
34.65277	108944
34.66088	102128
34.66900	96687
34.67713	103825
34.68525	102231
34.69338	100151
34.70150	98535
34.70962	100201
34.71775	99504
34.72587	94152
34.73400	95847
34.74212	97207
34.75023	96917
34.75837	101108
34.76648	102898
34.77460	103630
34.78273	117646
34.79085	118655
34.79898	118321
34.80710	125002
34.81522	121624
34.82335	115590
34.83147	105955
34.83960	108444
34.84772	104993
34.85583	98892
34.86397	99721
34.87208	104651
34.88022	109140
34.88833	99859
34.89645	95399
34.90458	102028
34.91270	94414
34.92082	96494
34.92895	90802
34.93707	101756
34.94520	97956
34.95332	100998
34.96143	106605
34.96957	112419
34.97768	117326
34.98582	132327
34.99393	133497
35.00205	126338
35.01018	130668
35.01830	120856
35.02642	113765
35.03455	108981
35.04267	101173
35.05080	99452
35.05892	97128
35.06703	99255
35.07517	94699
35.08328	102429
35.09142	100955
35.09953	93542
35.10765	100362
35.11578	97679
35.12390	102518
35.13203	94910
35.14015	98314
35.14827	100452
35.15640	104938
35.16452	106312
35.17263	105081
35.18077	114229
35.18888	110367
35.19702	107042
35.20513	104143
35.21325	100474
35.22138	100549
35.22950	100625
35.23763	101744
35.24575	96491
35.25387	96567
35.26200	96936
35.27012	100428
35.27823	100878
35.28637	103402
35.29448	107572
35.30262	101515
35.31073	111942
35.31885	102364
35.32698	108945
35.33510	105177
35.34323	99610
35.35135	101682
35.35947	98650
35.36760	94578
35.37572	93820
35.38385	94311
35.39197	100630
35.40008	108003
35.40822	106145
35.41633	124355
35.42445	136267
35.43258	162556
35.44070	180095
35.44883	193574
35.45695	193863
35.46507	184311
35.47320	164452
35.48132	141239
35.48945	131258
35.49757	130553
35.50568	128853
35.51382	117044
35.52193	124314
35.53007	121725
35.53818	114528
35.54630	112517
35.55443	111567
35.56255	107979
35.57067	108873
35.57880	102318
35.58692	104455
35.59505	99472
35.60317	102908
35.61128	99420
35.61942	98970
35.62753	103983
35.63567	99264
35.64378	104486
35.65190	102319
35.66003	102706
35.66815	99068
35.67627	99219
35.68440	100319
35.69252	103051
35.70065	97235
35.70877	106296
35.71688	107108
35.72502	105110
35.73313	115283
35.74127	112803
35.74938	120251
35.75750	138036
35.76563	163400
35.77375	200398
35.78188	227327
35.79000	242896
35.79812	249779
35.80625	222737
35.81437	189802
35.82248	169721
35.83062	139469
35.83873	123475
35.84687	114846
35.85498	109098
35.86310	111610
35.87123	115752
35.87935	108201
35.88748	108301
35.89560	116183
35.90372	107546
35.91185	107759
35.91997	109107
35.92810	101996
35.93622	101250
35.94433	104632
35.95247	117029
35.96058	100584
35.96870	99440
35.97683	104560
35.98495	101656
35.99308	108088
36.00120	104518
36.00932	107969
36.01745	107891
36.02557	107875
36.03370	112720
36.04182	111947
36.04993	117693
36.05807	115270
36.06618	113549
36.07430	108425
36.08243	105865
36.09055	109295
36.09868	108413
36.10680	105187
36.11492	110166
36.12305	119042
36.13117	115552
36.13930	127744
36.14742	140447
36.15553	150321
36.16367	159006
36.17178	161706
36.17992	156465
36.18803	155949
36.19615	143654
36.20428	131592
36.21240	118355
36.22052	121383
36.22865	111409
36.23677	114310
36.24490	111434
36.25302	110685
36.26113	113368
36.26927	114801
36.27738	111432
36.28552	114713
36.29363	110005
36.30175	113222
36.30988	114717
36.31800	117834
36.32612	118871
36.33425	125233
36.34237	126224
36.35050	130511
36.35862	133462
36.36673	134299
36.37487	130530
36.38298	123130
36.39112	119208
36.39923	118951
36.40735	125660
36.41548	118142
36.42360	127035
36.43173	128342
36.43985	129471
36.44797	122315
36.45610	121419
36.46422	126454
36.47233	126445
36.48047	114578
36.48858	111518
36.49672	111249
36.50483	111959
36.51295	108120
36.52108	108597
36.52920	104351
36.53733	106266
36.54545	109641
36.55357	122334
36.56170	110878
36.56982	111316
36.57795	118952
36.58607	109804
36.59418	119085
36.60232	109779
36.61043	112333
36.61855	110749
36.62668	110161
36.63480	112735
36.64293	117088
36.65105	113534
36.65917	117514
36.66730	116307
36.67542	116077
36.68355	119955
36.69167	117930
36.69978	115594
36.70792	116988
36.71603	116160
36.72417	119715
36.73228	118264
36.74040	117212
36.74853	125427
36.75665	128281
36.76477	134720
36.77290	124987
36.78102	119398
36.78915	121324
36.79727	122046
36.80538	119056
36.81352	121984
36.82163	123024
36.82977	121200
36.83788	125609
36.84600	125169
36.85413	114512
36.86225	108029
36.87037	116692
36.87850	108597
36.88662	107629
36.89475	111086
36.90287	113261
36.91098	118697
36.91912	107761
36.92723	115665
36.93537	115592
36.94348	117397
36.95160	135379
36.95973	174595
36.96785	215041
36.97598	273625
36.98410	345531
36.99222	377846
37.00035	364228
37.00847	336489
37.01658	259618
37.02472	200305
37.03283	168777
37.04097	145280
37.04908	128539
37.05720	130125
37.06533	133289
37.07345	129016
37.08158	132776
37.08970	146414
37.09782	147387
37.10595	152568
37.11407	158624
37.12218	157240
37.13032	153556
37.13843	142532
37.14657	139388
37.15468	134490
37.16280	129661
37.17093	123071
37.17905	124879
37.18718	126788
37.19530	124067
37.20342	127210
37.21155	123294
37.21967	123213
37.22780	126354
37.23592	126647
37.24403	129565
37.25217	126876
37.26028	128475
37.26840	132823
37.27653	129565
37.28465	127607
37.29278	121777
37.30090	122643
37.30902	123304
37.31715	121243
37.32527	126285
37.33340	126190
37.34152	126358
37.34963	125303
37.35777	133112
37.36588	127613
37.37402	136527
37.38213	144053
37.39025	141309
37.39838	144222
37.40650	148283
37.41462	153013
37.42275	144673
37.43087	159091
37.43900	154783
37.44712	162904
37.45523	162974
37.46337	165968
37.47148	161903
37.47962	153635
37.48773	154323
