Z:\data\JTB-E02\BACandBLUE\JTB-E18-001-17.D Fri Mar 15 15:57:32 2019
Start of data points
2.09542	62539
2.10353	59554
2.11167	59300
2.11978	55891
2.12792	60654
2.13603	57189
2.14415	56142
2.15228	56518
2.16040	55387
2.16853	54381
2.17665	53963
2.18477	56273
2.19290	53853
2.20102	54335
2.20913	51435
2.21727	48483
2.22538	49012
2.23352	48172
2.24163	47280
2.24975	48623
2.25788	94428
2.26600	795188
2.27413	1528095
2.28225	1117489
2.29037	1073366
2.29850	725649
2.30662	527870
2.31475	439896
2.32287	379978
2.33098	340928
2.33912	309867
2.34723	284936
2.35535	271020
2.36348	240668
2.37160	238780
2.37973	230422
2.38785	209682
2.39597	203332
2.40410	181205
2.41222	185891
2.42035	180765
2.42847	172340
2.43658	168880
2.44472	159990
2.45283	177367
2.46097	223477
2.46908	243001
2.47720	252165
2.48533	208763
2.49345	178350
2.50157	174777
2.50970	162581
2.51782	156653
2.52595	155621
2.53407	149451
2.54218	160153
2.55032	314632
2.55843	467149
2.56657	551363
2.57468	521953
2.58280	357735
2.59093	281805
2.59905	249798
2.60717	231938
2.61530	220698
2.62342	216641
2.63155	207824
2.63967	187192
2.64778	187852
2.65592	189009
2.66403	181283
2.67217	169788
2.68028	166745
2.68840	167325
2.69653	161882
2.70465	156305
2.71278	156027
2.72090	159821
2.72902	159489
2.73715	156288
2.74527	149676
2.75338	152812
2.76152	147960
2.76963	144412
2.77777	147226
2.78588	153426
2.79400	157412
2.80213	152625
2.81025	149150
2.81838	148727
2.82650	142942
2.83462	139297
2.84275	135678
2.85087	140657
2.85900	137849
2.86712	137948
2.87523	129758
2.88337	131939
2.89148	128424
2.89960	130430
2.90773	126691
2.91585	126652
2.92398	125436
2.93210	128228
2.94022	126402
2.94835	124202
2.95647	122204
2.96460	119548
2.97272	128313
2.98083	124765
2.98897	124689
2.99708	118881
3.00520	120270
3.01333	123543
3.02145	120937
3.02958	117167
3.03770	116810
3.04582	114860
3.05395	111591
3.06207	109912
3.07020	107731
3.07832	118417
3.08643	160801
3.09457	445608
3.10268	1338196
3.11082	2345106
3.11893	3004866
3.12705	2730780
3.13518	1904044
3.14330	1381821
3.15142	1107215
3.15955	902367
3.16767	754677
3.17580	642318
3.18392	554452
3.19203	483459
3.20017	438357
3.20828	399699
3.21642	371652
3.22453	342884
3.23265	305647
3.24078	293554
3.24890	274004
3.25702	249190
3.26515	240049
3.27327	231928
3.28140	242626
3.28952	405004
3.29763	925417
3.30577	1833278
3.31388	2674637
3.32202	2774145
3.33013	2259331
3.33825	1586325
3.34638	1153887
3.35450	914686
3.36263	764359
3.37075	670881
3.37887	593322
3.38700	543630
3.39512	488542
3.40323	456794
3.41137	440043
3.41948	410935
3.42762	387642
3.43573	368778
3.44385	368820
3.45198	349407
3.46010	354792
3.46823	349955
3.47635	345847
3.48447	338274
3.49260	332873
3.50072	309881
3.50885	304672
3.51697	290327
3.52508	285869
3.53322	267693
3.54133	262389
3.54945	251640
3.55758	239250
3.56570	242043
3.57383	238138
3.58195	230210
3.59007	227143
3.59820	216034
3.60632	222276
3.61445	219167
3.62257	218594
3.63068	216093
3.63882	204501
3.64693	201330
3.65507	199745
3.66318	190489
3.67130	203731
3.67943	203211
3.68755	220270
3.69567	203678
3.70380	195412
3.71192	187813
3.72005	188659
3.72817	174157
3.73628	175732
3.74442	175341
3.75253	174380
3.76067	176546
3.76878	169489
3.77690	172954
3.78503	170822
3.79315	222567
3.80127	518461
3.80940	1241627
3.81752	2134575
3.82565	2608008
3.83377	2249298
3.84188	1592280
3.85002	1132076
3.85813	908935
3.86627	765896
3.87438	666746
3.88250	601592
3.89063	531727
3.89875	481234
3.90688	455358
3.91500	417546
3.92312	382221
3.93125	369101
3.93937	359923
3.94748	341591
3.95562	370208
3.96373	400812
3.97187	434867
3.97998	399958
3.98810	376330
3.99623	409264
4.00435	613647
4.01248	954773
4.02060	1164226
4.02872	1103958
4.03685	801477
4.04497	565594
4.05308	439387
4.06122	353413
4.06933	310317
4.07747	287907
4.08558	264926
4.09370	253201
4.10183	244617
4.10995	236708
4.11808	212179
4.12620	215623
4.13432	221954
4.14245	225296
4.15057	253013
4.15870	259247
4.16682	264855
4.17493	261186
4.18307	260390
4.19118	244984
4.19930	212378
4.20743	202739
4.21555	193889
4.22368	203911
4.23180	206249
4.23992	205161
4.24805	206002
4.25617	203636
4.26430	180765
4.27242	178309
4.28053	170534
4.28867	169911
4.29678	165263
4.30492	164661
4.31303	145322
4.32115	153477
4.32928	154315
4.33740	158131
4.34552	155273
4.35365	147906
4.36177	146062
4.36990	152246
4.37802	147695
4.38613	144650
4.39427	144924
4.40238	139026
4.41052	138395
4.41863	142101
4.42675	133465
4.43488	139552
4.44300	135744
4.45112	140870
4.45925	133625
4.46737	137838
4.47550	134412
4.48362	134978
4.49173	133686
4.49987	135485
4.50798	133318
4.51612	124786
4.52423	131970
4.53235	134673
4.54048	137818
4.54860	138221
4.55673	136659
4.56485	134155
4.57297	132422
4.58110	126168
4.58922	121419
4.59733	120390
4.60547	123253
4.61358	126793
4.62172	127468
4.62983	128913
4.63795	119224
4.64608	124301
4.65420	117959
4.66233	117304
4.67045	124283
4.67857	122210
4.68670	120899
4.69482	123831
4.70295	120665
4.71107	120633
4.71918	115120
4.72732	115190
4.73543	117939
4.74355	110531
4.75168	106312
4.75980	114919
4.76793	108165
4.77605	107595
4.78417	118342
4.79230	109335
4.80042	118904
4.80855	122221
4.81667	121482
4.82478	134129
4.83292	166095
4.84103	204274
4.84915	226989
4.85728	211430
4.86540	183730
4.87353	155847
4.88165	141674
4.88977	137008
4.89790	127657
4.90602	125635
4.91415	114638
4.92227	116000
4.93038	124120
4.93852	169062
4.94663	314303
4.95477	655015
4.96288	1133883
4.97100	1534704
4.97913	1592578
4.98725	1335990
4.99537	964873
5.00350	721168
5.01162	554402
5.01975	473485
5.02787	416914
5.03598	374719
5.04412	351990
5.05223	324898
5.06037	304359
5.06848	282808
5.07660	275318
5.08473	266774
5.09285	257361
5.10097	249970
5.10910	230446
5.11722	228797
5.12535	225032
5.13347	208379
5.14158	207963
5.14972	203819
5.15783	200499
5.16597	196526
5.17408	193843
5.18220	199330
5.19033	182184
5.19845	187436
5.20658	187231
5.21470	179957
5.22282	168933
5.23095	168265
5.23907	175841
5.24718	188493
5.25532	181230
5.26343	174833
5.27157	166878
5.27968	159002
5.28780	143025
5.29593	144410
5.30405	142645
5.31218	139669
5.32030	142249
5.32842	147760
5.33655	160517
5.34467	181554
5.35280	184009
5.36092	171254
5.36903	152120
5.37717	143567
5.38528	143155
5.39340	136822
5.40153	141321
5.40965	143355
5.41778	140258
5.42590	133623
5.43402	139767
5.44215	138098
5.45027	132070
5.45840	134002
5.46652	135040
5.47463	131484
5.48277	120930
5.49088	126960
5.49900	120988
5.50713	125949
5.51525	131185
5.52338	131806
5.53150	132096
5.53962	125388
5.54775	125035
5.55587	122844
5.56400	126819
5.57212	129667
5.58023	139098
5.58837	168319
5.59648	176081
5.60462	169889
5.61273	157951
5.62085	145107
5.62898	132536
5.63710	128636
5.64522	133573
5.65335	128462
5.66147	122224
5.66960	126299
5.67772	132194
5.68583	154360
5.69397	189368
5.70208	205857
5.71022	199717
5.71833	191274
5.72645	162774
5.73458	147396
5.74270	130924
5.75083	126881
5.75895	122390
5.76707	112400
5.77520	113975
5.78332	110584
5.79143	108422
5.79957	108816
5.80768	111050
5.81582	103279
5.82393	108261
5.83205	106759
5.84018	99447
5.84830	101277
5.85643	101356
5.86455	101121
5.87267	104709
5.88080	108449
5.88892	93697
5.89703	101825
5.90517	123289
5.91328	154405
5.92142	211485
5.92953	231590
5.93765	220419
5.94578	170602
5.95390	133803
5.96203	111679
5.97015	97993
5.97827	111941
5.98640	121688
5.99452	123866
6.00265	133904
6.01077	138272
6.01888	130079
6.02702	128603
6.03513	118085
6.04325	102246
6.05138	91406
6.05950	87515
6.06763	90908
6.07575	83220
6.08387	84862
6.09200	82644
6.10012	89234
6.10825	79213
6.11637	78190
6.12448	78955
6.13262	82340
6.14073	80805
6.14885	82167
6.15698	85242
6.16510	90471
6.17323	90111
6.18135	95160
6.18947	96790
6.19760	92396
6.20572	103576
6.21385	98640
6.22197	105691
6.23008	106749
6.23822	108185
6.24633	124012
6.25447	141206
6.26258	169040
6.27070	174546
6.27883	168290
6.28695	155388
6.29507	134585
6.30320	123861
6.31132	125793
6.31945	124676
6.32757	122921
6.33568	128974
6.34382	130242
6.35193	131825
6.36007	135526
6.36818	136571
6.37630	133244
6.38443	138501
6.39255	138049
6.40068	142340
6.40880	145565
6.41692	142127
6.42505	150118
6.43317	143663
6.44128	149198
6.44942	154465
6.45753	153693
6.46567	152502
6.47378	162040
6.48190	148989
6.49003	153267
6.49815	163899
6.50628	158733
6.51440	165882
6.52252	167474
6.53065	163173
6.53877	161783
6.54688	169261
6.55502	172505
6.56313	176291
6.57127	181482
6.57938	201063
6.58750	207887
6.59563	210387
6.60375	199304
6.61188	194379
6.62000	181496
6.62812	196826
6.63625	233795
6.64437	512831
6.65250	1924556
6.66062	6326683
6.66873	1.356655E+07
6.67687	1.89536E+07
6.68498	1.916256E+07
6.69310	1.483399E+07
6.70123	9370304
6.70935	5781617
6.71748	4001155
6.72560	3037195
6.73372	2483546
6.74185	2135619
6.74997	1838403
6.75810	1631198
6.76622	1440933
6.77433	1282543
6.78247	1176796
6.79058	1068189
6.79872	1039574
6.80683	955392
6.81495	876872
6.82308	818841
6.83120	759593
6.83932	714826
6.84745	687159
6.85557	671452
6.86370	616317
6.87182	570490
6.87993	529729
6.88807	496933
6.89618	470480
6.90432	446723
6.91243	422948
6.92055	397005
6.92868	389658
6.93680	360628
6.94492	348528
6.95305	337767
6.96117	318324
6.96930	317916
6.97742	326715
6.98553	323385
6.99367	308895
7.00178	278908
7.00992	237481
7.01803	220999
7.02615	181010
7.03428	155877
7.04240	128505
7.05053	129037
7.05865	159863
7.06677	228682
7.07490	308156
7.08302	348677
7.09113	348075
7.09927	346241
7.10738	332136
7.11552	318398
7.12363	311691
7.13175	312868
7.13988	293221
7.14800	293419
7.15613	286596
7.16425	274360
7.17237	271817
7.18050	275227
7.18862	258165
7.19675	249826
7.20487	239499
7.21298	244842
7.22112	255853
7.22923	267464
7.23735	376689
7.24548	612175
7.25360	930250
7.26173	1210432
7.26985	1217253
7.27797	972738
7.28610	665018
7.29422	454700
7.30235	353290
7.31047	296246
7.31858	259598
7.32672	215764
7.33483	198918
7.34295	188376
7.35108	185955
7.35920	187040
7.36733	188869
7.37545	180159
7.38357	176567
7.39170	174908
7.39982	172111
7.40795	167874
7.41607	164481
7.42418	162859
7.43232	160227
7.44043	154701
7.44857	152216
7.45668	153318
7.46480	149765
7.47293	148817
7.48105	149055
7.48917	140811
7.49730	145140
7.50542	139213
7.51355	137101
7.52167	134529
7.52978	135337
7.53792	129712
7.54603	130965
7.55417	127642
7.56228	125878
7.57040	124206
7.57853	120036
7.58665	120950
7.59477	122407
7.60290	123166
7.61102	124204
7.61915	118044
7.62727	119057
7.63538	115205
7.64352	118970
7.65163	110650
7.65977	110754
7.66788	112793
7.67600	112537
7.68413	111901
7.69225	109911
7.70038	105269
7.70850	108384
7.71662	112476
7.72475	106835
7.73287	103003
7.74098	101349
7.74912	99976
7.75723	98040
7.76537	94314
7.77348	104653
7.78160	98838
7.78973	91574
7.79785	98599
7.80598	98247
7.81410	98706
7.82222	94669
7.83035	93237
7.83847	98817
7.84660	93701
7.85472	96434
7.86283	95776
7.87097	97732
7.87908	98220
7.88720	97767
7.89533	101278
7.90345	95021
7.91158	97718
7.91970	97732
7.92782	125106
7.93595	157764
7.94407	220571
7.95220	271778
7.96032	283271
7.96843	254359
7.97657	189889
7.98468	142327
7.99280	115208
8.00093	100808
8.00905	95160
8.01718	86544
8.02530	86025
8.03342	85971
8.04155	80142
8.04967	82459
8.05780	79010
8.06592	80075
8.07403	77956
8.08217	75332
8.09028	76348
8.09842	75894
8.10653	77573
8.11465	75272
8.12278	77896
8.13090	76528
8.13902	72572
8.14715	80279
8.15527	74025
8.16340	72828
8.17152	74157
8.17963	72036
8.18777	69977
8.19588	76395
8.20402	70724
8.21213	73284
8.22025	69213
8.22838	70901
8.23650	68477
8.24463	65483
8.25275	68894
8.26087	70462
8.26900	70060
8.27712	65486
8.28523	67136
8.29337	72344
8.30148	67065
8.30962	74574
8.31773	72067
8.32585	69759
8.33398	64490
8.34210	65997
8.35023	66752
8.35835	63566
8.36647	67556
8.37460	71266
8.38272	68007
8.39083	70959
8.39897	57683
8.40708	56581
8.41522	48183
8.42333	48805
8.43145	46795
8.43958	47698
8.44770	55437
8.45583	63436
8.46395	67442
8.47207	72543
8.48020	69179
8.48832	63444
8.49645	57286
8.50457	55824
8.51268	53682
8.52082	48324
8.52893	52477
8.53705	58154
8.54518	82226
8.55330	136055
8.56143	202790
8.56955	243993
8.57767	233278
8.58580	186673
8.59392	129896
8.60205	92803
8.61017	76486
8.61828	69710
8.62642	61181
8.63453	61290
8.64265	63844
8.65078	59989
8.65890	56944
8.66703	57573
8.67515	52725
8.68327	54875
8.69140	55415
8.69952	61480
8.70765	56664
8.71577	56762
8.72388	54908
8.73202	50806
8.74013	53092
8.74827	51005
8.75638	67527
8.76450	141819
8.77263	295740
8.78075	566248
8.78887	896509
8.79700	1089841
8.80512	1039207
8.81325	795325
8.82137	525436
8.82948	347131
8.83762	241682
8.84573	188766
8.85387	181744
8.86198	171741
8.87010	157031
8.87823	149244
8.88635	151762
8.89448	136548
8.90260	131890
8.91072	118880
8.91885	113990
8.92697	110207
8.93508	101056
8.94322	100504
8.95133	99276
8.95947	89347
8.96758	84385
8.97570	89537
8.98383	99880
8.99195	96269
9.00008	94181
9.00820	94013
9.01632	83694
9.02445	82358
9.03257	80407
9.04070	80553
9.04882	74347
9.05693	78109
9.06507	72053
9.07318	68074
9.08130	66075
9.08943	69549
9.09755	74160
9.10568	72043
9.11380	69839
9.12192	69231
9.13005	69558
9.13817	73270
9.14630	62851
9.15442	62192
9.16253	65048
9.17067	69155
9.17878	63410
9.18690	64907
9.19503	63616
9.20315	66155
9.21128	61825
9.21940	65458
9.22752	66403
9.23565	66102
9.24377	73281
9.25190	75283
9.26002	75582
9.26813	73477
9.27627	68294
9.28438	63953
9.29252	60457
9.30063	68130
9.30875	56877
9.31688	57917
9.32500	53907
9.33312	51765
9.34125	59606
9.34937	52679
9.35750	53414
9.36562	54979
9.37373	54297
9.38187	57871
9.38998	52685
9.39812	52570
9.40623	53230
9.41435	51587
9.42248	50697
9.43060	52640
9.43872	52053
9.44685	49442
9.45497	51919
9.46310	48359
9.47122	49623
9.47933	49653
9.48747	49958
9.49558	60169
9.50372	77396
9.51183	113487
9.51995	144115
9.52808	178235
9.53620	178899
9.54433	148616
9.55245	122962
9.56057	100497
9.56870	93227
9.57682	91404
9.58493	87982
9.59307	85462
9.60118	83882
9.60932	73494
9.61743	57334
9.62555	55051
9.63368	52469
9.64180	53544
9.64993	54652
9.65805	62264
9.66617	73078
9.67430	78272
9.68242	75901
9.69055	66689
9.69867	58644
9.70678	49526
9.71492	49315
9.72303	44750
9.73115	40895
9.73928	42512
9.74740	41449
9.75553	42179
9.76365	45738
9.77177	45524
9.77990	44587
9.78802	39146
9.79615	46388
9.80427	46998
9.81238	44196
9.82052	43632
9.82863	41724
9.83675	44330
9.84488	41565
9.85300	39591
9.86113	45305
9.86925	38689
9.87737	38133
9.88550	43298
9.89362	45829
9.90175	41016
9.90987	44505
9.91798	39982
9.92612	45640
9.93423	49271
9.94237	48307
9.95048	48029
9.95860	50895
9.96673	47897
9.97485	43684
9.98297	46124
9.99110	44831
9.99922	44199
10.00735	43964
10.01547	49166
10.02358	48182
10.03172	44327
10.03983	45469
10.04797	39370
10.05608	40966
10.06420	40607
10.07233	38412
10.08045	39538
10.08858	45003
10.09670	41359
10.10482	41745
10.11295	38089
10.12107	37891
10.12918	40092
10.13732	39591
10.14543	38943
10.15357	37380
10.16168	34141
10.16980	38444
10.17793	34383
10.18605	37142
10.19418	38705
10.20230	37633
10.21042	37048
10.21855	36432
10.22667	34654
10.23478	41087
10.24292	45999
10.25103	53765
10.25917	77257
10.26728	137479
10.27540	303370
10.28353	802381
10.29165	1972698
10.29978	4051160
10.30790	6736180
10.31602	1.011561E+07
10.32415	1.474253E+07
10.33227	2.096235E+07
10.34040	2.925487E+07
10.34852	3.911756E+07
10.35663	4.983973E+07
10.36477	5.85886E+07
10.37288	6.582121E+07
10.38100	7.158342E+07
10.38913	7.671654E+07
10.39725	8.050422E+07
10.40538	8.169777E+07
10.41350	6.785763E+07
10.42162	2.731542E+07
10.42975	6060056
10.43787	2660091
10.44600	2077232
10.45412	1838134
10.46223	1656767
10.47037	1496895
10.47848	1364613
10.48660	1246636
10.49473	1174955
10.50285	1076769
10.51098	1009287
10.51910	933227
10.52722	891403
10.53535	827118
10.54347	802076
10.55160	744324
10.55972	704702
10.56783	675190
10.57597	645935
10.58408	593819
10.59222	589669
10.60033	581377
10.60845	542456
10.61658	533667
10.62470	491052
10.63282	470614
10.64095	460911
10.64907	436735
10.65720	430282
10.66532	408232
10.67343	399154
10.68157	378177
10.68968	381982
10.69782	359163
10.70593	344963
10.71405	332990
10.72218	336207
10.73030	328725
10.73843	322708
10.74655	299622
10.75467	291742
10.76280	291388
10.77092	280114
10.77903	274712
10.78717	264292
10.79528	249221
10.80342	245864
10.81153	248536
10.81965	237378
10.82778	233903
10.83590	228068
10.84403	221219
10.85215	211146
10.86027	208755
10.86840	201549
10.87652	213675
10.88463	203476
10.89277	194577
10.90088	203908
10.90902	184532
10.91713	182609
10.92525	171136
10.93338	177862
10.94150	174871
10.94963	171485
10.95775	168117
10.96587	160476
10.97400	169122
10.98212	156817
10.99025	154220
10.99837	153931
11.00648	146128
11.01462	149804
11.02273	141746
11.03085	146281
11.03898	149140
11.04710	153674
11.05523	161145
11.06335	170691
11.07147	201607
11.07960	203631
11.08772	204590
11.09585	196185
11.10397	177743
11.11208	146400
11.12022	129246
11.12833	114988
11.13647	97783
11.14458	86879
11.15270	77322
11.16083	80139
11.16895	79088
11.17707	77257
11.18520	69808
11.19332	68327
11.20145	62804
11.20957	61266
11.21768	59547
11.22582	58418
11.23393	60254
11.24207	58424
11.25018	51343
11.25830	56564
11.26643	52579
11.27455	49387
11.28267	52449
11.29080	50591
11.29892	51742
11.30705	51876
11.31517	52412
11.32328	50877
11.33142	52442
11.33953	51195
11.34767	51636
11.35578	50181
11.36390	48069
11.37203	47199
11.38015	48425
11.38828	48578
11.39640	46500
11.40452	48715
11.41265	47449
11.42077	46684
11.42888	46833
11.43702	45809
11.44513	42837
11.45327	46313
11.46138	43013
11.46950	50171
11.47763	43601
11.48575	54647
11.49388	72671
11.50200	78999
11.51012	90998
11.51825	101921
11.52637	95602
11.53448	98410
11.54262	112838
11.55073	119375
11.55887	127158
11.56698	122112
11.57510	102761
11.58323	77383
11.59135	67453
11.59948	59024
11.60760	57258
11.61572	59515
11.62385	55507
11.63197	56225
11.64010	49640
11.64822	50544
11.65633	47718
11.66447	43742
11.67258	50055
11.68070	55868
11.68883	61928
11.69695	65265
11.70508	71301
11.71320	69321
11.72132	69901
11.72945	56796
11.73757	54266
11.74570	47742
11.75382	45541
11.76193	43133
11.77007	46470
11.77818	47603
11.78632	46092
11.79443	49514
11.80255	39963
11.81068	47672
11.81880	45725
11.82692	44559
11.83505	48155
11.84317	52849
11.85130	41618
11.85942	41761
11.86753	48188
11.87567	41642
11.88378	42316
11.89192	44342
11.90003	42192
11.90815	44970
11.91628	42363
11.92440	47973
11.93252	51600
11.94065	48174
11.94877	46852
11.95690	47921
11.96502	42095
11.97313	45339
11.98127	42099
11.98938	43827
11.99752	49815
12.00563	56453
12.01375	66157
12.02188	79751
12.03000	86390
12.03813	77317
12.04625	72554
12.05437	62769
12.06250	51267
12.07062	55630
12.07873	49967
12.08687	49909
12.09498	47249
12.10312	47434
12.11123	44196
12.11935	43468
12.12748	46315
12.13560	45404
12.14373	41822
12.15185	39112
12.15997	43442
12.16810	43350
12.17622	41214
12.18435	42707
12.19247	41033
12.20058	40730
12.20872	44134
12.21683	36450
12.22495	42252
12.23308	39586
12.24120	37734
12.24933	38909
12.25745	43446
12.26557	48278
12.27370	51349
12.28182	48209
12.28995	49142
12.29807	41604
12.30618	39031
12.31432	37640
12.32243	38361
12.33055	38094
12.33868	42325
12.34680	34352
12.35493	37343
12.36305	36769
12.37117	36577
12.37930	34757
12.38742	37042
12.39555	35587
12.40367	36369
12.41178	36923
12.41992	34126
12.42803	37646
12.43617	42457
12.44428	41893
12.45240	40470
12.46053	41854
12.46865	40696
12.47677	43201
12.48490	35655
12.49302	33823
12.50115	35591
12.50927	34686
12.51738	39276
12.52552	36308
12.53363	33381
12.54177	42570
12.54988	44221
12.55800	55852
12.56613	75698
12.57425	95672
12.58238	99972
12.59050	98626
12.59862	78305
12.60675	61884
12.61487	54008
12.62298	50236
12.63112	45779
12.63923	47602
12.64737	44066
12.65548	41473
12.66360	38433
12.67173	37398
12.67985	36337
12.68798	40531
12.69610	34072
12.70422	38293
12.71235	32191
12.72047	35390
12.72858	34754
12.73672	40638
12.74483	40431
12.75297	39806
12.76108	39558
12.76920	38220
12.77733	38596
12.78545	35658
12.79358	35717
12.80170	34547
12.80982	39784
12.81795	37915
12.82607	30823
12.83420	29570
12.84232	35600
12.85043	34815
12.85857	26908
12.86668	30595
12.87480	34234
12.88293	35769
12.89105	34995
12.89918	35541
12.90730	31158
12.91542	31923
12.92355	37298
12.93167	39085
12.93980	36354
12.94792	38421
12.95603	31281
12.96417	32217
12.97228	34118
12.98040	35347
12.98853	38520
12.99665	36090
13.00478	41356
13.01290	35771
13.02102	36828
13.02915	33100
13.03727	34065
13.04540	34044
13.05352	32607
13.06163	30349
13.06977	33802
13.07788	32308
13.08602	38693
13.09413	38166
13.10225	37815
13.11038	39593
13.11850	36687
13.12662	32608
13.13475	35366
13.14287	32124
13.15100	34538
13.15912	34808
13.16723	33935
13.17537	36481
13.18348	35231
13.19162	38072
13.19973	35301
13.20785	36772
13.21598	37540
13.22410	36793
13.23223	35845
13.24035	35400
13.24847	35509
13.25660	34110
13.26472	29452
13.27283	29725
13.28097	31152
13.28908	33751
13.29722	34500
13.30533	33151
13.31345	35017
13.32158	30668
13.32970	28897
13.33783	31610
13.34595	31148
13.35407	29923
13.36220	32911
13.37032	31531
13.37843	31205
13.38657	31463
13.39468	28990
13.40282	32709
13.41093	33789
13.41905	30916
13.42718	34325
13.43530	33593
13.44343	31819
13.45155	30604
13.45967	29680
13.46780	32288
13.47592	32679
13.48405	31969
13.49217	29837
13.50028	31203
13.50842	29526
13.51653	30518
13.52465	32008
13.53278	29054
13.54090	30559
13.54903	32252
13.55715	32409
13.56527	32152
13.57340	37158
13.58152	37200
13.58965	35232
13.59777	31773
13.60588	31873
13.61402	34535
13.62213	32901
13.63027	33451
13.63838	29956
13.64650	27275
13.65463	32416
13.66275	33628
13.67087	30892
13.67900	30673
13.68712	29064
13.69525	33439
13.70337	28831
13.71148	29795
13.71962	30031
13.72773	29278
13.73587	34744
13.74398	56537
13.75210	103290
13.76023	221623
13.76835	472922
13.77647	875777
13.78460	1280295
13.79272	1531223
13.80085	1367505
13.80897	1032631
13.81708	739903
13.82522	467801
13.83333	311126
13.84147	247849
13.84958	203960
13.85770	189264
13.86583	173187
13.87395	164745
13.88208	155556
13.89020	144939
13.89832	143048
13.90645	140326
13.91457	127305
13.92268	128049
13.93082	125230
13.93893	130053
13.94707	127905
13.95518	159398
13.96330	215868
13.97143	346856
13.97955	583475
13.98768	892329
13.99580	964452
14.00392	937186
14.01205	753592
14.02017	556296
14.02828	398096
14.03642	294175
14.04453	248300
14.05267	211301
14.06078	200176
14.06890	177719
14.07703	161469
14.08515	153746
14.09328	152198
14.10140	147332
14.10952	152037
14.11765	134967
14.12577	127886
14.13390	126926
14.14202	121134
14.15013	121411
14.15827	118876
14.16638	114402
14.17450	109280
14.18263	112548
14.19075	114830
14.19888	122109
14.20700	141394
14.21512	166693
14.22325	199342
14.23137	218148
14.23950	207779
14.24762	212206
14.25573	195231
14.26387	184551
14.27198	169445
14.28012	146674
14.28823	130104
14.29635	112190
14.30448	103197
14.31260	98805
14.32072	93782
14.32885	91191
14.33697	84329
14.34510	85572
14.35322	86708
14.36133	84653
14.36947	94333
14.37758	78581
14.38572	75107
14.39383	70589
14.40195	64767
14.41008	59163
14.41820	59130
14.42633	56562
14.43445	59835
14.44257	50112
14.45070	52909
14.45882	53931
14.46693	46634
14.47507	46943
14.48318	45297
14.49132	47891
14.49943	43772
14.50755	42382
14.51568	47071
14.52380	45672
14.53193	48173
14.54005	48322
14.54817	44013
14.55630	44923
14.56442	46225
14.57253	42447
14.58067	42877
14.58878	39598
14.59692	40460
14.60503	42390
14.61315	38498
14.62128	39758
14.62940	42938
14.63753	39148
14.64565	40442
14.65377	35058
14.66190	34210
14.67002	35981
14.67815	40162
14.68627	33928
14.69438	37340
14.70252	37418
14.71063	39123
14.71875	44012
14.72688	37060
14.73500	37834
14.74313	41973
14.75125	35894
14.75937	39913
14.76750	35614
14.77562	38077
14.78375	38193
14.79187	38555
14.79998	40138
14.80812	38470
14.81623	38422
14.82435	40614
14.83248	43325
14.84060	44209
14.84873	44281
14.85685	45818
14.86497	44236
14.87310	46621
14.88122	45371
14.88935	43779
14.89747	43994
14.90558	38960
14.91372	39879
14.92183	42558
14.92997	39365
14.93808	37747
14.94620	40167
14.95433	36609
14.96245	40176
14.97057	36668
14.97870	42215
14.98682	34954
14.99495	38397
15.00307	38785
15.01118	35514
15.01932	35596
15.02743	36297
15.03557	36268
15.04368	31821
15.05180	33486
15.05993	34304
15.06805	37299
15.07618	32105
15.08430	36637
15.09242	34264
15.10055	35633
15.10867	32748
15.11678	36785
15.12492	33148
15.13303	34062
15.14117	33825
15.14928	33450
15.15740	31280
15.16553	29195
15.17365	36880
15.18178	33023
15.18990	31342
15.19802	33569
15.20615	32047
15.21427	35820
15.22238	31958
15.23052	31980
15.23863	32761
15.24677	33306
15.25488	29713
15.26300	28992
15.27113	32642
15.27925	30297
15.28738	30955
15.29550	34727
15.30362	26961
15.31175	29733
15.31987	29159
15.32800	29520
15.33612	35164
15.34423	31054
15.35237	31830
15.36048	30784
15.36860	34839
15.37673	30722
15.38485	27960
15.39298	29136
15.40110	34180
15.40922	28460
15.41735	28805
15.42547	29901
15.43360	29986
15.44172	30312
15.44983	28577
15.45797	29033
15.46608	26913
15.47422	29236
15.48233	27398
15.49045	31386
15.49858	40180
15.50670	65840
15.51482	152610
15.52295	354128
15.53107	825087
15.53920	1732090
15.54732	3091541
15.55543	4087813
15.56357	4301596
15.57168	3624806
15.57982	2608242
15.58793	1720096
15.59605	1126212
15.60418	817797
15.61230	612995
15.62042	482227
15.62855	391001
15.63667	330639
15.64480	261781
15.65292	228683
15.66103	207863
15.66917	179825
15.67728	165791
15.68542	150290
15.69353	143541
15.70165	128470
15.70978	114605
15.71790	114489
15.72603	101994
15.73415	93658
15.74227	93394
15.75040	84429
15.75852	88576
15.76663	84613
15.77477	81008
15.78288	87324
15.79102	87182
15.79913	85502
15.80725	84419
15.81538	81544
15.82350	73294
15.83163	67976
15.83975	64681
15.84787	64223
15.85600	59619
15.86412	63260
15.87223	71233
15.88037	85922
15.88848	91403
15.89662	99984
15.90473	110868
15.91285	111034
15.92098	107915
15.92910	91531
15.93723	77815
15.94535	66582
15.95347	62949
15.96160	62348
15.96972	63725
15.97785	78713
15.98597	76982
15.99408	80529
16.00222	83284
16.01033	76297
16.01845	84927
16.02658	77347
16.03470	79137
16.04283	71076
16.05095	67273
16.05907	62176
16.06720	60253
16.07532	54118
16.08345	49144
16.09157	47793
16.09968	43721
16.10782	41249
16.11593	43112
16.12407	49840
16.13218	43170
16.14030	43387
16.14843	48743
16.15655	42916
16.16467	41339
16.17280	37184
16.18092	51793
16.18905	42631
16.19717	40054
16.20528	39484
16.21342	40381
16.22153	35691
16.22967	36352
16.23778	36104
16.24590	38516
16.25403	42370
16.26215	36984
16.27027	35308
16.27840	38813
16.28652	42643
16.29465	36441
16.30277	41504
16.31088	37446
16.31902	38838
16.32713	40063
16.33527	36858
16.34338	45074
16.35150	36594
16.35963	50183
16.36775	68934
16.37588	83674
16.38400	99252
16.39212	99575
16.40025	98363
16.40837	86587
16.41648	72389
16.42462	60230
16.43273	50957
16.44087	43851
16.44898	43728
16.45710	39864
16.46523	41922
16.47335	43224
16.48148	38969
16.48960	39363
16.49772	39918
16.50585	38121
16.51397	41234
16.52210	40803
16.53022	36554
16.53833	41538
16.54647	36470
16.55458	35273
16.56270	36259
16.57083	39252
16.57895	39206
16.58708	33127
16.59520	40082
16.60332	46867
16.61145	49589
16.61957	60610
16.62770	62045
16.63582	57436
16.64393	56029
16.65207	48432
16.66018	50326
16.66830	44352
16.67643	42893
16.68455	38585
16.69268	37794
16.70080	36810
16.70892	34517
16.71705	36054
16.72517	33068
16.73330	36473
16.74142	35879
16.74953	33940
16.75767	34847
16.76578	34002
16.77392	29840
16.78203	32154
16.79015	31543
16.79828	34132
16.80640	36815
16.81452	30288
16.82265	32616
16.83077	37873
16.83890	33168
16.84702	31237
16.85513	35404
16.86327	31427
16.87138	28821
16.87952	31419
16.88763	31677
16.89575	29816
16.90388	31311
16.91200	30275
16.92013	30914
16.92825	29249
16.93637	29707
16.94450	31417
16.95262	35748
16.96073	34528
16.96887	37033
16.97698	30679
16.98512	33558
16.99323	30939
17.00135	29473
17.00948	30842
17.01760	30476
17.02573	30123
17.03385	30353
17.04197	33465
17.05010	31691
17.05822	28574
17.06633	29734
17.07447	30952
17.08258	31608
17.09072	28309
17.09883	38726
17.10695	35003
17.11508	32696
17.12320	32341
17.13133	31519
17.13945	27902
17.14757	30940
17.15570	33792
17.16382	39289
17.17195	28662
17.18007	30510
17.18818	32892
17.19632	29256
17.20443	29331
17.21255	29957
17.22068	29563
17.22880	28694
17.23693	29691
17.24505	32769
17.25317	32866
17.26130	35319
17.26942	33476
17.27755	31255
17.28567	33298
17.29378	32124
17.30192	29151
17.31003	26770
17.31815	33583
17.32628	30007
17.33440	30747
17.34253	27632
17.35065	30281
17.35877	33962
17.36690	42065
17.37502	30921
17.38315	31439
17.39127	34340
17.39938	36241
17.40752	34401
17.41563	35209
17.42377	33418
17.43188	36950
17.44000	28661
17.44813	31436
17.45625	31825
17.46437	31047
17.47250	31187
17.48062	32864
17.48875	31946
17.49687	30355
17.50498	28308
17.51312	31792
17.52123	33528
17.52937	33017
17.53748	31372
17.54560	30910
17.55373	30030
17.56185	31712
17.56998	31617
17.57810	29998
17.58622	32637
17.59435	33868
17.60247	38641
17.61058	28889
17.61872	32189
17.62683	34347
17.63497	44737
17.64308	47069
17.65120	72412
17.65933	102375
17.66745	137212
17.67558	172708
17.68370	172114
17.69182	167188
17.69995	140053
17.70807	109403
17.71618	92764
17.72432	71697
17.73243	60700
17.74057	59205
17.74868	51053
17.75680	52608
17.76493	48302
17.77305	47200
17.78118	48882
17.78930	43824
17.79742	43261
17.80555	41854
17.81367	44316
17.82180	43244
17.82992	43783
17.83803	43791
17.84617	43435
17.85428	42964
17.86240	40923
17.87053	41976
17.87865	39132
17.88678	37758
17.89490	35166
17.90302	34907
17.91115	31823
17.91927	32590
17.92740	33588
17.93552	31929
17.94363	30931
17.95177	33213
17.95988	37148
17.96802	33442
17.97613	30996
17.98425	31771
17.99238	31954
18.00050	31945
18.00862	30177
18.01675	31994
18.02487	31590
18.03300	32838
18.04112	35054
18.04923	35873
18.05737	38395
18.06548	35770
18.07362	38400
18.08173	31817
18.08985	34683
18.09798	41278
18.10610	41341
18.11422	39830
18.12235	38614
18.13047	40297
18.13860	36548
18.14672	38503
18.15483	39370
18.16297	40508
18.17108	41111
18.17922	44841
18.18733	44389
18.19545	43403
18.20358	49335
18.21170	40070
18.21983	38686
18.22795	33013
18.23607	34726
18.24420	35507
18.25232	34199
18.26043	37293
18.26857	34753
18.27668	34762
18.28482	36206
18.29293	34388
18.30105	34426
18.30918	29314
18.31730	30184
18.32543	31180
18.33355	31329
18.34167	35705
18.34980	31815
18.35792	30440
18.36603	32681
18.37417	31449
18.38228	32291
18.39042	33457
18.39853	31454
18.40665	28804
18.41478	30439
18.42290	30845
18.43103	29468
18.43915	33753
18.44727	38433
18.45540	30327
18.46352	29890
18.47165	30770
18.47977	27480
18.48788	35261
18.49602	28862
18.50413	29195
18.51225	29314
18.52038	28816
18.52850	30532
18.53663	30084
18.54475	26932
18.55287	28988
18.56100	29316
18.56912	29654
18.57725	30420
18.58537	29791
18.59348	35621
18.60162	33943
18.60973	39573
18.61787	34301
18.62598	36728
18.63410	38526
18.64223	36956
18.65035	38603
18.65847	35378
18.66660	32740
18.67472	32953
18.68285	30986
18.69097	33025
18.69908	32713
18.70722	31497
18.71533	31677
18.72347	30427
18.73158	30053
18.73970	29358
18.74783	26006
18.75595	28422
18.76407	29459
18.77220	31870
18.78032	30659
18.78845	30769
18.79657	28040
18.80468	27972
18.81282	28257
18.82093	26640
18.82907	26958
18.83718	31015
18.84530	26096
18.85343	27534
18.86155	25870
18.86968	29067
18.87780	30638
18.88592	30521
18.89405	30944
18.90217	30605
18.91028	35226
18.91842	34142
18.92653	37322
18.93467	44308
18.94278	51319
18.95090	60501
18.95903	71983
18.96715	82266
18.97528	88353
18.98340	85898
18.99152	76268
18.99965	68067
19.00777	56362
19.01590	54929
19.02402	46063
19.03213	49932
19.04027	42746
19.04838	40062
19.05650	39121
19.06463	38355
19.07275	40145
19.08088	44119
19.08900	43129
19.09712	51593
19.10525	57257
19.11337	63425
19.12150	64856
19.12962	70729
19.13773	56762
19.14587	58518
19.15398	54528
19.16210	56232
19.17023	53178
19.17835	59255
19.18648	54750
19.19460	55198
19.20272	53544
19.21085	49194
19.21897	51125
19.22710	46848
19.23522	42442
19.24333	42284
19.25147	42088
19.25958	38081
19.26772	45057
19.27583	42970
19.28395	44169
19.29208	45856
19.30020	49863
19.30832	51652
19.31645	51435
19.32457	56304
19.33270	51838
19.34082	54745
19.34893	50892
19.35707	49334
19.36518	45632
19.37332	42334
19.38143	41867
19.38955	38647
19.39768	38271
19.40580	36991
19.41392	38582
19.42205	35674
19.43017	36800
19.43830	34276
19.44642	31977
19.45453	34141
19.46267	35383
19.47078	34245
19.47892	34446
19.48703	34490
19.49515	33918
19.50328	45102
19.51140	50401
19.51953	67376
19.52765	85036
19.53577	88435
19.54390	81826
19.55202	69620
19.56013	51461
19.56827	43495
19.57638	37890
19.58452	35494
19.59263	35223
19.60075	34060
19.60888	33010
19.61700	31742
19.62513	31603
19.63325	31946
19.64137	38203
19.64950	45460
19.65762	58299
19.66575	81302
19.67387	109062
19.68198	117250
19.69012	123991
19.69823	116517
19.70635	100088
19.71448	86857
19.72260	71219
19.73073	63981
19.73885	61297
19.74697	63397
19.75510	56534
19.76322	55326
19.77135	49250
19.77947	50543
19.78758	48936
19.79572	43363
19.80383	46703
19.81197	45449
19.82008	46684
19.82820	41955
19.83633	42065
19.84445	38843
19.85257	42040
19.86070	43116
19.86882	51460
19.87695	66277
19.88507	111984
19.89318	202649
19.90132	313636
19.90943	452537
19.91757	593338
19.92568	706862
19.93380	750223
19.94193	762095
19.95005	778651
19.95817	738105
19.96630	691530
19.97442	656839
19.98255	648872
19.99067	617942
19.99878	590138
20.00692	560381
20.01503	538683
20.02317	512081
20.03128	506462
20.03940	467556
20.04753	432530
20.05565	360430
20.06378	288353
20.07190	239109
20.08002	183302
20.08815	154904
20.09627	125072
20.10438	119591
20.11252	108174
20.12063	103150
20.12877	94839
20.13688	97360
20.14500	92951
20.15313	92508
20.16125	91328
20.16938	99071
20.17750	100018
20.18562	93131
20.19375	94878
20.20187	89653
20.20998	86876
20.21812	79736
20.22623	79562
20.23437	77073
20.24248	81328
20.25060	83741
20.25873	94688
20.26685	114737
20.27498	141809
20.28310	175625
20.29122	205883
20.29935	221114
20.30747	213766
20.31560	191336
20.32372	153587
20.33183	125751
20.33997	103041
20.34808	96698
20.35620	76870
20.36433	64575
20.37245	58286
20.38058	50936
20.38870	47868
20.39682	39291
20.40495	42778
20.41307	46916
20.42120	40704
20.42932	50476
20.43743	43611
20.44557	50090
20.45368	56624
20.46182	56403
20.46993	56803
20.47805	63355
20.48618	56737
20.49430	52378
20.50242	50140
20.51055	44522
20.51867	40817
20.52680	40396
20.53492	38650
20.54303	41709
20.55117	40213
20.55928	40056
20.56742	35367
20.57553	35992
20.58365	34764
20.59178	35250
20.59990	37271
20.60802	34153
20.61615	34068
20.62427	35974
20.63240	34706
20.64052	35195
20.64863	34293
20.65677	31497
20.66488	32269
20.67302	34457
20.68113	34025
20.68925	37150
20.69738	37243
20.70550	36813
20.71363	37132
20.72175	35732
20.72987	35919
20.73800	36334
20.74612	36181
20.75423	34752
20.76237	39869
20.77048	36480
20.77862	34827
20.78673	40803
20.79485	39719
20.80298	35277
20.81110	34378
20.81923	33681
20.82735	35830
20.83547	35354
20.84360	36583
20.85172	35097
20.85985	37652
20.86797	35703
20.87608	32586
20.88422	34847
20.89233	33086
20.90045	35237
20.90858	33485
20.91670	38395
20.92483	38256
20.93295	37091
20.94107	35641
20.94920	36084
20.95732	32331
20.96545	34991
20.97357	35427
20.98168	35311
20.98982	34213
20.99793	30837
21.00605	31661
21.01418	34187
21.02230	31234
21.03043	34367
21.03855	36043
21.04667	35878
21.05480	31280
21.06292	32341
21.07105	36717
21.07917	33661
21.08728	33948
21.09542	33631
21.10353	34193
21.11167	34182
21.11978	32559
21.12790	38420
21.13603	36754
21.14415	39648
21.15227	42368
21.16040	42970
21.16852	45116
21.17665	42338
21.18477	41344
21.19288	42878
21.20102	35247
21.20913	39389
21.21727	36696
21.22538	36850
21.23350	37085
21.24163	36893
21.24975	38129
21.25787	35347
21.26600	36385
21.27412	36730
21.28225	34788
21.29037	37714
21.29848	38141
21.30662	35376
21.31473	38705
21.32287	38249
21.33098	34333
21.33910	35696
21.34723	37283
21.35535	37059
21.36348	33050
21.37160	35547
21.37972	38232
21.38785	34604
21.39597	38526
21.40408	40219
21.41222	37156
21.42033	34307
21.42847	39240
21.43658	38087
21.44470	40006
21.45283	34028
21.46095	35233
21.46908	33165
21.47720	37233
21.48532	37382
21.49345	34035
21.50157	36148
21.50970	35504
21.51782	35428
21.52593	31671
21.53407	35126
21.54218	37897
21.55030	33817
21.55843	34166
21.56655	35261
21.57468	33505
21.58280	33493
21.59092	36186
21.59905	31766
21.60717	30549
21.61530	31199
21.62342	35987
21.63153	38246
21.63967	46699
21.64778	52015
21.65590	58538
21.66403	57201
21.67215	54661
21.68028	49711
21.68840	49790
21.69652	41112
21.70465	39711
21.71277	37385
21.72090	37580
21.72902	38120
21.73713	36804
21.74527	34442
21.75338	36522
21.76152	35629
21.76963	34286
21.77775	36539
21.78588	36510
21.79400	35264
21.80212	39490
21.81025	36506
21.81837	36208
21.82650	41820
21.83462	49250
21.84273	55692
21.85087	57536
21.85898	63208
21.86712	64642
21.87523	63911
21.88335	57971
21.89148	46303
21.89960	45769
21.90773	42462
21.91585	39448
21.92397	36446
21.93210	40470
21.94022	33671
21.94833	34919
21.95647	32880
21.96458	30356
21.97272	30478
21.98083	29864
21.98895	32315
21.99708	30506
22.00520	30219
22.01333	36516
22.02145	31115
22.02957	30897
22.03770	30800
22.04582	29558
22.05393	32658
22.06207	32135
22.07018	29500
22.07832	29038
22.08643	28243
22.09455	31601
22.10268	30052
22.11080	29421
22.11893	32762
22.12705	31126
22.13517	32764
22.14330	29309
22.15142	31958
22.15955	30340
22.16767	36740
22.17578	34454
22.18392	33614
22.19203	34138
22.20015	31761
22.20828	28807
22.21640	34990
22.22453	36948
22.23265	35299
22.24077	36087
22.24890	33042
22.25702	35764
22.26515	39163
22.27327	36249
22.28138	48114
22.28952	55857
22.29763	69167
22.30577	85715
22.31388	93180
22.32200	115531
22.33013	120650
22.33825	134696
22.34637	135800
22.35450	124707
22.36262	106961
22.37075	95730
22.37887	78037
22.38698	72808
22.39512	63587
22.40323	55258
22.41137	53313
22.41948	51323
22.42760	49361
22.43573	45081
22.44385	47773
22.45197	39148
22.46010	35992
22.46822	34652
22.47635	38200
22.48447	36255
22.49258	34741
22.50072	36609
22.50883	36419
22.51697	33388
22.52508	29843
22.53320	33666
22.54133	37927
22.54945	33227
22.55758	34147
22.56570	34574
22.57382	36547
22.58195	33348
22.59007	35560
22.59818	33186
22.60632	32109
22.61443	34059
22.62257	29541
22.63068	31532
22.63880	29292
22.64693	31580
22.65505	29581
22.66318	35072
22.67130	33018
22.67942	35872
22.68755	42080
22.69567	41044
22.70378	42162
22.71192	38570
22.72003	38318
22.72817	40537
22.73628	35193
22.74440	38000
22.75253	33324
22.76065	33523
22.76878	38172
22.77690	33711
22.78502	27734
22.79315	34404
22.80127	28001
22.80940	29975
22.81752	29635
22.82563	31070
22.83377	28630
22.84188	31361
22.85000	30753
22.85813	31307
22.86625	27680
22.87438	33146
22.88250	33098
22.89062	34145
22.89875	35720
22.90687	36380
22.91500	38466
22.92312	47275
22.93123	46258
22.93937	52999
22.94748	53409
22.95562	52462
22.96373	58855
22.97185	56691
22.97998	49144
22.98810	44860
22.99622	45035
23.00435	43927
23.01247	40050
23.02060	43013
23.02872	40942
23.03683	38026
23.04497	34788
23.05308	33109
23.06122	33586
23.06933	34507
23.07745	35044
23.08558	31224
23.09370	37545
23.10182	29807
23.10995	29182
23.11807	30834
23.12620	32778
23.13432	32908
23.14243	29722
23.15057	33722
23.15868	31456
23.16682	32081
23.17493	29777
23.18305	30040
23.19118	30055
23.19930	26285
23.20743	30694
23.21555	30760
23.22367	31187
23.23180	32368
23.23992	32829
23.24803	33363
23.25617	34935
23.26428	39561
23.27242	43152
23.28053	46123
23.28865	40821
23.29678	40433
23.30490	36245
23.31303	36951
23.32115	32061
23.32927	33109
23.33740	33164
23.34552	32110
23.35365	32748
23.36177	32440
23.36988	32141
23.37802	34850
23.38613	36975
23.39425	35889
23.40238	36662
23.41050	33671
23.41863	35586
23.42675	35850
23.43487	35749
23.44300	33018
23.45112	34783
23.45925	32402
23.46737	35320
23.47548	33678
23.48362	34324
23.49173	35486
23.49985	36248
23.50798	37810
23.51610	32031
23.52423	33128
23.53235	38143
23.54047	35800
23.54860	32984
23.55672	33635
23.56485	36387
23.57297	39529
23.58108	38776
23.58922	45604
23.59733	55048
23.60547	60545
23.61358	69842
23.62170	74127
23.62983	83122
23.63795	102015
23.64607	122499
23.65420	191667
23.66232	265388
23.67045	354602
23.67857	402203
23.68668	406729
23.69482	350669
23.70293	281037
23.71107	214681
23.71918	164939
23.72730	131764
23.73543	114843
23.74355	92970
23.75167	84264
23.75980	99012
23.76792	151896
23.77605	283674
23.78417	534318
23.79228	988579
23.80042	1455543
23.80853	1748640
23.81667	1673721
23.82478	1441858
23.83290	1133912
23.84103	869215
23.84915	662525
23.85728	497676
23.86540	399914
23.87352	333414
23.88165	284364
23.88977	243641
23.89788	218295
23.90602	192286
23.91413	172663
23.92227	151360
23.93038	144674
23.93850	139208
23.94663	132116
23.95475	116060
23.96288	114702
23.97100	111009
23.97912	104719
23.98725	101799
23.99537	96166
24.00350	102512
24.01162	95838
24.01973	95671
24.02787	101411
24.03598	96561
24.04410	103975
24.05223	100679
24.06035	104221
24.06848	96102
24.07660	91747
24.08472	87052
24.09285	81756
24.10097	76797
24.10910	71888
24.11722	70979
24.12533	63654
24.13347	74612
24.14158	72974
24.14972	69784
24.15783	67734
24.16595	71498
24.17408	67965
24.18220	66683
24.19032	66063
24.19845	69308
24.20657	67181
24.21470	62486
24.22282	65978
24.23093	62659
24.23907	65804
24.24718	66565
24.25532	62348
24.26343	57899
24.27155	53789
24.27968	57456
24.28780	52989
24.29592	49980
24.30405	47522
24.31217	49705
24.32030	54934
24.32842	50613
24.33653	46553
24.34467	45502
24.35278	45381
24.36092	44288
24.36903	47870
24.37715	46930
24.38528	52872
24.39340	52220
24.40153	56580
24.40965	61434
24.41777	71586
24.42590	76926
24.43402	71501
24.44213	62570
24.45027	53425
24.45838	48399
24.46652	46951
24.47463	43441
24.48275	42478
24.49088	44947
24.49900	42282
24.50713	46739
24.51525	51052
24.52337	52571
24.53150	56879
24.53962	53858
24.54773	51591
24.55587	47811
24.56398	47479
24.57212	43405
24.58023	50218
24.58835	43106
24.59648	46140
24.60460	44050
24.61273	48470
24.62085	46420
24.62897	42047
24.63710	42942
24.64522	42368
24.65335	42907
24.66147	43481
24.66958	41851
24.67772	41022
24.68583	42263
24.69395	39457
24.70208	39677
24.71020	40850
24.71833	39756
24.72645	39387
24.73457	39089
24.74270	38889
24.75082	43565
24.75895	35696
24.76707	33950
24.77518	38306
24.78332	36245
24.79143	34252
24.79957	38795
24.80768	37206
24.81580	36103
24.82393	36054
24.83205	34894
24.84017	35812
24.84830	34819
24.85642	34688
24.86455	36303
24.87267	35122
24.88078	33285
24.88892	37476
24.89703	33656
24.90517	34227
24.91328	33398
24.92140	36346
24.92953	33857
24.93765	35497
24.94577	36214
24.95390	36302
24.96202	35499
24.97015	38136
24.97827	35998
24.98638	37450
24.99452	31834
25.00263	33522
25.01077	34482
25.01888	32278
25.02700	34158
25.03513	32010
25.04325	36158
25.05138	30744
25.05950	31461
25.06762	33512
25.07575	36187
25.08387	39144
25.09198	31817
25.10012	34007
25.10823	33305
25.11637	32545
25.12448	33235
25.13260	37473
25.14073	37292
25.14885	37856
25.15698	37085
25.16510	38853
25.17322	37739
25.18135	35750
25.18947	35054
25.19760	37795
25.20572	36373
25.21383	33957
25.22197	33920
25.23008	33550
25.23820	33532
25.24633	31714
25.25445	32928
25.26258	31446
25.27070	30754
25.27882	32001
25.28695	30901
25.29507	32574
25.30320	40132
25.31132	35303
25.31943	39354
25.32757	41674
25.33568	40330
25.34380	42370
25.35193	37475
25.36005	38750
25.36818	37917
25.37630	35859
25.38442	31652
25.39255	32896
25.40067	32344
25.40880	33972
25.41692	34545
25.42503	34706
25.43317	34806
25.44128	34204
25.44942	29786
25.45753	34075
25.46565	29989
25.47378	31722
25.48190	28888
25.49002	33780
25.49815	35142
25.50627	35703
25.51440	35631
25.52252	35095
25.53063	32254
25.53877	34425
25.54688	34584
25.55502	29069
25.56313	28507
25.57125	31707
25.57938	29682
25.58750	33464
25.59562	31171
25.60375	28393
25.61187	34220
25.62000	36610
25.62812	40243
25.63623	51516
25.64437	68353
25.65248	83836
25.66062	82320
25.66873	79620
25.67685	72529
25.68498	64971
25.69310	49919
25.70123	46306
25.70935	42108
25.71747	38655
25.72560	38416
25.73372	38527
25.74183	42683
25.74997	41425
25.75808	44312
25.76622	40694
25.77433	37864
25.78245	37836
25.79058	37485
25.79870	32530
25.80683	36748
25.81495	34690
25.82307	39205
25.83120	40185
25.83932	48254
25.84745	48570
25.85557	49075
25.86368	49946
25.87182	37282
25.87993	37618
25.88805	36313
25.89618	32722
25.90430	32867
25.91243	30884
25.92055	36967
25.92867	31659
25.93680	30669
25.94492	31428
25.95305	31652
25.96117	31336
25.96928	27940
25.97742	28504
25.98553	32383
25.99365	26903
26.00178	29528
26.00990	30070
26.01803	33352
26.02615	29293
26.03427	27118
26.04240	29768
26.05052	32092
26.05865	27388
26.06677	25772
26.07488	30069
26.08302	29476
26.09113	29171
26.09927	31120
26.10738	29271
26.11550	30639
26.12363	34733
26.13175	36250
26.13987	38004
26.14800	37267
26.15612	39892
26.16425	41855
26.17237	43248
26.18048	40943
26.18862	37467
26.19673	37454
26.20487	35229
26.21298	37765
26.22110	33492
26.22923	30529
26.23735	27585
26.24548	30776
26.25360	30858
26.26172	34808
26.26985	28942
26.27797	33783
26.28608	30890
26.29422	31170
26.30233	30203
26.31047	34712
26.31858	32047
26.32670	32632
26.33483	31923
26.34295	31287
26.35108	29318
26.35920	32883
26.36732	30456
26.37545	31192
26.38357	31485
26.39168	28532
26.39982	28028
26.40793	30070
26.41607	30608
26.42418	31752
26.43230	30886
26.44043	30235
26.44855	30582
26.45668	31931
26.46480	31808
26.47292	29346
26.48105	27116
26.48917	27539
26.49730	31472
26.50542	26572
26.51353	28325
26.52167	27736
26.52978	25533
26.53790	23639
26.54603	26967
26.55415	27526
26.56228	24353
26.57040	25405
26.57852	27760
26.58665	31170
26.59477	30123
26.60290	29008
26.61102	27364
26.61913	29814
26.62727	26459
26.63538	29042
26.64350	28466
26.65163	27864
26.65975	27316
26.66788	28985
26.67600	31481
26.68412	30242
26.69225	29822
26.70037	30681
26.70850	30446
26.71662	28852
26.72473	27444
26.73287	29006
26.74098	28793
26.74912	30748
26.75723	27224
26.76535	29495
26.77348	31123
26.78160	26493
26.78972	26664
26.79785	29653
26.80597	27222
26.81410	33359
26.82222	33009
26.83033	33384
26.83847	35684
26.84658	33055
26.85472	30655
26.86283	30394
26.87095	34422
26.87908	30560
26.88720	32066
26.89533	28956
26.90345	29753
26.91157	30277
26.91970	28366
26.92782	30924
26.93593	30206
26.94407	29404
26.95218	29009
26.96032	26275
26.96843	31639
26.97655	35020
26.98468	42828
26.99280	50841
27.00093	73421
27.00905	99113
27.01717	142151
27.02530	172211
27.03342	200760
27.04153	224558
27.04967	203917
27.05778	178032
27.06592	156107
27.07403	134790
27.08215	110442
27.09028	96805
27.09840	88689
27.10653	77528
27.11465	72681
27.12277	63498
27.13090	57871
27.13902	59406
27.14715	53819
27.15527	57814
27.16338	57872
27.17152	52923
27.17963	48138
27.18775	46858
27.19588	49464
27.20400	46345
27.21213	44768
27.22025	42591
27.22837	47876
27.23650	45458
27.24462	45614
27.25275	38628
27.26087	44378
27.26898	42725
27.27712	40898
27.28523	39791
27.29337	39394
27.30148	38821
27.30960	37947
27.31773	34885
27.32585	38084
27.33397	35030
27.34210	36728
27.35022	35199
27.35835	33602
27.36647	41955
27.37458	41975
27.38272	35534
27.39083	41726
27.39897	43272
27.40708	39568
27.41520	38220
27.42333	38554
27.43145	36182
27.43957	35747
27.44770	37495
27.45582	35268
27.46395	33704
27.47207	32223
27.48018	35965
27.48832	31753
27.49643	30900
27.50457	33885
27.51268	35336
27.52080	35278
27.52893	38465
27.53705	34111
27.54518	34495
27.55330	32746
27.56142	30634
27.56955	32683
27.57767	33468
27.58578	29986
27.59392	31672
27.60203	32952
27.61017	35273
27.61828	31487
27.62640	33253
27.63453	32900
27.64265	32244
27.65078	33477
27.65890	34296
27.66702	30361
27.67515	29427
27.68327	34740
27.69140	30163
27.69952	30498
27.70763	32358
27.71577	28001
27.72388	29304
27.73200	29325
27.74013	28626
27.74825	25335
27.75638	30009
27.76450	32242
27.77262	29305
27.78075	31815
27.78887	30294
27.79700	31478
27.80512	32500
27.81323	28667
27.82137	30206
27.82948	31005
27.83760	30599
27.84573	35357
27.85385	32763
27.86198	32559
27.87010	30879
27.87822	30837
27.88635	29728
27.89447	31909
27.90260	29254
27.91072	31452
27.91883	25866
27.92697	28646
27.93508	30073
27.94322	28100
27.95133	29827
27.95945	30273
27.96758	32203
27.97570	32422
27.98382	28363
27.99195	29262
28.00007	29948
28.00820	31188
28.01632	32025
28.02443	36194
28.03257	29421
28.04068	28532
28.04882	28208
28.05693	28119
28.06505	28196
28.07318	27937
28.08130	28481
28.08942	30348
28.09755	27393
28.10567	32141
28.11380	34027
28.12192	28561
28.13003	30496
28.13817	30355
28.14628	30047
28.15442	28114
28.16253	27402
28.17065	27931
28.17878	30701
28.18690	35143
28.19503	42924
28.20315	44956
28.21127	50754
28.21940	61639
28.22752	74742
28.23563	75972
28.24377	75417
28.25188	71917
28.26002	61472
28.26813	58619
28.27625	48931
28.28438	43004
28.29250	38680
28.30063	38116
28.30875	42469
28.31687	39617
28.32500	38315
28.33312	40430
28.34125	42362
28.34937	44238
28.35748	45776
28.36562	47311
28.37373	55079
28.38185	62446
28.38998	61618
28.39810	67958
28.40623	68080
28.41435	67678
28.42247	64572
28.43060	62750
28.43872	58180
28.44685	53336
28.45497	53508
28.46308	52860
28.47122	55393
28.47933	52622
28.48745	47626
28.49558	50223
28.50370	42122
28.51183	44374
28.51995	45222
28.52807	41100
28.53620	43685
28.54432	38455
28.55245	39581
28.56057	37483
28.56868	37158
28.57682	41441
28.58493	37854
28.59307	41057
28.60118	37852
28.60930	38342
28.61743	40882
28.62555	42186
28.63367	47131
28.64180	64133
28.64992	80169
28.65805	88284
28.66617	110074
28.67428	124238
28.68242	115879
28.69053	103403
28.69867	88853
28.70678	73829
28.71490	58583
28.72303	56705
28.73115	45539
28.73928	41723
28.74740	41367
28.75552	39892
28.76365	41404
28.77177	44030
28.77988	47872
28.78802	46638
28.79613	53246
28.80427	47630
28.81238	47520
28.82050	42520
28.82863	39373
28.83675	37465
28.84488	36021
28.85300	33465
28.86112	33573
28.86925	37013
28.87737	35115
28.88548	32921
28.89362	35364
28.90173	35383
28.90987	30158
28.91798	33093
28.92610	30241
28.93423	33761
28.94235	33897
28.95048	39526
28.95860	41778
28.96672	41086
28.97485	45137
28.98297	44472
28.99110	41735
28.99922	36888
29.00733	37580
29.01547	35118
29.02358	31673
29.03170	34684
29.03983	31872
29.04795	32913
29.05608	31702
29.06420	34968
29.07232	39242
29.08045	33949
29.08857	32373
29.09670	34015
29.10482	33676
29.11293	33976
29.12107	32733
29.12918	32498
29.13730	33797
29.14543	33041
29.15355	34433
29.16168	38197
29.16980	36073
29.17792	31192
29.18605	33386
29.19417	35590
29.20230	35094
29.21042	41557
29.21853	39592
29.22667	38337
29.23478	34447
29.24292	32142
29.25103	34198
29.25915	36080
29.26728	31642
29.27540	31677
29.28352	34347
29.29165	32283
29.29977	30594
29.30790	32628
29.31602	34994
29.32413	30542
29.33227	30257
29.34038	31181
29.34852	35866
29.35663	32052
29.36475	30336
29.37288	35889
29.38100	31844
29.38913	39877
29.39725	36785
29.40537	41355
29.41350	43921
29.42162	48798
29.42973	51545
29.43787	55498
29.44598	56814
29.45412	49825
29.46223	49030
29.47035	39482
29.47848	37139
29.48660	40786
29.49473	34928
29.50285	38019
29.51097	40937
29.51910	38260
29.52722	38218
29.53533	39349
29.54347	38060
29.55158	38179
29.55972	35177
29.56783	35757
29.57595	35260
29.58408	31227
29.59220	29934
29.60033	32305
29.60845	29021
29.61657	34853
29.62470	32171
29.63282	29484
29.64095	29610
29.64907	33576
29.65718	34261
29.66532	29654
29.67343	35512
29.68155	32430
29.68968	30936
29.69780	30113
29.70593	26624
29.71405	30632
29.72217	29423
29.73030	34487
29.73842	33229
29.74655	33033
29.75467	31937
29.76278	32504
29.77092	36670
29.77903	30996
29.78717	31141
29.79528	29503
29.80340	30542
29.81153	30472
29.81965	29393
29.82777	27381
29.83590	31601
29.84402	28987
29.85215	35401
29.86027	45261
29.86838	81018
29.87652	164274
29.88463	332514
29.89277	637729
29.90088	1008272
29.90900	1291379
29.91713	1356178
29.92525	1164076
29.93337	843865
29.94150	511052
29.94962	290157
29.95775	164757
29.96587	109219
29.97398	85843
29.98212	77207
29.99023	69429
29.99837	69533
30.00648	69332
30.01460	71642
30.02273	83797
30.03085	75392
30.03898	72548
30.04710	77175
30.05522	71555
30.06335	70079
30.07147	78383
30.07958	71181
30.08772	71933
30.09583	70270
30.10397	67340
30.11208	66331
30.12020	61136
30.12833	68535
30.13645	57945
30.14458	61355
30.15270	60635
30.16082	57362
30.16895	51832
30.17707	53827
30.18518	53549
30.19332	55458
30.20143	50345
30.20957	47207
30.21768	46518
30.22580	46138
30.23393	44608
30.24205	42129
30.25018	50240
30.25830	41574
30.26642	41110
30.27455	41218
30.28267	43016
30.29080	40364
30.29892	36307
30.30703	38864
30.31517	42026
30.32328	38949
30.33140	42407
30.33953	37920
30.34765	41772
30.35578	40785
30.36390	42468
30.37202	35212
30.38015	39990
30.38827	41630
30.39640	39985
30.40452	37359
30.41263	36503
30.42077	40710
30.42888	38604
30.43702	34688
30.44513	35669
30.45325	33768
30.46138	35780
30.46950	32130
30.47762	35678
30.48575	35801
30.49387	36116
30.50200	37742
30.51012	37597
30.51823	37221
30.52637	35681
30.53448	36610
30.54262	32380
30.55073	37021
30.55885	33661
30.56698	28567
30.57510	35793
30.58323	33417
30.59135	34297
30.59947	35022
30.60760	37081
30.61572	31065
30.62383	33702
30.63197	34494
30.64008	32577
30.64822	32840
30.65633	30765
30.66445	32186
30.67258	32299
30.68070	30871
30.68883	35806
30.69695	34050
30.70507	32264
30.71320	32803
30.72132	33862
30.72943	33511
30.73757	34553
30.74568	39655
30.75382	36133
30.76193	37450
30.77005	49728
30.77818	76793
30.78630	135096
30.79443	248523
30.80255	440856
30.81067	668651
30.81880	845273
30.82692	926170
30.83505	816676
30.84317	599067
30.85128	381315
30.85942	233556
30.86753	145695
30.87565	104820
30.88378	74508
30.89190	67869
30.90003	59423
30.90815	58216
30.91627	55932
30.92440	53337
30.93252	55272
30.94065	50869
30.94877	48758
30.95688	49937
30.96502	53798
30.97313	45153
30.98125	51049
30.98938	44954
30.99750	41067
31.00563	48567
31.01375	41941
31.02187	42940
31.03000	42499
31.03812	50165
31.04625	48690
31.05437	50575
31.06248	48057
31.07062	51450
31.07873	54868
31.08687	59879
31.09498	84392
31.10310	108819
31.11123	134721
31.11935	152674
31.12747	153941
31.13560	137552
31.14372	114974
31.15185	89455
31.15997	64910
31.16808	54539
31.17622	51829
31.18433	53608
31.19247	53072
31.20058	63150
31.20870	76452
31.21683	89714
31.22495	106295
31.23308	110671
31.24120	105557
31.24932	102493
31.25745	85682
31.26557	72430
31.27368	60020
31.28182	57138
31.28993	50185
31.29807	46044
31.30618	41166
31.31430	40781
31.32243	40121
31.33055	40215
31.33868	36121
31.34680	38666
31.35492	36918
31.36305	43072
31.37117	45283
31.37928	46793
31.38742	48834
31.39553	53210
31.40367	61828
31.41178	56259
31.41990	54467
31.42803	47708
31.43615	41573
31.44428	43430
31.45240	41514
31.46052	40523
31.46865	36734
31.47677	38631
31.48490	37203
31.49302	36206
31.50113	40748
31.50927	40964
31.51738	34105
31.52550	37210
31.53363	39075
31.54175	34524
31.54988	37043
31.55800	40724
31.56612	41825
31.57425	34436
31.58237	35336
31.59050	39767
31.59862	37307
31.60673	39599
31.61487	40824
31.62298	37240
31.63112	36701
31.63923	38462
31.64735	35259
31.65548	36835
31.66360	41158
31.67172	40949
31.67985	34486
31.68797	36869
31.69610	33782
31.70422	34795
31.71233	40652
31.72047	45772
31.72858	34204
31.73672	36419
31.74483	36958
31.75295	36696
31.76108	33712
31.76920	39893
31.77732	35057
31.78545	37634
31.79357	33209
31.80170	39749
31.80982	36599
31.81793	38812
31.82607	40086
31.83418	36472
31.84232	39738
31.85043	41658
31.85855	42224
31.86668	42017
31.87480	42308
31.88293	42613
31.89105	40504
31.89917	43524
31.90730	40846
31.91542	44964
31.92353	45523
31.93167	48716
31.93978	47712
31.94792	50752
31.95603	55110
31.96415	54460
31.97228	63340
31.98040	56005
31.98853	61959
31.99665	61711
32.00477	60707
32.01290	64098
32.02102	57553
32.02913	60561
32.03727	62095
32.04538	60647
32.05352	62139
32.06163	59941
32.06975	56547
32.07788	52632
32.08600	49682
32.09413	53217
32.10225	48572
32.11037	47573
32.11850	45846
32.12662	45863
32.13475	44223
32.14287	41146
32.15098	42116
32.15912	44778
32.16723	40992
32.17535	37166
32.18348	40167
32.19160	41627
32.19973	42617
32.20785	39494
32.21597	39730
32.22410	41926
32.23222	45141
32.24035	39684
32.24847	40858
32.25658	40233
32.26472	46014
32.27283	40962
32.28097	41469
32.28908	42043
32.29720	42194
32.30533	40633
32.31345	41238
32.32157	39839
32.32970	41965
32.33782	45147
32.34595	49733
32.35407	48759
32.36218	56661
32.37032	55487
32.37843	52721
32.38657	53778
32.39468	48134
32.40280	43531
32.41093	40291
32.41905	37903
32.42717	38642
32.43530	37905
32.44342	38651
32.45155	37103
32.45967	40045
32.46778	37821
32.47592	36085
32.48403	34641
32.49217	37437
32.50028	42767
32.50840	35375
32.51653	41573
32.52465	37754
32.53278	38633
32.54090	34161
32.54902	31526
32.55715	35001
32.56527	43736
32.57338	33748
32.58152	33990
32.58963	37434
32.59777	37874
32.60588	38977
32.61400	34604
32.62213	39644
32.63025	35922
32.63838	31218
32.64650	38148
32.65462	33173
32.66275	36363
32.67087	41019
32.67900	45106
32.68712	46053
32.69523	48479
32.70337	46352
32.71148	40295
32.71960	40260
32.72773	36867
32.73585	35892
32.74398	38315
32.75210	34315
32.76022	36798
32.76835	32485
32.77647	35916
32.78460	36643
32.79272	34493
32.80083	33118
32.80897	32759
32.81708	32029
32.82520	35677
32.83333	34883
32.84145	32442
32.84958	34292
32.85770	33891
32.86582	33897
32.87395	34059
32.88207	34473
32.89020	32381
32.89832	34650
32.90643	42729
32.91457	33101
32.92268	34067
32.93082	35946
32.93893	34607
32.94705	33602
32.95518	34048
32.96330	33493
32.97142	35309
32.97955	31887
32.98767	34623
32.99580	35832
33.00392	35725
33.01203	37644
33.02017	34758
33.02828	33799
33.03642	36942
33.04453	36629
33.05265	32388
33.06078	31553
33.06890	38305
33.07703	41954
33.08515	46637
33.09327	69516
33.10140	109785
33.10952	179351
33.11763	316762
33.12577	453634
33.13388	513414
33.14202	483992
33.15013	373071
33.15825	232307
33.16638	134398
33.17450	82671
33.18263	64437
33.19075	52481
33.19887	49424
33.20700	45001
33.21512	44104
33.22323	45789
33.23137	42530
33.23948	41869
33.24762	46710
33.25573	43053
33.26385	43539
33.27198	43019
33.28010	41113
33.28823	41087
33.29635	37576
33.30447	40323
33.31260	40646
33.32072	39141
33.32885	44861
33.33697	39500
33.34508	39610
33.35322	39426
33.36133	36891
33.36945	38803
33.37758	36516
33.38570	36424
33.39383	34543
33.40195	37265
33.41007	34054
33.41820	35748
33.42632	39146
33.43445	34431
33.44257	36257
33.45068	38949
33.45882	34644
33.46693	41465
33.47505	34132
33.48318	39297
33.49130	36943
33.49943	38805
33.50755	36403
33.51567	34035
33.52380	33559
33.53192	36545
33.54005	38524
33.54817	38124
33.55628	39295
33.56442	37855
33.57253	36959
33.58067	36635
33.58878	36484
33.59690	40064
33.60503	40040
33.61315	39269
33.62127	38339
33.62940	38783
33.63752	41399
33.64565	38202
33.65377	40716
33.66188	40772
33.67002	40894
33.67813	38857
33.68627	38718
33.69438	37826
33.70250	39018
33.71063	33623
33.71875	36531
33.72688	36028
33.73500	35630
33.74312	37081
33.75125	34959
33.75937	34102
33.76748	38101
33.77562	38754
33.78373	39380
33.79187	37620
33.79998	34835
33.80810	38085
33.81623	35538
33.82435	38249
33.83248	39684
33.84060	37269
33.84872	38530
33.85685	38505
33.86497	39069
33.87308	41119
33.88122	41461
33.88933	42825
33.89747	38815
33.90558	36175
33.91370	36000
33.92183	37937
33.92995	39428
33.93808	40388
33.94620	38945
33.95432	38462
33.96245	36946
33.97057	39174
33.97870	38139
33.98682	40324
33.99493	38194
34.00307	38704
34.01118	38107
34.01930	40662
34.02743	33167
34.03555	34186
34.04368	39917
34.05180	39195
34.05992	37230
34.06805	38787
34.07617	40326
34.08430	36407
34.09242	41424
34.10053	38842
34.10867	40451
34.11678	37501
34.12492	37805
34.13303	37701
34.14115	39813
34.14928	41972
34.15740	37314
34.16552	37333
34.17365	36049
34.18177	35766
34.18990	35772
34.19802	35305
34.20613	37642
34.21427	41495
34.22238	40017
34.23052	38582
34.23863	42059
34.24675	46330
34.25488	47052
34.26300	50937
34.27112	52478
34.27925	55594
34.28737	50487
34.29550	49245
34.30362	44815
34.31173	42264
34.31987	41776
34.32798	38548
34.33612	41604
34.34423	39392
34.35235	37906
34.36048	35634
34.36860	36021
34.37673	45545
34.38485	40141
34.39297	39212
34.40110	37496
34.40922	41687
34.41733	37481
34.42547	36913
34.43358	41294
34.44172	37344
34.44983	37620
34.45795	35573
34.46608	37685
34.47420	35995
34.48233	36127
34.49045	36017
34.49857	35041
34.50670	36973
34.51482	42475
34.52293	39051
34.53107	40815
34.53918	45768
34.54732	51878
34.55543	47407
34.56355	53252
34.57168	63047
34.57980	59765
34.58793	61641
34.59605	58771
34.60417	53128
34.61230	52391
34.62042	51881
34.62855	47729
34.63667	48975
34.64478	43923
34.65292	51429
34.66103	49079
34.66915	45810
34.67728	46253
34.68540	48379
34.69353	47305
34.70165	42104
34.70977	42207
34.71790	45030
34.72602	41732
34.73415	39798
34.74227	42507
34.75038	43643
34.75852	40787
34.76663	41613
34.77477	42914
34.78288	39416
34.79100	41320
34.79913	41565
34.80725	39936
34.81537	42210
34.82350	40472
34.83162	41713
34.83975	43582
34.84787	39052
34.85598	41351
34.86412	38189
34.87223	37988
34.88037	38598
34.88848	37751
34.89660	40947
34.90473	38142
34.91285	38974
34.92097	42341
34.92910	40168
34.93722	42260
34.94535	54794
34.95347	73407
34.96158	102953
34.96972	157863
34.97783	223635
34.98597	302502
34.99408	318323
35.00220	268584
35.01033	212394
35.01845	144503
35.02658	93905
35.03470	69022
35.04282	58789
35.05095	53959
35.05907	51485
35.06718	51719
35.07532	51204
35.08343	53936
35.09157	51439
35.09968	53389
35.10780	49634
35.11593	50747
35.12405	46429
35.13218	45513
35.14030	43769
35.14842	45500
35.15655	49826
35.16467	48449
35.17280	50053
35.18092	42815
35.18903	49191
35.19717	43226
35.20528	46609
35.21340	39730
35.22153	43715
35.22965	41298
35.23778	44780
35.24590	46534
35.25402	44268
35.26215	44576
35.27027	42562
35.27840	42313
35.28652	42426
35.29463	42859
35.30277	40164
35.31088	43682
35.31900	43555
35.32713	42247
35.33525	40625
35.34338	39983
35.35150	43889
35.35962	41169
35.36775	41780
35.37587	41261
35.38400	43206
35.39212	41677
35.40023	46332
35.40837	43258
35.41648	45700
35.42462	38348
35.43273	43373
35.44085	39196
35.44898	43318
35.45710	39205
35.46522	40667
35.47335	40891
35.48147	47546
35.48960	41658
35.49772	42551
35.50583	43314
35.51397	45228
35.52208	46397
35.53022	42678
35.53833	42744
35.54645	41902
35.55458	40928
35.56270	41450
35.57082	38235
35.57895	45588
35.58707	50518
35.59520	48034
35.60332	43441
35.61143	45616
35.61957	53448
35.62768	50006
35.63582	44228
35.64393	46870
35.65205	43765
35.66018	41248
35.66830	41127
35.67643	43072
35.68455	45545
35.69267	48340
35.70080	48281
35.70892	48766
35.71703	48413
35.72517	47610
35.73328	46596
35.74142	46514
35.74953	44633
35.75765	45776
35.76578	43767
35.77390	41045
35.78203	45330
35.79015	44606
35.79827	42691
35.80640	44215
35.81452	40476
35.82265	40033
35.83077	47910
35.83888	41060
35.84702	45163
35.85513	44593
35.86325	43881
35.87138	39777
35.87950	43506
35.88763	44417
35.89575	42237
35.90387	40852
35.91200	44851
35.92012	44810
35.92825	46966
35.93637	41508
35.94448	38927
35.95262	40955
35.96073	42341
35.96887	43787
35.97698	41865
35.98510	39690
35.99323	45121
36.00135	41458
36.00947	44772
36.01760	44551
36.02572	44773
36.03385	46437
36.04197	45291
36.05008	47053
36.05822	45082
36.06633	41856
36.07447	46470
36.08258	50281
36.09070	41754
36.09883	41188
36.10695	37730
36.11507	42744
36.12320	44197
36.13132	40813
36.13945	41318
36.14757	44410
36.15568	42683
36.16382	42529
36.17193	37095
36.18007	41515
36.18818	42068
36.19630	41998
36.20443	43389
36.21255	45328
36.22068	45710
36.22880	43999
36.23692	41902
36.24505	44591
36.25317	42208
36.26128	41269
36.26942	44631
36.27753	37469
36.28567	40431
36.29378	42435
36.30190	46105
36.31003	46328
36.31815	46556
36.32628	46819
36.33440	46878
36.34252	53030
36.35065	51339
36.35877	45632
36.36688	42722
36.37502	44641
36.38313	49037
36.39127	43522
36.39938	45918
36.40750	42822
36.41563	49190
36.42375	43570
36.43188	44849
36.44000	42999
36.44812	46103
36.45625	41112
36.46437	42984
36.47250	41145
36.48062	43048
36.48873	37996
36.49687	42858
36.50498	48282
36.51310	44096
36.52123	42817
36.52935	46874
36.53748	42295
36.54560	45563
36.55372	43254
36.56185	40291
36.56997	41725
36.57810	44664
36.58622	41516
36.59433	41201
36.60247	42467
36.61058	43604
36.61872	44674
36.62683	41243
36.63495	41526
36.64308	44151
36.65120	41825
36.65932	41841
36.66745	48288
36.67557	44292
36.68370	45408
36.69182	49129
36.69993	47109
36.70807	46227
36.71618	47043
36.72432	46326
36.73243	48118
36.74055	48404
36.74868	46043
36.75680	48527
36.76492	45323
36.77305	45534
36.78117	44696
36.78930	42297
36.79742	48061
36.80553	49678
36.81367	46079
36.82178	47428
36.82992	45531
36.83803	42284
36.84615	44047
36.85428	43423
36.86240	42868
36.87053	47462
36.87865	46881
36.88677	47654
36.89490	46104
36.90302	47842
36.91113	45938
36.91927	45113
36.92738	42686
36.93552	44680
36.94363	45291
36.95175	47752
36.95988	43249
36.96800	41435
36.97613	45560
36.98425	46362
36.99237	45002
37.00050	42458
37.00862	43754
37.01675	44498
37.02487	45050
37.03298	46263
37.04112	47980
37.04923	46948
37.05735	47469
37.06548	40895
37.07360	44501
37.08173	45353
37.08985	48090
37.09797	43714
37.10610	48558
37.11422	45595
37.12235	44845
37.13047	49147
37.13858	44999
37.14672	46465
37.15483	43264
37.16295	49662
37.17108	49571
37.17920	48083
37.18733	47750
37.19545	46194
37.20357	49357
37.21170	48707
37.21982	47994
37.22795	50110
37.23607	55841
37.24418	49291
37.25232	49595
37.26043	49750
37.26857	49357
37.27668	46551
37.28480	47162
37.29293	51266
37.30105	54353
37.30917	47380
37.31730	50367
37.32542	51972
37.33355	50206
37.34167	49110
37.34978	53917
37.35792	57420
37.36603	59813
37.37417	64992
37.38228	66041
37.39040	61489
37.39853	61762
37.40665	59794
37.41477	58388
37.42290	58612
37.43102	53580
37.43915	52105
37.44727	54439
37.45538	56040
37.46352	53991
37.47163	52759
37.47977	54423
37.48788	52419
