C:\MassHunter\GCMS\1\data\JTB-E18\JTB-E18-035-10.D Wed Oct 16 16:23:08 2019
Start of data points
2.09535,205286
2.10347,194678
2.11160,187542
2.11972,178343
2.12783,180087
2.13597,168576
2.14408,162877
2.15220,161476
2.16033,161855
2.16845,147653
2.17658,148183
2.18470,142628
2.19282,145312
2.20095,138868
2.20907,133530
2.21720,128733
2.22532,134287
2.23343,128971
2.24157,120876
2.24968,124094
2.25780,120755
2.26593,230111
2.27405,1276874
2.28218,2176503
2.29030,1143076
2.29842,601339
2.30655,471955
2.31467,399352
2.32280,362837
2.33092,309899
2.33903,295580
2.34717,261090
2.35528,251855
2.36342,238729
2.37153,215807
2.37965,227361
2.38778,255201
2.39590,226532
2.40402,198005
2.41215,205795
2.42027,241223
2.42840,295920
2.43652,237327
2.44463,222086
2.45277,213338
2.46088,187290
2.46902,180379
2.47713,169781
2.48525,169248
2.49338,185822
2.50150,176368
2.50963,168010
2.51775,160059
2.52587,156224
2.53400,149138
2.54212,151629
2.55023,166380
2.55837,218000
2.56648,230770
2.57462,183890
2.58273,155039
2.59085,159942
2.59898,151779
2.60710,156675
2.61523,170070
2.62335,181525
2.63147,167029
2.63960,151290
2.64772,141050
2.65583,141025
2.66397,144544
2.67208,151443
2.68022,168270
2.68833,163826
2.69645,147954
2.70458,133076
2.71270,132322
2.72083,131880
2.72895,135126
2.73707,126866
2.74520,124236
2.75332,124867
2.76145,126001
2.76957,121819
2.77768,131208
2.78582,163866
2.79393,180482
2.80205,157327
2.81018,155476
2.81830,195358
2.82643,316927
2.83455,496861
2.84267,445460
2.85080,293057
2.85892,234428
2.86705,227765
2.87517,198708
2.88328,176641
2.89142,169391
2.89953,158353
2.90767,149044
2.91578,148400
2.92390,141931
2.93203,130508
2.94015,132006
2.94827,123175
2.95640,124467
2.96452,122997
2.97265,120489
2.98077,118498
2.98888,120116
2.99702,127435
3.00513,132433
3.01327,130653
3.02138,172115
3.02950,341085
3.03763,599531
3.04575,969041
3.05387,2971615
3.06200,6635221
3.07012,6631247
3.07825,3835507
3.08637,2179706
3.09448,1690860
3.10262,2320558
3.11073,4044679
3.11887,4022395
3.12698,2616471
3.13510,1788346
3.14323,1386044
3.15135,1096139
3.15948,904256
3.16760,821727
3.17572,824905
3.18385,905627
3.19197,1461710
3.20008,1864011
3.20822,1463998
3.21633,1053142
3.22447,856818
3.23258,725092
3.24070,624996
3.24883,535780
3.25695,480229
3.26508,419983
3.27320,388752
3.28132,421932
3.28945,669764
3.29757,1355740
3.30568,2168963
3.31382,2356326
3.32193,1865224
3.33007,1352965
3.33818,1051913
3.34630,859319
3.35443,746361
3.36255,684021
3.37068,739162
3.37880,912628
3.38692,996644
3.39505,901847
3.40317,1105723
3.41130,2108620
3.41942,3095392
3.42753,2615375
3.43567,1596460
3.44378,1054375
3.45190,818661
3.46003,700566
3.46815,652668
3.47628,589330
3.48440,552730
3.49252,509768
3.50065,469456
3.50877,444610
3.51690,423977
3.52502,407271
3.53313,393393
3.54127,384055
3.54938,381821
3.55752,360166
3.56563,338835
3.57375,333672
3.58188,312341
3.59000,307393
3.59812,294692
3.60625,297617
3.61437,355890
3.62250,639247
3.63062,1315911
3.63873,1968866
3.64687,1748086
3.65498,1168120
3.66312,1023905
3.67123,1983513
3.67935,4071046
3.68748,4781511
3.69560,3539743
3.70372,2417647
3.71185,1852048
3.71997,1505090
3.72810,1263505
3.73622,1125608
3.74433,988392
3.75247,904425
3.76058,831050
3.76872,820620
3.77683,779448
3.78495,729213
3.79308,694889
3.80120,714961
3.80933,1010128
3.81745,1499304
3.82557,1568115
3.83370,1238732
3.84182,952905
3.84993,799670
3.85807,700917
3.86618,610487
3.87432,556076
3.88243,526168
3.89055,491944
3.89868,452127
3.90680,434222
3.91493,455302
3.92305,526098
3.93117,603889
3.93930,592064
3.94742,518395
3.95555,451700
3.96367,439433
3.97178,433361
3.97992,399553
3.98803,362017
3.99615,395990
4.00428,541073
4.01240,815564
4.02053,969569
4.02865,829554
4.03677,606895
4.04490,475253
4.05302,402240
4.06115,353203
4.06927,339420
4.07738,312017
4.08552,290145
4.09363,281052
4.10175,258279
4.10988,252634
4.11800,246897
4.12613,245698
4.13425,269963
4.14237,373040
4.15050,510574
4.15862,571919
4.16675,484628
4.17487,380073
4.18298,322700
4.19112,277736
4.19923,260863
4.20737,433897
4.21548,1789325
4.22360,6256924
4.23173,1.297738E+07
4.23985,1.792116E+07
4.24797,1.74963E+07
4.25610,1.185843E+07
4.26422,6522999
4.27235,4067229
4.28047,2822036
4.28858,2079194
4.29672,1611902
4.30483,1289820
4.31297,1087499
4.32108,914673
4.32920,804963
4.33733,726365
4.34545,670288
4.35357,633755
4.36170,627566
4.36982,584928
4.37795,534386
4.38607,502530
4.39418,465354
4.40232,438743
4.41043,413795
4.41857,409450
4.42668,378929
4.43480,363796
4.44293,362220
4.45105,354656
4.45918,355244
4.46730,351203
4.47542,344303
4.48355,318734
4.49167,308251
4.49978,298312
4.50792,289720
4.51603,283065
4.52417,275325
4.53228,263672
4.54040,265138
4.54853,261634
4.55665,257258
4.56478,249063
4.57290,246531
4.58102,239134
4.58915,236761
4.59727,227220
4.60540,224102
4.61352,232340
4.62163,241342
4.62977,306866
4.63788,409771
4.64600,483899
4.65413,454309
4.66225,375286
4.67038,322699
4.67850,288059
4.68662,265201
4.69475,243667
4.70287,230490
4.71100,231946
4.71912,214543
4.72723,206793
4.73537,206687
4.74348,207452
4.75162,199101
4.75973,190770
4.76785,185700
4.77598,183827
4.78410,191325
4.79222,224535
4.80035,301427
4.80847,375759
4.81660,401982
4.82472,349217
4.83283,310478
4.84097,293261
4.84908,279242
4.85722,259385
4.86533,243919
4.87345,225547
4.88158,226228
4.88970,210091
4.89782,205557
4.90595,201509
4.91407,203238
4.92220,242954
4.93032,328797
4.93843,467575
4.94657,572538
4.95468,610006
4.96282,568637
4.97093,479787
4.97905,416758
4.98718,367850
4.99530,341723
5.00343,314988
5.01155,306589
5.01967,326606
5.02780,461396
5.03592,746926
5.04403,1002258
5.05217,1060814
5.06028,916856
5.06842,742874
5.07653,629576
5.08465,559727
5.09278,514594
5.10090,494061
5.10903,494446
5.11715,521826
5.12527,502892
5.13340,452862
5.14152,402997
5.14963,378956
5.15777,379275
5.16588,407776
5.17402,425516
5.18213,455210
5.19025,465159
5.19838,449701
5.20650,418178
5.21463,376439
5.22275,351384
5.23087,340680
5.23900,340500
5.24712,341096
5.25525,313767
5.26337,296137
5.27148,264364
5.27962,243983
5.28773,244645
5.29585,230688
5.30398,231558
5.31210,225772
5.32023,215997
5.32835,225118
5.33647,226799
5.34460,231151
5.35272,238204
5.36085,217809
5.36897,211361
5.37708,206245
5.38522,208137
5.39333,214169
5.40147,205838
5.40958,194919
5.41770,187341
5.42583,188863
5.43395,186654
5.44207,178671
5.45020,180433
5.45832,181062
5.46645,175594
5.47457,170634
5.48268,170408
5.49082,173783
5.49893,172297
5.50707,167135
5.51518,166616
5.52330,167723
5.53143,166163
5.53955,172863
5.54767,165088
5.55580,170257
5.56392,175465
5.57205,182505
5.58017,194703
5.58828,200861
5.59642,183504
5.60453,173838
5.61267,171477
5.62078,170214
5.62890,170239
5.63703,171889
5.64515,177682
5.65328,174877
5.66140,171174
5.66952,163532
5.67765,179019
5.68577,181129
5.69388,204240
5.70202,219773
5.71013,219141
5.71827,224543
5.72638,230590
5.73450,225377
5.74263,218983
5.75075,213309
5.75888,215899
5.76700,222731
5.77512,224275
5.78325,210367
5.79137,201092
5.79950,218396
5.80762,277172
5.81573,458687
5.82387,755493
5.83198,1045523
5.84010,1151920
5.84823,952987
5.85635,700542
5.86448,488368
5.87260,357943
5.88072,295496
5.88885,257390
5.89697,246839
5.90510,246141
5.91322,291498
5.92133,383581
5.92947,492026
5.93758,534481
5.94570,491427
5.95383,416232
5.96195,354900
5.97008,317367
5.97820,320319
5.98632,323588
5.99445,329597
6.00257,302851
6.01070,282905
6.01882,233480
6.02693,204455
6.03507,190255
6.04318,191920
6.05132,171370
6.05943,158401
6.06755,155211
6.07568,150178
6.08380,147912
6.09192,137408
6.10005,131474
6.10817,135445
6.11630,135757
6.12442,151338
6.13253,196868
6.14067,264541
6.14878,338016
6.15692,346516
6.16503,313519
6.17315,272689
6.18128,238425
6.18940,225919
6.19752,234030
6.20565,236386
6.21377,235912
6.22190,210383
6.23002,205568
6.23813,190762
6.24627,186806
6.25438,186519
6.26252,191064
6.27063,183944
6.27875,190158
6.28688,185162
6.29500,185894
6.30313,189734
6.31125,190807
6.31937,193356
6.32750,206713
6.33562,229517
6.34373,246845
6.35187,244607
6.35998,244915
6.36812,230525
6.37623,224732
6.38435,214639
6.39248,203103
6.40060,213082
6.40873,204661
6.41685,204963
6.42497,205802
6.43310,209690
6.44122,214821
6.44935,209959
6.45747,219870
6.46558,215486
6.47372,218509
6.48183,216026
6.48995,223163
6.49808,228893
6.50620,227561
6.51433,225658
6.52245,227495
6.53057,228194
6.53870,231461
6.54682,245052
6.55495,237139
6.56307,239827
6.57118,247827
6.57932,254567
6.58743,253196
6.59555,256227
6.60368,249583
6.61180,237891
6.61993,241644
6.62805,241100
6.63617,241859
6.64430,246279
6.65242,275984
6.66055,336284
6.66867,448231
6.67678,515222
6.68492,513256
6.69303,514590
6.70117,488188
6.70928,445324
6.71740,381159
6.72553,326607
6.73365,294614
6.74177,277641
6.74990,273446
6.75802,267665
6.76615,258071
6.77427,214432
6.78238,259130
6.79052,380881
6.79863,572520
6.80677,738248
6.81488,785538
6.82300,633945
6.83113,440460
6.83925,300601
6.84738,216325
6.85550,171421
6.86362,143904
6.87175,130142
6.87987,118088
6.88798,107986
6.89612,102922
6.90423,108504
6.91237,107228
6.92048,116225
6.92860,153500
6.93673,199663
6.94485,247910
6.95298,283484
6.96110,266358
6.96922,235839
6.97735,203142
6.98547,166912
6.99358,143367
7.00172,119786
7.00983,108048
7.01797,103536
7.02608,101768
7.03420,95348
7.04233,96722
7.05045,93883
7.05858,85899
7.06670,82533
7.07482,81066
7.08295,76533
7.09107,81103
7.09920,73819
7.10732,77346
7.11543,79065
7.12357,76200
7.13168,75835
7.13980,78415
7.14793,85617
7.15605,103785
7.16418,116941
7.17230,127403
7.18042,141329
7.18855,141108
7.19667,134249
7.20480,129146
7.21292,139910
7.22103,240175
7.22917,525158
7.23728,999680
7.24542,1392170
7.25353,1383026
7.26165,1021734
7.26978,611469
7.27790,375851
7.28602,281297
7.29415,252108
7.30227,240696
7.31040,245008
7.31852,260127
7.32663,249972
7.33477,225839
7.34288,181422
7.35102,149133
7.35913,133218
7.36725,111491
7.37538,107369
7.38350,109066
7.39162,105807
7.39975,117454
7.40787,131086
7.41600,147933
7.42412,159926
7.43223,160848
7.44037,148053
7.44848,134231
7.45662,112721
7.46473,105887
7.47285,92121
7.48098,94215
7.48910,86658
7.49723,84661
7.50535,78566
7.51347,88751
7.52160,92408
7.52972,101991
7.53783,117904
7.54597,134407
7.55408,132513
7.56222,127954
7.57033,114182
7.57845,104355
7.58658,94170
7.59470,83423
7.60283,79887
7.61095,79560
7.61907,76286
7.62720,72537
7.63532,75190
7.64343,72383
7.65157,71404
7.65968,70428
7.66782,70540
7.67593,71155
7.68405,67509
7.69218,67956
7.70030,65952
7.70843,65448
7.71655,73826
7.72467,64394
7.73280,65662
7.74092,68751
7.74905,68111
7.75717,67182
7.76528,69648
7.77342,66744
7.78153,66484
7.78965,66887
7.79778,65689
7.80590,69469
7.81403,68377
7.82215,68522
7.83027,69609
7.83840,68979
7.84652,62265
7.85465,61344
7.86277,64099
7.87088,64206
7.87902,69683
7.88713,66417
7.89527,67017
7.90338,63485
7.91150,66420
7.91963,60178
7.92775,70645
7.93587,83437
7.94400,88672
7.95212,93612
7.96025,91045
7.96837,83196
7.97648,76652
7.98462,66005
7.99273,67242
8.00087,60425
8.00898,60541
8.01710,53171
8.02523,56723
8.03335,58312
8.04147,58653
8.04960,56180
8.05772,56537
8.06585,61411
8.07397,56847
8.08208,52280
8.09022,60957
8.09833,53253
8.10647,54052
8.11458,54759
8.12270,55314
8.13083,53730
8.13895,56290
8.14708,61049
8.15520,65835
8.16332,58014
8.17145,58772
8.17957,55494
8.18768,53660
8.19582,55613
8.20393,51865
8.21207,54612
8.22018,58500
8.22830,52437
8.23643,51329
8.24455,52481
8.25268,48782
8.26080,48915
8.26892,51486
8.27705,48367
8.28517,50300
8.29330,48198
8.30142,50803
8.30953,55110
8.31767,61604
8.32578,52683
8.33390,55060
8.34203,52428
8.35015,53784
8.35828,46941
8.36640,49250
8.37452,49908
8.38265,55212
8.39077,49524
8.39890,46216
8.40702,49403
8.41513,43949
8.42327,46511
8.43138,46466
8.43950,46138
8.44763,46747
8.45575,46743
8.46388,46028
8.47200,41575
8.48012,44654
8.48825,46076
8.49637,47721
8.50450,50563
8.51262,45678
8.52073,51010
8.52887,59618
8.53698,95329
8.54512,144203
8.55323,218297
8.56135,260034
8.56948,222780
8.57760,170627
8.58572,116734
8.59385,83383
8.60197,68976
8.61010,60413
8.61822,66666
8.62633,56982
8.63447,51609
8.64258,50782
8.65072,52278
8.65883,50946
8.66695,52962
8.67508,48580
8.68320,51810
8.69132,49144
8.69945,50864
8.70757,51330
8.71570,55420
8.72382,71550
8.73193,93544
8.74007,119868
8.74818,138860
8.75632,142553
8.76443,121096
8.77255,103205
8.78068,85666
8.78880,76139
8.79693,69078
8.80505,67162
8.81317,67345
8.82130,74177
8.82942,68554
8.83753,70344
8.84567,76321
8.85378,69866
8.86192,67507
8.87003,64382
8.87815,69226
8.88628,63853
8.89440,65340
8.90253,60545
8.91065,62575
8.91877,62442
8.92690,60204
8.93502,66895
8.94315,71802
8.95127,74460
8.95938,74205
8.96752,72187
8.97563,67753
8.98375,64917
8.99188,62442
9.00000,61334
9.00813,58710
9.01625,55985
9.02437,53720
9.03250,56608
9.04062,54053
9.04875,54587
9.05687,54959
9.06498,52203
9.07312,53857
9.08123,50810
9.08935,57009
9.09748,58816
9.10560,67549
9.11373,66231
9.12185,62157
9.12997,62252
9.13810,56184
9.14622,53320
9.15435,56386
9.16247,58614
9.17058,55519
9.17872,52792
9.18683,53356
9.19497,51557
9.20308,47627
9.21120,49213
9.21933,49141
9.22745,52564
9.23557,48153
9.24370,53128
9.25182,47218
9.25995,52180
9.26807,50762
9.27618,52990
9.28432,52558
9.29243,49875
9.30057,51105
9.30868,48134
9.31680,47568
9.32493,52154
9.33305,52997
9.34118,52841
9.34930,55456
9.35742,53968
9.36555,46789
9.37367,47944
9.38178,44402
9.38992,42662
9.39803,45555
9.40617,52466
9.41428,54243
9.42240,55746
9.43053,57594
9.43865,58425
9.44678,57188
9.45490,54388
9.46302,52525
9.47115,51993
9.47927,48861
9.48738,42325
9.49552,47472
9.50363,47353
9.51177,50441
9.51988,53505
9.52800,51251
9.53613,50708
9.54425,45792
9.55238,42231
9.56050,37462
9.56862,35760
9.57675,36927
9.58487,38906
9.59300,37236
9.60112,33063
9.60923,35262
9.61737,34129
9.62548,36180
9.63360,38208
9.64173,37295
9.64985,36152
9.65798,37822
9.66610,34374
9.67422,35171
9.68235,36067
9.69047,30702
9.69860,31418
9.70672,31759
9.71483,34632
9.72297,32517
9.73108,33353
9.73920,32130
9.74733,33436
9.75545,29031
9.76358,29734
9.77170,31248
9.77982,36046
9.78795,30314
9.79607,31261
9.80420,32012
9.81232,29325
9.82043,32603
9.82857,29868
9.83668,31633
9.84482,33193
9.85293,31428
9.86105,33754
9.86918,30262
9.87730,31198
9.88542,37364
9.89355,31174
9.90167,31843
9.90980,30538
9.91792,30047
9.92603,37501
9.93417,41631
9.94228,47978
9.95042,50365
9.95853,55971
9.96665,58299
9.97478,55168
9.98290,49759
9.99103,46529
9.99915,40108
10.00727,39124
10.01540,33650
10.02352,33047
10.03163,36110
10.03977,36330
10.04788,37156
10.05602,33218
10.06413,31834
10.07225,31993
10.08038,31063
10.08850,31486
10.09663,33752
10.10475,34425
10.11287,35802
10.12100,32338
10.12912,29030
10.13725,30649
10.14537,32113
10.15348,30223
10.16162,30608
10.16973,32723
10.17785,32534
10.18598,32364
10.19410,33151
10.20223,29702
10.21035,28728
10.21847,29091
10.22660,33782
10.23472,33364
10.24285,38067
10.25097,39852
10.25908,49787
10.26722,83352
10.27533,179039
10.28345,365449
10.29158,708013
10.29970,1206442
10.30783,1836887
10.31595,2896770
10.32407,4340465
10.33220,5853936
10.34032,6439588
10.34845,5547246
10.35657,3792298
10.36468,2204368
10.37282,1183423
10.38093,693516
10.38907,456888
10.39718,336239
10.40530,261282
10.41343,206945
10.42155,184321
10.42967,167738
10.43780,142447
10.44592,134494
10.45405,124944
10.46217,121472
10.47028,106093
10.47842,107187
10.48653,100656
10.49467,100124
10.50278,90147
10.51090,87300
10.51903,84957
10.52715,81374
10.53527,76403
10.54340,72518
10.55152,71917
10.55965,74250
10.56777,77698
10.57588,74512
10.58402,69121
10.59213,67416
10.60027,63144
10.60838,63408
10.61650,58046
10.62463,60388
10.63275,57622
10.64088,55448
10.64900,55910
10.65712,59624
10.66525,53231
10.67337,57413
10.68148,60636
10.68962,58129
10.69773,54989
10.70587,54705
10.71398,55379
10.72210,51208
10.73023,52497
10.73835,53316
10.74648,50257
10.75460,55105
10.76272,48410
10.77085,50500
10.77897,46152
10.78710,45887
10.79522,41226
10.80333,43873
10.81147,44570
10.81958,44813
10.82770,42605
10.83583,41973
10.84395,42092
10.85208,43420
10.86020,40437
10.86832,42821
10.87645,41385
10.88457,37488
10.89270,42628
10.90082,40024
10.90893,40676
10.91707,39351
10.92518,35464
10.93330,38559
10.94143,36160
10.94955,37947
10.95768,38902
10.96580,40636
10.97392,38547
10.98205,38573
10.99017,42940
10.99830,35440
11.00642,38848
11.01453,36035
11.02267,37180
11.03078,34783
11.03892,35399
11.04703,36834
11.05515,35837
11.06328,33122
11.07140,34794
11.07952,38473
11.08765,40718
11.09577,40345
11.10390,40798
11.11202,40049
11.12013,36062
11.12827,34969
11.13638,34028
11.14452,34852
11.15263,35299
11.16075,34616
11.16888,40229
11.17700,35767
11.18513,35674
11.19325,39542
11.20137,39152
11.20950,34002
11.21762,31852
11.22573,32279
11.23387,31805
11.24198,31786
11.25012,41143
11.25823,52941
11.26635,60356
11.27448,73003
11.28260,83112
11.29073,87796
11.29885,84549
11.30697,80693
11.31510,91302
11.32322,111988
11.33133,131820
11.33947,139431
11.34758,140345
11.35572,124754
11.36383,102478
11.37195,85030
11.38008,75616
11.38820,66689
11.39633,63610
11.40445,60861
11.41257,52622
11.42070,55867
11.42882,57176
11.43695,51610
11.44507,50553
11.45318,49418
11.46132,51709
11.46943,48965
11.47755,52780
11.48568,56286
11.49380,67458
11.50193,70607
11.51005,71615
11.51817,74113
11.52630,73513
11.53442,68910
11.54255,63474
11.55067,60615
11.55878,55427
11.56692,56565
11.57503,50898
11.58315,46177
11.59128,49373
11.59940,52877
11.60753,59039
11.61565,71603
11.62377,71553
11.63190,70149
11.64002,65796
11.64815,54441
11.65627,57932
11.66438,48144
11.67252,47672
11.68063,52976
11.68877,51750
11.69688,52261
11.70500,57876
11.71313,60039
11.72125,54270
11.72937,51174
11.73750,52758
11.74562,49022
11.75375,47125
11.76187,46484
11.76998,42470
11.77812,42269
11.78623,40556
11.79437,39156
11.80248,38429
11.81060,37907
11.81873,38106
11.82685,43339
11.83498,37962
11.84310,35866
11.85122,38427
11.85935,39187
11.86747,36676
11.87558,35672
11.88372,35997
11.89183,34132
11.89997,36026
11.90808,42976
11.91620,45755
11.92433,51085
11.93245,49351
11.94058,52048
11.94870,45477
11.95682,44878
11.96495,37009
11.97307,39173
11.98118,42857
11.98932,36562
11.99743,38292
12.00557,45560
12.01368,46774
12.02180,47421
12.02993,43421
12.03805,44842
12.04618,37773
12.05430,39744
12.06242,39168
12.07055,38003
12.07867,38541
12.08680,36823
12.09492,35193
12.10303,38398
12.11117,35832
12.11928,34017
12.12740,36009
12.13553,34298
12.14365,33490
12.15178,33720
12.15990,33717
12.16802,33641
12.17615,30418
12.18427,34545
12.19240,34580
12.20052,31558
12.20863,33663
12.21677,32550
12.22488,31848
12.23302,32769
12.24113,31230
12.24925,30437
12.25738,27867
12.26550,31100
12.27362,30739
12.28175,29808
12.28987,31682
12.29800,31298
12.30612,30611
12.31423,29071
12.32237,27923
12.33048,28841
12.33862,28402
12.34673,29980
12.35485,30455
12.36298,28800
12.37110,28871
12.37922,27906
12.38735,30074
12.39547,33749
12.40360,37014
12.41172,43499
12.41983,50857
12.42797,49225
12.43608,50025
12.44422,48770
12.45233,41890
12.46045,36271
12.46858,31612
12.47670,36231
12.48483,29464
12.49295,32484
12.50107,30085
12.50920,29274
12.51732,28538
12.52543,30237
12.53357,30052
12.54168,38340
12.54982,46731
12.55793,60551
12.56605,75933
12.57418,80392
12.58230,67676
12.59043,61804
12.59855,50777
12.60667,43218
12.61480,40254
12.62292,38974
12.63105,36700
12.63917,33785
12.64728,33256
12.65542,31228
12.66353,32666
12.67165,30986
12.67978,28375
12.68790,31320
12.69603,29255
12.70415,30159
12.71227,28031
12.72040,30032
12.72852,26791
12.73665,28441
12.74477,29173
12.75288,30226
12.76102,30517
12.76913,28564
12.77725,33989
12.78538,33913
12.79350,34649
12.80163,33771
12.80975,30993
12.81787,27738
12.82600,27013
12.83412,29687
12.84225,29574
12.85037,33864
12.85848,25923
12.86662,26910
12.87473,26121
12.88287,27099
12.89098,26755
12.89910,27440
12.90723,28695
12.91535,31004
12.92347,32836
12.93160,38827
12.93972,47574
12.94785,55197
12.95597,60677
12.96408,66756
12.97222,68187
12.98033,71279
12.98847,68794
12.99658,64445
13.00470,56820
13.01283,48078
13.02095,48555
13.02907,45447
13.03720,42758
13.04532,41989
13.05345,39735
13.06157,39567
13.06968,35161
13.07782,35148
13.08593,33913
13.09407,32127
13.10218,31553
13.11030,31983
13.11843,30206
13.12655,29183
13.13468,31556
13.14280,32697
13.15092,28916
13.15905,35923
13.16717,30637
13.17528,31247
13.18342,28929
13.19153,31797
13.19967,33043
13.20778,31593
13.21590,35191
13.22403,34587
13.23215,31666
13.24028,37555
13.24840,37797
13.25652,38779
13.26465,38503
13.27277,38449
13.28090,36376
13.28902,38430
13.29713,31885
13.30527,39786
13.31338,37895
13.32150,35279
13.32963,40014
13.33775,35983
13.34588,36864
13.35400,31938
13.36212,33220
13.37025,30854
13.37837,31255
13.38650,31737
13.39462,31310
13.40273,31709
13.41087,31113
13.41898,27707
13.42710,31037
13.43523,30180
13.44335,28318
13.45148,27830
13.45960,29071
13.46772,28489
13.47585,28453
13.48397,27502
13.49210,27057
13.50022,26540
13.50833,29460
13.51647,29336
13.52458,28940
13.53272,32562
13.54083,33377
13.54895,37655
13.55708,37015
13.56520,35913
13.57332,38559
13.58145,36938
13.58957,39597
13.59770,42454
13.60582,56029
13.61393,68052
13.62207,82924
13.63018,93065
13.63832,83738
13.64643,75863
13.65455,58822
13.66268,47413
13.67080,41744
13.67893,40492
13.68705,37598
13.69517,39441
13.70330,35638
13.71142,38451
13.71953,35463
13.72767,36600
13.73578,39486
13.74392,44750
13.75203,55335
13.76015,78437
13.76828,115171
13.77640,130046
13.78453,158748
13.79265,168803
13.80077,149270
13.80890,143000
13.81702,138344
13.82513,136542
13.83327,132642
13.84138,121194
13.84952,113147
13.85763,98690
13.86575,83827
13.87388,76658
13.88200,70853
13.89013,71722
13.89825,67094
13.90637,60189
13.91450,59606
13.92262,51469
13.93075,50461
13.93887,50478
13.94698,52160
13.95512,47338
13.96323,48511
13.97135,45052
13.97948,44654
13.98760,44250
13.99573,44454
14.00385,46234
14.01197,44935
14.02010,45835
14.02822,41543
14.03635,39373
14.04447,40058
14.05258,39095
14.06072,38367
14.06883,35818
14.07695,33083
14.08508,34897
14.09320,37926
14.10133,35156
14.10945,35337
14.11757,37821
14.12570,38909
14.13382,47205
14.14195,59037
14.15007,69349
14.15818,74819
14.16632,78284
14.17443,75792
14.18257,68213
14.19068,66710
14.19880,57068
14.20693,58206
14.21505,60182
14.22317,52956
14.23130,55639
14.23942,54509
14.24755,51928
14.25567,50696
14.26378,49865
14.27192,45922
14.28003,43038
14.28817,42349
14.29628,40372
14.30440,38840
14.31253,38016
14.32065,31777
14.32878,32379
14.33690,34040
14.34502,34154
14.35315,33255
14.36127,36246
14.36938,32377
14.37752,32817
14.38563,36124
14.39377,42377
14.40188,60076
14.41000,79541
14.41813,105894
14.42625,120271
14.43438,114220
14.44250,101211
14.45062,83130
14.45875,64461
14.46687,56774
14.47498,47818
14.48312,45202
14.49123,41238
14.49937,37633
14.50748,38400
14.51560,34774
14.52373,42372
14.53185,37074
14.53998,34966
14.54810,32780
14.55622,32757
14.56435,30921
14.57247,31535
14.58060,30368
14.58872,29536
14.59683,32202
14.60497,31694
14.61308,30837
14.62120,31734
14.62933,31066
14.63745,29576
14.64558,31266
14.65370,29110
14.66182,27852
14.66995,25658
14.67807,25742
14.68620,28729
14.69432,31218
14.70243,28219
14.71057,31232
14.71868,28667
14.72682,27437
14.73493,29056
14.74305,29923
14.75118,28398
14.75930,25019
14.76742,29571
14.77555,29560
14.78367,35960
14.79180,55022
14.79992,104730
14.80803,223839
14.81617,422306
14.82428,728282
14.83242,998495
14.84053,1006877
14.84865,832569
14.85678,589939
14.86490,387928
14.87302,265741
14.88115,203214
14.88927,167639
14.89740,136106
14.90552,120998
14.91363,108937
14.92177,100063
14.92988,87082
14.93802,75831
14.94613,77317
14.95425,73024
14.96238,64519
14.97050,67213
14.97863,60481
14.98675,62253
14.99487,57468
15.00300,57499
15.01112,52305
15.01923,53209
15.02737,50907
15.03548,49543
15.04362,47345
15.05173,52991
15.05985,49840
15.06798,47181
15.07610,43678
15.08423,43517
15.09235,44124
15.10047,40982
15.10860,41786
15.11672,40714
15.12485,44232
15.13297,42429
15.14108,45250
15.14922,39571
15.15733,43903
15.16545,40021
15.17358,41906
15.18170,41383
15.18983,41542
15.19795,34661
15.20607,33580
15.21420,33371
15.22232,32994
15.23045,33771
15.23857,31053
15.24668,31761
15.25482,30753
15.26293,29998
15.27105,30450
15.27918,32903
15.28730,31050
15.29543,27942
15.30355,27988
15.31167,30323
15.31980,30689
15.32792,27749
15.33605,30411
15.34417,26474
15.35228,28486
15.36042,31172
15.36853,31864
15.37667,29447
15.38478,27661
15.39290,29707
15.40103,28594
15.40915,28656
15.41727,29194
15.42540,29076
15.43352,26762
15.44165,28406
15.44977,28440
15.45788,29758
15.46602,34872
15.47413,39128
15.48227,43292
15.49038,44129
15.49850,53605
15.50663,47001
15.51475,49621
15.52288,41271
15.53100,45061
15.53912,45285
15.54725,44159
15.55537,40210
15.56348,40748
15.57162,37349
15.57973,33238
15.58787,34565
15.59598,31235
15.60410,30022
15.61223,32397
15.62035,29575
15.62848,31647
15.63660,30717
15.64472,28843
15.65285,28753
15.66097,31916
15.66908,30891
15.67722,25585
15.68533,27386
15.69347,27153
15.70158,27542
15.70970,27086
15.71783,26835
15.72595,29107
15.73408,26548
15.74220,30530
15.75032,33537
15.75845,44256
15.76657,50627
15.77470,69992
15.78282,83095
15.79093,92590
15.79907,85471
15.80718,76692
15.81530,62503
15.82343,50837
15.83155,46208
15.83968,42571
15.84780,40737
15.85592,37981
15.86405,39448
15.87217,35994
15.88030,41353
15.88842,41642
15.89653,46483
15.90467,40492
15.91278,34380
15.92090,37798
15.92903,33854
15.93715,32570
15.94528,33807
15.95340,32917
15.96152,34035
15.96965,30388
15.97777,34746
15.98590,30372
15.99402,36466
16.00213,32493
16.01027,31404
16.01838,33092
16.02652,36556
16.03463,32496
16.04275,31946
16.05088,31361
16.05900,30523
16.06712,28758
16.07525,30718
16.08337,29426
16.09150,27457
16.09962,30508
16.10773,28456
16.11587,26263
16.12398,28722
16.13212,30201
16.14023,29587
16.14835,27372
16.15648,31970
16.16460,29913
16.17273,27781
16.18085,27329
16.18897,27927
16.19710,27394
16.20522,25874
16.21333,30488
16.22147,28240
16.22958,31173
16.23772,28691
16.24583,25783
16.25395,30344
16.26208,25256
16.27020,29061
16.27833,26495
16.28645,29021
16.29457,26635
16.30270,27592
16.31082,31524
16.31893,28437
16.32707,27723
16.33518,26344
16.34332,27890
16.35143,26651
16.35955,28463
16.36768,27439
16.37580,28395
16.38393,27099
16.39205,26238
16.40017,27014
16.40830,29593
16.41642,25974
16.42455,29075
16.43267,27578
16.44078,34937
16.44892,35412
16.45703,49850
16.46515,65195
16.47328,90223
16.48140,99459
16.48953,96401
16.49765,92612
16.50577,78278
16.51390,61487
16.52202,49218
16.53015,45457
16.53827,42349
16.54638,38204
16.55452,39238
16.56263,41290
16.57077,40679
16.57888,32836
16.58700,35294
16.59513,35357
16.60325,36365
16.61137,32893
16.61950,33114
16.62762,32452
16.63575,32971
16.64387,31450
16.65198,31976
16.66012,31001
16.66823,29872
16.67637,29284
16.68448,28576
16.69260,30430
16.70073,29858
16.70885,32174
16.71697,28977
16.72510,30295
16.73322,28144
16.74135,25626
16.74947,27625
16.75758,28407
16.76572,28949
16.77383,30513
16.78197,28994
16.79008,29123
16.79820,27298
16.80633,28957
16.81445,24905
16.82258,27862
16.83070,26073
16.83882,26610
16.84695,27116
16.85507,27090
16.86318,25680
16.87132,25435
16.87943,27275
16.88757,28110
16.89568,25795
16.90380,24764
16.91193,22020
16.92005,23264
16.92818,25854
16.93630,23496
16.94442,24836
16.95255,28037
16.96067,25544
16.96878,28017
16.97692,26051
16.98503,23820
16.99317,26008
17.00128,28967
17.00940,23841
17.01753,24436
17.02565,27561
17.03378,27476
17.04190,26656
17.05002,26270
17.05815,29859
17.06627,28685
17.07440,30821
17.08252,28588
17.09063,32694
17.09877,33206
17.10688,36784
17.11500,37248
17.12313,33905
17.13125,35771
17.13938,32492
17.14750,30333
17.15562,28304
17.16375,28850
17.17187,29920
17.18000,25702
17.18812,26957
17.19623,27453
17.20437,29384
17.21248,25243
17.22062,32357
17.22873,24984
17.23685,26624
17.24498,26440
17.25310,27971
17.26122,27059
17.26935,29103
17.27747,25956
17.28560,23397
17.29372,27366
17.30183,24625
17.30997,30358
17.31808,27296
17.32622,23817
17.33433,26773
17.34245,28014
17.35058,26885
17.35870,28985
17.36682,30982
17.37495,32685
17.38307,29948
17.39120,31702
17.39932,30912
17.40743,33216
17.41557,34023
17.42368,28147
17.43182,28365
17.43993,28323
17.44805,29117
17.45618,34009
17.46430,27996
17.47243,26318
17.48055,24316
17.48867,29588
17.49680,31539
17.50492,29291
17.51303,32079
17.52117,31423
17.52928,30123
17.53742,38677
17.54553,37392
17.55365,42913
17.56178,44563
17.56990,57359
17.57803,70358
17.58615,88632
17.59427,107029
17.60240,123737
17.61052,118286
17.61865,107407
17.62677,95200
17.63488,72653
17.64302,62514
17.65113,52518
17.65925,50580
17.66738,46392
17.67550,45914
17.68363,44726
17.69175,40962
17.69987,39787
17.70800,39079
17.71612,37565
17.72425,38471
17.73237,36905
17.74048,34486
17.74862,33977
17.75673,34196
17.76485,37343
17.77298,32461
17.78110,33315
17.78923,32332
17.79735,30443
17.80547,32095
17.81360,32378
17.82172,36514
17.82985,33532
17.83797,36436
17.84608,37761
17.85422,36988
17.86233,39493
17.87047,36193
17.87858,35086
17.88670,35181
17.89483,31656
17.90295,36546
17.91107,32627
17.91920,29868
17.92732,29950
17.93545,30971
17.94357,31264
17.95168,28028
17.95982,26547
17.96793,27127
17.97607,29795
17.98418,28722
17.99230,28017
18.00043,29980
18.00855,33598
18.01668,37989
18.02480,39362
18.03292,45226
18.04105,50572
18.04917,82400
18.05728,127201
18.06542,206936
18.07353,264838
18.08167,324755
18.08978,364906
18.09790,384979
18.10603,401124
18.11415,398599
18.12228,393130
18.13040,377672
18.13852,374988
18.14665,375471
18.15477,363055
18.16288,357211
18.17102,340147
18.17913,343062
18.18727,330823
18.19538,324946
18.20350,320627
18.21163,304495
18.21975,312911
18.22788,307037
18.23600,288307
18.24412,288882
18.25225,283820
18.26037,272863
18.26850,269453
18.27662,268291
18.28473,252754
18.29287,248027
18.30098,239165
18.30910,239962
18.31723,237867
18.32535,220404
18.33348,221644
18.34160,219239
18.34972,218408
18.35785,206263
18.36597,204895
18.37410,198165
18.38222,197741
18.39033,193283
18.39847,189175
18.40658,187156
18.41470,185727
18.42283,181509
18.43095,182170
18.43908,181069
18.44720,179064
18.45532,188102
18.46345,190467
18.47157,202878
18.47970,204700
18.48782,196264
18.49593,183941
18.50407,169482
18.51218,166145
18.52032,150825
18.52843,152772
18.53655,144615
18.54468,142280
18.55280,136627
18.56092,140146
18.56905,135013
18.57717,129958
18.58530,126177
18.59342,130151
18.60153,132346
18.60967,122777
18.61778,127269
18.62592,118279
18.63403,124124
18.64215,116939
18.65028,116635
18.65840,116806
18.66653,106860
18.67465,108994
18.68277,104577
18.69090,97803
18.69902,96198
18.70713,100626
18.71527,98488
18.72338,92368
18.73152,92114
18.73963,92325
18.74775,91954
18.75588,89877
18.76400,91425
18.77213,89509
18.78025,84442
18.78837,82550
18.79650,83149
18.80462,81400
18.81273,80986
18.82087,81254
18.82898,80452
18.83712,80949
18.84523,74781
18.85335,75461
18.86148,75602
18.86960,76214
18.87773,73451
18.88585,74452
18.89397,71280
18.90210,70299
18.91022,69272
18.91835,69445
18.92647,73998
18.93458,66956
18.94272,66347
18.95083,66825
18.95895,69052
18.96708,64096
18.97520,68653
18.98333,62392
18.99145,63583
18.99957,60737
19.00770,64310
19.01582,63062
19.02395,61978
19.03207,64996
19.04018,62364
19.04832,53089
19.05643,54616
19.06457,62169
19.07268,63419
19.08080,63295
19.08893,69507
19.09705,72582
19.10517,74850
19.11330,74924
19.12142,72485
19.12955,72809
19.13767,71291
19.14578,67474
19.15392,69929
19.16203,64184
19.17017,66209
19.17828,60014
19.18640,60289
19.19453,58421
19.20265,58263
19.21077,55302
19.21890,53291
19.22702,55278
19.23515,53002
19.24327,49720
19.25138,51971
19.25952,49649
19.26763,49313
19.27577,46850
19.28388,49480
19.29200,47260
19.30013,47427
19.30825,44065
19.31638,49055
19.32450,47080
19.33262,51220
19.34075,46723
19.34887,45370
19.35698,48995
19.36512,56138
19.37323,51575
19.38137,53127
19.38948,53131
19.39760,53012
19.40573,47519
19.41385,50532
19.42198,49533
19.43010,55541
19.43822,61420
19.44635,73054
19.45447,75346
19.46258,73639
19.47072,68295
19.47883,60007
19.48697,55422
19.49508,53052
19.50320,47991
19.51133,47621
19.51945,42073
19.52758,48925
19.53570,45504
19.54382,43334
19.55195,45005
19.56007,43943
19.56820,43604
19.57632,43136
19.58443,41840
19.59257,38644
19.60068,40509
19.60880,37253
19.61693,43946
19.62505,52115
19.63318,71000
19.64130,85246
19.64942,107321
19.65755,118869
19.66567,141005
19.67380,128533
19.68192,118834
19.69003,108135
19.69817,93062
19.70628,79925
19.71442,72191
19.72253,67259
19.73065,61247
19.73878,56282
19.74690,49685
19.75502,57131
19.76315,48867
19.77127,49710
19.77940,47100
19.78752,52605
19.79563,51771
19.80377,48256
19.81188,51916
19.82002,47653
19.82813,45175
19.83625,46620
19.84438,41985
19.85250,51274
19.86063,67013
19.86875,99949
19.87687,154041
19.88500,238777
19.89312,313781
19.90123,365005
19.90937,371628
19.91748,335620
19.92562,287977
19.93373,221685
19.94185,181037
19.94998,146681
19.95810,131685
19.96623,119493
19.97435,109018
19.98247,108299
19.99060,104566
19.99872,101332
20.00683,92318
20.01497,93433
20.02308,86034
20.03122,83302
20.03933,78771
20.04745,75358
20.05558,67409
20.06370,63382
20.07183,60300
20.07995,61105
20.08807,62492
20.09620,59278
20.10432,49478
20.11245,56302
20.12057,49843
20.12868,47916
20.13682,45352
20.14493,50367
20.15305,47820
20.16118,50951
20.16930,55921
20.17743,59349
20.18555,57771
20.19367,56997
20.20180,61171
20.20992,55412
20.21805,57538
20.22617,58264
20.23428,69798
20.24242,84758
20.25053,91590
20.25865,98519
20.26678,103625
20.27490,96358
20.28303,83627
20.29115,70815
20.29927,65692
20.30740,60967
20.31552,50820
20.32365,47191
20.33177,45779
20.33988,42573
20.34802,41051
20.35613,40653
20.36427,40886
20.37238,40761
20.38050,39095
20.38863,41931
20.39675,42003
20.40487,47596
20.41300,49484
20.42112,46446
20.42925,44922
20.43737,48435
20.44548,47533
20.45362,46450
20.46173,41190
20.46987,39331
20.47798,39269
20.48610,39917
20.49423,35369
20.50235,38168
20.51048,34425
20.51860,37859
20.52672,36128
20.53485,35667
20.54297,34612
20.55108,37814
20.55922,34348
20.56733,32445
20.57547,34843
20.58358,35290
20.59170,36682
20.59983,32027
20.60795,33416
20.61608,31744
20.62420,33923
20.63232,35969
20.64045,35498
20.64857,33427
20.65668,33517
20.66482,33126
20.67293,32037
20.68107,30985
20.68918,33896
20.69730,35037
20.70543,32050
20.71355,31716
20.72168,33711
20.72980,33329
20.73792,32929
20.74605,33506
20.75417,31387
20.76230,33663
20.77042,36413
20.77853,42109
20.78667,51580
20.79478,62466
20.80290,73751
20.81103,88027
20.81915,84380
20.82728,84291
20.83540,73125
20.84352,63606
20.85165,51650
20.85977,46877
20.86790,42750
20.87602,36832
20.88413,40219
20.89227,37080
20.90038,38984
20.90852,35743
20.91663,32755
20.92475,34232
20.93288,37052
20.94100,35484
20.94912,39621
20.95725,32507
20.96537,32756
20.97350,35673
20.98162,33645
20.98973,30642
20.99787,34424
21.00598,32535
21.01412,34842
21.02223,30254
21.03035,32923
21.03848,37148
21.04660,32546
21.05472,33071
21.06285,29004
21.07097,30737
21.07910,32897
21.08722,33206
21.09533,30126
21.10347,30273
21.11158,31033
21.11972,33727
21.12783,34649
21.13595,41026
21.14408,47039
21.15220,47800
21.16033,52768
21.16845,54676
21.17657,51159
21.18470,43306
21.19282,39106
21.20093,42076
21.20907,38343
21.21718,37881
21.22532,38217
21.23343,40387
21.24155,43158
21.24968,44778
21.25780,43013
21.26593,44604
21.27405,44685
21.28217,46378
21.29030,45182
21.29842,45294
21.30653,43993
21.31467,45957
21.32278,44718
21.33092,45268
21.33903,44699
21.34715,44449
21.35528,46571
21.36340,43288
21.37153,42320
21.37965,47779
21.38777,46539
21.39590,47002
21.40402,49149
21.41215,50856
21.42027,48851
21.42838,49936
21.43652,45341
21.44463,47579
21.45275,47044
21.46088,47507
21.46900,48666
21.47713,44685
21.48525,46297
21.49337,44859
21.50150,42461
21.50962,49844
21.51775,49462
21.52587,53447
21.53398,45302
21.54212,47077
21.55023,44593
21.55837,47725
21.56648,48143
21.57460,51285
21.58273,55199
21.59085,58323
21.59897,65234
21.60710,58673
21.61522,56782
21.62335,52408
21.63147,51844
21.63958,53351
21.64772,46789
21.65583,45232
21.66397,45285
21.67208,44054
21.68020,41997
21.68833,42666
21.69645,41073
21.70457,44835
21.71270,43230
21.72082,38210
21.72895,39461
21.73707,33210
21.74518,37389
21.75332,35264
21.76143,35458
21.76957,39337
21.77768,47566
21.78580,48404
21.79393,50587
21.80205,48350
21.81018,45432
21.81830,48679
21.82642,40205
21.83455,38122
21.84267,39775
21.85078,35210
21.85892,35471
21.86703,33615
21.87517,34577
21.88328,35208
21.89140,35438
21.89953,33848
21.90765,32470
21.91578,31221
21.92390,35615
21.93202,43864
21.94015,64084
21.94827,80782
21.95640,95460
21.96452,98961
21.97263,102192
21.98077,106032
21.98888,110782
21.99700,114417
22.00513,113851
22.01325,111074
22.02138,116981
22.02950,117858
22.03762,117023
22.04575,111223
22.05387,112445
22.06200,110447
22.07012,111430
22.07823,109930
22.08637,106584
22.09448,107099
22.10260,104434
22.11073,98834
22.11885,99290
22.12698,107389
22.13510,96481
22.14322,93076
22.15135,92324
22.15947,96208
22.16760,89190
22.17572,93339
22.18383,92810
22.19197,90375
22.20008,87436
22.20822,86530
22.21633,82911
22.22445,80334
22.23258,78770
22.24070,74084
22.24882,70314
22.25695,78116
22.26507,71821
22.27320,71952
22.28132,74261
22.28943,69479
22.29757,69568
22.30568,67527
22.31382,74759
22.32193,66562
22.33005,65672
22.33818,63084
22.34630,60357
22.35443,62218
22.36255,61688
22.37067,59715
22.37880,66845
22.38692,66392
22.39503,62302
22.40317,66853
22.41128,65790
22.41942,68137
22.42753,69039
22.43565,61914
22.44378,58877
22.45190,57886
22.46003,55441
22.46815,52603
22.47627,51273
22.48440,58067
22.49252,61402
22.50063,57957
22.50877,57168
22.51688,53477
22.52502,50028
22.53313,49340
22.54125,46287
22.54938,52862
22.55750,48636
22.56563,42419
22.57375,45198
22.58187,46120
22.59000,44051
22.59812,38120
22.60625,40365
22.61437,44597
22.62248,44878
22.63062,42334
22.63873,41123
22.64685,40949
22.65498,37845
22.66310,40163
22.67123,42100
22.67935,42767
22.68747,43909
22.69560,44321
22.70372,48692
22.71185,50199
22.71997,50099
22.72808,48208
22.73622,48123
22.74433,46256
22.75245,42487
22.76058,41832
22.76870,42400
22.77683,44431
22.78495,43316
22.79307,48496
22.80120,44903
22.80932,45049
22.81745,45817
22.82557,42295
22.83368,46850
22.84182,43086
22.84993,45679
22.85807,45492
22.86618,42641
22.87430,42814
22.88243,46738
22.89055,50596
22.89867,61552
22.90680,68555
22.91492,82592
22.92305,99693
22.93117,99092
22.93928,97860
22.94742,90415
22.95553,82430
22.96367,68269
22.97178,65095
22.97990,58697
22.98803,55949
22.99615,50970
23.00428,51972
23.01240,48112
23.02052,44587
23.02865,46092
23.03677,43465
23.04488,38154
23.05302,39379
23.06113,41196
23.06927,40232
23.07738,38770
23.08550,39744
23.09363,34975
23.10175,37263
23.10988,36653
23.11800,36828
23.12612,35221
23.13425,36122
23.14237,33669
23.15048,36782
23.15862,34123
23.16673,33015
23.17487,38670
23.18298,36062
23.19110,33426
23.19923,34849
23.20735,34479
23.21548,34270
23.22360,34750
23.23172,34506
23.23985,34301
23.24797,34724
23.25610,37665
23.26422,33848
23.27233,36795
23.28047,36756
23.28858,37080
23.29670,34415
23.30483,32135
23.31295,35081
23.32108,37029
23.32920,36326
23.33732,39835
23.34545,41462
23.35357,39111
23.36170,45254
23.36982,46751
23.37793,46574
23.38607,41364
23.39418,41405
23.40232,41588
23.41043,37960
23.41855,34258
23.42668,35518
23.43480,34340
23.44292,33282
23.45105,35000
23.45917,36634
23.46730,33172
23.47542,30528
23.48353,30414
23.49167,35207
23.49978,31552
23.50792,31754
23.51603,32151
23.52415,33098
23.53228,30728
23.54040,30950
23.54852,32159
23.55665,35194
23.56477,42481
23.57290,45208
23.58102,53200
23.58913,59753
23.59727,60880
23.60538,63330
23.61352,65983
23.62163,60521
23.62975,55168
23.63788,53357
23.64600,53548
23.65413,51035
23.66225,52640
23.67037,50800
23.67850,48277
23.68662,54896
23.69473,64191
23.70287,82456
23.71098,99927
23.71912,114891
23.72723,128567
23.73535,143336
23.74348,227141
23.75160,392940
23.75973,727567
23.76785,1261092
23.77597,1964817
23.78410,2526499
23.79222,2637779
23.80033,2453430
23.80847,1986234
23.81658,1470840
23.82472,1165373
23.83283,870113
23.84095,691967
23.84908,573652
23.85720,494071
23.86533,427164
23.87345,386142
23.88157,340695
23.88970,321540
23.89782,289005
23.90595,271440
23.91407,260515
23.92218,249623
23.93032,239994
23.93843,226740
23.94655,208323
23.95468,200829
23.96280,193392
23.97093,186211
23.97905,169562
23.98717,174872
23.99530,161877
24.00342,156581
24.01155,160542
24.01967,158764
24.02778,157724
24.03592,160514
24.04403,148588
24.05217,145493
24.06028,139338
24.06840,130923
24.07653,131864
24.08465,129246
24.09277,121837
24.10090,121535
24.10902,113758
24.11715,109692
24.12527,110063
24.13338,121326
24.14152,113562
24.14963,118674
24.15777,119049
24.16588,115516
24.17400,117512
24.18213,109190
24.19025,105046
24.19837,104903
24.20650,96255
24.21462,96162
24.22275,88712
24.23087,85418
24.23898,80091
24.24712,82184
24.25523,83215
24.26337,77158
24.27148,77922
24.27960,73170
24.28773,70027
24.29585,73103
24.30398,77294
24.31210,76635
24.32022,86416
24.32835,88800
24.33647,92031
24.34458,90569
24.35272,83047
24.36083,75163
24.36897,72024
24.37708,66251
24.38520,64430
24.39333,61987
24.40145,60507
24.40958,66798
24.41770,62900
24.42582,61523
24.43395,65771
24.44207,68800
24.45020,76073
24.45832,69633
24.46643,68273
24.47457,60619
24.48268,59528
24.49080,60243
24.49893,59982
24.50705,56537
24.51518,56134
24.52330,54653
24.53142,63780
24.53955,59822
24.54767,60126
24.55580,61542
24.56392,62316
24.57203,59841
24.58017,55316
24.58828,58156
24.59640,55969
24.60453,50417
24.61265,49260
24.62078,49689
24.62890,48878
24.63702,47028
24.64515,46697
24.65327,45825
24.66140,45303
24.66952,48528
24.67763,45398
24.68577,45429
24.69388,41636
24.70202,43169
24.71013,46234
24.71825,43424
24.72638,45117
24.73450,41861
24.74262,42864
24.75075,42559
24.75887,40157
24.76700,42930
24.77512,49160
24.78323,46642
24.79137,45510
24.79948,44560
24.80762,44074
24.81573,46486
24.82385,48337
24.83198,47126
24.84010,53414
24.84822,58364
24.85635,63489
24.86447,84220
24.87260,98281
24.88072,108401
24.88883,106273
24.89697,103492
24.90508,100488
24.91322,99079
24.92133,93386
24.92945,101234
24.93758,107783
24.94570,113382
24.95383,116948
24.96195,118697
24.97007,121540
24.97820,124462
24.98632,126678
24.99443,130081
25.00257,127044
25.01068,129329
25.01882,132931
25.02693,133575
25.03505,130646
25.04318,122901
25.05130,124803
25.05943,128123
25.06755,134502
25.07567,124882
25.08380,129920
25.09192,137783
25.10005,159747
25.10817,192209
25.11628,262050
25.12442,381534
25.13253,494808
25.14065,633454
25.14878,683266
25.15690,618251
25.16503,512488
25.17315,394047
25.18127,301450
25.18940,231787
25.19752,190694
25.20565,159251
25.21377,139256
25.22188,135828
25.23002,141312
25.23813,160240
25.24627,176020
25.25438,215372
25.26250,244516
25.27063,251228
25.27875,249963
25.28687,218749
25.29500,182710
25.30312,155383
25.31125,133869
25.31937,115487
25.32748,104833
25.33562,95836
25.34373,96018
25.35187,86149
25.35998,89670
25.36810,80653
25.37623,79257
25.38435,75312
25.39247,78795
25.40060,77731
25.40872,76363
25.41685,72839
25.42497,73032
25.43308,71053
25.44122,66743
25.44933,69341
25.45747,63096
25.46558,60220
25.47370,64121
25.48183,60407
25.48995,59417
25.49808,64358
25.50620,62027
25.51432,59073
25.52245,59339
25.53057,55429
25.53868,51893
25.54682,58347
25.55493,57209
25.56307,53194
25.57118,53208
25.57930,52060
25.58743,53605
25.59555,49946
25.60368,52590
25.61180,50963
25.61992,52771
25.62805,48538
25.63617,50830
25.64428,52006
25.65242,46513
25.66053,51444
25.66867,46743
25.67678,45706
25.68490,44450
25.69303,47577
25.70115,47268
25.70928,48376
25.71740,44306
25.72552,41470
25.73365,45341
25.74177,42747
25.74990,43554
25.75802,44255
25.76613,48964
25.77427,46733
25.78238,45272
25.79050,45191
25.79863,40960
25.80675,43107
25.81488,43429
25.82300,45152
25.83112,45185
25.83925,42158
25.84737,45731
25.85550,43417
25.86362,46580
25.87173,38775
25.87987,42144
25.88798,43876
25.89612,39753
25.90423,39926
25.91235,40677
25.92048,40732
25.92860,38530
25.93672,42991
25.94485,39633
25.95297,40035
25.96110,41529
25.96922,40295
25.97733,43779
25.98547,39104
25.99358,40846
26.00172,40537
26.00983,37822
26.01795,35554
26.02608,37506
26.03420,38268
26.04232,45091
26.05045,35341
26.05857,38772
26.06670,37996
26.07482,37754
26.08293,39838
26.09107,38038
26.09918,37176
26.10732,36034
26.11543,43058
26.12355,37889
26.13168,42368
26.13980,40928
26.14793,41732
26.15605,38467
26.16417,40403
26.17230,39210
26.18042,35300
26.18853,36606
26.19667,40992
26.20478,36927
26.21292,35477
26.22103,37843
26.22915,34950
26.23728,38299
26.24540,36171
26.25353,36844
26.26165,35571
26.26977,34847
26.27790,34278
26.28602,35840
26.29415,33047
26.30227,37235
26.31038,34001
26.31852,37259
26.32663,33989
26.33475,34618
26.34288,38169
26.35100,37138
26.35913,36239
26.36725,40566
26.37537,38044
26.38350,41178
26.39162,43880
26.39975,38584
26.40787,39225
26.41598,38457
26.42412,37661
26.43223,37681
26.44035,35285
26.44848,38528
26.45660,36174
26.46473,36917
26.47285,33194
26.48097,35224
26.48910,34358
26.49722,34019
26.50535,35984
26.51347,35836
26.52158,35970
26.52972,33553
26.53783,34073
26.54597,30645
26.55408,32019
26.56220,35042
26.57033,33843
26.57845,35156
26.58657,37276
26.59470,32034
26.60282,35308
26.61095,33474
26.61907,30915
26.62718,34107
26.63532,34968
26.64343,35442
26.65157,34321
26.65968,36857
26.66780,34937
26.67593,36780
26.68405,35747
26.69217,35851
26.70030,34092
26.70842,34673
26.71655,32901
26.72467,35441
26.73278,34258
26.74092,34614
26.74903,31889
26.75717,33543
26.76528,35885
26.77340,35522
26.78153,33378
26.78965,33916
26.79778,34722
26.80590,35773
26.81402,34226
26.82215,34062
26.83027,30114
26.83838,34003
26.84652,27789
26.85463,34961
26.86277,32856
26.87088,33959
26.87900,31118
26.88713,30765
26.89525,33162
26.90338,30851
26.91150,31284
26.91962,32899
26.92775,32178
26.93587,35936
26.94400,37326
26.95212,49997
26.96023,65882
26.96837,94990
26.97648,133639
26.98460,177030
26.99273,229772
27.00085,258775
27.00898,254725
27.01710,239153
27.02522,214575
27.03335,176397
27.04147,144989
27.04960,112606
27.05772,100846
27.06583,81507
27.07397,83104
27.08208,71567
27.09020,62982
27.09833,57548
27.10645,53740
27.11458,53355
27.12270,52047
27.13082,54321
27.13895,51827
27.14707,53080
27.15520,55996
27.16332,55250
27.17143,57379
27.17957,53752
27.18768,53011
27.19582,50182
27.20393,45827
27.21205,43908
27.22018,42665
27.22830,40429
27.23642,41697
27.24455,42501
27.25267,39670
27.26080,39254
27.26892,41061
27.27703,40834
27.28517,38033
27.29328,42575
27.30142,40418
27.30953,37567
27.31765,40258
27.32578,38207
27.33390,37210
27.34203,36084
27.35015,39639
27.35827,37795
27.36640,40347
27.37452,37010
27.38263,37956
27.39077,39027
27.39888,36177
27.40702,36900
27.41513,32935
27.42325,34117
27.43138,36932
27.43950,37524
27.44763,36096
27.45575,38487
27.46387,39019
27.47200,36798
27.48012,35826
27.48823,37293
27.49637,36768
27.50448,35069
27.51262,36440
27.52073,32512
27.52885,31281
27.53698,35230
27.54510,33069
27.55323,33718
27.56135,34183
27.56947,32553
27.57760,34905
27.58572,36023
27.59385,36531
27.60197,37383
27.61008,35895
27.61822,32803
27.62633,34378
27.63445,29830
27.64258,29557
27.65070,32426
27.65883,31648
27.66695,32175
27.67507,35322
27.68320,34006
27.69132,35938
27.69945,31939
27.70757,33923
27.71568,32831
27.72382,36202
27.73193,34612
27.74007,34073
27.74818,37951
27.75630,36498
27.76443,41328
27.77255,41799
27.78067,40099
27.78880,40881
27.79692,38101
27.80505,36091
27.81317,36317
27.82128,35219
27.82942,34952
27.83753,33956
27.84567,32874
27.85378,34021
27.86190,28437
27.87003,32467
27.87815,31477
27.88627,29813
27.89440,30704
27.90252,29931
27.91065,29805
27.91877,31748
27.92688,27145
27.93502,34098
27.94313,29038
27.95127,29278
27.95938,29437
27.96750,34165
27.97563,35419
27.98375,32907
27.99188,34288
28.00000,34561
28.00812,36738
28.01625,39560
28.02437,37537
28.03248,40781
28.04062,41031
28.04873,43959
28.05687,41860
28.06498,37820
28.07310,36875
28.08123,33815
28.08935,34644
28.09748,35699
28.10560,37485
28.11372,39781
28.12185,36776
28.12997,35951
28.13808,38959
28.14622,35485
28.15433,35978
28.16247,33389
28.17058,29583
28.17870,30548
28.18683,35364
28.19495,39460
28.20308,34617
28.21120,34057
28.21932,34423
28.22745,34412
28.23557,34318
28.24370,36445
28.25182,30128
28.25993,34648
28.26807,36377
28.27618,41324
28.28430,46308
28.29243,51734
28.30055,58785
28.30868,57346
28.31680,67323
28.32492,64057
28.33305,65869
28.34117,64707
28.34930,61599
28.35742,56335
28.36553,51344
28.37367,51109
28.38178,48825
28.38992,47506
28.39803,51770
28.40615,40957
28.41428,40347
28.42240,39817
28.43052,38844
28.43865,38083
28.44677,37979
28.45490,33533
28.46302,34396
28.47113,34402
28.47927,34852
28.48738,34807
28.49552,34462
28.50363,35416
28.51175,31589
28.51988,37316
28.52800,34856
28.53612,33117
28.54425,33685
28.55237,33550
28.56050,31767
28.56862,32337
28.57673,33369
28.58487,34087
28.59298,28755
28.60112,30253
28.60923,32756
28.61735,31232
28.62548,31531
28.63360,32072
28.64173,33802
28.64985,33303
28.65797,36264
28.66610,37460
28.67422,34513
28.68233,38274
28.69047,41584
28.69858,42664
28.70672,43191
28.71483,41363
28.72295,36192
28.73108,34620
28.73920,29354
28.74733,29995
28.75545,29413
28.76357,26866
28.77170,28583
28.77982,28499
28.78795,29995
28.79607,32846
28.80418,29659
28.81232,30671
28.82043,29388
28.82855,28961
28.83668,29313
28.84480,29079
28.85293,28976
28.86105,31799
28.86917,33457
28.87730,29107
28.88542,33289
28.89355,30054
28.90167,38316
28.90978,34239
28.91792,31798
28.92603,32451
28.93415,30916
28.94228,31076
28.95040,31608
28.95853,33117
28.96665,31793
28.97477,31187
28.98290,31747
28.99102,30883
28.99915,31469
29.00727,27486
29.01538,27216
29.02352,27522
29.03163,30266
29.03977,29758
29.04788,29279
29.05600,32004
29.06413,35949
29.07225,34246
29.08037,30948
29.08850,32055
29.09662,30984
29.10475,28297
29.11287,30732
29.12098,29735
29.12912,26385
29.13723,27592
29.14537,29118
29.15348,28281
29.16160,27179
29.16973,27116
29.17785,27424
29.18597,29617
29.19410,29535
29.20222,32533
29.21035,35950
29.21847,33417
29.22658,34000
29.23472,36425
29.24283,33540
29.25097,36190
29.25908,36775
29.26720,31878
29.27533,31959
29.28345,28770
29.29158,29413
29.29970,29235
29.30782,25118
29.31595,28795
29.32407,30518
29.33218,29807
29.34032,28444
29.34843,29483
29.35657,29454
29.36468,29851
29.37280,30306
29.38093,29406
29.38905,31412
29.39718,28023
29.40530,30670
29.41342,30166
29.42155,34758
29.42967,31006
29.43780,28167
29.44592,28194
29.45403,29976
29.46217,29533
29.47028,26768
29.47840,28435
29.48653,28924
29.49465,28085
29.50278,30090
29.51090,31454
29.51902,33052
29.52715,31513
29.53527,27413
29.54340,30456
29.55152,29196
29.55963,30974
29.56777,27784
29.57588,31892
29.58400,32538
29.59213,30757
29.60025,29694
29.60838,31511
29.61650,31612
29.62462,27243
29.63275,30612
29.64087,33208
29.64900,27329
29.65712,28506
29.66523,29031
29.67337,28028
29.68148,29761
29.68962,29024
29.69773,28904
29.70585,28419
29.71398,29330
29.72210,32509
29.73022,28987
29.73835,29514
29.74647,29597
29.75460,27051
29.76272,26628
29.77083,23873
29.77897,26045
29.78708,24705
29.79522,28904
29.80333,24611
29.81145,25826
29.81958,26808
29.82770,27773
29.83583,27284
29.84395,28008
29.85207,30872
29.86020,25989
29.86832,31372
29.87643,36975
29.88457,46924
29.89268,48027
29.90082,47728
29.90893,48460
29.91705,47794
29.92518,51474
29.93330,46520
29.94143,49557
29.94955,44473
29.95767,48016
29.96580,48641
29.97392,47408
29.98203,43550
29.99017,44789
29.99828,42917
30.00642,42756
30.01453,39787
30.02265,40114
30.03078,37624
30.03890,41188
30.04703,40180
30.05515,41704
30.06327,43463
30.07140,47335
30.07952,43804
30.08765,43502
30.09577,46061
30.10388,43737
30.11202,42507
30.12013,43877
30.12825,39215
30.13638,41390
30.14450,43433
30.15263,42709
30.16075,41774
30.16887,42022
30.17700,42324
30.18512,39381
30.19325,39871
30.20137,42834
30.20948,35979
30.21762,39828
30.22573,36995
30.23385,38555
30.24198,35427
30.25010,36576
30.25823,35114
30.26635,36071
30.27447,33789
30.28260,35819
30.29072,37126
30.29885,34472
30.30697,34798
30.31508,33956
30.32322,34245
30.33133,33121
30.33947,33566
30.34758,34633
30.35570,32626
30.36383,33743
30.37195,32999
30.38007,32561
30.38820,33015
30.39632,31460
30.40445,30488
30.41257,29217
30.42068,29870
30.42882,30010
30.43693,28326
30.44507,32032
30.45318,29149
30.46130,33128
30.46943,29629
30.47755,31620
30.48568,29750
30.49380,30704
30.50192,29981
30.51005,28836
30.51817,30361
30.52628,28804
30.53442,28698
30.54253,30817
30.55067,32768
30.55878,28361
30.56690,29262
30.57503,33295
30.58315,30289
30.59128,30129
30.59940,30460
30.60752,30274
30.61565,26571
30.62377,29013
30.63190,28094
30.64002,30002
30.64813,28132
30.65627,30764
30.66438,28987
30.67250,28213
30.68063,28667
30.68875,30408
30.69688,27865
30.70500,25345
30.71312,28395
30.72125,28255
30.72937,29735
30.73750,26585
30.74562,31858
30.75373,26577
30.76187,29636
30.76998,33725
30.77810,37672
30.78623,40541
30.79435,47426
30.80248,47051
30.81060,49970
30.81872,50908
30.82685,42838
30.83497,40145
30.84310,37504
30.85122,31233
30.85933,33411
30.86747,30036
30.87558,29508
30.88372,28702
30.89183,28920
30.89995,28977
30.90808,28508
30.91620,29383
30.92432,27744
30.93245,33037
30.94057,29290
30.94870,30263
30.95682,30006
30.96493,31071
30.97307,30718
30.98118,29146
30.98932,28639
30.99743,30263
31.00555,27713
31.01368,28086
31.02180,29796
31.02992,30000
31.03805,30799
31.04617,31708
31.05430,33503
31.06242,29020
31.07053,30171
31.07867,34763
31.08678,38864
31.09492,40103
31.10303,40335
31.11115,34774
31.11928,35190
31.12740,35082
31.13553,29568
31.14365,29653
31.15177,30504
31.15990,32756
31.16802,34804
31.17613,37080
31.18427,44338
31.19238,49413
31.20052,58523
31.20863,55068
31.21675,60237
31.22488,54396
31.23300,48576
31.24113,44095
31.24925,38555
31.25737,32033
31.26550,35801
31.27362,29905
31.28175,29971
31.28987,29744
31.29798,27272
31.30612,27789
31.31423,29094
31.32235,31508
31.33048,30942
31.33860,33426
31.34673,30050
31.35485,28617
31.36297,27481
31.37110,28041
31.37922,30273
31.38735,27937
31.39547,27218
31.40358,29876
31.41172,27427
31.41983,28190
31.42795,32784
31.43608,28105
31.44420,32499
31.45233,30269
31.46045,29479
31.46857,31325
31.47670,34649
31.48482,34733
31.49295,33979
31.50107,32348
31.50918,31812
31.51732,29615
31.52543,31293
31.53357,33211
31.54168,31554
31.54980,34995
31.55793,36039
31.56605,34486
31.57417,35357
31.58230,39177
31.59042,30190
31.59855,34119
31.60667,28854
31.61478,30139
31.62292,29291
31.63103,31055
31.63917,25617
31.64728,31685
31.65540,30384
31.66353,34600
31.67165,30442
31.67978,30883
31.68790,32334
31.69602,29909
31.70415,31568
31.71227,29831
31.72038,31079
31.72852,30547
31.73663,29846
31.74477,28655
31.75288,25704
31.76100,31799
31.76913,31984
31.77725,29571
31.78538,32587
31.79350,30979
31.80162,29653
31.80975,29707
31.81787,32805
31.82598,32693
31.83412,33521
31.84223,35090
31.85037,39545
31.85848,40560
31.86660,42770
31.87473,41771
31.88285,45230
31.89098,46803
31.89910,42828
31.90722,40634
31.91535,40758
31.92347,39113
31.93160,38212
31.93972,36636
31.94783,37212
31.95597,36139
31.96408,41545
31.97220,36461
31.98033,41774
31.98845,40805
31.99658,37894
32.00470,34721
32.01282,36940
32.02095,34576
32.02907,32922
32.03720,35618
32.04532,28825
32.05343,28932
32.06157,30644
32.06968,33656
32.07780,31363
32.08593,27151
32.09405,32659
32.10218,30740
32.11030,30055
32.11842,28861
32.12655,26030
32.13467,29175
32.14280,29444
32.15092,29401
32.15903,28140
32.16717,28509
32.17528,26844
32.18342,29843
32.19153,30352
32.19965,28526
32.20778,30135
32.21590,25802
32.22402,29781
32.23215,30358
32.24027,28382
32.24840,30510
32.25652,31538
32.26463,31247
32.27277,35213
32.28088,31963
32.28902,33221
32.29713,28366
32.30525,28849
32.31338,32547
32.32150,30907
32.32963,30243
32.33775,30573
32.34587,33469
32.35400,31572
32.36212,31612
32.37023,32595
32.37837,30257
32.38648,28177
32.39462,28506
32.40273,30064
32.41085,29996
32.41898,27392
32.42710,29388
32.43523,27304
32.44335,27710
32.45147,29221
32.45960,31121
32.46772,28573
32.47583,30791
32.48397,28778
32.49208,29306
32.50022,30098
32.50833,28295
32.51645,27957
32.52458,26712
32.53270,25023
32.54083,30355
32.54895,29444
32.55707,30076
32.56520,29891
32.57332,35190
32.58145,33168
32.58957,33366
32.59768,33229
32.60582,29826
32.61393,30391
32.62205,28635
32.63018,27007
32.63830,29381
32.64643,28168
32.65455,26516
32.66267,30703
32.67080,31106
32.67892,31449
32.68705,29084
32.69517,32477
32.70328,31726
32.71142,28916
32.71953,36327
32.72767,29308
32.73578,29188
32.74390,29715
32.75203,30751
32.76015,27825
32.76827,28118
32.77640,28778
32.78452,26146
32.79265,29021
32.80077,29924
32.80888,27704
32.81702,28716
32.82513,24589
32.83327,27243
32.84138,30012
32.84950,30158
32.85763,28643
32.86575,28127
32.87387,29441
32.88200,28579
32.89012,29548
32.89825,32039
32.90637,28831
32.91448,29141
32.92262,31488
32.93073,28403
32.93887,29923
32.94698,28553
32.95510,33280
32.96323,30187
32.97135,40692
32.97948,46212
32.98760,48192
32.99572,48896
33.00385,48893
33.01197,49472
33.02008,53535
33.02822,41405
33.03633,37342
33.04447,35102
33.05258,32851
33.06070,36667
33.06883,31753
33.07695,32928
33.08508,36638
33.09320,36238
33.10132,35082
33.10945,46773
33.11757,44206
33.12570,39504
33.13382,41481
33.14193,39407
33.15007,36021
33.15818,35282
33.16630,34166
33.17443,32856
33.18255,30272
33.19068,30744
33.19880,28892
33.20692,28828
33.21505,30557
33.22317,31545
33.23130,32013
33.23942,31832
33.24753,31831
33.25567,31286
33.26378,30478
33.27190,27837
33.28003,29761
33.28815,29842
33.29628,33201
33.30440,30617
33.31252,31667
33.32065,29471
33.32877,31635
33.33690,31044
33.34502,28246
33.35313,31959
33.36127,32245
33.36938,31031
33.37752,30634
33.38563,29532
33.39375,30133
33.40188,29859
33.41000,26165
33.41812,27432
33.42625,30937
33.43437,30534
33.44250,31336
33.45062,28023
33.45873,33384
33.46687,30103
33.47498,27278
33.48312,31396
33.49123,31793
33.49935,31181
33.50748,29599
33.51560,28311
33.52372,29718
33.53185,32913
33.53997,29851
33.54810,31126
33.55622,29617
33.56433,32048
33.57247,32341
33.58058,27583
33.58872,29641
33.59683,31275
33.60495,30849
33.61308,29443
33.62120,30441
33.62933,29294
33.63745,30952
33.64557,31795
33.65370,30350
33.66182,30281
33.66993,31594
33.67807,34089
33.68618,34934
33.69432,31205
33.70243,31630
33.71055,32975
33.71868,30336
33.72680,32536
33.73493,35200
33.74305,33493
33.75117,35346
33.75930,33836
33.76742,32906
33.77555,32906
33.78367,35043
33.79178,31529
33.79992,32048
33.80803,28669
33.81615,31432
33.82428,32641
33.83240,33814
33.84053,29854
33.84865,35621
33.85677,31755
33.86490,33666
33.87302,31665
33.88115,30932
33.88927,33478
33.89738,33084
33.90552,31067
33.91363,34728
33.92175,35080
33.92988,29005
33.93800,29071
33.94613,28918
33.95425,33462
33.96237,31156
33.97050,32428
33.97862,32853
33.98675,34114
33.99487,33478
34.00298,29857
34.01112,31684
34.01923,30328
34.02737,33252
34.03548,30951
34.04360,28465
34.05173,29729
34.05985,29614
34.06797,33583
34.07610,27411
34.08422,30707
34.09235,30761
34.10047,28276
34.10858,31303
34.11672,29982
34.12483,31961
34.13297,32382
34.14108,31171
34.14920,31456
34.15733,30592
34.16545,28645
34.17358,30754
34.18170,36409
34.18982,29370
34.19795,29590
34.20607,29733
34.21418,30218
34.22232,30160
34.23043,30464
34.23857,32095
34.24668,30671
34.25480,35558
34.26293,27950
34.27105,29598
34.27918,29808
34.28730,29061
34.29542,29710
34.30355,33822
34.31167,31306
34.31978,30485
34.32792,33160
34.33603,31832
34.34417,34421
34.35228,28141
34.36040,29423
34.36853,27679
34.37665,32642
34.38478,29797
34.39290,29465
34.40102,32470
34.40915,30645
34.41727,37275
34.42540,30696
34.43352,32293
34.44163,35385
34.44977,34613
34.45788,45100
34.46600,43273
34.47413,48002
34.48225,48049
34.49038,48798
34.49850,49103
34.50662,45067
34.51475,43907
34.52287,44801
34.53100,42110
34.53912,41290
34.54723,46606
34.55537,35714
34.56348,34925
34.57160,34694
34.57973,35147
34.58785,34100
34.59598,35085
34.60410,37415
34.61222,35767
34.62035,34930
34.62847,35964
34.63660,33857
34.64472,36484
34.65283,32925
34.66097,32218
34.66908,31362
34.67722,31325
34.68533,31129
34.69345,34674
34.70158,34330
34.70970,31097
34.71782,36768
34.72595,32802
34.73407,33387
34.74220,34353
34.75032,31878
34.75843,32340
34.76657,31762
34.77468,30055
34.78282,34678
34.79093,34302
34.79905,33173
34.80718,33170
34.81530,35045
34.82343,33248
34.83155,32021
34.83967,34321
34.84780,30768
34.85592,32480
34.86403,31549
34.87217,36189
34.88028,31797
34.88842,32643
34.89653,30814
34.90465,32897
34.91278,31770
34.92090,33832
34.92903,32779
34.93715,32658
34.94527,33974
34.95340,35860
34.96152,33213
34.96963,35933
34.97777,38936
34.98588,34764
34.99402,37938
35.00213,34129
35.01025,36633
35.01838,38118
35.02650,32806
35.03463,31360
35.04275,34884
35.05087,36980
35.05900,34809
35.06712,31743
35.07525,34934
35.08337,32764
35.09148,35867
35.09962,32523
35.10773,30620
35.11585,33886
35.12398,30630
35.13210,33168
35.14023,30346
35.14835,32582
35.15647,36092
35.16460,33212
35.17272,35120
35.18085,34588
35.18897,31411
35.19708,33497
35.20522,33828
35.21333,31690
35.22147,36243
35.22958,37769
35.23770,30669
35.24583,32337
35.25395,36044
35.26207,36659
35.27020,37820
35.27832,36044
35.28645,35467
35.29457,34126
35.30268,34918
35.31082,34589
35.31893,36496
35.32707,30319
35.33518,28546
35.34330,31954
35.35143,35568
35.35955,39281
35.36767,34295
35.37580,36256
35.38392,36214
35.39205,33126
35.40017,33183
35.40828,35663
35.41642,39917
35.42453,37708
35.43267,37656
35.44078,36843
35.44890,38141
35.45703,39135
35.46515,38946
35.47328,35735
35.48140,41444
35.48952,41983
35.49765,36871
35.50577,40615
35.51388,37729
35.52202,40640
35.53013,36623
35.53827,38426
35.54638,36037
35.55450,37530
35.56263,37626
35.57075,39496
35.57888,39935
35.58700,38884
35.59512,37633
35.60325,37515
35.61137,38527
35.61948,38344
35.62762,38534
35.63573,36658
35.64387,38565
35.65198,37853
35.66010,39074
35.66823,38423
35.67635,35761
35.68448,36558
35.69260,37928
35.70072,37269
35.70885,38328
35.71697,34154
35.72510,38048
35.73322,38387
35.74133,36352
35.74947,36466
35.75758,37005
35.76570,38197
35.77383,37747
35.78195,35484
35.79008,36596
35.79820,37240
35.80632,37221
35.81445,36104
35.82257,37653
35.83070,34526
35.83882,35535
35.84693,36128
35.85507,36296
35.86318,36833
35.87132,37040
35.87943,43632
35.88755,36832
35.89568,37455
35.90380,37842
35.91192,35931
35.92005,38177
35.92817,37400
35.93630,40572
35.94442,36402
35.95253,37140
35.96067,38547
35.96878,36429
35.97692,38806
35.98503,38182
35.99315,41838
36.00128,40597
36.00940,44027
36.01753,41609
36.02565,41741
36.03377,40180
36.04190,38981
36.05002,39052
36.05813,36753
36.06627,38199
36.07438,36824
36.08252,35453
36.09063,40096
36.09875,40948
36.10688,36468
36.11500,38431
36.12313,38379
36.13125,41064
36.13937,38095
36.14750,35451
36.15562,40821
36.16373,38222
36.17187,35341
36.17998,36504
36.18812,38944
36.19623,39439
36.20435,42323
36.21248,40516
36.22060,44022
36.22873,45122
36.23685,44577
36.24497,46383
36.25310,47229
36.26122,41474
36.26935,38723
36.27747,41862
36.28558,40475
36.29372,38294
36.30183,38804
36.30995,38950
36.31808,38662
36.32620,37745
36.33433,40762
36.34245,37758
36.35057,38327
36.35870,43890
36.36682,43991
36.37495,37302
36.38307,37872
36.39118,38339
36.39932,38692
36.40743,37897
36.41555,40282
36.42368,35645
36.43180,38722
36.43993,40584
36.44805,41634
36.45617,39520
36.46430,37611
36.47242,36930
36.48055,39857
36.48867,39936
36.49678,37745
36.50492,37299
36.51303,38664
36.52117,40228
36.52928,42013
36.53740,38725
36.54553,38689
36.55365,38598
36.56177,41663
36.56990,40250
36.57802,40874
36.58615,43456
36.59427,41320
36.60238,40996
36.61052,38569
36.61863,40943
36.62677,40571
36.63488,40487
36.64300,39059
36.65113,38542
36.65925,41553
36.66738,36837
36.67550,40829
36.68362,39616
36.69175,41088
36.69987,43601
36.70798,39384
36.71612,41461
36.72423,39227
36.73237,41267
36.74048,40111
36.74860,37676
36.75673,40870
36.76485,42113
36.77298,40550
36.78110,39577
36.78922,40368
36.79735,40698
36.80547,37091
36.81358,43127
36.82172,41651
36.82983,39185
36.83797,40852
36.84608,42880
36.85420,38297
36.86233,41283
36.87045,40636
36.87858,40141
36.88670,39118
36.89482,41249
36.90295,44239
36.91107,42291
36.91920,41915
36.92732,45349
36.93543,40760
36.94357,47161
36.95168,46264
36.95980,45948
36.96793,45831
36.97605,44717
36.98418,45274
36.99230,46694
37.00042,45458
37.00855,47477
37.01667,49257
37.02480,49255
37.03292,49153
37.04103,49880
37.04917,50597
37.05728,50722
37.06542,46961
37.07353,43987
37.08165,42704
37.08978,42976
37.09790,43359
37.10602,46250
37.11415,45446
37.12227,44187
37.13040,42411
37.13852,43860
37.14663,43893
37.15477,43821
37.16288,43156
37.17102,44217
37.17913,45446
37.18725,45278
37.19538,42875
37.20350,45523
37.21162,47262
37.21975,43463
37.22787,43408
37.23600,46749
37.24412,47623
37.25223,50112
37.26037,52755
37.26848,53687
37.27662,58645
37.28473,57799
37.29285,55960
37.30098,54385
37.30910,51386
37.31723,51661
37.32535,49119
37.33347,53578
37.34160,49146
37.34972,50057
37.35783,52186
37.36597,46190
37.37408,48732
37.38222,47889
37.39033,51351
37.39845,47408
37.40658,48238
37.41470,48346
37.42283,48175
37.43095,47443
37.43907,50380
37.44720,46269
37.45532,44415
37.46343,50060
37.47157,48469
37.47968,50129
37.48782,46178
