C:\MassHunter\GCMS\1\data\JTB-E02\BACandBLUE\JTB-E18-018-13.D Thu Jul 04 15:28:38 2019
Start of data points
2.09537,84696
2.10350,80997
2.11162,84333
2.11973,83920
2.12787,83380
2.13598,80762
2.14412,81649
2.15223,86088
2.16035,85086
2.16848,85679
2.17660,81081
2.18472,78126
2.19285,80197
2.20097,73151
2.20910,78136
2.21722,72081
2.22533,73024
2.23347,73333
2.24158,73246
2.24972,71347
2.25783,71474
2.26595,99802
2.27408,523515
2.28220,1365674
2.29033,885001
2.29845,395702
2.30657,284161
2.31470,239122
2.32282,216985
2.33093,195497
2.33907,188319
2.34718,165806
2.35532,159953
2.36343,148129
2.37155,139010
2.37968,140656
2.38780,137797
2.39593,138636
2.40405,127393
2.41217,126610
2.42030,129422
2.42842,131581
2.43655,125188
2.44467,123014
2.45278,119403
2.46092,116406
2.46903,118806
2.47715,116251
2.48528,117154
2.49340,169898
2.50153,176566
2.50965,143851
2.51777,135175
2.52590,128632
2.53402,118583
2.54215,120294
2.55027,127401
2.55838,174362
2.56652,218136
2.57463,171542
2.58275,140145
2.59088,132239
2.59900,145047
2.60713,376912
2.61525,972133
2.62337,870859
2.63150,473530
2.63962,320244
2.64775,243469
2.65587,197358
2.66398,177545
2.67212,161265
2.68023,155709
2.68837,142482
2.69648,137607
2.70460,136927
2.71273,131185
2.72085,125762
2.72897,121256
2.73710,125359
2.74522,115802
2.75335,116232
2.76147,111445
2.76958,113653
2.77772,123791
2.78583,197867
2.79397,232597
2.80208,184035
2.81020,147041
2.81833,155068
2.82645,170734
2.83458,166177
2.84270,160943
2.85082,142098
2.85895,131291
2.86707,119331
2.87518,120213
2.88332,116012
2.89143,114642
2.89957,115574
2.90768,108520
2.91580,108679
2.92393,110192
2.93205,103357
2.94018,105910
2.94830,101130
2.95642,106933
2.96455,120527
2.97267,127445
2.98078,113753
2.98892,115850
2.99703,112745
3.00517,111954
3.01328,112998
3.02140,110373
3.02953,104684
3.03765,105781
3.04578,98596
3.05390,102658
3.06202,108313
3.07015,121438
3.07827,178495
3.08640,776018
3.09452,2385592
3.10263,3761250
3.11077,5096951
3.11888,4904946
3.12700,3078620
3.13513,1975928
3.14325,1505122
3.15138,1179333
3.15950,973180
3.16762,824079
3.17575,756966
3.18387,786408
3.19200,1215888
3.20012,1634760
3.20823,1344378
3.21637,966541
3.22448,785687
3.23260,669313
3.24073,589864
3.24885,511423
3.25698,451920
3.26510,412107
3.27322,387017
3.28135,378125
3.28947,582161
3.29760,1607248
3.30572,3915840
3.31383,5891785
3.32197,5618107
3.33008,4145926
3.33822,2902553
3.34633,2162852
3.35445,1709010
3.36258,1401780
3.37070,1191872
3.37882,1028747
3.38695,896340
3.39507,823874
3.40320,734041
3.41132,674823
3.41943,625069
3.42757,578098
3.43568,565434
3.44382,530947
3.45193,503169
3.46005,486426
3.46818,496070
3.47630,499290
3.48443,496478
3.49255,456210
3.50067,421029
3.50880,420664
3.51692,401126
3.52503,389645
3.53317,397174
3.54128,393619
3.54942,400372
3.55753,379001
3.56565,368978
3.57378,400904
3.58190,433098
3.59003,403510
3.59815,362593
3.60627,363094
3.61440,353479
3.62252,362927
3.63065,377201
3.63877,389997
3.64688,385454
3.65502,374126
3.66313,527515
3.67125,1712628
3.67938,4293927
3.68750,5522738
3.69563,3980216
3.70375,2389834
3.71187,1692858
3.72000,1375989
3.72812,1185757
3.73625,1057009
3.74437,953700
3.75248,848578
3.76062,785614
3.76873,736982
3.77685,714320
3.78498,659860
3.79310,627431
3.80123,693177
3.80935,1126599
3.81747,1832476
3.82560,1967094
3.83372,1516247
3.84185,1097830
3.84997,890654
3.85808,794537
3.86622,705557
3.87433,653181
3.88247,626125
3.89058,586651
3.89870,558428
3.90683,534398
3.91495,544350
3.92307,651078
3.93120,765985
3.93932,792482
3.94745,1000313
3.95557,2351167
3.96368,5423104
3.97182,7630128
3.97993,6489565
3.98807,4014412
3.99618,3747780
4.00430,9666557
4.01243,2.198149E+07
4.02055,3.069286E+07
4.02867,2.606505E+07
4.03680,1.502786E+07
4.04492,7258804
4.05305,4180083
4.06117,2893528
4.06928,2246028
4.07742,1811363
4.08553,1523265
4.09367,1332299
4.10178,1170445
4.10990,1053740
4.11803,967555
4.12615,906390
4.13428,860494
4.14240,874323
4.15052,954243
4.15865,950812
4.16677,876544
4.17488,811582
4.18302,744618
4.19113,694652
4.19927,659017
4.20738,848212
4.21550,2318077
4.22363,6765170
4.23175,1.294033E+07
4.23988,1.639494E+07
4.24800,1.460043E+07
4.25612,9443102
4.26425,5812258
4.27237,4044499
4.28050,3038199
4.28862,2342422
4.29673,1933691
4.30487,1644443
4.31298,1412201
4.32110,1267241
4.32923,1149063
4.33735,1059298
4.34548,995449
4.35360,964130
4.36172,945446
4.36985,919642
4.37797,843043
4.38610,786459
4.39422,755563
4.40233,703441
4.41047,672635
4.41858,641657
4.42670,631111
4.43483,612764
4.44295,584342
4.45108,570849
4.45920,552148
4.46732,542915
4.47545,524443
4.48357,499349
4.49170,508504
4.49982,492540
4.50793,469143
4.51607,468485
4.52418,456951
4.53232,451775
4.54043,432947
4.54855,438834
4.55668,432124
4.56480,417373
4.57292,415167
4.58105,401682
4.58917,389175
4.59730,398607
4.60542,398452
4.61353,392734
4.62167,412806
4.62978,499854
4.63792,688642
4.64603,868672
4.65415,829129
4.66228,663069
4.67040,530126
4.67853,469847
4.68665,418794
4.69477,410032
4.70290,375873
4.71102,360479
4.71913,360382
4.72727,353239
4.73538,355519
4.74352,345347
4.75163,330254
4.75975,326979
4.76788,317692
4.77600,323079
4.78413,332208
4.79225,409174
4.80037,606562
4.80850,846450
4.81662,895064
4.82473,752067
4.83287,604584
4.84098,558102
4.84912,530256
4.85723,495052
4.86535,463321
4.87348,431946
4.88160,407870
4.88973,385759
4.89785,367148
4.90597,347582
4.91410,345968
4.92222,343161
4.93035,402094
4.93847,619597
4.94658,1264340
4.95472,2353465
4.96283,3323288
4.97095,3641929
4.97908,3129406
4.98720,2365140
4.99533,1733512
5.00345,1324547
5.01157,1048346
5.01970,903235
5.02782,933234
5.03595,1128655
5.04407,1393202
5.05218,1374214
5.06032,1149070
5.06843,947076
5.07655,815451
5.08468,746777
5.09280,678780
5.10093,623319
5.10905,599696
5.11717,579516
5.12530,555245
5.13342,537240
5.14155,507247
5.14967,503149
5.15778,522215
5.16592,560422
5.17403,566715
5.18217,554734
5.19028,522676
5.19840,516967
5.20653,511062
5.21465,536398
5.22277,516598
5.23090,480130
5.23902,466523
5.24715,444094
5.25527,425195
5.26338,408594
5.27152,372236
5.27963,354806
5.28777,347890
5.29588,343077
5.30400,333745
5.31213,334653
5.32025,339568
5.32838,351047
5.33650,382431
5.34462,406915
5.35275,405651
5.36087,370475
5.36898,339203
5.37712,334829
5.38523,336387
5.39337,337597
5.40148,338966
5.40960,347656
5.41773,321116
5.42585,316124
5.43398,305672
5.44210,322256
5.45022,309892
5.45835,316496
5.46647,306565
5.47458,308537
5.48272,284139
5.49083,284213
5.49897,280308
5.50708,279928
5.51520,297824
5.52333,301542
5.53145,300121
5.53958,303784
5.54770,291696
5.55582,287421
5.56395,298521
5.57207,325039
5.58020,341002
5.58832,330215
5.59643,311530
5.60457,293837
5.61268,278249
5.62080,279168
5.62893,295805
5.63705,300564
5.64518,311789
5.65330,304526
5.66142,297603
5.66955,291433
5.67767,307938
5.68580,341266
5.69392,372000
5.70203,380615
5.71017,357320
5.71828,315666
5.72642,292655
5.73453,278753
5.74265,274168
5.75078,269080
5.75890,264458
5.76702,262023
5.77515,254897
5.78327,256376
5.79140,246895
5.79952,253672
5.80763,249532
5.81577,256342
5.82388,238530
5.83202,254008
5.84013,258539
5.84825,251807
5.85638,257094
5.86450,254880
5.87262,247481
5.88075,251980
5.88887,239307
5.89700,238712
5.90512,227726
5.91323,206027
5.92137,191700
5.92948,186141
5.93762,185634
5.94573,194664
5.95385,214365
5.96198,233924
5.97010,266417
5.97823,286736
5.98635,324625
5.99447,328225
6.00260,322890
6.01072,274024
6.01883,243826
6.02697,215251
6.03508,203003
6.04322,190744
6.05133,184444
6.05945,165962
6.06758,169600
6.07570,160026
6.08383,162731
6.09195,166702
6.10007,161143
6.10820,168246
6.11632,178109
6.12445,207443
6.13257,279329
6.14068,389524
6.14882,502217
6.15693,501818
6.16505,431493
6.17318,328482
6.18130,270638
6.18943,242337
6.19755,227780
6.20567,227979
6.21380,223817
6.22192,219317
6.23005,211045
6.23817,203837
6.24628,202568
6.25442,197613
6.26253,198519
6.27065,206890
6.27878,209457
6.28690,198747
6.29503,200367
6.30315,203786
6.31127,209768
6.31940,218589
6.32752,222959
6.33565,256445
6.34377,273069
6.35188,278669
6.36002,242224
6.36813,233656
6.37627,221676
6.38438,226312
6.39250,215262
6.40063,207654
6.40875,204894
6.41687,204336
6.42500,210430
6.43312,204622
6.44125,208661
6.44937,205140
6.45748,205492
6.46562,207238
6.47373,204333
6.48187,206197
6.48998,203253
6.49810,207759
6.50623,213174
6.51435,212175
6.52247,211223
6.53060,217189
6.53872,205873
6.54685,213316
6.55497,208805
6.56308,210980
6.57122,226233
6.57933,250669
6.58747,254770
6.59558,249948
6.60370,236649
6.61183,229331
6.61995,221280
6.62808,220621
6.63620,223081
6.64432,221620
6.65245,247935
6.66057,317936
6.66868,417015
6.67682,500544
6.68493,471814
6.69307,385294
6.70118,319016
6.70930,290849
6.71743,259620
6.72555,255554
6.73368,254392
6.74180,251471
6.74992,240118
6.75805,242697
6.76617,218009
6.77430,198944
6.78242,184540
6.79053,188221
6.79867,171273
6.80678,171355
6.81490,167267
6.82303,162405
6.83115,161314
6.83928,166456
6.84740,181094
6.85552,210744
6.86365,227092
6.87177,219988
6.87990,201670
6.88802,158652
6.89613,138510
6.90427,124247
6.91238,114026
6.92050,105324
6.92863,102053
6.93675,103744
6.94488,105562
6.95300,108571
6.96112,108721
6.96925,120268
6.97737,139033
6.98550,145089
6.99362,142314
7.00173,132428
7.00987,119442
7.01798,105752
7.02612,100926
7.03423,100133
7.04235,105226
7.05048,103832
7.05860,104499
7.06672,106686
7.07485,97948
7.08297,98289
7.09110,93740
7.09922,92352
7.10733,98539
7.11547,92683
7.12358,100171
7.13172,101672
7.13983,106580
7.14795,137695
7.15608,195668
7.16420,232605
7.17233,260523
7.18045,238238
7.18857,182658
7.19670,143426
7.20482,133854
7.21293,167035
7.22107,313169
7.22918,664574
7.23732,1151383
7.24543,1484255
7.25355,1313731
7.26168,908300
7.26980,533007
7.27793,346629
7.28605,270050
7.29417,215420
7.30230,169212
7.31042,142520
7.31853,129386
7.32667,130832
7.33478,129469
7.34292,119703
7.35103,114375
7.35915,111504
7.36728,103044
7.37540,106384
7.38353,109051
7.39165,114397
7.39977,118736
7.40790,114498
7.41602,108423
7.42415,105299
7.43227,100483
7.44038,106062
7.44852,106045
7.45663,109146
7.46475,105559
7.47288,98766
7.48100,97340
7.48913,91406
7.49725,88539
7.50537,93744
7.51350,99323
7.52162,117012
7.52975,154458
7.53787,214296
7.54598,293041
7.55412,348653
7.56223,355673
7.57035,319624
7.57848,267919
7.58660,214387
7.59473,167466
7.60285,127203
7.61097,115811
7.61910,107220
7.62722,100774
7.63535,100432
7.64347,89579
7.65158,91877
7.65972,92428
7.66783,87416
7.67597,88975
7.68408,90606
7.69220,81127
7.70033,90845
7.70845,85773
7.71657,86719
7.72470,85336
7.73282,86015
7.74095,84560
7.74907,86813
7.75718,89272
7.76532,93131
7.77343,93475
7.78157,97956
7.78968,100327
7.79780,112444
7.80593,115136
7.81405,106211
7.82218,109208
7.83030,98983
7.83842,88950
7.84655,85260
7.85467,88866
7.86278,88033
7.87092,87583
7.87903,91604
7.88717,94735
7.89528,94279
7.90340,93790
7.91153,94485
7.91965,95012
7.92778,97208
7.93590,110297
7.94402,133634
7.95215,139882
7.96027,135090
7.96838,120063
7.97652,105372
7.98463,91311
7.99277,87995
8.00088,83362
8.00900,79066
8.01713,79545
8.02525,77943
8.03338,74823
8.04150,76993
8.04962,76748
8.05775,77286
8.06587,76929
8.07400,75651
8.08212,76884
8.09023,73416
8.09837,72177
8.10648,72784
8.11460,70989
8.12273,75953
8.13085,82111
8.13898,94000
8.14710,107475
8.15522,118236
8.16335,114631
8.17147,106539
8.17960,89979
8.18772,84966
8.19583,76901
8.20397,75007
8.21208,73978
8.22022,76485
8.22833,75608
8.23645,74986
8.24458,74805
8.25270,74961
8.26082,71964
8.26895,75080
8.27707,68968
8.28520,71026
8.29332,67073
8.30143,71065
8.30957,80249
8.31768,81520
8.32582,79028
8.33393,87075
8.34205,78263
8.35018,74510
8.35830,73500
8.36642,76953
8.37455,77611
8.38267,85676
8.39080,79389
8.39892,78684
8.40703,75577
8.41517,74529
8.42328,69899
8.43142,68150
8.43953,72713
8.44765,67875
8.45578,63039
8.46390,70050
8.47203,71776
8.48015,66164
8.48827,67188
8.49640,71499
8.50452,70531
8.51263,69839
8.52077,73772
8.52888,112218
8.53702,174304
8.54513,296847
8.55325,415564
8.56138,444434
8.56950,364063
8.57763,253272
8.58575,175731
8.59387,152431
8.60200,145074
8.61012,147069
8.61823,151526
8.62637,134774
8.63448,112496
8.64262,98747
8.65073,99123
8.65885,88672
8.66698,79752
8.67510,79486
8.68323,83058
8.69135,85058
8.69947,87598
8.70760,89598
8.71572,87982
8.72385,92863
8.73197,90940
8.74008,87225
8.74822,141811
8.75633,262592
8.76445,517867
8.77258,889674
8.78070,1179094
8.78883,1226700
8.79695,1033036
8.80507,704730
8.81320,451696
8.82132,304086
8.82945,220926
8.83757,192822
8.84568,180397
8.85382,197946
8.86193,187881
8.87007,178573
8.87818,169344
8.88630,167887
8.89443,155527
8.90255,148746
8.91067,144816
8.91880,138533
8.92692,140870
8.93505,146999
8.94317,155371
8.95128,164380
8.95942,162298
8.96753,154667
8.97567,158219
8.98378,150146
8.99190,144448
9.00003,136895
9.00815,141692
9.01628,128875
9.02440,130019
9.03252,119757
9.04065,109935
9.04877,110084
9.05688,107481
9.06502,103024
9.07313,105475
9.08127,105213
9.08938,111556
9.09750,121590
9.10563,129313
9.11375,138828
9.12188,143083
9.13000,141692
9.13812,137120
9.14625,118938
9.15437,120992
9.16248,107656
9.17062,110404
9.17873,100264
9.18687,98266
9.19498,106416
9.20310,97884
9.21123,96009
9.21935,95118
9.22748,93889
9.23560,97672
9.24372,98970
9.25185,96142
9.25997,92697
9.26810,97369
9.27622,97256
9.28433,89656
9.29247,94647
9.30058,91899
9.30870,91459
9.31683,87341
9.32495,87495
9.33308,86116
9.34120,80462
9.34932,84973
9.35745,80807
9.36557,79857
9.37370,84859
9.38182,84133
9.38993,82616
9.39807,85384
9.40618,84484
9.41430,104490
9.42243,116700
9.43055,131033
9.43868,136422
9.44680,141796
9.45492,126980
9.46305,118870
9.47117,96431
9.47930,95810
9.48742,93895
9.49553,88299
9.50367,95118
9.51178,99959
9.51992,114366
9.52803,117026
9.53615,120282
9.54428,104416
9.55240,97100
9.56052,84750
9.56865,74990
9.57677,72853
9.58490,76841
9.59302,75762
9.60113,73623
9.60927,67597
9.61738,62987
9.62552,59151
9.63363,58928
9.64175,57988
9.64988,55065
9.65800,57368
9.66613,57866
9.67425,59063
9.68237,60230
9.69050,59320
9.69862,52249
9.70673,56239
9.71487,57039
9.72298,53118
9.73112,53800
9.73923,53643
9.74735,50553
9.75548,50901
9.76360,48628
9.77173,50222
9.77985,53950
9.78797,51401
9.79610,55161
9.80422,52996
9.81233,55102
9.82047,55010
9.82858,55185
9.83672,52021
9.84483,56697
9.85295,57614
9.86108,59931
9.86920,63774
9.87733,55219
9.88545,59915
9.89357,59062
9.90170,58890
9.90982,54931
9.91795,60459
9.92607,72353
9.93418,93402
9.94232,128677
9.95043,172638
9.95855,218535
9.96668,228131
9.97480,227556
9.98293,193770
9.99105,159324
9.99917,135503
10.00730,107602
10.01542,95586
10.02355,87538
10.03167,74952
10.03978,70332
10.04792,70778
10.05603,68163
10.06417,67297
10.07228,66340
10.08040,68695
10.08853,71864
10.09665,67953
10.10477,72756
10.11290,76680
10.12102,70923
10.12915,73604
10.13727,74507
10.14538,73075
10.15352,78024
10.16163,68587
10.16977,68894
10.17788,65626
10.18600,58809
10.19413,62021
10.20225,65153
10.21037,59766
10.21850,63864
10.22662,63598
10.23475,68515
10.24287,74006
10.25098,76233
10.25912,94473
10.26723,158969
10.27537,338866
10.28348,711933
10.29160,1268874
10.29973,1898636
10.30785,2647178
10.31598,3849219
10.32410,5481351
10.33222,7474988
10.34035,8410810
10.34847,7775758
10.35658,6068013
10.36472,4335446
10.37283,3092134
10.38097,2331016
10.38908,1752586
10.39720,1222751
10.40533,857881
10.41345,636963
10.42158,505345
10.42970,429875
10.43782,377033
10.44595,345916
10.45407,331967
10.46218,315390
10.47032,289693
10.47843,275080
10.48657,256890
10.49468,247187
10.50280,235821
10.51093,225399
10.51905,206161
10.52718,201009
10.53530,194126
10.54342,182574
10.55155,181777
10.55967,182236
10.56780,178170
10.57592,168950
10.58403,172222
10.59217,165936
10.60028,158576
10.60840,154039
10.61653,150595
10.62465,148954
10.63278,136790
10.64090,129631
10.64902,128748
10.65715,125247
10.66527,129420
10.67340,126456
10.68152,133934
10.68963,127015
10.69777,127866
10.70588,125223
10.71402,123158
10.72213,115436
10.73025,120623
10.73838,118268
10.74650,116027
10.75462,111500
10.76275,116807
10.77087,107323
10.77900,106247
10.78712,98014
10.79523,92549
10.80337,97577
10.81148,100242
10.81962,99705
10.82773,95298
10.83585,96081
10.84398,97989
10.85210,92906
10.86022,88713
10.86835,88713
10.87647,87725
10.88460,85498
10.89272,88614
10.90083,91569
10.90897,88443
10.91708,85366
10.92522,79424
10.93333,85882
10.94145,80785
10.94958,79543
10.95770,79648
10.96583,78472
10.97395,85067
10.98207,83673
10.99020,86208
10.99832,89202
11.00643,81233
11.01457,75891
11.02268,78792
11.03082,77991
11.03893,74712
11.04705,72804
11.05518,73829
11.06330,72448
11.07143,76126
11.07955,80445
11.08767,84243
11.09580,86717
11.10392,75575
11.11205,76945
11.12017,73071
11.12828,70412
11.13642,65242
11.14453,68047
11.15265,67644
11.16078,68238
11.16890,70556
11.17703,73526
11.18515,67564
11.19327,76696
11.20140,80253
11.20952,76497
11.21765,71804
11.22577,76230
11.23388,73201
11.24202,74016
11.25013,67831
11.25825,67827
11.26638,65222
11.27450,64036
11.28263,63443
11.29075,65743
11.29887,75877
11.30700,97804
11.31512,152575
11.32325,240664
11.33137,359087
11.33948,488891
11.34762,544229
11.35573,518884
11.36387,435732
11.37198,321300
11.38010,221504
11.38823,165142
11.39635,128806
11.40447,116365
11.41260,113184
11.42072,115420
11.42885,109431
11.43697,118658
11.44508,108661
11.45322,97544
11.46133,93328
11.46947,87865
11.47758,91775
11.48570,105485
11.49383,116590
11.50195,130563
11.51007,141589
11.51820,133917
11.52632,126303
11.53445,117338
11.54257,104634
11.55068,95428
11.55882,93156
11.56693,88268
11.57507,90865
11.58318,86775
11.59130,89764
11.59943,108718
11.60755,127920
11.61568,146758
11.62380,158377
11.63192,162672
11.64005,134232
11.64817,115018
11.65628,103569
11.66442,99869
11.67253,88957
11.68067,88755
11.68878,94218
11.69690,93746
11.70503,101324
11.71315,107069
11.72128,103971
11.72940,98716
11.73752,91180
11.74565,80113
11.75377,78569
11.76190,77086
11.77002,72539
11.77813,76756
11.78627,78362
11.79438,81266
11.80250,73804
11.81063,81384
11.81875,79129
11.82688,81612
11.83500,78438
11.84312,83126
11.85125,73636
11.85937,76557
11.86750,75646
11.87562,75146
11.88373,72104
11.89187,73612
11.89998,70225
11.90810,72359
11.91623,75984
11.92435,77412
11.93248,82079
11.94060,82861
11.94872,83206
11.95685,77863
11.96497,79428
11.97310,92260
11.98122,141497
11.98933,265415
11.99747,465261
12.00558,720918
12.01372,935117
12.02183,928925
12.02995,788471
12.03808,554675
12.04620,384677
12.05432,262133
12.06245,203960
12.07057,173122
12.07870,152276
12.08682,142791
12.09493,146644
12.10307,135862
12.11118,132052
12.11932,135026
12.12743,130784
12.13555,120584
12.14368,125333
12.15180,118735
12.15993,108146
12.16805,106542
12.17617,108621
12.18430,100610
12.19242,102533
12.20053,97594
12.20867,99425
12.21678,100524
12.22492,99051
12.23303,99538
12.24115,97195
12.24928,92670
12.25740,93084
12.26553,93199
12.27365,89872
12.28177,88119
12.28990,84933
12.29802,83981
12.30613,82496
12.31427,88165
12.32238,85428
12.33052,83531
12.33863,82500
12.34675,75754
12.35488,73683
12.36300,76358
12.37113,71255
12.37925,73801
12.38737,73860
12.39550,81995
12.40362,85883
12.41175,96291
12.41987,97342
12.42798,104064
12.43612,110225
12.44423,110036
12.45235,102977
12.46048,94976
12.46860,92902
12.47673,81460
12.48485,83680
12.49297,83135
12.50110,77295
12.50922,75326
12.51735,78010
12.52547,86387
12.53358,104765
12.54172,170386
12.54983,291535
12.55797,494357
12.56608,690442
12.57420,746211
12.58233,662141
12.59045,480103
12.59857,310024
12.60670,209195
12.61482,154112
12.62295,133053
12.63107,121900
12.63918,114422
12.64732,109319
12.65543,103427
12.66357,95782
12.67168,97889
12.67980,89963
12.68793,85823
12.69605,85140
12.70417,78138
12.71230,79184
12.72042,78932
12.72855,87895
12.73667,94592
12.74478,97718
12.75292,97550
12.76103,89088
12.76917,81405
12.77728,80246
12.78540,73080
12.79353,74233
12.80165,75899
12.80978,72134
12.81790,67602
12.82602,66401
12.83415,66567
12.84227,61809
12.85038,64910
12.85852,60975
12.86663,63134
12.87477,67387
12.88288,67238
12.89100,64276
12.89913,61633
12.90725,67383
12.91538,62033
12.92350,62132
12.93162,62816
12.93975,67561
12.94787,75025
12.95598,89352
12.96412,134778
12.97223,221446
12.98037,313015
12.98848,368231
12.99660,354627
13.00473,284039
13.01285,210618
13.02098,151944
13.02910,126395
13.03722,112789
13.04535,108474
13.05347,115601
13.06160,126547
13.06972,140774
13.07783,145198
13.08597,139571
13.09408,124587
13.10220,106303
13.11033,90499
13.11845,83084
13.12658,83246
13.13470,82372
13.14282,78261
13.15095,80004
13.15907,84006
13.16720,82043
13.17532,75500
13.18343,74182
13.19157,78479
13.19968,85851
13.20782,74572
13.21593,74877
13.22405,77207
13.23218,80746
13.24030,76304
13.24842,76602
13.25655,70207
13.26467,70041
13.27280,64436
13.28092,61517
13.28903,61787
13.29717,62623
13.30528,61409
13.31342,57613
13.32153,62528
13.32965,60519
13.33778,59433
13.34590,57327
13.35402,59284
13.36215,54134
13.37027,64106
13.37840,62063
13.38652,63022
13.39463,57511
13.40277,57694
13.41088,58841
13.41902,55036
13.42713,55863
13.43525,55542
13.44338,54587
13.45150,54400
13.45963,58649
13.46775,56724
13.47587,62439
13.48400,61625
13.49212,64658
13.50023,62368
13.50837,63639
13.51648,62577
13.52462,66519
13.53273,65377
13.54085,64611
13.54898,66028
13.55710,60991
13.56523,63499
13.57335,58063
13.58147,62572
13.58960,66987
13.59772,75288
13.60585,99326
13.61397,123619
13.62208,154465
13.63022,163966
13.63833,159563
13.64645,128863
13.65458,100066
13.66270,87694
13.67083,74615
13.67895,69266
13.68707,69932
13.69520,70532
13.70332,69207
13.71145,65977
13.71957,71882
13.72768,85885
13.73582,144626
13.74393,298830
13.75205,726432
13.76018,1570290
13.76830,2821191
13.77643,3867166
13.78455,4308850
13.79267,4019168
13.80080,3025392
13.80892,2087187
13.81705,1349629
13.82517,980820
13.83328,814897
13.84142,737505
13.84953,661653
13.85767,590660
13.86578,507580
13.87390,440938
13.88203,393761
13.89015,366299
13.89827,321022
13.90640,311195
13.91452,297513
13.92265,275913
13.93077,267160
13.93888,259738
13.94702,255910
13.95513,273711
13.96327,300375
13.97138,357276
13.97950,369477
13.98763,388577
13.99575,367222
14.00387,344306
14.01200,293659
14.02012,254495
14.02825,244035
14.03637,222929
14.04448,213717
14.05262,207757
14.06073,201555
14.06887,197573
14.07698,198651
14.08510,195509
14.09323,192611
14.10135,187184
14.10948,188779
14.11760,184521
14.12572,192610
14.13385,206139
14.14197,226183
14.15008,259367
14.15822,265940
14.16633,279677
14.17447,297480
14.18258,339647
14.19070,419451
14.19883,480553
14.20695,493878
14.21508,459531
14.22320,384264
14.23132,314938
14.23945,269795
14.24757,248443
14.25570,228972
14.26382,214170
14.27193,194715
14.28007,166419
14.28818,157319
14.29630,141747
14.30443,137716
14.31255,128557
14.32068,125166
14.32880,127934
14.33692,122447
14.34505,117835
14.35317,109244
14.36130,103426
14.36942,93718
14.37753,88542
14.38567,91399
14.39378,112379
14.40192,163332
14.41003,239452
14.41815,346351
14.42628,413946
14.43440,417240
14.44252,345255
14.45065,253061
14.45877,188920
14.46690,148832
14.47502,120732
14.48313,112141
14.49127,106744
14.49938,102439
14.50752,107015
14.51563,105725
14.52375,113101
14.53188,117016
14.54000,113001
14.54812,109444
14.55625,99471
14.56437,87913
14.57250,86043
14.58062,81420
14.58873,78592
14.59687,76331
14.60498,76498
14.61312,75775
14.62123,76550
14.62935,73529
14.63748,71168
14.64560,77265
14.65373,73792
14.66185,74878
14.66997,68050
14.67810,69685
14.68622,70396
14.69433,69661
14.70247,74224
14.71058,70621
14.71872,68308
14.72683,79338
14.73495,78125
14.74308,77326
14.75120,80316
14.75933,77250
14.76745,77942
14.77557,77741
14.78370,82789
14.79182,121366
14.79993,210482
14.80807,450006
14.81618,948195
14.82432,1627627
14.83243,2159929
14.84055,2330725
14.84868,2053887
14.85680,1540974
14.86493,1023138
14.87305,649506
14.88117,442357
14.88930,319494
14.89742,254383
14.90555,216577
14.91367,189671
14.92178,175522
14.92992,160624
14.93803,155743
14.94615,141938
14.95428,148873
14.96240,143509
14.97053,142852
14.97865,150132
14.98677,139688
14.99490,139761
15.00302,126217
15.01115,117152
15.01927,109094
15.02738,105015
15.03552,105409
15.04363,94659
15.05177,97595
15.05988,91396
15.06800,91492
15.07613,92324
15.08425,85171
15.09237,86985
15.10050,86096
15.10862,82170
15.11675,86115
15.12487,87969
15.13298,88221
15.14112,92351
15.14923,95294
15.15737,92117
15.16548,86396
15.17360,83743
15.18173,81319
15.18985,71967
15.19797,71169
15.20610,70932
15.21422,73077
15.22235,68702
15.23047,68832
15.23858,65686
15.24672,62811
15.25483,64719
15.26297,63890
15.27108,62910
15.27920,56817
15.28733,58799
15.29545,61431
15.30358,61343
15.31170,60258
15.31982,59334
15.32795,55491
15.33607,53472
15.34418,57136
15.35232,57641
15.36043,58471
15.36857,54995
15.37668,53339
15.38480,59709
15.39293,64164
15.40105,70786
15.40918,87837
15.41730,93006
15.42542,100920
15.43355,98102
15.44167,90575
15.44980,75910
15.45792,71932
15.46603,70510
15.47417,79753
15.48228,88631
15.49040,109349
15.49853,128178
15.50665,148632
15.51478,145822
15.52290,135525
15.53102,125323
15.53915,116978
15.54727,111893
15.55540,101562
15.56352,90210
15.57163,79696
15.57977,73140
15.58788,63257
15.59600,64640
15.60413,60633
15.61225,57301
15.62038,58590
15.62850,51898
15.63662,51910
15.64475,51412
15.65287,51839
15.66100,50481
15.66912,52446
15.67723,52231
15.68537,53413
15.69348,52210
15.70162,50593
15.70973,49292
15.71785,49993
15.72598,52518
15.73410,52927
15.74222,58186
15.75035,60519
15.75847,76807
15.76660,115581
15.77472,161729
15.78283,217508
15.79097,267292
15.79908,277832
15.80722,236243
15.81533,184518
15.82345,143104
15.83158,112337
15.83970,91128
15.84782,79074
15.85595,74240
15.86407,75449
15.87220,73558
15.88032,72321
15.88843,72125
15.89657,69476
15.90468,66380
15.91282,69494
15.92093,64978
15.92905,67581
15.93718,70304
15.94530,83989
15.95343,104747
15.96155,148485
15.96967,195453
15.97780,244271
15.98592,269127
15.99403,242464
16.00217,201576
16.01028,163075
16.01842,137969
16.02653,127990
16.03465,119149
16.04278,107305
16.05090,97030
16.05903,82499
16.06715,85116
16.07527,81406
16.08340,75291
16.09152,71417
16.09965,74456
16.10777,71419
16.11588,72198
16.12402,67833
16.13213,74206
16.14025,76740
16.14838,76932
16.15650,72963
16.16463,75613
16.17275,73439
16.18087,66913
16.18900,67820
16.19712,62804
16.20525,63200
16.21337,64199
16.22148,68682
16.22962,69097
16.23773,68448
16.24585,61713
16.25398,63050
16.26210,64178
16.27023,63236
16.27835,59352
16.28647,64000
16.29460,70511
16.30272,67205
16.31085,72327
16.31897,66332
16.32708,69491
16.33522,72715
16.34333,77454
16.35147,93919
16.35958,130590
16.36770,178890
16.37583,231156
16.38395,249388
16.39207,241810
16.40020,202874
16.40832,159284
16.41645,119649
16.42457,98698
16.43268,88951
16.44082,88793
16.44893,97869
16.45707,129789
16.46518,184345
16.47330,264447
16.48143,338254
16.48955,368717
16.49768,339104
16.50580,275479
16.51392,201140
16.52205,150619
16.53017,116918
16.53828,106738
16.54642,92300
16.55453,87123
16.56267,85838
16.57078,87123
16.57890,78750
16.58703,88409
16.59515,99172
16.60328,110632
16.61140,133853
16.61952,144674
16.62765,145596
16.63577,130008
16.64388,112994
16.65202,99483
16.66013,84189
16.66827,76690
16.67638,75732
16.68450,69322
16.69263,68129
16.70075,67321
16.70888,66794
16.71700,59107
16.72512,59774
16.73325,61047
16.74137,53805
16.74950,57983
16.75762,57942
16.76573,60209
16.77387,62509
16.78198,61175
16.79010,58007
16.79823,56395
16.80635,53655
16.81448,55532
16.82260,53729
16.83072,52141
16.83885,53208
16.84697,51980
16.85510,53451
16.86322,55922
16.87133,55279
16.87947,53459
16.88758,50545
16.89572,52763
16.90383,52993
16.91195,49140
16.92008,49864
16.92820,52906
16.93632,47644
16.94445,48433
16.95257,48239
16.96070,50617
16.96882,51292
16.97693,48840
16.98507,51107
16.99318,52795
17.00132,52252
17.00943,51086
17.01755,48988
17.02568,50256
17.03380,54992
17.04192,56310
17.05005,59053
17.05817,68238
17.06630,70907
17.07442,75872
17.08253,75769
17.09067,88733
17.09878,113828
17.10692,132320
17.11503,154927
17.12315,157437
17.13128,150208
17.13940,147733
17.14753,136695
17.15565,119781
17.16377,99646
17.17190,90064
17.18002,75837
17.18813,63563
17.19627,57183
17.20438,55252
17.21252,53960
17.22063,55797
17.22875,53784
17.23688,47691
17.24500,49247
17.25313,51582
17.26125,50878
17.26937,51620
17.27750,51658
17.28562,49845
17.29373,53720
17.30187,51276
17.30998,51613
17.31812,54888
17.32623,61611
17.33435,67678
17.34248,79148
17.35060,83278
17.35873,86957
17.36685,89202
17.37497,85170
17.38310,85302
17.39122,76339
17.39935,69692
17.40747,71016
17.41558,64149
17.42372,71671
17.43183,66639
17.43995,67525
17.44808,66192
17.45620,68204
17.46433,72654
17.47245,59908
17.48057,59248
17.48870,57502
17.49682,57187
17.50495,54339
17.51307,56210
17.52118,53225
17.52932,53006
17.53743,57677
17.54557,55113
17.55368,61879
17.56180,73001
17.56993,105214
17.57805,179510
17.58617,286115
17.59430,465505
17.60242,673431
17.61055,831898
17.61867,847606
17.62678,723450
17.63492,565959
17.64303,417251
17.65117,346774
17.65928,314257
17.66740,306285
17.67553,297063
17.68365,264816
17.69177,230333
17.69990,185493
17.70802,154737
17.71615,130406
17.72427,117817
17.73238,106976
17.74052,94889
17.74863,90396
17.75677,90414
17.76488,85796
17.77300,84522
17.78113,88976
17.78925,91866
17.79738,118015
17.80550,175316
17.81362,278770
17.82175,391060
17.82987,484794
17.83798,506537
17.84612,461781
17.85423,373949
17.86237,294136
17.87048,218623
17.87860,177645
17.88673,151646
17.89485,127784
17.90298,115216
17.91110,104317
17.91922,100556
17.92735,89406
17.93547,93573
17.94360,84500
17.95172,80950
17.95983,84069
17.96797,79171
17.97608,74826
17.98420,75934
17.99233,70877
18.00045,71961
18.00858,76258
18.01670,78274
18.02482,85134
18.03295,92927
18.04107,105049
18.04920,112310
18.05732,154583
18.06543,276581
18.07357,531955
18.08168,899152
18.08980,1305344
18.09793,1587080
18.10605,1578175
18.11418,1336845
18.12230,1004547
18.13042,736263
18.13855,547637
18.14667,439169
18.15480,378343
18.16292,324777
18.17103,302090
18.17917,282996
18.18728,285540
18.19542,327449
18.20353,410429
18.21165,496077
18.21978,544523
18.22790,563871
18.23602,566476
18.24415,568963
18.25227,561640
18.26040,549181
18.26852,544443
18.27663,542305
18.28477,526854
18.29288,510117
18.30102,477451
18.30913,472851
18.31725,463400
18.32538,457191
18.33350,452998
18.34162,446425
18.34975,430793
18.35787,446391
18.36600,435091
18.37412,439066
18.38223,423420
18.39037,463507
18.39848,514084
18.40662,596327
18.41473,691423
18.42285,762091
18.43098,795242
18.43910,742377
18.44723,681907
18.45535,636786
18.46347,613625
18.47160,659364
18.47972,689168
18.48783,691152
18.49597,648840
18.50408,596575
18.51222,537858
18.52033,459882
18.52845,420706
18.53658,401025
18.54470,366883
18.55283,362172
18.56095,359048
18.56907,345611
18.57720,336152
18.58532,336993
18.59345,334093
18.60157,329703
18.60968,329159
18.61782,323187
18.62593,324087
18.63405,321100
18.64218,312160
18.65030,305143
18.65843,305333
18.66655,295241
18.67467,283313
18.68280,282629
18.69092,277594
18.69905,277260
18.70717,279311
18.71528,275059
18.72342,271825
18.73153,263857
18.73965,261729
18.74778,270178
18.75590,249524
18.76403,257002
18.77215,249579
18.78027,240881
18.78840,242047
18.79652,238667
18.80465,234788
18.81277,232484
18.82088,236741
18.82902,230547
18.83713,229909
18.84527,225326
18.85338,222904
18.86150,219443
18.86963,224901
18.87775,221746
18.88587,210680
18.89400,212237
18.90212,214067
18.91025,208807
18.91837,210062
18.92648,205336
18.93462,208793
18.94273,209695
18.95087,212046
18.95898,222132
18.96710,212803
18.97523,204062
18.98335,206983
18.99148,211398
18.99960,193201
19.00772,194515
19.01585,187707
19.02397,188254
19.03208,182368
19.04022,183197
19.04833,178296
19.05647,180633
19.06458,186156
19.07270,188949
19.08083,218365
19.08895,253186
19.09708,301386
19.10520,336803
19.11332,356492
19.12145,344380
19.12957,310764
19.13768,264363
19.14582,247501
19.15393,214291
19.16207,203568
19.17018,192240
19.17830,184162
19.18643,182399
19.19455,179259
19.20268,175428
19.21080,170845
19.21892,168132
19.22705,164474
19.23517,165530
19.24330,157197
19.25142,163688
19.25953,167379
19.26767,158825
19.27578,156228
19.28390,161723
19.29203,163270
19.30015,167379
19.30828,170511
19.31640,161876
19.32452,166379
19.33265,168106
19.34077,174786
19.34890,187241
19.35702,209376
19.36513,247606
19.37327,275870
19.38138,299899
19.38950,302526
19.39763,274276
19.40575,252867
19.41388,232240
19.42200,218486
19.43012,198386
19.43825,194065
19.44637,195585
19.45450,188570
19.46262,191873
19.47073,194225
19.47887,212171
19.48698,255703
19.49512,302719
19.50323,331914
19.51135,340378
19.51948,307984
19.52760,261521
19.53572,208336
19.54385,175820
19.55197,162103
19.56010,151089
19.56822,146369
19.57633,136104
19.58447,137388
19.59258,127801
19.60072,127485
19.60883,122796
19.61695,127033
19.62508,127754
19.63320,135716
19.64133,144638
19.64945,169980
19.65757,204787
19.66570,245819
19.67382,282583
19.68193,299419
19.69007,298319
19.69818,277410
19.70632,258662
19.71443,235044
19.72255,199201
19.73068,185243
19.73880,171017
19.74693,166758
19.75505,153927
19.76317,145385
19.77130,142095
19.77942,145182
19.78755,151438
19.79567,154756
19.80378,161994
19.81192,165797
19.82003,155654
19.82815,149366
19.83628,140713
19.84440,139078
19.85253,181447
19.86065,318623
19.86877,684895
19.87690,1400113
19.88502,2577285
19.89315,3886697
19.90127,5067701
19.90938,5456608
19.91752,4961461
19.92563,3909568
19.93375,2768214
19.94188,1905918
19.95000,1384399
19.95813,1113653
19.96625,941634
19.97437,836052
19.98250,775238
19.99062,708848
19.99875,694092
20.00687,645122
20.01498,618041
20.02312,578857
20.03123,547357
20.03937,484071
20.04748,426176
20.05560,368473
20.06373,317273
20.07185,267905
20.07997,244965
20.08810,224592
20.09622,210548
20.10435,192735
20.11247,182301
20.12058,174255
20.12872,163585
20.13683,157378
20.14497,161058
20.15308,160578
20.16120,164229
20.16933,179977
20.17745,188620
20.18557,195330
20.19370,208320
20.20182,210471
20.20995,207400
20.21807,193213
20.22618,176933
20.23432,177718
20.24243,176769
20.25057,179356
20.25868,199399
20.26680,228381
20.27493,265125
20.28305,278720
20.29118,290386
20.29930,266493
20.30742,235851
20.31555,213025
20.32367,181250
20.33178,163166
20.33992,143012
20.34803,126266
20.35617,119214
20.36428,108438
20.37240,101711
20.38053,97818
20.38865,91573
20.39678,95801
20.40490,93821
20.41302,91922
20.42115,93874
20.42927,104967
20.43740,103601
20.44552,118391
20.45363,119812
20.46177,121109
20.46988,130459
20.47800,122878
20.48613,122144
20.49425,108965
20.50238,111083
20.51050,94019
20.51862,90116
20.52675,88903
20.53487,83908
20.54300,83351
20.55112,84549
20.55923,83964
20.56737,81064
20.57548,85568
20.58360,79162
20.59173,77477
20.59985,75424
20.60798,76864
20.61610,78727
20.62422,73590
20.63235,73255
20.64047,79546
20.64860,77798
20.65672,77037
20.66483,78340
20.67297,82203
20.68108,78059
20.68922,75236
20.69733,78998
20.70545,67961
20.71358,73618
20.72170,73668
20.72982,71831
20.73795,71872
20.74607,72748
20.75420,69002
20.76232,72834
20.77043,78153
20.77857,84057
20.78668,106227
20.79482,142569
20.80293,205384
20.81105,284715
20.81918,355330
20.82730,361257
20.83543,321908
20.84355,261278
20.85167,188712
20.85980,130762
20.86792,104779
20.87603,87487
20.88417,85473
20.89228,80667
20.90042,76508
20.90853,77478
20.91665,79232
20.92478,87232
20.93290,83664
20.94103,81720
20.94915,86592
20.95727,83540
20.96540,72157
20.97352,74972
20.98163,71059
20.98977,69623
20.99788,73744
21.00602,65556
21.01413,70386
21.02225,68904
21.03038,68679
21.03850,71664
21.04663,71033
21.05475,69767
21.06287,68305
21.07100,65577
21.07912,70717
21.08725,72299
21.09537,65595
21.10348,66570
21.11162,70328
21.11973,63051
21.12785,69122
21.13598,73954
21.14410,80990
21.15223,90497
21.16035,101904
21.16847,107200
21.17660,110324
21.18472,96261
21.19285,89840
21.20097,84509
21.20908,74503
21.21722,74156
21.22533,72504
21.23345,72588
21.24158,70946
21.24970,76150
21.25783,70096
21.26595,70870
21.27407,65236
21.28220,61885
21.29032,64423
21.29845,64802
21.30657,63212
21.31468,62104
21.32282,65546
21.33093,63624
21.33907,65655
21.34718,63099
21.35530,60564
21.36343,62942
21.37155,64272
21.37967,68842
21.38780,73889
21.39592,82462
21.40405,89515
21.41217,100159
21.42028,102381
21.42842,99317
21.43653,89661
21.44467,81590
21.45278,81135
21.46090,76910
21.46903,80027
21.47715,70163
21.48528,71877
21.49340,70152
21.50152,65400
21.50965,65527
21.51777,63143
21.52588,65023
21.53402,61016
21.54213,58468
21.55027,64020
21.55838,62249
21.56650,64527
21.57463,68831
21.58275,72863
21.59088,83424
21.59900,87338
21.60712,89764
21.61525,99225
21.62337,99180
21.63148,105883
21.63962,101592
21.64773,101565
21.65587,108079
21.66398,103206
21.67210,105660
21.68023,101055
21.68835,98480
21.69648,98776
21.70460,89210
21.71272,84993
21.72085,75835
21.72897,68587
21.73710,70345
21.74522,68482
21.75333,67902
21.76147,75156
21.76958,78287
21.77770,77761
21.78583,83760
21.79395,85122
21.80208,84318
21.81020,85240
21.81832,88444
21.82645,92454
21.83457,90378
21.84270,93544
21.85082,86791
21.85893,81971
21.86707,75564
21.87518,73884
21.88332,71395
21.89143,68685
21.89955,67023
21.90768,63100
21.91580,66257
21.92392,60499
21.93205,63197
21.94017,60091
21.94830,62984
21.95642,56568
21.96453,59758
21.97267,59288
21.98078,53090
21.98892,52368
21.99703,49381
22.00515,52280
22.01328,61339
22.02140,55701
22.02952,53989
22.03765,57291
22.04577,53277
22.05390,53320
22.06202,58935
22.07013,59379
22.07827,57725
22.08638,56147
22.09452,51239
22.10263,56804
22.11075,54069
22.11888,53209
22.12700,55371
22.13513,53736
22.14325,52464
22.15137,50782
22.15950,54209
22.16762,56049
22.17573,55161
22.18387,56626
22.19198,55820
22.20012,54526
22.20823,58471
22.21635,56899
22.22448,57822
22.23260,62095
22.24073,59490
22.24885,58403
22.25697,52890
22.26510,55448
22.27322,60210
22.28135,61645
22.28947,68406
22.29758,64822
22.30572,67550
22.31383,70952
22.32195,69102
22.33008,66379
22.33820,69010
22.34633,63705
22.35445,58858
22.36257,56814
22.37070,55758
22.37882,63177
22.38695,64140
22.39507,79955
22.40318,97956
22.41132,117334
22.41943,132651
22.42755,141120
22.43568,140956
22.44380,125246
22.45193,102907
22.46005,88644
22.46817,83141
22.47630,82698
22.48442,86610
22.49255,96022
22.50067,108554
22.50878,117766
22.51692,111071
22.52503,109382
22.53317,90748
22.54128,92463
22.54940,87368
22.55753,84339
22.56565,76912
22.57377,73728
22.58190,71825
22.59002,72477
22.59815,63378
22.60627,67737
22.61438,68580
22.62252,65460
22.63063,69807
22.63877,67392
22.64688,67743
22.65500,70533
22.66313,77198
22.67125,70514
22.67937,68309
22.68750,78941
22.69562,73351
22.70375,75750
22.71187,79496
22.71998,82700
22.72812,85558
22.73623,77423
22.74437,75195
22.75248,70475
22.76060,64890
22.76873,63902
22.77685,66067
22.78498,74448
22.79310,80899
22.80122,89662
22.80935,99175
22.81747,104130
22.82558,99808
22.83372,91162
22.84183,78181
22.84997,74814
22.85808,72433
22.86620,71684
22.87433,76862
22.88245,81607
22.89058,91133
22.89870,103774
22.90682,125065
22.91495,154150
22.92307,176693
22.93120,187376
22.93932,183223
22.94743,163194
22.95557,137134
22.96368,107667
22.97180,93227
22.97993,86358
22.98805,80488
22.99618,77103
23.00430,76130
23.01242,80951
23.02055,76410
23.02867,86765
23.03680,76933
23.04492,79405
23.05303,80564
23.06117,81363
23.06928,91017
23.07740,87441
23.08553,84222
23.09365,87679
23.10178,81090
23.10990,82346
23.11802,81966
23.12615,81802
23.13427,77298
23.14240,89145
23.15052,89724
23.15863,86436
23.16677,83050
23.17488,86470
23.18302,83724
23.19113,90368
23.19925,88211
23.20738,83319
23.21550,81167
23.22362,84699
23.23175,86511
23.23987,83620
23.24800,81890
23.25612,93970
23.26423,90930
23.27237,90985
23.28048,92677
23.28862,87820
23.29673,89154
23.30485,83764
23.31298,88829
23.32110,83661
23.32923,93402
23.33735,102409
23.34547,124999
23.35360,162178
23.36172,208777
23.36983,269645
23.37797,343521
23.38608,424869
23.39422,505672
23.40233,571169
23.41045,617864
23.41858,646601
23.42670,636909
23.43483,635386
23.44295,621047
23.45107,607308
23.45920,556993
23.46732,532479
23.47543,490397
23.48357,464711
23.49168,417101
23.49982,397975
23.50793,366084
23.51605,335899
23.52418,318414
23.53230,285783
23.54043,278962
23.54855,257427
23.55667,247294
23.56480,241492
23.57292,236932
23.58105,237283
23.58917,254252
23.59728,274310
23.60542,280229
23.61353,274658
23.62165,260469
23.62978,240335
23.63790,224713
23.64603,225133
23.65415,225821
23.66227,245467
23.67040,244828
23.67852,234392
23.68665,218835
23.69477,196204
23.70288,166828
23.71102,154491
23.71913,137349
23.72725,134993
23.73538,134484
23.74350,142447
23.75163,197664
23.75975,316672
23.76787,590546
23.77600,1008540
23.78412,1586725
23.79225,2063589
23.80037,2284548
23.80848,2199255
23.81662,1904926
23.82473,1567293
23.83287,1213701
23.84098,960415
23.84910,765288
23.85723,610063
23.86535,525714
23.87347,449271
23.88160,399295
23.88972,362879
23.89785,331771
23.90597,310068
23.91408,293795
23.92222,279043
23.93033,267947
23.93847,249884
23.94658,232935
23.95470,211187
23.96283,201520
23.97095,195583
23.97908,183544
23.98720,176403
23.99532,187723
24.00345,226445
24.01157,338359
24.01968,526643
24.02782,762569
24.03593,921701
24.04407,991871
24.05218,848313
24.06030,647936
24.06843,438619
24.07655,300964
24.08468,221934
24.09280,180478
24.10092,163164
24.10905,150091
24.11717,138856
24.12528,138955
24.13342,135596
24.14153,136981
24.14967,133550
24.15778,131580
24.16590,132515
24.17403,127576
24.18215,128525
24.19028,125294
24.19840,120331
24.20652,126217
24.21465,116133
24.22277,115917
24.23090,112785
24.23902,103010
24.24713,101543
24.25527,99026
24.26338,90233
24.27150,94077
24.27963,92695
24.28775,93947
24.29588,96245
24.30400,92478
24.31212,86923
24.32025,89694
24.32837,86671
24.33650,87261
24.34462,83924
24.35273,90085
24.36087,94906
24.36898,117006
24.37712,135549
24.38523,165105
24.39335,187186
24.40148,172597
24.40960,160665
24.41772,131870
24.42585,106363
24.43397,96510
24.44210,85444
24.45022,86658
24.45833,87296
24.46647,91416
24.47458,100056
24.48272,105342
24.49083,120618
24.49895,119383
24.50708,131697
24.51520,146312
24.52332,175684
24.53145,210520
24.53957,238363
24.54770,268949
24.55582,294346
24.56393,303007
24.57207,302872
24.58018,293708
24.58832,286823
24.59643,270895
24.60455,263007
24.61268,258268
24.62080,255287
24.62893,250129
24.63705,243563
24.64517,244771
24.65330,247915
24.66142,242324
24.66953,237036
24.67767,233443
24.68578,239843
24.69392,229047
24.70203,234488
24.71015,230175
24.71828,218787
24.72640,226846
24.73453,227694
24.74265,219148
24.75077,216553
24.75890,217784
24.76702,218103
24.77513,224080
24.78327,226105
24.79138,222672
24.79952,218111
24.80763,212976
24.81575,211984
24.82388,208225
24.83200,222746
24.84013,241429
24.84825,276975
24.85637,318042
24.86450,382163
24.87262,466660
24.88075,560901
24.88887,653801
24.89698,675749
24.90512,620882
24.91323,509955
24.92135,378539
24.92948,269183
24.93760,208498
24.94573,151960
24.95385,128776
24.96197,115107
24.97010,106643
24.97822,102677
24.98635,94087
24.99447,91143
25.00258,87464
25.01072,87584
25.01883,91841
25.02697,88076
25.03508,84157
25.04320,87123
25.05133,88417
25.05945,88587
25.06757,83173
25.07570,88173
25.08382,87145
25.09195,104360
25.10007,142558
25.10818,261327
25.11632,512545
25.12443,990344
25.13257,1725108
25.14068,2417984
25.14880,2837655
25.15693,2793449
25.16505,2307388
25.17318,1621919
25.18130,1000810
25.18942,563074
25.19755,329504
25.20567,217351
25.21378,155473
25.22192,133010
25.23003,127522
25.23817,129421
25.24628,156632
25.25440,190472
25.26253,228262
25.27065,258347
25.27878,286521
25.28690,263308
25.29502,218617
25.30315,184728
25.31127,164319
25.31938,149456
25.32752,158379
25.33563,207979
25.34377,252756
25.35188,292374
25.36000,318865
25.36813,332952
25.37625,351678
25.38438,348724
25.39250,359013
25.40062,371536
25.40875,364223
25.41687,365009
25.42500,362225
25.43312,370426
25.44123,364911
25.44937,366817
25.45748,366795
25.46560,359603
25.47373,370669
25.48185,359200
25.48998,354458
25.49810,364167
25.50622,347423
25.51435,345042
25.52247,344500
25.53060,351455
25.53872,336111
25.54683,334402
25.55497,322523
25.56308,327231
25.57120,324728
25.57933,329569
25.58745,323823
25.59558,319261
25.60370,323216
25.61182,314086
25.61995,306150
25.62807,304045
25.63620,304404
25.64432,300619
25.65243,284986
25.66057,298469
25.66868,288364
25.67682,289239
25.68493,290045
25.69305,278461
25.70118,274208
25.70930,274162
25.71742,271664
25.72555,279003
25.73367,252720
25.74180,261856
25.74992,253535
25.75803,261391
25.76617,262461
25.77428,252419
25.78242,252330
25.79053,246844
25.79865,256339
25.80678,247529
25.81490,251389
25.82303,253356
25.83115,252378
25.83927,269195
25.84740,273345
25.85552,272832
25.86363,261243
25.87177,259473
25.87988,237361
25.88802,229257
25.89613,216969
25.90425,216748
25.91238,212290
25.92050,206142
25.92863,201810
25.93675,199894
25.94487,199215
25.95300,190382
25.96112,192045
25.96923,188149
25.97737,192709
25.98548,185489
25.99362,178753
26.00173,176842
26.00985,179106
26.01798,176072
26.02610,167710
26.03423,172452
26.04235,171699
26.05047,170065
26.05860,161023
26.06672,168083
26.07485,163163
26.08297,159248
26.09108,167409
26.09922,163088
26.10733,162493
26.11545,156439
26.12358,159669
26.13170,161131
26.13983,156789
26.14795,156283
26.15607,158267
26.16420,151003
26.17232,152508
26.18045,145710
26.18857,143967
26.19668,149134
26.20482,141223
26.21293,135691
26.22107,133294
26.22918,131597
26.23730,128955
26.24543,136406
26.25355,135292
26.26167,127679
26.26980,126837
26.27792,124342
26.28605,125881
26.29417,124609
26.30228,123077
26.31042,118734
26.31853,114811
26.32667,110404
26.33478,113304
26.34290,113280
26.35103,112332
26.35915,114182
26.36727,114579
26.37540,126574
26.38352,132487
26.39165,135226
26.39977,152175
26.40788,148601
26.41602,145970
26.42413,132571
26.43227,124901
26.44038,116481
26.44850,107357
26.45663,109726
26.46475,102249
26.47288,111419
26.48100,100090
26.48912,104986
26.49725,100476
26.50537,98576
26.51348,98577
26.52162,90588
26.52973,87144
26.53787,86145
26.54598,89908
26.55410,85880
26.56223,86631
26.57035,91056
26.57848,89416
26.58660,88220
26.59472,85864
26.60285,95419
26.61097,87801
26.61908,82855
26.62722,83698
26.63533,83173
26.64347,83571
26.65158,85035
26.65970,88181
26.66783,93275
26.67595,88076
26.68408,90389
26.69220,85923
26.70032,83225
26.70845,80784
26.71657,81628
26.72470,77336
26.73282,72280
26.74093,82463
26.74907,80454
26.75718,77053
26.76530,73509
26.77343,82198
26.78155,81006
26.78968,85666
26.79780,83947
26.80592,84843
26.81405,82530
26.82217,80937
26.83030,79296
26.83842,74803
26.84653,75843
26.85467,81266
26.86278,74762
26.87092,75979
26.87903,68529
26.88715,65238
26.89528,70018
26.90340,67237
26.91152,70881
26.91965,68495
26.92777,65057
26.93590,67052
26.94402,68208
26.95213,66809
26.96027,71308
26.96838,78675
26.97652,93626
26.98463,120478
26.99275,159027
27.00088,243841
27.00900,321901
27.01712,391535
27.02525,465379
27.03337,512113
27.04150,489789
27.04962,463939
27.05773,423206
27.06587,349765
27.07398,300588
27.08212,245858
27.09023,218490
27.09835,200261
27.10648,185047
27.11460,169359
27.12273,156295
27.13085,151804
27.13897,146458
27.14710,137537
27.15522,134833
27.16333,130169
27.17147,129015
27.17958,125192
27.18772,125579
27.19583,118842
27.20395,115418
27.21208,118539
27.22020,109861
27.22833,104661
27.23645,102010
27.24457,101097
27.25270,103275
27.26082,91940
27.26895,93590
27.27707,93351
27.28518,83335
27.29332,91022
27.30143,81006
27.30955,80795
27.31768,76399
27.32580,76049
27.33393,80714
27.34205,80986
27.35017,79863
27.35830,77620
27.36642,74500
27.37455,77215
27.38267,73013
27.39078,75913
27.39892,76212
27.40703,71665
27.41515,73646
27.42328,67241
27.43140,70262
27.43953,67318
27.44765,67896
27.45577,65912
27.46390,69252
27.47202,67073
27.48015,67780
27.48827,68118
27.49638,66800
27.50452,67279
27.51263,73943
27.52077,73762
27.52888,73611
27.53700,73725
27.54513,67672
27.55325,70935
27.56137,70774
27.56950,69907
27.57762,73915
27.58575,82334
27.59387,88049
27.60198,91598
27.61012,91947
27.61823,88439
27.62637,80157
27.63448,74716
27.64260,68931
27.65073,68240
27.65885,69563
27.66698,64882
27.67510,69283
27.68322,72785
27.69135,74616
27.69947,70635
27.70758,71385
27.71572,66801
27.72383,62164
27.73197,61365
27.74008,62412
27.74820,55215
27.75633,64988
27.76445,59293
27.77258,59987
27.78070,62826
27.78882,62646
27.79695,60611
27.80507,59316
27.81318,57256
27.82132,58072
27.82943,63749
27.83757,55085
27.84568,59028
27.85380,55829
27.86193,56400
27.87005,56623
27.87818,60257
27.88630,52753
27.89442,52991
27.90255,53487
27.91067,54487
27.91880,55012
27.92692,53749
27.93503,54130
27.94317,54937
27.95128,53776
27.95940,52312
27.96753,54616
27.97565,53827
27.98378,56346
27.99190,58371
28.00002,58310
28.00815,59980
28.01627,68599
28.02440,70887
28.03252,79244
28.04063,88808
28.04877,97516
28.05688,104661
28.06500,95705
28.07313,90971
28.08125,82417
28.08938,79583
28.09750,71144
28.10562,66648
28.11375,67948
28.12187,57259
28.13000,57416
28.13812,58958
28.14623,53683
28.15437,52432
28.16248,51003
28.17062,58211
28.17873,59099
28.18685,64971
28.19498,71442
28.20310,83237
28.21122,85022
28.21935,87955
28.22747,92147
28.23560,89587
28.24372,83164
28.25183,70092
28.25997,64924
28.26808,61645
28.27622,58182
28.28433,55386
28.29245,56690
28.30058,60509
28.30870,71423
28.31683,81193
28.32495,90322
28.33307,104836
28.34120,118943
28.34932,132672
28.35743,155210
28.36557,173306
28.37368,179182
28.38182,196705
28.38993,213252
28.39805,196782
28.40618,196207
28.41430,207387
28.42243,199344
28.43055,184942
28.43867,171180
28.44680,167776
28.45492,150271
28.46303,134118
28.47117,129975
28.47928,126778
28.48742,120413
28.49553,116464
28.50365,111205
28.51178,106593
28.51990,101683
28.52803,94771
28.53615,92301
28.54427,91654
28.55240,84006
28.56052,83405
28.56865,85201
28.57677,83901
28.58488,78397
28.59302,75623
28.60113,80605
28.60925,80961
28.61738,78838
28.62550,79620
28.63363,77292
28.64175,76918
28.64987,73170
28.65800,77260
28.66612,80665
28.67425,78480
28.68237,81617
28.69048,78606
28.69862,69800
28.70673,69225
28.71487,67692
28.72298,68269
28.73110,68729
28.73923,70327
28.74735,82546
28.75547,94306
28.76360,101549
28.77172,101289
28.77985,88747
28.78797,84860
28.79608,78165
28.80422,78447
28.81233,73835
28.82047,73789
28.82858,73963
28.83670,66098
28.84483,65983
28.85295,64226
28.86107,67054
28.86920,71058
28.87732,74203
28.88545,76277
28.89357,79487
28.90168,80027
28.90982,82358
28.91793,76850
28.92607,79359
28.93418,70892
28.94230,70176
28.95043,66088
28.95855,66422
28.96668,71892
28.97480,65700
28.98292,66757
28.99105,63884
28.99917,63637
29.00728,50606
29.01542,59121
29.02353,56119
29.03167,58339
29.03978,56092
29.04790,56115
29.05603,59843
29.06415,60823
29.07228,59667
29.08040,65002
29.08852,61064
29.09665,63513
29.10477,60308
29.11288,61512
29.12102,57804
29.12913,58417
29.13727,57272
29.14538,52246
29.15350,62364
29.16163,52261
29.16975,56668
29.17788,60650
29.18600,71292
29.19412,79844
29.20225,93782
29.21037,103274
29.21850,121208
29.22662,121567
29.23473,117865
29.24287,121270
29.25098,126392
29.25910,139061
29.26723,151093
29.27535,150387
29.28348,139424
29.29160,116498
29.29972,96530
29.30785,79842
29.31597,64265
29.32410,66335
29.33222,57298
29.34033,52840
29.34847,56533
29.35658,49790
29.36472,53373
29.37283,49443
29.38095,58124
29.38908,58009
29.39720,56035
29.40532,57139
29.41345,55632
29.42157,55071
29.42970,59771
29.43782,59303
29.44593,63298
29.45407,57303
29.46218,54126
29.47032,54580
29.47843,57370
29.48655,53662
29.49468,51905
29.50280,54722
29.51092,54820
29.51905,53358
29.52717,57214
29.53530,52818
29.54342,55170
29.55153,48415
29.55967,53403
29.56778,52774
29.57592,48960
29.58403,48945
29.59215,45077
29.60028,50346
29.60840,45740
29.61653,48140
29.62465,52461
29.63277,45926
29.64090,49844
29.64902,52561
29.65713,47036
29.66527,50060
29.67338,46728
29.68152,53425
29.68963,55547
29.69775,59902
29.70588,58010
29.71400,54560
29.72213,50528
29.73025,51595
29.73837,51656
29.74650,49493
29.75462,45497
29.76275,48212
29.77087,46759
29.77898,47526
29.78712,49079
29.79523,43843
29.80335,44154
29.81148,45621
29.81960,49919
29.82773,46953
29.83585,46526
29.84397,45772
29.85210,48411
29.86022,49148
29.86835,51857
29.87647,56932
29.88458,70666
29.89272,82375
29.90083,86923
29.90895,89762
29.91708,88495
29.92520,78606
29.93333,68572
29.94145,65136
29.94957,64546
29.95770,62313
29.96582,64709
29.97395,71391
29.98207,80296
29.99018,87096
29.99832,100775
30.00643,105586
30.01457,106517
30.02268,106701
30.03080,115968
30.03893,113164
30.04705,116844
30.05517,121943
30.06330,116648
30.07142,121327
30.07955,112229
30.08767,112755
30.09578,119578
30.10392,108650
30.11203,108776
30.12017,106886
30.12828,103615
30.13640,98889
30.14453,93300
30.15265,88977
30.16077,89033
30.16890,84298
30.17702,88787
30.18515,86170
30.19327,86482
30.20138,82055
30.20952,85533
30.21763,79487
30.22577,81903
30.23388,75669
30.24200,71316
30.25013,69491
30.25825,66373
30.26638,66390
30.27450,65778
30.28262,63193
30.29075,65318
30.29887,63952
30.30698,62384
30.31512,59976
30.32323,63871
30.33137,59644
30.33948,58930
30.34760,60744
30.35573,60722
30.36385,60551
30.37198,61471
30.38010,57142
30.38822,60174
30.39635,54054
30.40447,54050
30.41260,51868
30.42072,54535
30.42883,55217
30.43697,56095
30.44508,53484
30.45320,52774
30.46133,49426
30.46945,51819
30.47758,51529
30.48570,55180
30.49382,53163
30.50195,53306
30.51007,48315
30.51820,50716
30.52632,51019
30.53443,48561
30.54257,50632
30.55068,47555
30.55882,45910
30.56693,51989
30.57505,52393
30.58318,48458
30.59130,50820
30.59942,53292
30.60755,52718
30.61567,49171
30.62380,53171
30.63192,50670
30.64003,47177
30.64817,46747
30.65628,44728
30.66442,44600
30.67253,47002
30.68065,46765
30.68878,47562
30.69690,48753
30.70502,51702
30.71315,43940
30.72127,48541
30.72940,48812
30.73752,48828
30.74563,53251
30.75377,47029
30.76188,56768
30.77002,65583
30.77813,79053
30.78625,93096
30.79438,103155
30.80250,133363
30.81063,137402
30.81875,137208
30.82687,136688
30.83500,125119
30.84312,120432
30.85123,101700
30.85937,97360
30.86748,96031
30.87562,94018
30.88373,91500
30.89185,90914
30.89998,87747
30.90810,91744
30.91623,96018
30.92435,94075
30.93247,90541
30.94060,95901
30.94872,93339
30.95683,95266
30.96497,91708
30.97308,94870
30.98122,91863
30.98933,95392
30.99745,95915
31.00558,90883
31.01370,96241
31.02183,90874
31.02995,93179
31.03807,97025
31.04620,102307
31.05432,94929
31.06245,97262
31.07057,105865
31.07868,102075
31.08682,110318
31.09493,112707
31.10305,115898
31.11118,123891
31.11930,111228
31.12743,110379
31.13555,105597
31.14367,97658
31.15180,100940
31.15992,99621
31.16805,99039
31.17617,99694
31.18428,114285
31.19242,114610
31.20053,136968
31.20867,165353
31.21678,184078
31.22490,196259
31.23303,198789
31.24115,184524
31.24927,166796
31.25740,141360
31.26552,117097
31.27365,101566
31.28177,89584
31.28988,91720
31.29802,84419
31.30613,82993
31.31427,84420
31.32238,86945
31.33050,81364
31.33863,83788
31.34675,82849
31.35487,81642
31.36300,84317
31.37112,85223
31.37925,86245
31.38737,85769
31.39548,86431
31.40362,90060
31.41173,82489
31.41987,78015
31.42798,74315
31.43610,76627
31.44423,77793
31.45235,69938
31.46048,71941
31.46860,69810
31.47672,74880
31.48485,69722
31.49297,74763
31.50108,76207
31.50922,76135
31.51733,74423
31.52547,78016
31.53358,78631
31.54170,77835
31.54983,77889
31.55795,76071
31.56608,72536
31.57420,75861
31.58232,73254
31.59045,69978
31.59857,68017
31.60670,70774
31.61482,64513
31.62293,67480
31.63107,70874
31.63918,75031
31.64730,71350
31.65543,71493
31.66355,74240
31.67168,71688
31.67980,72954
31.68792,66465
31.69605,68464
31.70417,66592
31.71230,65598
31.72042,63864
31.72853,63336
31.73667,62618
31.74478,60909
31.75290,61490
31.76103,57964
31.76915,61911
31.77728,65286
31.78540,63031
31.79352,61967
31.80165,65443
31.80977,67035
31.81790,68239
31.82602,63204
31.83413,64149
31.84227,64765
31.85038,61168
31.85852,61692
31.86663,68875
31.87475,69749
31.88288,67627
31.89100,74860
31.89912,74834
31.90725,85350
31.91537,92744
31.92350,96769
31.93162,98276
31.93973,103907
31.94787,105265
31.95598,116469
31.96412,110819
31.97223,116061
31.98035,118610
31.98848,117746
31.99660,124213
32.00472,121053
32.01285,117791
32.02097,113417
32.02910,106440
32.03722,110541
32.04533,104970
32.05347,105656
32.06158,96698
32.06972,94852
32.07783,87000
32.08595,97138
32.09408,89389
32.10220,81847
32.11033,80143
32.11845,79618
32.12657,74486
32.13470,74159
32.14282,71841
32.15093,72474
32.15907,70350
32.16718,68505
32.17532,66879
32.18343,66110
32.19155,66601
32.19968,66888
32.20780,62965
32.21593,66783
32.22405,61231
32.23217,64775
32.24030,62583
32.24842,67369
32.25655,67868
32.26467,67391
32.27278,65186
32.28092,66655
32.28903,65078
32.29715,63548
32.30528,60572
32.31340,57023
32.32153,63238
32.32965,61407
32.33777,58283
32.34590,63226
32.35402,61146
32.36215,56615
32.37027,59415
32.37838,56835
32.38652,65488
32.39463,57440
32.40275,58230
32.41088,58365
32.41900,51891
32.42713,55888
32.43525,55109
32.44337,54982
32.45150,53117
32.45962,55078
32.46775,49435
32.47587,55473
32.48398,56689
32.49212,55289
32.50023,56056
32.50837,52231
32.51648,55333
32.52460,54577
32.53273,52739
32.54085,57726
32.54897,51531
32.55710,52809
32.56522,57390
32.57335,55962
32.58147,51792
32.58958,53439
32.59772,51073
32.60583,50126
32.61397,53989
32.62208,55042
32.63020,52277
32.63833,60932
32.64645,71553
32.65458,74883
32.66270,74791
32.67082,71983
32.67895,72896
32.68707,65755
32.69518,66776
32.70332,60725
32.71143,59481
32.71957,57929
32.72768,53852
32.73580,55295
32.74393,54950
32.75205,56078
32.76018,52471
32.76830,51132
32.77642,56798
32.78455,52669
32.79267,52494
32.80078,53921
32.80892,52373
32.81703,50846
32.82517,53410
32.83328,47795
32.84140,48646
32.84953,48007
32.85765,51526
32.86578,53138
32.87390,55889
32.88202,50204
32.89015,56727
32.89827,51948
32.90640,55429
32.91452,54229
32.92263,50095
32.93077,53657
32.93888,57745
32.94700,55057
32.95513,56497
32.96325,56666
32.97138,53081
32.97950,60844
32.98762,66949
32.99575,71723
33.00387,74657
33.01200,79016
33.02012,71997
33.02823,66396
33.03637,67158
33.04448,56678
33.05262,59260
33.06073,60652
33.06885,64590
33.07698,67001
33.08510,69755
33.09322,79093
33.10135,77447
33.10947,79943
33.11760,86937
33.12572,83840
33.13383,78769
33.14197,73244
33.15008,64133
33.15822,61913
33.16633,58717
33.17445,56164
33.18258,59639
33.19070,56012
33.19882,55783
33.20695,53622
33.21507,56781
33.22320,60608
33.23132,52516
33.23943,51747
33.24757,48992
33.25568,51085
33.26382,52757
33.27193,53130
33.28005,51659
33.28818,55984
33.29630,51538
33.30443,53867
33.31255,52098
33.32067,53779
33.32880,51098
33.33692,53246
33.34503,56359
33.35317,52145
33.36128,54899
33.36942,55073
33.37753,56217
33.38565,53286
33.39378,49977
33.40190,49716
33.41003,47414
33.41815,50491
33.42627,51004
33.43440,51962
33.44252,46986
33.45063,47185
33.45877,44098
33.46688,47365
33.47502,52030
33.48313,52493
33.49125,54086
33.49938,52779
33.50750,51248
33.51563,54889
33.52375,49717
33.53187,51527
33.54000,55837
33.54812,55715
33.55625,60538
33.56437,64430
33.57248,55417
33.58062,57322
33.58873,52969
33.59685,50792
33.60498,52241
33.61310,50787
33.62123,50616
33.62935,50483
33.63747,55445
33.64560,55464
33.65372,54393
33.66185,56327
33.66997,53892
33.67808,52640
33.68622,52559
33.69433,53882
33.70247,51742
33.71058,49714
33.71870,53197
33.72683,50195
33.73495,46439
33.74307,49630
33.75120,50050
33.75932,50804
33.76745,48286
33.77557,48863
33.78368,47300
33.79182,45705
33.79993,47775
33.80807,50246
33.81618,47832
33.82430,48935
33.83243,47577
33.84055,49068
33.84867,52415
33.85680,52456
33.86492,52421
33.87305,54490
33.88117,53837
33.88928,53584
33.89742,57060
33.90553,53336
33.91367,53200
33.92178,55044
33.92990,55535
33.93803,49452
33.94615,49721
33.95428,49042
33.96240,47288
33.97052,53596
33.97865,50386
33.98677,47231
33.99488,48447
34.00302,52258
34.01113,51272
34.01927,52276
34.02738,46170
34.03550,51061
34.04363,48870
34.05175,49537
34.05988,51626
34.06800,53485
34.07612,52785
34.08425,50971
34.09237,53530
34.10050,48000
34.10862,50742
34.11673,54714
34.12487,51765
34.13298,53772
34.14110,50137
34.14923,58108
34.15735,50543
34.16548,50860
34.17360,55008
34.18172,58560
34.18985,54923
34.19797,50611
34.20610,54289
34.21422,51474
34.22233,52163
34.23047,52043
34.23858,50935
34.24670,52939
34.25483,51111
34.26295,50740
34.27108,54320
34.27920,48171
34.28732,52367
34.29545,50002
34.30357,52044
34.31170,49927
34.31982,50384
34.32793,50247
34.33607,50087
34.34418,48768
34.35232,54187
34.36043,52547
34.36855,47370
34.37668,52460
34.38480,52484
34.39292,51254
34.40105,54223
34.40917,51739
34.41730,51312
34.42542,51185
34.43353,53914
34.44167,49570
34.44978,48880
34.45792,48969
34.46603,48214
34.47415,49168
34.48228,49281
34.49040,51801
34.49852,62388
34.50665,66028
34.51477,72708
34.52290,82204
34.53102,96871
34.53913,101500
34.54727,107314
34.55538,109922
34.56352,103961
34.57163,108448
34.57975,98748
34.58788,96820
34.59600,86856
34.60413,80129
34.61225,78327
34.62037,77917
34.62850,75945
34.63662,68664
34.64473,69902
34.65287,66193
34.66098,62297
34.66912,63956
34.67723,64057
34.68535,56473
34.69348,58890
34.70160,58592
34.70973,61370
34.71785,59176
34.72597,57485
34.73410,59245
34.74222,64162
34.75035,56811
34.75847,60949
34.76658,59796
34.77472,59286
34.78283,70207
34.79095,62709
34.79908,60554
34.80720,61034
34.81533,61765
34.82345,64156
34.83157,59126
34.83970,61215
34.84782,60660
34.85595,62920
34.86407,60588
34.87218,61644
34.88032,55204
34.88843,61088
34.89657,58556
34.90468,55606
34.91280,62504
34.92093,62986
34.92905,62970
34.93717,61979
34.94530,66070
34.95342,64247
34.96155,65025
34.96967,68308
34.97778,77401
34.98592,70379
34.99403,73338
35.00217,62249
35.01028,60943
35.01840,59688
35.02653,60623
35.03465,59951
35.04277,59664
35.05090,53980
35.05902,57603
35.06715,54375
35.07527,56356
35.08338,53430
35.09152,55234
35.09963,52836
35.10777,55230
35.11588,55852
35.12400,55430
35.13213,60235
35.14025,56470
35.14838,61507
35.15650,60797
35.16462,57948
35.17275,57146
35.18087,55481
35.18898,56647
35.19712,52989
35.20523,54058
35.21337,52340
35.22148,49731
35.22960,53685
35.23773,49821
35.24585,57468
35.25398,57529
35.26210,58131
35.27022,56535
35.27835,59286
35.28647,56477
35.29458,56384
35.30272,52528
35.31083,52460
35.31897,53494
35.32708,54961
35.33520,54211
35.34333,50558
35.35145,54431
35.35958,51615
35.36770,49966
35.37582,53063
35.38395,56818
35.39207,53613
35.40020,59288
35.40832,62997
35.41643,68970
35.42457,67733
35.43268,71615
35.44080,67674
35.44893,72558
35.45705,65241
35.46518,64496
35.47330,58501
35.48142,57996
35.48955,57857
35.49767,59695
35.50580,63855
35.51392,61450
35.52203,55681
35.53017,56434
35.53828,55248
35.54640,56920
35.55453,56304
35.56265,59696
35.57078,56639
35.57890,56955
35.58702,55750
35.59515,52147
35.60327,59467
35.61140,58469
35.61952,56815
35.62763,53594
35.63577,54698
35.64388,53899
35.65202,57313
35.66013,62377
35.66825,58200
35.67638,59358
35.68450,60694
35.69262,54935
35.70075,56156
35.70887,57817
35.71700,56839
35.72512,61768
35.73323,58566
35.74137,56581
35.74948,64252
35.75762,64532
35.76573,63958
35.77385,61103
35.78198,64932
35.79010,58854
35.79823,60429
35.80635,58016
35.81447,56203
35.82260,53695
35.83072,56381
35.83883,51874
35.84697,57276
35.85508,56448
35.86322,56658
35.87133,55401
35.87945,61677
35.88758,56375
35.89570,57290
35.90383,53821
35.91195,51668
35.92007,52646
35.92820,56067
35.93632,54107
35.94445,54262
35.95257,52809
35.96068,54426
35.96882,57081
35.97693,54900
35.98505,54831
35.99318,56791
36.00130,55902
36.00943,58861
36.01755,60233
36.02567,60789
36.03380,67797
36.04192,61062
36.05005,59223
36.05817,59231
36.06628,56121
36.07442,56047
36.08253,57703
36.09065,58417
36.09878,53696
36.10690,51877
36.11503,57519
36.12315,55351
36.13127,57651
36.13940,57162
36.14752,60025
36.15565,59783
36.16377,59172
36.17188,60930
36.18002,56015
36.18813,55550
36.19627,59085
36.20438,53176
36.21250,57012
36.22063,59388
36.22875,56738
36.23687,50565
36.24500,55214
36.25312,53805
36.26125,56842
36.26937,56119
36.27748,62037
36.28562,65584
36.29373,70817
36.30187,79219
36.30998,82814
36.31810,87247
36.32623,79390
36.33435,82748
36.34247,78505
36.35060,81044
36.35872,78353
36.36685,79974
36.37497,79514
36.38308,83154
36.39122,83953
36.39933,80871
36.40747,84906
36.41558,80928
36.42370,79225
36.43183,82811
36.43995,86523
36.44808,84546
36.45620,81926
36.46432,80234
36.47245,79709
36.48057,78603
36.48868,80113
36.49682,79200
36.50493,80285
36.51307,84188
36.52118,79403
36.52930,87555
36.53743,83371
36.54555,81222
36.55368,81690
36.56180,79785
36.56992,76243
36.57805,81071
36.58617,83702
36.59430,78737
36.60242,77073
36.61053,83129
36.61867,82234
36.62678,78550
36.63490,77138
36.64303,86710
36.65115,77672
36.65928,77234
36.66740,81005
36.67552,80878
36.68365,77602
36.69177,82204
36.69990,78105
36.70802,75764
36.71613,76650
36.72427,84151
36.73238,75680
36.74050,78865
36.74863,80096
36.75675,77491
36.76488,74019
36.77300,71735
36.78112,73017
36.78925,74906
36.79737,75530
36.80550,74284
36.81362,79235
36.82173,75040
36.82987,74062
36.83798,71802
36.84612,70492
36.85423,71334
36.86235,70833
36.87048,71435
36.87860,71033
36.88672,75919
36.89485,74163
36.90297,67920
36.91110,72476
36.91922,77037
36.92733,72696
36.93547,76500
36.94358,77369
36.95172,84166
36.95983,83965
36.96795,93392
36.97608,90908
36.98420,89666
36.99233,82390
37.00045,86695
37.00857,73436
37.01670,71580
37.02482,69812
37.03293,70391
37.04107,73933
37.04918,69588
37.05732,71662
37.06543,69254
37.07355,70972
37.08168,76687
37.08980,75164
37.09793,77086
37.10605,71276
37.11417,70264
37.12230,68698
37.13042,72736
37.13853,71341
37.14667,70065
37.15478,69989
37.16292,74222
37.17103,71899
37.17915,70299
37.18728,69065
37.19540,73973
37.20353,71204
37.21165,74956
37.21977,72302
37.22790,68817
37.23602,74004
37.24415,74480
37.25227,66769
37.26038,70884
37.26852,64351
37.27663,68360
37.28475,66039
37.29288,69532
37.30100,70173
37.30913,75477
37.31725,82086
37.32537,89399
37.33350,106921
37.34162,102580
37.34975,109793
37.35787,113544
37.36598,106838
37.37412,105227
37.38223,94589
37.39035,102297
37.39848,89641
37.40660,89331
37.41473,89261
37.42285,85992
37.43097,85128
37.43910,83566
37.44722,85718
37.45535,82869
37.46347,84339
37.47158,84421
37.47972,76972
37.48783,77813
