Z:\data\JTB-E02\BACandBLUE\JTB-E02-208-06.D Thu Mar 14 08:14:11 2019
Start of data points
2.09520,109656
2.10332,105534
2.11145,112768
2.11957,105903
2.12770,104365
2.13582,107808
2.14393,105796
2.15207,102946
2.16018,114575
2.16832,112043
2.17643,107739
2.18455,109865
2.19268,106678
2.20080,109291
2.20892,105733
2.21705,106572
2.22517,107666
2.23330,101807
2.24142,103489
2.24953,101247
2.25767,92862
2.26578,99602
2.27392,94434
2.28203,101767
2.29015,105568
2.29828,101920
2.30640,97323
2.31453,97730
2.32265,102619
2.33077,96429
2.33890,104204
2.34702,98632
2.35513,104897
2.36327,112203
2.37138,128460
2.37952,190180
2.38763,314086
2.39575,518759
2.40388,776678
2.41200,1059159
2.42013,1259174
2.42825,1323658
2.43637,1271404
2.44450,1126243
2.45262,983537
2.46073,835506
2.46887,700149
2.47698,634416
2.48512,563949
2.49323,512983
2.50135,456258
2.50948,424869
2.51760,411062
2.52573,377829
2.53385,367318
2.54197,347790
2.55010,333676
2.55822,330663
2.56635,304958
2.57447,290936
2.58258,284274
2.59072,288617
2.59883,275131
2.60695,271050
2.61508,267715
2.62320,252486
2.63133,245626
2.63945,243437
2.64757,235587
2.65570,237971
2.66382,237120
2.67195,224144
2.68007,224486
2.68818,217131
2.69632,213435
2.70443,210215
2.71255,213582
2.72068,208518
2.72880,205525
2.73693,198674
2.74505,199807
2.75317,197395
2.76130,193184
2.76942,198700
2.77755,198024
2.78567,186803
2.79378,185931
2.80192,186039
2.81003,184350
2.81817,182521
2.82628,182105
2.83440,179884
2.84253,176231
2.85065,180064
2.85877,187582
2.86690,175370
2.87502,181822
2.88315,180748
2.89127,177213
2.89938,180374
2.90752,175459
2.91563,170749
2.92377,171133
2.93188,166602
2.94000,165350
2.94813,160665
2.95625,173165
2.96438,164716
2.97250,165111
2.98062,158163
2.98875,156891
2.99687,153472
3.00498,161268
3.01312,160463
3.02123,162800
3.02937,156505
3.03748,160004
3.04560,157500
3.05373,158405
3.06185,158789
3.06998,157096
3.07810,156183
3.08622,151512
3.09435,152892
3.10247,151883
3.11058,147743
3.11872,150875
3.12683,146025
3.13497,154458
3.14308,145710
3.15120,151361
3.15933,147359
3.16745,150860
3.17558,145322
3.18370,154578
3.19182,161545
3.19995,161030
3.20807,171085
3.21620,168645
3.22432,167423
3.23243,171612
3.24057,163286
3.24868,151641
3.25680,154491
3.26493,147366
3.27305,149077
3.28118,148445
3.28930,141618
3.29742,143622
3.30555,143766
3.31367,149318
3.32180,137249
3.32992,136419
3.33803,140805
3.34617,136781
3.35428,142571
3.36242,140205
3.37053,139624
3.37865,127491
3.38678,134233
3.39490,136255
3.40302,143689
3.41115,137451
3.41927,131368
3.42740,142799
3.43552,141099
3.44363,130514
3.45177,135907
3.45988,136079
3.46802,128335
3.47613,128666
3.48425,129338
3.49238,135412
3.50050,132641
3.50862,132092
3.51675,130779
3.52487,132703
3.53300,125237
3.54112,132529
3.54923,125027
3.55737,131958
3.56548,130708
3.57362,132433
3.58173,130771
3.58985,136328
3.59798,127521
3.60610,128279
3.61423,124452
3.62235,128836
3.63047,126878
3.63860,128156
3.64672,127987
3.65483,127679
3.66297,130846
3.67108,123667
3.67922,127613
3.68733,122659
3.69545,125462
3.70358,125571
3.71170,124501
3.71983,120666
3.72795,125300
3.73607,116853
3.74420,119505
3.75232,127840
3.76043,116715
3.76857,124670
3.77668,124264
3.78482,120165
3.79293,119304
3.80105,120335
3.80918,122020
3.81730,128731
3.82543,121740
3.83355,122531
3.84167,118961
3.84980,119109
3.85792,125720
3.86605,116749
3.87417,125199
3.88228,130091
3.89042,129570
3.89853,130896
3.90665,124311
3.91478,128573
3.92290,133317
3.93103,128707
3.93915,135858
3.94727,137936
3.95540,127011
3.96352,129940
3.97165,135822
3.97977,131959
3.98788,142516
3.99602,143966
4.00413,138470
4.01227,140303
4.02038,145505
4.02850,138636
4.03663,140551
4.04475,146748
4.05287,148342
4.06100,142186
4.06912,145532
4.07725,147886
4.08537,148846
4.09348,156222
4.10162,148452
4.10973,149401
4.11787,154790
4.12598,156290
4.13410,162539
4.14223,156874
4.15035,161031
4.15847,158959
4.16660,160646
4.17472,156676
4.18285,161964
4.19097,168345
4.19908,167702
4.20722,167652
4.21533,167362
4.22347,179399
4.23158,178242
4.23970,166333
4.24783,172021
4.25595,162651
4.26408,170569
4.27220,176787
4.28032,178493
4.28845,176831
4.29657,180347
4.30468,182857
4.31282,172397
4.32093,180239
4.32907,176702
4.33718,178970
4.34530,182242
4.35343,179047
4.36155,177228
4.36968,187349
4.37780,184742
4.38592,188999
4.39405,190613
4.40217,185398
4.41030,192299
4.41842,201444
4.42653,194147
4.43467,201427
4.44278,199025
4.45090,202055
4.45903,192490
4.46715,198202
4.47528,208268
4.48340,204689
4.49152,189907
4.49965,201449
4.50777,208390
4.51590,214286
4.52402,196565
4.53213,173254
4.54027,163673
4.54838,154466
4.55650,153256
4.56463,156133
4.57275,146019
4.58088,140258
4.58900,147057
4.59712,142366
4.60525,139020
4.61337,136146
4.62150,144640
4.62962,141139
4.63773,134512
4.64587,132302
4.65398,134754
4.66212,144237
4.67023,130622
4.67835,136008
4.68648,128361
4.69460,127776
4.70272,129005
4.71085,132851
4.71897,133224
4.72710,125600
4.73522,129729
4.74333,130636
4.75147,125996
4.75958,123416
4.76772,140838
4.77583,132680
4.78395,138223
4.79208,132243
4.80020,134550
4.80833,133975
4.81645,135005
4.82457,133820
4.83270,132273
4.84082,130509
4.84893,123622
4.85707,129012
4.86518,129209
4.87332,129416
4.88143,131627
4.88955,123863
4.89768,122649
4.90580,127807
4.91393,126482
4.92205,122455
4.93017,128117
4.93830,128029
4.94642,125822
4.95453,128551
4.96267,127148
4.97078,124879
4.97892,123061
4.98703,123897
4.99515,125183
5.00328,127207
5.01140,122646
5.01953,123363
5.02765,113320
5.03577,122565
5.04390,122168
5.05202,123766
5.06015,116112
5.06827,117503
5.07638,126507
5.08452,116748
5.09263,120291
5.10075,117586
5.10888,117005
5.11700,120746
5.12513,119520
5.13325,112360
5.14137,123288
5.14950,118484
5.15762,125115
5.16575,117077
5.17387,115538
5.18198,112786
5.19012,117473
5.19823,110627
5.20635,114694
5.21448,118741
5.22260,117573
5.23073,106486
5.23885,116908
5.24697,119824
5.25510,111447
5.26322,116153
5.27135,109806
5.27947,109669
5.28758,106429
5.29572,102905
5.30383,105487
5.31197,104348
5.32008,100827
5.32820,107681
5.33633,103353
5.34445,107420
5.35257,113743
5.36070,110269
5.36882,104555
5.37695,106751
5.38507,104915
5.39318,95092
5.40132,108894
5.40943,101153
5.41757,108851
5.42568,102330
5.43380,106921
5.44193,103329
5.45005,106958
5.45818,102264
5.46630,98927
5.47442,109935
5.48255,98027
5.49067,102986
5.49878,100579
5.50692,103661
5.51503,99778
5.52317,103745
5.53128,100152
5.53940,104006
5.54753,104815
5.55565,101803
5.56378,102179
5.57190,97013
5.58002,101225
5.58815,100344
5.59627,98152
5.60438,94351
5.61252,100981
5.62063,101685
5.62877,96423
5.63688,102694
5.64500,96224
5.65313,96768
5.66125,97889
5.66938,97912
5.67750,93426
5.68562,100791
5.69375,100671
5.70187,101553
5.71000,102830
5.71812,101827
5.72623,97996
5.73437,95535
5.74248,100210
5.75060,100899
5.75873,98660
5.76685,104134
5.77498,94522
5.78310,98400
5.79122,99410
5.79935,95540
5.80747,97306
5.81560,94915
5.82372,96949
5.83183,94870
5.83997,96841
5.84808,96610
5.85622,93869
5.86433,92899
5.87245,90468
5.88058,98361
5.88870,97747
5.89682,95883
5.90495,87908
5.91307,87779
5.92120,88466
5.92932,76679
5.93743,73655
5.94557,73599
5.95368,71884
5.96182,69499
5.96993,76636
5.97805,74362
5.98618,79391
5.99430,72820
6.00242,72025
6.01055,69695
6.01867,68735
6.02680,73241
6.03492,72741
6.04303,68208
6.05117,74413
6.05928,72697
6.06742,71132
6.07553,74458
6.08365,74781
6.09178,74041
6.09990,73298
6.10803,66174
6.11615,67904
6.12427,64226
6.13240,64481
6.14052,73329
6.14863,70137
6.15677,62404
6.16488,70453
6.17302,67928
6.18113,61819
6.18925,69360
6.19738,71045
6.20550,65445
6.21363,69531
6.22175,69418
6.22987,69518
6.23800,72131
6.24612,65202
6.25423,70051
6.26237,67274
6.27048,73276
6.27862,59808
6.28673,63180
6.29485,63816
6.30298,61730
6.31110,67633
6.31923,65906
6.32735,65806
6.33547,66642
6.34360,68490
6.35172,67525
6.35985,71804
6.36797,67905
6.37608,66992
6.38422,65585
6.39233,62456
6.40045,65935
6.40858,66330
6.41670,69732
6.42483,64409
6.43295,61033
6.44107,64134
6.44920,64961
6.45732,65848
6.46545,64212
6.47357,66083
6.48168,66352
6.48982,61225
6.49793,64081
6.50607,61544
6.51418,66792
6.52230,66698
6.53043,66667
6.53855,64040
6.54667,61268
6.55480,63274
6.56292,63765
6.57105,68426
6.57917,65156
6.58728,62378
6.59542,68536
6.60353,60835
6.61167,63370
6.61978,62021
6.62790,65284
6.63603,63302
6.64415,66532
6.65228,62531
6.66040,63563
6.66852,59997
6.67665,61993
6.68477,59752
6.69288,62001
6.70102,63739
6.70913,62911
6.71727,63973
6.72538,62893
6.73350,67588
6.74163,63549
6.74975,63545
6.75788,63116
6.76600,65592
6.77412,63907
6.78225,62863
6.79037,63451
6.79848,63230
6.80662,62855
6.81473,61733
6.82287,57475
6.83098,60438
6.83910,62091
6.84723,58569
6.85535,60116
6.86348,56001
6.87160,55768
6.87972,47119
6.88785,47305
6.89597,45327
6.90410,45796
6.91222,45813
6.92033,47086
6.92847,46066
6.93658,48255
6.94470,45726
6.95283,43103
6.96095,46217
6.96908,47683
6.97720,45987
6.98532,47430
6.99345,47046
7.00157,42635
7.00970,46233
7.01782,40431
7.02593,47500
7.03407,45903
7.04218,44706
7.05030,45603
7.05843,47467
7.06655,41443
7.07468,41881
7.08280,44794
7.09092,43176
7.09905,44952
7.10717,44452
7.11530,45726
7.12342,48005
7.13153,51055
7.13967,51923
7.14778,56697
7.15592,63874
7.16403,63010
7.17215,66942
7.18028,59602
7.18840,51474
7.19652,55784
7.20465,50303
7.21277,54796
7.22090,54644
7.22902,49654
7.23713,51610
7.24527,51861
7.25338,52087
7.26152,50026
7.26963,52552
7.27775,54502
7.28588,47010
7.29400,49311
7.30213,52031
7.31025,52292
7.31837,55349
7.32650,51228
7.33462,50413
7.34273,52303
7.35087,49688
7.35898,50201
7.36712,50390
7.37523,49998
7.38335,52004
7.39148,53153
7.39960,50642
7.40773,51885
7.41585,50057
7.42397,48941
7.43210,50153
7.44022,46429
7.44833,54112
7.45647,47859
7.46458,48532
7.47272,49293
7.48083,51998
7.48895,51585
7.49708,53679
7.50520,50005
7.51333,52042
7.52145,47189
7.52957,49919
7.53770,48283
7.54582,46103
7.55395,44426
7.56207,52464
7.57018,48180
7.57832,52556
7.58643,54965
7.59455,48636
7.60268,50870
7.61080,47553
7.61893,49397
7.62705,46874
7.63517,48122
7.64330,47112
7.65142,48735
7.65955,48424
7.66767,46799
7.67578,48487
7.68392,48960
7.69203,49743
7.70017,47613
7.70828,43907
7.71640,47702
7.72453,43984
7.73265,53455
7.74077,47107
7.74890,47363
7.75702,44465
7.76515,45212
7.77327,45797
7.78138,52185
7.78952,50337
7.79763,52464
7.80577,47453
7.81388,46918
7.82200,43948
7.83013,50444
7.83825,51501
7.84637,43688
7.85450,41310
7.86262,46718
7.87075,49902
7.87887,44743
7.88698,42501
7.89512,43287
7.90323,46487
7.91137,41913
7.91948,43143
7.92760,46372
7.93573,48316
7.94385,49315
7.95198,48784
7.96010,46213
7.96822,48817
7.97635,49869
7.98447,45827
7.99258,44586
8.00072,44674
8.00883,51606
8.01697,54203
8.02508,82597
8.03320,125761
8.04133,192779
8.04945,274197
8.05758,341467
8.06570,358540
8.07382,340506
8.08195,299436
8.09007,267726
8.09818,242454
8.10632,220061
8.11443,200998
8.12257,196570
8.13068,182605
8.13880,176567
8.14693,155817
8.15505,158549
8.16318,147924
8.17130,146870
8.17942,135197
8.18755,135885
8.19567,130529
8.20380,128690
8.21192,118799
8.22003,135819
8.22817,125043
8.23628,128910
8.24440,127306
8.25253,124460
8.26065,121926
8.26878,116116
8.27690,116095
8.28502,111787
8.29315,114842
8.30127,113469
8.30940,113399
8.31752,102243
8.32563,113795
8.33377,103925
8.34188,103874
8.35002,105136
8.35813,102580
8.36625,104421
8.37438,103984
8.38250,98788
8.39062,95580
8.39875,98639
8.40687,101861
8.41500,98454
8.42312,99711
8.43123,95516
8.43937,100121
8.44748,96454
8.45562,102645
8.46373,91295
8.47185,101274
8.47998,92466
8.48810,92440
8.49622,93162
8.50435,92532
8.51247,90518
8.52060,88528
8.52872,91696
8.53683,90269
8.54497,92706
8.55308,86438
8.56122,89562
8.56933,90141
8.57745,88095
8.58558,93689
8.59370,93707
8.60183,81219
8.60995,95467
8.61807,86512
8.62620,89821
8.63432,85847
8.64243,86484
8.65057,87901
8.65868,82970
8.66682,85367
8.67493,86806
8.68305,86100
8.69118,86412
8.69930,85072
8.70743,86011
8.71555,83574
8.72367,86019
8.73180,81991
8.73992,83326
8.74805,83844
8.75617,86287
8.76428,85276
8.77242,80882
8.78053,82793
8.78865,82642
8.79678,80078
8.80490,78432
8.81303,84457
8.82115,80702
8.82927,78586
8.83740,82213
8.84552,80573
8.85365,76943
8.86177,76673
8.86988,84059
8.87802,82894
8.88613,81934
8.89425,82114
8.90238,78181
8.91050,73233
8.91863,69505
8.92675,74032
8.93487,69753
8.94300,78379
8.95112,72028
8.95925,78401
8.96737,76156
8.97548,73150
8.98362,66405
8.99173,68524
8.99987,70831
9.00798,68413
9.01610,62651
9.02423,61960
9.03235,68783
9.04047,65420
9.04860,75445
9.05672,69398
9.06485,62367
9.07297,65712
9.08108,67037
9.08922,66068
9.09733,67035
9.10547,65591
9.11358,64899
9.12170,63870
9.12983,62221
9.13795,64736
9.14607,63537
9.15420,60843
9.16232,66026
9.17045,66918
9.17857,61203
9.18668,61972
9.19482,68321
9.20293,62635
9.21107,62277
9.21918,59908
9.22730,61692
9.23543,59777
9.24355,60691
9.25168,56577
9.25980,57214
9.26792,60768
9.27605,56125
9.28417,59492
9.29228,60926
9.30042,57736
9.30853,58592
9.31667,53702
9.32478,54495
9.33290,56745
9.34103,63908
9.34915,57401
9.35728,62846
9.36540,67261
9.37352,77630
9.38165,75203
9.38977,80205
9.39790,89471
9.40602,95380
9.41413,107931
9.42227,102421
9.43038,98121
9.43850,97139
9.44663,87176
9.45475,87741
9.46288,78416
9.47100,84025
9.47912,83910
9.48725,83200
9.49537,73736
9.50350,77055
9.51162,81795
9.51973,78829
9.52787,77446
9.53598,71920
9.54410,68217
9.55223,66169
9.56035,66651
9.56848,61187
9.57660,56357
9.58472,55771
9.59285,52435
9.60097,50192
9.60910,51286
9.61722,50301
9.62533,50687
9.63347,55488
9.64158,48933
9.64972,47023
9.65783,44621
9.66595,47937
9.67408,46130
9.68220,47693
9.69032,48926
9.69845,50663
9.70657,52176
9.71470,46631
9.72282,47351
9.73093,43595
9.73907,45905
9.74718,45559
9.75532,49579
9.76343,50237
9.77155,44678
9.77968,48103
9.78780,43886
9.79593,48605
9.80405,48511
9.81217,42586
9.82030,45112
9.82842,47258
9.83653,53514
9.84467,45116
9.85278,44723
9.86092,41391
9.86903,43212
9.87715,48143
9.88528,48055
9.89340,46765
9.90153,41671
9.90965,43394
9.91777,44497
9.92590,47992
9.93402,45040
9.94213,44456
9.95027,42556
9.95838,43671
9.96652,42208
9.97463,42810
9.98275,45073
9.99088,43324
9.99900,43423
10.00713,44461
10.01525,43929
10.02337,45486
10.03150,42996
10.03962,45487
10.04775,43871
10.05587,36111
10.06398,41504
10.07212,39425
10.08023,38240
10.08835,39754
10.09648,39805
10.10460,41651
10.11273,41194
10.12085,39398
10.12897,39516
10.13710,46742
10.14522,42557
10.15335,38910
10.16147,43567
10.16958,38310
10.17772,41995
10.18583,38953
10.19397,35905
10.20208,39091
10.21020,37924
10.21833,40104
10.22645,36308
10.23457,38610
10.24270,36229
10.25082,37619
10.25895,41807
10.26707,36365
10.27518,38408
10.28332,39637
10.29143,36287
10.29957,39224
10.30768,37543
10.31580,34051
10.32393,36294
10.33205,37395
10.34017,35958
10.34830,36052
10.35642,33614
10.36455,37444
10.37267,36577
10.38078,34502
10.38892,36599
10.39703,35807
10.40517,36640
10.41328,38544
10.42140,42682
10.42953,35370
10.43765,35676
10.44578,32889
10.45390,37438
10.46202,35681
10.47015,35676
10.47827,34662
10.48638,35819
10.49452,36962
10.50263,36566
10.51077,38209
10.51888,37832
10.52700,36355
10.53513,39696
10.54325,37989
10.55138,35379
10.55950,36503
10.56762,36462
10.57575,39361
10.58387,37421
10.59198,35346
10.60012,34429
10.60823,35692
10.61637,39496
10.62448,37806
10.63260,40674
10.64073,36100
10.64885,36209
10.65698,36735
10.66510,37355
10.67322,35379
10.68135,38463
10.68947,37773
10.69760,43857
10.70572,46491
10.71383,53599
10.72197,52359
10.73008,54966
10.73820,54963
10.74633,52834
10.75445,45950
10.76258,46789
10.77070,39522
10.77882,40586
10.78695,35617
10.79507,38608
10.80320,41856
10.81132,36251
10.81943,37938
10.82757,35702
10.83568,32817
10.84382,34207
10.85193,35795
10.86005,32946
10.86818,36384
10.87630,35516
10.88442,37493
10.89255,34575
10.90067,37857
10.90880,33620
10.91692,34107
10.92503,33192
10.93317,37896
10.94128,37748
10.94942,35972
10.95753,39107
10.96565,38474
10.97378,41016
10.98190,35424
10.99002,36152
10.99815,35741
11.00627,36226
11.01440,33485
11.02252,35234
11.03063,34187
11.03877,35218
11.04688,33875
11.05502,36532
11.06313,34054
11.07125,34171
11.07938,34504
11.08750,34661
11.09563,34924
11.10375,34944
11.11187,33744
11.12000,36787
11.12812,34712
11.13623,35914
11.14437,35549
11.15248,33270
11.16062,33885
11.16873,33560
11.17685,31401
11.18498,33280
11.19310,34095
11.20123,31792
11.20935,30307
11.21747,39089
11.22560,33194
11.23372,32248
11.24185,33351
11.24997,34044
11.25808,32580
11.26622,31585
11.27433,33057
11.28245,32330
11.29058,32862
11.29870,37324
11.30683,34980
11.31495,33123
11.32307,31951
11.33120,36686
11.33932,36783
11.34745,32792
11.35557,29344
11.36368,31613
11.37182,31952
11.37993,31805
11.38805,33752
11.39618,30974
11.40430,37895
11.41243,35490
11.42055,39109
11.42867,31137
11.43680,30672
11.44492,35114
11.45305,35663
11.46117,32365
11.46928,32827
11.47742,29259
11.48553,32957
11.49367,35273
11.50178,34240
11.50990,35874
11.51803,30955
11.52615,34583
11.53427,31532
11.54240,32775
11.55052,32488
11.55865,32107
11.56677,35614
11.57488,30659
11.58302,35170
11.59113,35249
11.59927,30926
11.60738,28663
11.61550,33218
11.62363,35598
11.63175,29899
11.63987,32900
11.64800,33448
11.65612,30385
11.66425,30484
11.67237,31783
11.68048,36278
11.68862,31671
11.69673,36800
11.70487,32593
11.71298,29238
11.72110,34053
11.72923,33835
11.73735,35337
11.74548,33448
11.75360,34902
11.76172,34407
11.76985,32092
11.77797,30896
11.78608,34246
11.79422,30696
11.80233,28916
11.81047,36009
11.81858,32337
11.82670,35225
11.83483,34737
11.84295,31878
11.85108,31133
11.85920,35429
11.86732,34894
11.87545,33652
11.88357,32038
11.89170,34359
11.89982,30130
11.90793,29507
11.91607,33266
11.92418,30915
11.93230,31140
11.94043,35249
11.94855,32837
11.95668,31983
11.96480,29832
11.97292,31036
11.98105,29683
11.98917,37294
11.99730,35758
12.00542,30961
12.01353,32791
12.02167,33678
12.02978,33636
12.03792,32764
12.04603,31416
12.05415,30122
12.06228,32656
12.07040,34329
12.07852,33158
12.08665,30309
12.09477,30777
12.10290,32672
12.11102,32691
12.11913,31510
12.12727,30586
12.13538,36211
12.14352,37694
12.15163,38706
12.15975,39358
12.16788,37555
12.17600,37353
12.18412,36602
12.19225,32426
12.20037,37296
12.20850,39681
12.21662,32365
12.22473,31420
12.23287,31018
12.24098,31637
12.24912,30746
12.25723,32222
12.26535,31489
12.27348,32160
12.28160,29661
12.28973,30068
12.29785,30061
12.30597,33206
12.31410,30457
12.32222,31769
12.33033,31091
12.33847,28872
12.34658,27734
12.35472,35779
12.36283,30925
12.37095,29146
12.37908,33233
12.38720,30880
12.39533,26632
12.40345,28516
12.41157,28667
12.41970,31870
12.42782,29989
12.43593,30850
12.44407,33663
12.45218,30851
12.46032,28074
12.46843,30473
12.47655,31224
12.48468,29054
12.49280,31272
12.50093,31363
12.50905,28124
12.51717,25924
12.52530,30983
12.53342,29584
12.54155,28860
12.54967,29238
12.55778,30711
12.56592,30656
12.57403,29794
12.58215,30964
12.59028,26944
12.59840,26119
12.60653,28966
12.61465,31862
12.62277,31466
12.63090,26996
12.63902,31756
12.64715,30540
12.65527,28629
12.66338,29986
12.67152,26893
12.67963,28284
12.68777,26579
12.69588,26636
12.70400,32027
12.71213,25464
12.72025,32219
12.72837,30392
12.73650,26568
12.74462,30788
12.75275,28832
12.76087,33965
12.76898,27392
12.77712,30396
12.78523,29243
12.79337,30669
12.80148,27850
12.80960,30194
12.81773,31489
12.82585,31217
12.83397,26668
12.84210,32274
12.85022,29120
12.85835,30675
12.86647,27050
12.87458,26336
12.88272,28996
12.89083,28615
12.89897,28852
12.90708,28841
12.91520,29894
12.92333,31344
12.93145,30325
12.93958,25383
12.94770,25779
12.95582,28290
12.96395,26246
12.97207,26070
12.98018,31436
12.98832,27835
12.99643,26842
13.00457,26149
13.01268,30861
13.02080,34842
13.02893,32989
13.03705,36941
13.04518,33830
13.05330,30997
13.06142,29602
13.06955,31239
13.07767,26781
13.08580,28037
13.09392,29231
13.10203,28601
13.11017,30041
13.11828,25975
13.12640,32535
13.13453,27498
13.14265,29758
13.15078,30336
13.15890,30886
13.16702,27356
13.17515,31578
13.18327,31237
13.19140,28104
13.19952,28692
13.20763,30993
13.21577,29119
13.22388,25987
13.23200,24546
13.24013,26812
13.24825,28895
13.25638,28868
13.26450,26366
13.27262,28085
13.28075,27335
13.28887,30118
13.29700,27146
13.30512,29008
13.31323,29317
13.32137,30493
13.32948,29250
13.33762,27406
13.34573,28732
13.35385,32116
13.36198,30598
13.37010,26675
13.37822,29141
13.38635,29246
13.39447,33504
13.40260,29046
13.41072,31732
13.41883,29388
13.42697,28477
13.43508,28693
13.44322,30046
13.45133,27445
13.45945,27065
13.46758,30039
13.47570,26584
13.48382,26904
13.49195,32057
13.50007,30155
13.50820,29605
13.51632,32841
13.52443,31121
13.53257,29575
13.54068,28540
13.54882,29965
13.55693,28287
13.56505,32425
13.57318,32207
13.58130,34115
13.58943,32156
13.59755,27883
13.60567,30671
13.61380,33023
13.62192,32256
13.63003,34199
13.63817,29026
13.64628,32730
13.65442,30433
13.66253,34394
13.67065,30923
13.67878,31886
13.68690,31501
13.69503,35529
13.70315,33272
13.71127,30952
13.71940,33274
13.72752,27922
13.73565,30441
13.74377,31012
13.75188,31418
13.76002,28331
13.76813,32921
13.77625,31560
13.78438,36377
13.79250,34087
13.80063,35655
13.80875,34924
13.81687,34790
13.82500,34281
13.83312,38983
13.84125,37751
13.84937,34534
13.85748,40386
13.86562,37731
13.87373,32906
13.88185,32535
13.88998,34355
13.89810,34859
13.90623,29492
13.91435,36548
13.92247,30453
13.93060,32870
13.93872,29537
13.94685,33076
13.95497,39886
13.96308,33612
13.97122,33183
13.97933,35467
13.98747,32784
13.99558,30876
14.00370,34140
14.01183,30529
14.01995,33705
14.02807,31135
14.03620,34509
14.04432,31439
14.05245,35176
14.06057,39088
14.06868,43811
14.07682,59316
14.08493,86057
14.09307,112451
14.10118,136997
14.10930,163921
14.11743,160016
14.12555,148747
14.13368,143774
14.14180,119345
14.14992,118181
14.15805,104804
14.16617,106452
14.17428,105357
14.18242,107784
14.19053,101849
14.19867,92715
14.20678,93474
14.21490,94225
14.22303,86526
14.23115,83675
14.23928,82284
14.24740,72014
14.25552,71409
14.26365,67592
14.27177,63954
14.27988,61331
14.28802,59096
14.29613,59347
14.30427,52916
14.31238,56612
14.32050,55458
14.32863,49981
14.33675,49375
14.34488,48709
14.35300,43372
14.36112,45644
14.36925,44182
14.37737,39372
14.38550,39989
14.39362,33293
14.40173,36704
14.40987,34488
14.41798,34642
14.42610,33440
14.43423,32909
14.44235,31134
14.45048,29748
14.45860,33695
14.46672,33212
14.47485,31607
14.48297,32517
14.49110,34664
14.49922,31249
14.50733,35145
14.51547,33541
14.52358,34125
14.53172,36036
14.53983,37149
14.54795,33938
14.55608,35828
14.56420,37134
14.57232,35907
14.58045,34870
14.58857,33590
14.59670,33464
14.60482,34101
14.61293,33162
14.62107,30447
14.62918,34071
14.63732,33550
14.64543,33570
14.65355,31455
14.66168,34008
14.66980,35650
14.67792,34191
14.68605,33888
14.69417,37420
14.70230,32398
14.71042,35337
14.71853,29796
14.72667,31657
14.73478,33938
14.74292,31629
14.75103,32545
14.75915,33300
14.76728,31748
14.77540,33879
14.78353,29122
14.79165,32850
14.79977,32226
14.80790,29943
14.81602,34947
14.82413,33317
14.83227,33103
14.84038,34561
14.84852,33830
14.85663,33137
14.86475,33281
14.87288,30136
14.88100,30815
14.88913,31882
14.89725,27072
14.90537,32804
14.91350,30526
14.92162,30695
14.92973,28636
14.93787,30802
14.94598,30147
14.95412,30196
14.96223,32991
14.97035,27924
14.97848,29361
14.98660,30748
14.99473,30406
15.00285,27522
15.01097,30775
15.01910,26984
15.02722,28441
15.03535,29792
15.04347,29698
15.05158,29534
15.05972,26174
15.06783,26899
15.07595,30104
15.08408,27722
15.09220,28583
15.10033,28843
15.10845,29932
15.11657,29284
15.12470,33089
15.13282,28799
15.14095,29450
15.14907,27315
15.15718,25773
15.16532,27936
15.17343,24258
15.18157,24888
15.18968,23971
15.19780,23053
15.20593,24745
15.21405,26142
15.22217,25321
15.23030,27660
15.23842,25553
15.24655,24484
15.25467,25676
15.26278,27006
15.27092,27684
15.27903,26971
15.28717,23257
15.29528,25438
15.30340,23397
15.31153,23353
15.31965,25006
15.32777,25485
15.33590,29002
15.34402,24741
15.35215,24470
15.36027,24872
15.36838,23637
15.37652,27502
15.38463,28114
15.39277,26438
15.40088,26280
15.40900,25214
15.41713,24771
15.42525,26576
15.43338,28972
15.44150,25246
15.44962,25542
15.45775,23386
15.46587,24242
15.47398,23042
15.48212,22203
15.49023,26591
15.49837,26191
15.50648,25835
15.51460,24368
15.52273,26299
15.53085,26983
15.53898,21519
15.54710,24916
15.55522,29826
15.56335,26162
15.57147,26579
15.57960,26624
15.58772,25266
15.59583,27863
15.60397,29735
15.61208,27606
15.62020,31440
15.62833,25618
15.63645,25642
15.64458,25654
15.65270,29694
15.66082,26515
15.66895,23596
15.67707,26123
15.68520,29200
15.69332,27183
15.70143,26405
15.70957,30296
15.71768,30919
15.72580,33393
15.73393,34718
15.74205,37307
15.75018,38655
15.75830,42236
15.76642,45337
15.77455,42208
15.78267,36104
15.79080,34199
15.79892,34128
15.80703,31432
15.81517,29833
15.82328,28532
15.83142,29297
15.83953,28736
15.84765,30925
15.85578,29819
15.86390,28571
15.87202,30996
15.88015,29752
15.88827,29848
15.89640,28829
15.90452,30471
15.91263,30472
15.92077,29453
15.92888,29657
15.93702,32415
15.94513,28652
15.95325,27075
15.96138,26522
15.96950,29241
15.97762,30446
15.98575,29756
15.99387,27177
16.00200,28404
16.01012,34027
16.01823,29723
16.02637,26739
16.03448,25660
16.04262,26954
16.05073,26071
16.05885,25687
16.06698,29113
16.07510,26347
16.08323,29743
16.09135,28395
16.09947,31851
16.10760,28635
16.11572,28617
16.12383,32216
16.13197,29916
16.14008,29373
16.14822,30649
16.15633,23519
16.16445,29824
16.17258,27823
16.18070,27719
16.18883,31050
16.19695,28950
16.20507,27634
16.21320,30212
16.22132,32781
16.22945,30776
16.23757,30984
16.24568,27818
16.25382,29750
16.26193,27558
16.27005,30138
16.27818,27487
16.28630,28716
16.29443,28523
16.30255,26976
16.31067,28723
16.31880,25214
16.32692,29087
16.33505,26403
16.34317,30100
16.35128,31571
16.35942,27744
16.36753,28444
16.37567,29342
16.38378,27076
16.39190,27054
16.40003,28991
16.40815,30754
16.41627,26535
16.42440,27385
16.43252,30151
16.44065,28159
16.44877,27826
16.45688,27183
16.46502,27681
16.47313,27266
16.48127,27781
16.48938,28488
16.49750,28384
16.50563,28989
16.51375,28961
16.52187,25941
16.53000,27872
16.53812,27972
16.54625,25584
16.55437,27475
16.56248,24227
16.57062,25526
16.57873,26329
16.58687,24834
16.59498,28010
16.60310,26490
16.61123,32367
16.61935,24969
16.62748,26375
16.63560,26265
16.64372,25081
16.65185,23718
16.65997,23707
16.66808,26244
16.67622,25125
16.68433,24466
16.69247,26732
16.70058,23640
16.70870,27457
16.71683,26582
16.72495,21712
16.73308,21780
16.74120,26732
16.74932,26915
16.75745,22744
16.76557,23434
16.77368,23654
16.78182,21523
16.78993,26804
16.79807,22869
16.80618,21825
16.81430,22006
16.82243,26111
16.83055,24461
16.83868,25606
16.84680,20717
16.85492,25015
16.86305,20435
16.87117,31127
16.87930,31553
16.88742,29462
16.89553,27283
16.90367,22752
16.91178,32177
16.91990,25826
16.92803,22616
16.93615,23022
16.94428,24458
16.95240,21486
16.96052,25944
16.96865,22600
16.97677,22531
16.98490,20989
16.99302,23789
17.00113,23989
17.00927,25674
17.01738,23943
17.02550,23827
17.03363,23480
17.04175,24048
17.04988,28537
17.05800,22130
17.06612,25023
17.07425,24382
17.08237,20801
17.09050,23784
17.09862,22556
17.10673,23760
17.11487,26318
17.12298,26755
17.13112,31915
17.13923,32810
17.14735,27753
17.15548,29804
17.16360,35440
17.17172,29714
17.17985,27963
17.18797,29090
17.19610,25693
17.20422,27361
17.21233,26347
17.22047,32133
17.22858,25528
17.23672,30083
17.24483,29688
17.25295,30692
17.26108,27099
17.26920,28658
17.27733,26338
17.28545,31277
17.29357,26253
17.30170,29782
17.30982,26529
17.31793,26265
17.32607,27967
17.33418,30004
17.34232,31209
17.35043,30894
17.35855,29867
17.36668,30393
17.37480,27936
17.38293,29644
17.39105,27220
17.39917,26272
17.40730,26053
17.41542,26380
17.42355,28768
17.43167,30199
17.43978,28611
17.44792,28013
17.45603,35968
17.46415,34161
17.47228,35609
17.48040,35610
17.48853,38571
17.49665,33681
17.50477,37255
17.51290,34817
17.52102,35978
17.52915,36719
17.53727,31415
17.54538,34389
17.55352,37331
17.56163,36497
17.56975,35144
17.57788,38506
17.58600,33982
17.59413,32544
17.60225,34715
17.61037,32718
17.61850,36317
17.62662,37434
17.63475,33031
17.64287,37226
17.65098,35623
17.65912,31948
17.66723,34667
17.67537,34844
17.68348,32211
17.69160,34702
17.69973,37499
17.70785,34517
17.71597,35922
17.72410,30466
17.73222,33505
17.74035,30614
17.74847,32122
17.75658,29817
17.76472,28348
17.77283,31510
17.78097,26703
17.78908,27176
17.79720,31412
17.80533,29457
17.81345,35368
17.82157,28197
17.82970,28565
17.83782,28661
17.84595,26788
17.85407,27381
17.86218,29188
17.87032,28347
17.87843,29493
17.88657,26414
17.89468,31093
17.90280,35548
17.91093,27206
17.91905,34782
17.92718,34812
17.93530,31512
17.94342,28096
17.95155,34720
17.95967,31868
17.96778,35791
17.97592,32623
17.98403,33744
17.99217,32588
18.00028,34401
18.00840,33079
18.01653,34358
18.02465,32248
18.03278,35137
18.04090,31853
18.04902,35229
18.05715,35621
18.06527,40864
18.07340,46749
18.08152,41111
18.08963,43062
18.09777,44402
18.10588,39618
18.11400,36359
18.12213,35042
18.13025,37219
18.13838,42815
18.14650,34959
18.15462,34482
18.16275,35773
18.17087,36447
18.17900,29942
18.18712,29230
18.19523,35430
18.20337,32279
18.21148,29723
18.21960,28898
18.22773,28392
18.23585,28936
18.24398,29934
18.25210,28893
18.26022,27998
18.26835,30460
18.27647,29791
18.28460,26636
18.29272,27073
18.30083,26418
18.30897,29724
18.31708,26456
18.32522,24099
18.33333,21474
18.34145,29924
18.34958,24119
18.35770,25702
18.36582,25331
18.37395,24885
18.38207,22200
18.39020,23417
18.39832,25498
18.40643,25151
18.41457,24757
18.42268,25218
18.43082,24223
18.43893,25185
18.44705,23333
18.45518,29471
18.46330,24878
18.47143,23461
18.47955,23853
18.48767,25773
18.49580,25831
18.50392,23610
18.51203,22211
18.52017,25062
18.52828,23879
18.53642,26678
18.54453,26617
18.55265,25917
18.56078,21759
18.56890,23470
18.57703,24473
18.58515,27157
18.59327,22667
18.60140,27934
18.60952,23684
18.61763,23050
18.62577,23461
18.63388,25038
18.64202,25489
18.65013,22042
18.65825,22506
18.66638,23766
18.67450,23922
18.68263,23648
18.69075,26314
18.69887,22015
18.70700,22551
18.71512,24857
18.72325,24763
18.73137,25768
18.73948,25400
18.74762,24779
18.75573,22024
18.76385,18972
18.77198,22558
18.78010,21839
18.78823,21426
18.79635,20866
18.80447,23236
18.81260,22884
18.82072,23257
18.82885,21888
18.83697,23510
18.84508,23169
18.85322,31991
18.86133,20322
18.86945,22752
18.87758,22192
18.88570,24812
18.89383,23013
18.90195,27063
18.91007,24656
18.91820,27041
18.92632,22326
18.93445,22868
18.94257,21879
18.95068,23895
18.95882,22731
18.96693,25850
18.97507,24595
18.98318,29234
18.99130,32542
18.99943,32765
19.00755,38691
19.01567,39650
19.02380,43649
19.03192,48013
19.04005,49331
19.04817,42292
19.05628,42199
19.06442,41385
19.07253,43423
19.08067,45309
19.08878,39933
19.09690,42986
19.10503,44025
19.11315,40248
19.12128,41985
19.12940,43281
19.13752,42600
19.14565,44223
19.15377,50119
19.16188,52258
19.17002,58207
19.17813,61442
19.18627,53806
19.19438,51902
19.20250,52223
19.21063,47221
19.21875,42592
19.22688,35136
19.23500,35316
19.24312,37422
19.25125,34860
19.25937,34040
19.26748,37973
19.27562,35824
19.28373,33892
19.29187,34926
19.29998,33977
19.30810,30736
19.31623,36505
19.32435,34823
19.33248,31770
19.34060,38338
19.34872,35706
19.35685,36572
19.36497,34387
19.37310,33182
19.38122,33267
19.38933,34785
19.39747,36200
19.40558,33691
19.41370,31297
19.42183,30957
19.42995,28479
19.43808,28537
19.44620,29152
19.45432,27400
19.46245,28094
19.47057,31819
19.47870,34499
19.48682,46355
19.49493,63518
19.50307,86865
19.51118,119150
19.51932,132094
19.52743,134177
19.53555,110065
19.54368,85536
19.55180,66970
19.55992,52839
19.56805,43506
19.57617,50158
19.58430,67374
19.59242,103179
19.60053,149794
19.60867,191920
19.61678,234920
19.62492,236111
19.63303,219129
19.64115,176925
19.64928,143215
19.65740,109378
19.66552,92974
19.67365,78431
19.68177,66672
19.68990,67440
19.69802,65106
19.70613,57283
19.71427,54364
19.72238,56477
19.73052,74514
19.73863,84399
19.74675,147576
19.75488,225688
19.76300,333372
19.77113,472390
19.77925,604644
19.78737,689015
19.79550,786717
19.80362,810250
19.81173,833928
19.81987,831270
19.82798,850047
19.83612,877171
19.84423,883715
19.85235,881856
19.86048,865730
19.86860,862967
19.87673,876874
19.88485,855571
19.89297,840491
19.90110,818136
19.90922,816624
19.91735,799460
19.92547,760542
19.93358,733837
19.94172,695274
19.94983,677162
19.95795,640136
19.96608,604842
19.97420,561122
19.98233,553808
19.99045,533376
19.99857,508223
20.00670,489798
20.01482,472058
20.02295,450921
20.03107,440151
20.03918,400666
20.04732,368266
20.05543,318433
20.06355,260646
20.07168,215081
20.07980,175308
20.08793,147175
20.09605,134052
20.10417,123325
20.11230,119640
20.12042,121591
20.12855,104545
20.13667,107870
20.14478,99853
20.15292,109037
20.16103,101669
20.16917,97111
20.17728,99904
20.18540,85655
20.19353,89121
20.20165,93294
20.20977,96235
20.21790,99583
20.22602,127657
20.23415,159561
20.24227,205983
20.25038,257969
20.25852,300326
20.26663,319410
20.27477,309770
20.28288,269247
20.29100,231777
20.29913,190535
20.30725,166320
20.31537,148792
20.32350,138107
20.33162,122442
20.33975,103036
20.34787,103019
20.35598,99383
20.36412,91693
20.37223,87812
20.38037,85383
20.38848,89392
20.39660,102406
20.40473,109816
20.41285,123937
20.42098,130068
20.42910,135178
20.43722,133326
20.44535,122979
20.45347,116161
20.46158,100821
20.46972,95459
20.47783,82591
20.48597,75542
20.49408,62628
20.50220,59005
20.51033,54141
20.51845,48963
20.52658,45971
20.53470,45661
20.54282,49169
20.55095,45914
20.55907,42859
20.56720,42318
20.57532,48793
20.58343,43235
20.59157,39917
20.59968,41491
20.60780,42547
20.61593,43528
20.62405,41138
20.63218,41547
20.64030,38798
20.64842,39938
20.65655,38760
20.66467,38478
20.67280,37896
20.68092,36831
20.68903,36954
20.69717,34850
20.70528,40144
20.71342,35785
20.72153,36102
20.72965,37075
20.73778,37099
20.74590,34684
20.75402,36580
20.76215,39055
20.77027,35642
20.77840,33043
20.78652,34218
20.79463,39295
20.80277,40388
20.81088,37538
20.81902,35640
20.82713,33473
20.83525,34432
20.84338,36822
20.85150,33904
20.85962,34789
20.86775,34426
20.87587,34668
20.88400,29944
20.89212,36100
20.90023,31857
20.90837,31575
20.91648,33063
20.92462,32278
20.93273,33883
20.94085,34019
20.94898,31453
20.95710,32423
20.96523,35809
20.97335,38799
20.98147,30803
20.98960,32384
20.99772,34764
21.00583,32308
21.01397,30134
21.02208,31353
21.03022,28819
21.03833,29855
21.04645,28823
21.05458,28761
21.06270,29468
21.07083,32101
21.07895,31541
21.08707,30071
21.09520,32914
21.10332,36288
21.11143,36882
21.11957,36492
21.12768,40180
21.13582,37279
21.14393,38467
21.15205,38147
21.16018,40357
21.16830,38424
21.17643,36680
21.18455,41885
21.19267,42422
21.20080,36411
21.20892,38367
21.21705,40353
21.22517,36124
21.23328,36880
21.24142,36759
21.24953,33963
21.25765,37314
21.26578,32935
21.27390,33324
21.28203,36723
21.29015,28855
21.29827,33655
21.30640,32278
21.31452,32667
21.32265,29580
21.33077,32949
21.33888,33230
21.34702,34391
21.35513,28916
21.36325,35040
21.37138,30555
21.37950,33268
21.38763,32337
21.39575,31168
21.40387,31994
21.41200,31112
21.42012,33058
21.42825,34888
21.43637,27353
21.44448,30505
21.45262,32330
21.46073,32442
21.46887,31325
21.47698,29638
21.48510,28949
21.49323,29695
21.50135,32970
21.50947,29587
21.51760,26639
21.52572,28084
21.53385,27962
21.54197,32568
21.55008,31442
21.55822,30962
21.56633,32448
21.57447,30981
21.58258,35038
21.59070,31388
21.59883,34177
21.60695,38182
21.61508,46584
21.62320,61524
21.63132,70956
21.63945,81928
21.64757,85449
21.65568,78688
21.66382,74766
21.67193,65398
21.68007,51164
21.68818,49272
21.69630,45767
21.70443,42251
21.71255,35093
21.72068,36042
21.72880,35492
21.73692,33338
21.74505,33769
21.75317,32665
21.76130,37726
21.76942,30644
21.77753,32831
21.78567,31695
21.79378,34226
21.80190,37216
21.81003,42032
21.81815,52108
21.82628,61202
21.83440,73618
21.84252,77929
21.85065,78124
21.85877,70795
21.86690,65197
21.87502,47883
21.88313,42400
21.89127,41458
21.89938,32690
21.90750,36566
21.91563,36279
21.92375,30905
21.93188,32643
21.94000,28124
21.94812,29873
21.95625,34805
21.96437,31477
21.97250,28672
21.98062,27714
21.98873,28770
21.99687,27715
22.00498,28843
22.01312,25307
22.02123,27846
22.02935,30492
22.03748,30303
22.04560,29645
22.05372,27371
22.06185,30156
22.06997,31587
22.07810,25598
22.08622,30273
22.09433,30748
22.10247,27856
22.11058,29082
22.11872,29124
22.12683,27762
22.13495,27041
22.14308,27113
22.15120,25730
22.15932,27983
22.16745,28854
22.17557,35446
22.18370,34160
22.19182,29804
22.19993,30790
22.20807,30727
22.21618,35832
22.22432,38130
22.23243,43265
22.24055,46957
22.24868,42161
22.25680,47386
22.26493,47166
22.27305,48760
22.28117,45946
22.28930,47313
22.29742,43861
22.30553,43356
22.31367,44842
22.32178,45963
22.32992,47534
22.33803,46201
22.34615,41688
22.35428,42952
22.36240,38449
22.37053,35526
22.37865,38209
22.38677,41628
22.39490,38447
22.40302,35866
22.41115,36928
22.41927,35010
22.42738,35959
22.43552,32249
22.44363,31060
22.45175,31858
22.45988,27327
22.46800,28325
22.47613,30063
22.48425,29364
22.49237,32584
22.50050,25552
22.50862,26688
22.51675,27961
22.52487,27552
22.53298,27234
22.54112,28427
22.54923,24825
22.55735,26616
22.56548,23970
22.57360,25878
22.58173,25243
22.58985,25612
22.59797,23915
22.60610,24142
22.61422,29532
22.62235,24948
22.63047,26018
22.63858,29635
22.64672,31141
22.65483,30603
22.66297,25256
22.67108,26780
22.67920,29605
22.68733,30007
22.69545,28567
22.70357,29169
22.71170,31066
22.71982,29507
22.72795,30199
22.73607,27928
22.74418,27646
22.75232,26686
22.76043,26755
22.76857,26097
22.77668,24020
22.78480,30922
22.79293,27054
22.80105,29227
22.80918,29599
22.81730,31998
22.82542,33461
22.83355,37107
22.84167,44844
22.84978,51834
22.85792,64475
22.86603,69983
22.87417,76207
22.88228,85501
22.89040,85875
22.89853,92806
22.90665,86795
22.91478,80746
22.92290,85328
22.93102,82833
22.93915,81299
22.94727,71837
22.95538,74908
22.96352,72905
22.97163,65500
22.97977,61852
22.98788,58108
22.99600,56220
23.00413,50920
23.01225,45576
23.02038,41268
23.02850,42580
23.03662,37223
23.04475,32449
23.05287,29964
23.06100,31750
23.06912,32220
23.07723,29248
23.08537,29556
23.09348,29080
23.10160,31315
23.10973,27918
23.11785,28894
23.12598,28233
23.13410,28972
23.14222,27372
23.15035,30919
23.15847,29051
23.16660,28096
23.17472,31738
23.18283,26615
23.19097,29578
23.19908,31296
23.20720,24080
23.21533,26481
23.22345,25526
23.23158,27395
23.23970,29119
23.24782,34833
23.25595,31547
23.26407,27565
23.27220,29935
23.28032,28406
23.28843,27486
23.29657,26128
23.30468,25641
23.31282,28745
23.32093,25675
23.32905,27741
23.33718,27404
23.34530,26726
23.35342,26799
23.36155,26214
23.36967,27454
23.37780,27069
23.38592,27205
23.39403,25916
23.40217,26207
23.41028,33641
23.41842,30006
23.42653,27120
23.43465,31135
23.44278,23539
23.45090,28337
23.45903,25300
23.46715,31421
23.47527,26392
23.48340,25783
23.49152,27373
23.49963,29867
23.50777,29195
23.51588,33617
23.52402,32737
23.53213,29233
23.54025,32237
23.54838,32672
23.55650,32039
23.56463,33787
23.57275,35230
23.58087,34857
23.58900,39950
23.59712,48954
23.60523,61431
23.61337,71222
23.62148,84002
23.62962,93770
23.63773,100477
23.64585,108782
23.65398,109987
23.66210,108361
23.67023,106754
23.67835,99204
23.68647,94068
23.69460,87416
23.70272,83130
23.71085,78363
23.71897,82987
23.72708,115787
23.73522,221683
23.74333,495253
23.75145,1176642
23.75958,2272316
23.76770,3484818
23.77583,4143902
23.78395,4022160
23.79207,3431142
23.80020,2590437
23.80832,1849422
23.81645,1334362
23.82457,958625
23.83268,689337
23.84082,543014
23.84893,437476
23.85707,381475
23.86518,325795
23.87330,282112
23.88143,254369
23.88955,236078
23.89767,221983
23.90580,193048
23.91392,183951
23.92205,165950
23.93017,158481
23.93828,150627
23.94642,142252
23.95453,132064
23.96267,124599
23.97078,120848
23.97890,116487
23.98703,110993
23.99515,106714
24.00327,106743
24.01140,100114
24.01952,99145
24.02765,100403
24.03577,98562
24.04388,92584
24.05202,89361
24.06013,88804
24.06827,86787
24.07638,83320
24.08450,87156
24.09263,80419
24.10075,82229
24.10888,74711
24.11700,74780
24.12512,79712
24.13325,83630
24.14137,79292
24.14948,83078
24.15762,87554
24.16573,82753
24.17387,74558
24.18198,72009
24.19010,73499
24.19823,70499
24.20635,72285
24.21448,72875
24.22260,75465
24.23072,78598
24.23885,85031
24.24697,76237
24.25510,74110
24.26322,69366
24.27133,64889
24.27947,58951
24.28758,59277
24.29570,57520
24.30383,54357
24.31195,51290
24.32008,51668
24.32820,51647
24.33632,52916
24.34445,51470
24.35257,47778
24.36070,49071
24.36882,52149
24.37693,50046
24.38507,51181
24.39318,66022
24.40130,85252
24.40943,104854
24.41755,119900
24.42568,116171
24.43380,111169
24.44192,92706
24.45005,68300
24.45817,60962
24.46630,52073
24.47442,53559
24.48253,59950
24.49067,51160
24.49878,56447
24.50692,61692
24.51503,72135
24.52315,74206
24.53128,77362
24.53940,75890
24.54752,74842
24.55565,68265
24.56377,60301
24.57190,59441
24.58002,56273
24.58813,53498
24.59627,52075
24.60438,52979
24.61252,59244
24.62063,53076
24.62875,55193
24.63688,52922
24.64500,50743
24.65312,57483
24.66125,54712
24.66937,52710
24.67750,53899
24.68562,49104
24.69373,45659
24.70187,49030
24.70998,43014
24.71812,40424
24.72623,41521
24.73435,42192
24.74248,46805
24.75060,39359
24.75873,37381
24.76685,40366
24.77497,38432
24.78310,42103
24.79122,39732
24.79933,39804
24.80747,39983
24.81558,39616
24.82372,40224
24.83183,39236
24.83995,38863
24.84808,39276
24.85620,39470
24.86433,37476
24.87245,40030
24.88057,39570
24.88870,36979
24.89682,37173
24.90495,35312
24.91307,37911
24.92118,34222
24.92932,38697
24.93743,34542
24.94555,34029
24.95368,34944
24.96180,33522
24.96993,34169
24.97805,33242
24.98617,33467
24.99430,35167
25.00242,34597
25.01055,42123
25.01867,34835
25.02678,30381
25.03492,35396
25.04303,36334
25.05115,33901
25.05928,31353
25.06740,33018
25.07553,34251
25.08365,35499
25.09177,31878
25.09990,39358
25.10802,40491
25.11615,45441
25.12427,50916
25.13238,56476
25.14052,58850
25.14863,59849
25.15677,60273
25.16488,60541
25.17300,56376
25.18113,58276
25.18925,50996
25.19737,47541
25.20550,43114
25.21362,41874
25.22175,37823
25.22987,40885
25.23798,39784
25.24612,39988
25.25423,43942
25.26237,46484
25.27048,49130
25.27860,55681
25.28673,53290
25.29485,54283
25.30298,52597
25.31110,47801
25.31922,53452
25.32735,42280
25.33547,38677
25.34358,37405
25.35172,42199
25.35983,37850
25.36797,35310
25.37608,34779
25.38420,33941
25.39233,33430
25.40045,34550
25.40858,32747
25.41670,34969
25.42482,33303
25.43295,35058
25.44107,30342
25.44918,36924
25.45732,34781
25.46543,38979
25.47357,37292
25.48168,41832
25.48980,48236
25.49793,45204
25.50605,43219
25.51418,45574
25.52230,41309
25.53042,37030
25.53855,37160
25.54667,35269
25.55480,38296
25.56292,34924
25.57103,32560
25.57917,32837
25.58728,36195
25.59540,35920
25.60353,32614
25.61165,34848
25.61978,33881
25.62790,33089
25.63602,29946
25.64415,36034
25.65227,34265
25.66040,33617
25.66852,36354
25.67663,36623
25.68477,31442
25.69288,32566
25.70100,32478
25.70913,34278
25.71725,37234
25.72538,33104
25.73350,33195
25.74162,33612
25.74975,35525
25.75787,36217
25.76600,38273
25.77412,33335
25.78223,36614
25.79037,37437
25.79848,35814
25.80662,37529
25.81473,36478
25.82285,37183
25.83098,37540
25.83910,41303
25.84722,35886
25.85535,32422
25.86347,35715
25.87160,29850
25.87972,35526
25.88783,33537
25.89597,33593
25.90408,29588
25.91222,32429
25.92033,33142
25.92845,30362
25.93658,30037
25.94470,25478
25.95283,28386
25.96095,31635
25.96907,30662
25.97720,32088
25.98532,28219
25.99343,31597
26.00157,31186
26.00968,32156
26.01782,30372
26.02593,28458
26.03405,30861
26.04218,25649
26.05030,30529
26.05843,31572
26.06655,31497
26.07467,35037
26.08280,37388
26.09092,35962
26.09905,41362
26.10717,44955
26.11528,46553
26.12342,51078
26.13153,49133
26.13965,51653
26.14778,46931
26.15590,48453
26.16403,45588
26.17215,43556
26.18027,44168
26.18840,42624
26.19652,42180
26.20465,36649
26.21277,35571
26.22088,35826
26.22902,32317
26.23713,29287
26.24525,28931
26.25338,32312
26.26150,29487
26.26963,29902
26.27775,33103
26.28587,35243
26.29400,35386
26.30212,32088
26.31025,30904
26.31837,31093
26.32648,31805
26.33462,30839
26.34273,34156
26.35087,27041
26.35898,33908
26.36710,36349
26.37523,34873
26.38335,34870
26.39147,34275
26.39960,30304
26.40772,32774
26.41585,38555
26.42397,31433
26.43208,35316
26.44022,30309
26.44833,35201
26.45647,30708
26.46458,31039
26.47270,28994
26.48083,29766
26.48895,31558
26.49707,30416
26.50520,28802
26.51332,30817
26.52145,30590
26.52957,27869
26.53768,28404
26.54582,30361
26.55393,30386
26.56207,28836
26.57018,30265
26.57830,31263
26.58643,27606
26.59455,29569
26.60268,27852
26.61080,30192
26.61892,35011
26.62705,29473
26.63517,30653
26.64328,29996
26.65142,31725
26.65953,32095
26.66767,35079
26.67578,34127
26.68390,36502
26.69203,33573
26.70015,29017
26.70828,32551
26.71640,30521
26.72452,33623
26.73265,28990
26.74077,30683
26.74890,36860
26.75702,33826
26.76513,37798
26.77327,33399
26.78138,34319
26.78950,33303
26.79763,34976
26.80575,36870
26.81388,33146
26.82200,38132
26.83012,35311
26.83825,30714
26.84637,30950
26.85450,32270
26.86262,31273
26.87073,39775
26.87887,37258
26.88698,33628
26.89510,35902
26.90323,38556
26.91135,35925
26.91948,35170
26.92760,33328
26.93572,34427
26.94385,33450
26.95197,39494
26.96010,43902
26.96822,61937
26.97633,113911
26.98447,214562
26.99258,394844
27.00072,698518
27.00883,1112977
27.01695,1621623
27.02508,1916111
27.03320,1878681
27.04132,1690576
27.04945,1356790
27.05757,1035806
27.06570,780171
27.07382,585939
27.08193,443407
27.09007,348929
27.09818,288072
27.10632,261302
27.11443,218976
27.12255,195031
27.13068,174420
27.13880,169707
27.14693,154996
27.15505,140602
27.16317,142187
27.17130,133958
27.17942,125992
27.18753,115422
27.19567,115498
27.20378,108340
27.21192,109540
27.22003,97533
27.22815,93786
27.23628,87675
27.24440,90754
27.25253,83475
27.26065,80366
27.26877,76589
27.27690,78104
27.28502,69824
27.29313,71315
27.30127,67752
27.30938,68686
27.31752,65230
27.32563,67516
27.33375,67184
27.34188,63446
27.35000,60418
27.35813,61691
27.36625,58525
27.37437,62136
27.38250,59516
27.39062,58425
27.39875,60882
27.40687,60447
27.41498,60971
27.42312,60779
27.43123,53620
27.43935,55898
27.44748,56246
27.45560,56941
27.46373,55513
27.47185,55479
27.47997,48920
27.48810,48240
27.49622,51133
27.50435,46967
27.51247,50350
27.52058,47817
27.52872,54027
27.53683,53407
27.54495,52911
27.55308,52904
27.56120,49544
27.56933,50742
27.57745,49705
27.58557,44905
27.59370,49613
27.60182,52391
27.60995,45338
27.61807,53686
27.62618,49203
27.63432,51541
27.64243,45646
27.65057,47300
27.65868,48541
27.66680,43513
27.67493,48318
27.68305,44613
27.69117,40072
27.69930,37766
27.70742,39921
27.71555,40672
27.72367,41701
27.73178,38321
27.73992,37889
27.74803,39294
27.75617,39901
27.76428,36614
27.77240,37131
27.78053,40293
27.78865,40111
27.79678,38314
27.80490,39419
27.81302,44111
27.82115,40867
27.82927,45760
27.83738,44670
27.84552,43032
27.85363,44011
27.86177,41873
27.86988,41811
27.87800,39836
27.88613,41332
27.89425,43223
27.90238,37243
27.91050,39177
27.91862,38446
27.92675,37303
27.93487,34364
27.94298,38810
27.95112,37341
27.95923,40057
27.96737,37088
27.97548,34109
27.98360,35424
27.99173,36531
27.99985,36351
28.00798,34847
28.01610,32835
28.02422,36793
28.03235,34075
28.04047,32933
28.04860,37416
28.05672,35981
28.06483,35036
28.07297,34070
28.08108,34735
28.08920,37304
28.09733,41043
28.10545,38677
28.11358,42405
28.12170,39832
28.12982,37808
28.13795,36978
28.14607,37673
28.15420,40108
28.16232,34993
28.17043,35338
28.17857,33693
28.18668,34774
28.19482,36705
28.20293,39641
28.21105,41105
28.21918,51835
28.22730,52474
28.23542,48502
28.24355,50269
28.25167,47454
28.25980,44318
28.26792,42275
28.27603,40782
28.28417,42552
28.29228,39897
28.30042,50585
28.30853,57391
28.31665,79452
28.32478,99861
28.33290,135824
28.34102,188573
28.34915,226528
28.35727,286945
28.36540,346296
28.37352,369844
28.38163,397573
28.38977,387791
28.39788,364743
28.40602,336562
28.41413,294114
28.42225,274674
28.43038,244132
28.43850,217884
28.44663,190681
28.45475,159898
28.46287,150232
28.47100,141522
28.47912,120268
28.48723,111760
28.49537,100814
28.50348,101309
28.51162,95325
28.51973,90325
28.52785,85949
28.53598,82882
28.54410,75830
28.55223,75381
28.56035,76244
28.56847,72768
28.57660,71146
28.58472,72718
28.59283,68247
28.60097,66072
28.60908,71694
28.61722,64861
28.62533,61817
28.63345,66363
28.64158,68992
28.64970,74778
28.65783,75475
28.66595,76486
28.67407,72000
28.68220,68342
28.69032,68954
28.69845,62250
28.70657,65203
28.71468,63179
28.72282,59195
28.73093,57293
28.73905,54659
28.74718,56147
28.75530,51920
28.76343,58349
28.77155,64344
28.77967,70732
28.78780,83769
28.79592,81448
28.80405,82677
28.81217,76272
28.82028,63633
28.82842,56917
28.83653,51165
28.84467,49260
28.85278,46869
28.86090,47160
28.86903,49365
28.87715,45742
28.88527,48270
28.89340,48519
28.90152,48576
28.90965,45662
28.91777,46112
28.92588,44766
28.93402,46771
28.94213,44102
28.95027,46890
28.95838,44606
28.96650,49716
28.97463,49264
28.98275,51922
28.99087,49630
28.99900,44925
29.00712,50772
29.01525,44302
29.02337,45631
29.03148,42051
29.03962,43946
29.04773,40379
29.05587,40705
29.06398,47107
29.07210,44713
29.08023,43649
29.08835,41152
29.09648,40457
29.10460,37792
29.11272,43369
29.12085,40918
29.12897,41610
29.13708,44773
29.14522,43110
29.15333,44553
29.16147,39692
29.16958,44462
29.17770,40033
29.18583,43564
29.19395,45006
29.20208,39808
29.21020,42099
29.21832,43724
29.22645,42882
29.23457,42556
29.24270,44120
29.25082,41665
29.25893,38415
29.26707,39991
29.27518,41451
29.28330,49587
29.29143,40893
29.29955,41025
29.30768,39672
29.31580,41257
29.32392,40906
29.33205,39104
29.34017,38351
29.34830,41641
29.35642,37601
29.36453,38541
29.37267,38624
29.38078,39516
29.38890,40360
29.39703,40987
29.40515,40029
29.41328,39808
29.42140,37350
29.42952,39155
29.43765,43863
29.44577,38887
29.45390,40213
29.46202,41728
29.47013,38815
29.47827,42329
29.48638,41037
29.49452,50442
29.50263,52536
29.51075,52167
29.51888,51169
29.52700,53070
29.53512,46624
29.54325,43297
29.55137,39852
29.55950,36115
29.56762,39517
29.57573,40958
29.58387,38994
29.59198,39653
29.60012,38955
29.60823,35146
29.61635,41893
29.62448,39531
29.63260,36558
29.64073,40599
29.64885,38839
29.65697,37818
29.66510,39044
29.67322,40555
29.68133,37928
29.68947,33502
29.69758,36506
29.70572,34857
29.71383,37970
29.72195,40071
29.73008,34684
29.73820,39224
29.74633,40401
29.75445,39008
29.76257,38675
29.77070,38790
29.77882,38970
29.78693,35418
29.79507,33805
29.80318,37776
29.81132,36247
29.81943,35534
29.82755,33171
29.83568,33915
29.84380,33324
29.85193,35170
29.86005,38013
29.86817,45404
29.87630,48269
29.88442,56920
29.89255,69929
29.90067,83291
29.90878,86732
29.91692,79707
29.92503,76532
29.93315,65917
29.94128,56349
29.94940,53067
29.95753,56129
29.96565,55212
29.97377,64690
29.98190,81944
29.99002,91033
29.99815,101855
30.00627,122197
30.01438,135975
30.02252,141133
30.03063,157978
30.03875,161389
30.04688,163617
30.05500,161231
30.06313,158120
30.07125,155248
30.07937,141656
30.08750,136049
30.09562,133157
30.10375,125589
30.11187,115967
30.11998,106147
30.12812,100849
30.13623,94917
30.14437,92989
30.15248,89914
30.16060,77780
30.16873,81746
30.17685,72831
30.18497,71342
30.19310,64158
30.20122,64469
30.20935,62753
30.21747,60941
30.22558,61928
30.23372,55674
30.24183,57460
30.24997,50478
30.25808,51648
30.26620,48388
30.27433,49542
30.28245,53096
30.29058,51019
30.29870,51243
30.30682,49229
30.31495,47250
30.32307,44547
30.33118,43794
30.33932,45317
30.34743,44643
30.35557,48302
30.36368,47021
30.37180,41584
30.37993,38336
30.38805,44693
30.39618,45858
30.40430,47745
30.41242,42541
30.42055,38204
30.42867,37751
30.43678,38206
30.44492,38226
30.45303,39661
30.46117,40498
30.46928,38225
30.47740,37985
30.48553,40043
30.49365,43310
30.50178,39466
30.50990,40665
30.51802,38527
30.52615,38666
30.53427,39278
30.54240,37290
30.55052,37874
30.55863,37223
30.56677,42362
30.57488,40057
30.58300,37929
30.59113,34009
30.59925,36982
30.60738,33156
30.61550,37685
30.62362,37650
30.63175,35765
30.63987,39827
30.64800,34525
30.65612,34911
30.66423,38137
30.67237,36198
30.68048,34336
30.68862,39737
30.69673,37791
30.70485,39695
30.71298,35053
30.72110,37600
30.72922,36742
30.73735,38349
30.74547,36878
30.75360,35599
30.76172,35334
30.76983,33855
30.77797,34855
30.78608,35424
30.79422,40447
30.80233,43454
30.81045,45177
30.81858,47189
30.82670,45319
30.83482,39206
30.84295,40911
30.85107,40735
30.85920,37685
30.86732,37308
30.87543,38483
30.88357,35527
30.89168,34024
30.89982,34121
30.90793,31853
30.91605,36517
30.92418,33036
30.93230,35222
30.94043,33205
30.94855,33789
30.95667,33277
30.96480,36938
30.97292,35471
30.98103,39042
30.98917,36351
30.99728,36130
31.00542,35109
31.01353,41443
31.02165,44189
31.02978,44653
31.03790,46325
31.04603,43555
31.05415,47428
31.06227,43987
31.07040,45171
31.07852,48750
31.08663,50475
31.09477,56043
31.10288,59297
31.11102,65313
31.11913,64338
31.12725,60810
31.13538,57986
31.14350,52265
31.15163,44051
31.15975,40642
31.16787,36577
31.17600,38107
31.18412,36377
31.19225,42902
31.20037,42396
31.20848,47169
31.21662,57229
31.22473,59643
31.23285,57680
31.24098,50549
31.24910,49994
31.25723,46488
31.26535,46239
31.27347,42437
31.28160,38107
31.28972,39821
31.29785,35636
31.30597,42355
31.31408,35357
31.32222,34794
31.33033,36487
31.33847,34998
31.34658,31607
31.35470,35728
31.36283,32135
31.37095,38016
31.37907,36878
31.38720,38016
31.39532,33509
31.40345,36849
31.41157,33977
31.41968,33921
31.42782,42779
31.43593,38436
31.44407,39694
31.45218,37411
31.46030,38607
31.46843,38093
31.47655,34755
31.48467,32788
31.49280,37921
31.50092,36439
31.50905,31603
31.51717,34441
31.52528,32889
31.53342,33040
31.54153,34892
31.54967,35450
31.55778,33082
31.56590,29617
31.57403,34020
31.58215,32947
31.59028,32235
31.59840,30132
31.60652,33436
31.61465,32702
31.62277,34185
31.63088,35774
31.63902,35152
31.64713,34578
31.65527,35369
31.66338,34989
31.67150,35428
31.67963,35081
31.68775,37978
31.69588,32214
31.70400,34127
31.71212,32953
31.72025,34988
31.72837,31104
31.73650,35640
31.74462,34368
31.75273,31653
31.76087,36817
31.76898,35796
31.77710,39301
31.78523,36458
31.79335,38932
31.80148,41082
31.80960,40645
31.81772,44308
31.82585,41268
31.83397,39748
31.84210,44212
31.85022,44595
31.85833,51669
31.86647,50269
31.87458,61037
31.88270,49639
31.89083,47197
31.89895,45297
31.90708,47202
31.91520,48610
31.92332,54010
31.93145,57984
31.93957,65258
31.94770,67133
31.95582,77692
31.96393,88994
31.97207,99199
31.98018,96293
31.98832,106912
31.99643,104046
32.00455,94235
32.01268,98436
32.02080,90782
32.02892,88686
32.03705,84210
32.04517,76634
32.05330,69346
32.06142,68869
32.06953,71018
32.07767,64831
32.08578,66823
32.09392,66590
32.10203,71634
32.11015,63102
32.11828,57805
32.12640,58095
32.13452,52129
32.14265,44611
32.15077,46428
32.15890,45927
32.16702,43721
32.17513,42817
32.18327,46506
32.19138,42955
32.19952,40715
32.20763,37712
32.21575,40150
32.22388,39965
32.23200,44027
32.24013,41460
32.24825,39746
32.25637,38769
32.26450,39144
32.27262,40768
32.28073,42255
32.28887,42325
32.29698,39644
32.30512,39906
32.31323,40585
32.32135,42472
32.32948,47938
32.33760,47407
32.34573,56174
32.35385,60228
32.36197,62139
32.37010,63892
32.37822,59675
32.38635,55767
32.39447,50649
32.40258,45791
32.41072,42777
32.41883,44076
32.42695,38926
32.43508,40534
32.44320,43768
32.45133,39396
32.45945,38323
32.46757,38328
32.47570,40765
32.48382,40468
32.49195,34449
32.50007,35847
32.50818,36080
32.51632,35476
32.52443,37329
32.53257,36158
32.54068,37616
32.54880,38202
32.55693,39419
32.56505,40355
32.57317,36942
32.58130,39840
32.58942,36671
32.59755,37295
32.60567,35055
32.61378,35096
32.62192,36347
32.63003,33634
32.63817,33921
32.64628,33488
32.65440,35019
32.66253,43675
32.67065,45151
32.67877,61181
32.68690,58881
32.69502,64540
32.70315,62295
32.71127,62589
32.71938,46071
32.72752,48315
32.73563,41368
32.74377,37555
32.75188,41385
32.76000,45240
32.76813,38121
32.77625,35917
32.78438,34415
32.79250,38124
32.80062,33658
32.80875,35837
32.81687,33873
32.82498,35435
32.83312,34671
32.84123,35789
32.84937,31758
32.85748,35772
32.86560,39304
32.87373,33132
32.88185,33705
32.88998,33421
32.89810,37370
32.90622,35730
32.91435,33912
32.92247,33741
32.93058,35114
32.93872,35785
32.94683,35574
32.95497,36206
32.96308,34520
32.97120,34049
32.97933,35851
32.98745,37481
32.99558,35375
33.00370,33711
33.01182,32889
33.01995,31957
33.02807,33719
33.03620,35401
33.04432,34630
33.05243,37554
33.06057,33190
33.06868,32987
33.07680,33701
33.08493,37478
33.09305,42176
33.10118,43425
33.10930,52163
33.11742,64254
33.12555,76220
33.13367,70463
33.14180,63497
33.14992,56300
33.15803,48111
33.16617,41099
33.17428,40520
33.18242,38810
33.19053,33457
33.19865,44420
33.20678,39152
33.21490,41494
33.22302,42909
33.23115,41718
33.23927,42370
33.24740,45484
33.25552,40032
33.26363,32877
33.27177,37712
33.27988,39710
33.28802,37065
33.29613,35603
33.30425,36099
33.31238,38223
33.32050,41737
33.32862,36211
33.33675,36696
33.34487,42950
33.35300,35894
33.36112,35760
33.36923,33640
33.37737,37696
33.38548,36106
33.39362,35942
33.40173,36204
33.40985,33025
33.41798,36520
33.42610,34963
33.43423,37986
33.44235,36076
33.45047,37015
33.45860,34556
33.46672,33610
33.47483,35590
33.48297,31847
33.49108,33277
33.49922,36830
33.50733,35822
33.51545,34476
33.52358,34987
33.53170,36765
33.53983,33690
33.54795,33166
33.55607,34873
33.56420,36002
33.57232,37498
33.58045,35207
33.58857,34625
33.59668,34507
33.60482,34847
33.61293,32343
33.62105,31336
33.62918,32824
33.63730,37325
33.64543,35419
33.65355,32894
33.66167,36284
33.66980,32262
33.67792,37460
33.68605,36553
33.69417,35697
33.70228,39965
33.71042,37997
33.71853,34767
33.72665,32303
33.73478,35804
33.74290,34369
33.75103,37718
33.75915,34443
33.76727,31878
33.77540,31146
33.78352,33642
33.79165,34606
33.79977,33116
33.80788,34844
33.81602,32308
33.82413,33628
33.83227,32687
33.84038,36160
33.84850,38446
33.85663,34700
33.86475,37812
33.87287,41194
33.88100,43345
33.88912,43013
33.89725,37723
33.90537,39631
33.91348,37580
33.92162,37225
33.92973,39195
33.93787,39765
33.94598,35697
33.95410,34885
33.96223,38097
33.97035,34188
33.97847,33010
33.98660,33076
33.99472,37089
34.00285,37757
34.01097,40553
34.01908,36529
34.02722,38107
34.03533,37368
34.04347,33555
34.05158,35092
34.05970,34808
34.06783,34196
34.07595,36361
34.08408,35376
34.09220,38528
34.10032,33289
34.10845,36179
34.11657,36635
34.12468,34830
34.13282,32572
34.14093,32993
34.14907,31494
34.15718,36827
34.16530,35437
34.17343,37222
34.18155,34241
34.18968,36552
34.19780,34605
34.20592,34756
34.21405,32931
34.22217,37452
34.23030,34801
34.23842,33872
34.24653,35477
34.25467,35658
34.26278,35512
34.27090,35351
34.27903,36693
34.28715,37593
34.29528,39488
34.30340,33920
34.31152,36317
34.31965,34351
34.32777,37228
34.33590,36371
34.34402,36329
34.35213,34439
34.36027,35123
34.36838,36998
34.37650,36333
34.38463,37933
34.39275,36405
34.40088,37129
34.40900,36513
34.41712,36263
34.42525,33529
34.43337,38237
34.44150,33003
34.44962,31757
34.45773,33738
34.46587,36522
34.47398,31577
34.48212,35372
34.49023,38609
34.49835,39585
34.50648,37720
34.51460,35620
34.52272,48295
34.53085,49392
34.53897,55232
34.54710,61638
34.55522,63930
34.56333,72126
34.57147,73764
34.57958,76021
34.58772,74732
34.59583,71683
34.60395,67542
34.61208,61484
34.62020,58738
34.62833,50397
34.63645,51685
34.64457,57233
34.65270,50079
34.66082,45465
34.66893,44879
34.67707,48975
34.68518,46408
34.69332,46539
34.70143,44358
34.70955,41970
34.71768,44555
34.72580,43919
34.73393,43558
34.74205,43178
34.75017,44413
34.75830,43645
34.76642,43366
34.77453,44927
34.78267,44586
34.79078,38774
34.79892,46573
34.80703,41100
34.81515,40446
34.82328,40908
34.83140,40042
34.83953,47684
34.84765,40704
34.85577,41022
34.86390,36912
34.87202,39832
34.88015,42878
34.88827,39524
34.89638,39947
34.90452,38717
34.91263,39941
34.92075,43045
34.92888,35740
34.93700,43419
34.94513,46383
34.95325,48227
34.96137,51890
34.96950,58395
34.97762,66102
34.98575,75015
34.99387,71964
35.00198,69551
35.01012,59897
35.01823,53933
35.02637,46727
35.03448,41256
35.04260,40615
35.05073,41297
35.05885,42277
35.06697,43121
35.07510,44117
35.08322,41615
35.09135,44849
35.09947,40941
35.10758,40691
35.11572,42138
35.12383,42727
35.13197,37774
35.14008,42792
35.14820,40711
35.15633,46875
35.16445,42677
35.17257,44546
35.18070,48937
35.18882,47477
35.19695,45698
35.20507,41798
35.21318,37091
35.22132,42072
35.22943,45384
35.23757,37614
35.24568,42433
35.25380,45700
35.26193,46140
35.27005,45301
35.27818,50984
35.28630,49756
35.29442,51224
35.30255,48770
35.31067,44703
35.31878,40607
35.32692,42694
35.33503,39244
35.34317,38072
35.35128,36022
35.35940,39559
35.36753,36823
35.37565,40001
35.38378,42410
35.39190,42680
35.40002,37900
35.40815,36339
35.41627,41439
35.42438,41604
35.43252,38269
35.44063,39174
35.44877,46659
35.45688,46493
35.46500,47028
35.47313,50344
35.48125,47450
35.48938,50107
35.49750,43251
35.50562,46110
35.51375,42242
35.52187,42855
35.53000,41601
35.53812,43268
35.54623,43401
35.55437,40761
35.56248,41268
35.57060,45251
35.57873,44109
35.58685,45594
35.59498,43919
35.60310,43636
35.61122,44851
35.61935,43149
35.62747,43330
35.63560,44535
35.64372,44429
35.65183,39711
35.65997,40111
35.66808,43540
35.67622,41145
35.68433,41863
35.69245,47594
35.70058,48649
35.70870,50551
35.71682,45420
35.72495,45833
35.73307,43759
35.74120,45588
35.74932,42539
35.75743,40665
35.76557,44021
35.77368,40816
35.78182,41895
35.78993,42254
35.79805,42353
35.80618,41305
35.81430,40202
35.82242,40177
35.83055,40129
35.83867,43381
35.84680,40155
35.85492,42826
35.86303,39333
35.87117,39789
35.87928,40859
35.88742,42659
35.89553,38725
35.90365,39007
35.91178,41558
35.91990,44431
35.92803,42670
35.93615,38745
35.94427,40499
35.95240,38983
35.96052,40578
35.96863,41936
35.97677,44104
35.98488,40858
35.99302,43641
36.00113,42682
36.00925,46350
36.01738,43463
36.02550,46831
36.03363,48710
36.04175,51193
36.04987,52875
36.05800,50306
36.06612,48814
36.07425,43548
36.08237,46203
36.09048,42417
36.09862,46668
36.10673,41563
36.11485,43900
36.12298,38260
36.13110,42069
36.13923,43602
36.14735,45366
36.15547,44966
36.16360,42660
36.17172,40295
36.17985,45322
36.18797,43642
36.19608,43749
36.20422,39357
36.21233,40464
36.22045,40194
36.22858,42510
36.23670,42269
36.24483,44014
36.25295,38719
36.26107,44420
36.26920,39994
36.27732,39866
36.28545,49903
36.29357,43263
36.30168,44615
36.30982,53954
36.31793,56948
36.32607,60448
36.33418,65812
36.34230,63410
36.35043,58825
36.35855,54384
36.36667,51682
36.37480,49106
36.38292,46390
36.39105,44220
36.39917,43947
36.40728,45098
36.41542,48284
36.42353,43967
36.43167,40769
36.43978,46748
36.44790,43396
36.45603,41425
36.46415,46216
36.47227,44768
36.48040,43497
36.48852,44331
36.49665,40119
36.50477,40799
36.51288,47601
36.52102,48414
36.52913,42584
36.53727,41667
36.54538,43189
36.55350,42434
36.56163,44803
36.56975,45929
36.57788,42852
36.58600,40999
36.59412,38001
36.60225,40093
36.61037,45649
36.61848,40113
36.62662,42249
36.63473,43886
36.64287,40035
36.65098,40526
36.65910,44322
36.66723,47520
36.67535,47936
36.68348,44172
36.69160,44994
36.69972,50409
36.70785,43366
36.71597,44363
36.72410,45924
36.73222,47638
36.74033,44220
36.74847,41637
36.75658,46454
36.76470,43625
36.77283,46964
36.78095,45582
36.78908,48698
36.79720,53366
36.80532,45958
36.81345,46283
36.82157,47425
36.82970,51059
36.83782,52529
36.84593,53609
36.85407,53067
36.86218,68150
36.87032,64561
36.87843,67138
36.88655,68892
36.89468,68483
36.90280,72289
36.91092,75885
36.91905,72722
36.92717,81039
36.93530,85749
36.94342,79387
36.95153,80850
36.95967,77199
36.96778,80561
36.97592,73411
36.98403,69522
36.99215,64873
37.00028,62293
37.00840,63532
37.01652,63747
37.02465,57633
37.03277,54799
37.04090,59583
37.04902,58405
37.05713,55850
37.06527,57369
37.07338,52292
37.08152,50587
37.08963,46763
37.09775,51054
37.10588,49841
37.11400,48924
37.12213,47687
37.13025,49669
37.13837,49562
37.14650,44647
37.15462,47415
37.16273,48358
37.17087,52535
37.17898,45200
37.18712,50562
37.19523,52159
37.20335,54905
37.21148,50215
37.21960,49231
37.22773,43815
37.23585,53522
37.24397,56268
37.25210,51377
37.26022,51846
37.26833,52720
37.27647,50534
37.28458,49223
37.29272,44528
37.30083,48342
37.30895,50527
37.31708,49699
37.32520,50228
37.33333,55386
37.34145,55299
37.34957,57616
37.35770,64354
37.36582,66056
37.37395,70739
37.38207,75502
37.39018,69276
37.39832,73233
37.40643,69731
37.41455,68323
37.42268,64014
37.43080,61086
37.43893,58817
37.44705,62824
37.45517,55633
37.46330,57961
37.47142,57048
37.47955,57339
37.48767,52495
