C:\MassHunter\GCMS\1\data\JTB-E02\BACandBLUE\JTB-E18-008-09.D Wed May 15 13:33:39 2019
Start of data points
2.09530,112967
2.10343,107893
2.11155,106727
2.11967,104752
2.12780,107778
2.13592,109511
2.14405,106009
2.15217,107193
2.16028,100816
2.16842,102534
2.17653,98149
2.18465,98393
2.19278,94579
2.20090,92570
2.20903,92692
2.21715,89509
2.22527,91195
2.23340,93585
2.24152,89821
2.24965,91062
2.25777,88291
2.26588,120030
2.27402,649487
2.28213,1784406
2.29027,1083475
2.29838,470126
2.30650,337472
2.31463,291503
2.32275,261179
2.33087,238547
2.33900,229070
2.34712,216119
2.35525,195525
2.36337,188347
2.37148,181930
2.37962,167621
2.38773,176539
2.39587,168784
2.40398,158069
2.41210,158978
2.42023,150541
2.42835,158520
2.43648,150997
2.44460,154183
2.45272,154456
2.46085,145746
2.46897,141773
2.47708,138853
2.48522,136008
2.49333,153797
2.50147,164225
2.50958,154643
2.51770,143047
2.52583,140150
2.53395,137873
2.54208,134875
2.55020,144718
2.55832,203428
2.56645,320463
2.57457,271933
2.58270,211791
2.59082,189545
2.59893,176777
2.60707,297696
2.61518,639022
2.62330,619855
2.63143,412108
2.63955,282796
2.64768,228314
2.65580,204163
2.66392,184104
2.67205,173550
2.68017,169511
2.68830,156756
2.69642,148330
2.70453,145978
2.71267,150692
2.72078,143449
2.72890,144192
2.73703,146576
2.74515,142341
2.75328,138883
2.76140,137119
2.76952,144022
2.77765,389834
2.78577,1967867
2.79390,3218792
2.80202,1984982
2.81013,1083571
2.81827,850023
2.82638,709159
2.83452,583963
2.84263,485507
2.85075,414543
2.85888,371525
2.86700,335815
2.87512,302256
2.88325,280150
2.89137,264422
2.89950,244948
2.90762,234443
2.91573,221407
2.92387,211143
2.93198,204231
2.94012,200741
2.94823,189738
2.95635,188058
2.96448,206354
2.97260,213776
2.98072,193950
2.98885,196554
2.99697,194213
3.00510,194195
3.01322,192726
3.02133,183105
3.02947,173916
3.03758,170915
3.04572,160109
3.05383,160554
3.06195,160150
3.07008,159839
3.07820,200218
3.08633,602686
3.09445,1780746
3.10257,2739891
3.11070,3535152
3.11882,3364187
3.12693,2146659
3.13507,1386350
3.14318,1089707
3.15132,871267
3.15943,727812
3.16755,669461
3.17568,687294
3.18380,800130
3.19193,1574308
3.20005,2414621
3.20817,2018490
3.21630,1341435
3.22442,1050853
3.23255,873394
3.24067,750968
3.24878,651874
3.25692,572538
3.26503,519302
3.27315,478590
3.28128,441535
3.28940,494170
3.29753,878640
3.30565,1938248
3.31377,3062309
3.32190,3167608
3.33002,2518601
3.33815,1877472
3.34627,1517093
3.35438,1272865
3.36252,1132000
3.37063,1004631
3.37875,910202
3.38688,842302
3.39500,793073
3.40313,730331
3.41125,699104
3.41937,668897
3.42750,650845
3.43562,630471
3.44375,655001
3.45187,601298
3.45998,561729
3.46812,565142
3.47623,578352
3.48437,568461
3.49248,554521
3.50060,526575
3.50873,503365
3.51685,502533
3.52497,494765
3.53310,521357
3.54122,511913
3.54935,519099
3.55747,500501
3.56558,522653
3.57372,674490
3.58183,838441
3.58997,749149
3.59808,621560
3.60620,541960
3.61433,509273
3.62245,502555
3.63058,502136
3.63870,500616
3.64682,473523
3.65495,493394
3.66307,1173786
3.67118,5799525
3.67932,1.658858E+07
3.68743,2.242561E+07
3.69557,1.776377E+07
3.70368,1.048353E+07
3.71180,7031384
3.71993,5531184
3.72805,4650034
3.73618,4017294
3.74430,3566026
3.75242,3163693
3.76055,2836487
3.76867,2614356
3.77678,2384660
3.78492,2207754
3.79303,2060745
3.80117,2023863
3.80928,2314150
3.81740,2968784
3.82553,3117098
3.83365,2606614
3.84178,2124403
3.84990,1851878
3.85802,1693254
3.86615,1573861
3.87427,1472184
3.88240,1399767
3.89052,1320729
3.89863,1258477
3.90677,1218414
3.91488,1221529
3.92300,1342072
3.93113,1508637
3.93925,1544504
3.94738,1505788
3.95550,2099976
3.96362,3762735
3.97175,5144928
3.97987,4573075
3.98800,3129914
3.99612,2763547
4.00423,5378863
4.01237,1.185728E+07
4.02048,1.668366E+07
4.02860,1.444538E+07
4.03673,8568284
4.04485,4931837
4.05298,3300332
4.06110,2542331
4.06922,2097321
4.07735,1775014
4.08547,1573494
4.09360,1440134
4.10172,1324346
4.10983,1224879
4.11797,1143195
4.12608,1078786
4.13422,1017750
4.14233,997885
4.15045,976217
4.15858,954581
4.16670,915827
4.17482,884635
4.18295,885002
4.19107,846858
4.19920,811486
4.20732,964132
4.21543,2241204
4.22357,6571411
4.23168,1.353634E+07
4.23982,1.789092E+07
4.24793,1.666911E+07
4.25605,1.106768E+07
4.26418,6514791
4.27230,4528080
4.28043,3442670
4.28855,2759541
4.29667,2304943
4.30480,1983185
4.31292,1742274
4.32103,1577934
4.32917,1465902
4.33728,1379648
4.34542,1285248
4.35353,1262111
4.36165,1316298
4.36978,1400134
4.37790,1386353
4.38603,1224234
4.39415,1069953
4.40227,982456
4.41040,919640
4.41852,864982
4.42663,848057
4.43477,804871
4.44288,782560
4.45102,756834
4.45913,744159
4.46725,732570
4.47538,703232
4.48350,675079
4.49163,689915
4.49975,660009
4.50787,661331
4.51600,627701
4.52412,614785
4.53225,606688
4.54037,615597
4.54848,640630
4.55662,623760
4.56473,603302
4.57285,576478
4.58098,558144
4.58910,545036
4.59723,536387
4.60535,532431
4.61347,524775
4.62160,568543
4.62972,740991
4.63785,1083028
4.64597,1360951
4.65408,1341438
4.66222,1089161
4.67033,858470
4.67847,765365
4.68658,730679
4.69470,680049
4.70283,618610
4.71095,557672
4.71907,531442
4.72720,503818
4.73532,501563
4.74345,469946
4.75157,467886
4.75968,453745
4.76782,445280
4.77593,444357
4.78407,441819
4.79218,472583
4.80030,535920
4.80843,635430
4.81655,644499
4.82467,588301
4.83280,546599
4.84092,545025
4.84905,586569
4.85717,596285
4.86528,577552
4.87342,534838
4.88153,495920
4.88967,461427
4.89778,443043
4.90590,424585
4.91403,420862
4.92215,408093
4.93028,407988
4.93840,441620
4.94652,547183
4.95465,793833
4.96277,1117719
4.97088,1312958
4.97902,1333207
4.98713,1201841
4.99527,1016807
5.00338,926818
5.01150,850160
5.01963,786052
5.02775,804197
5.03588,890413
5.04400,1025133
5.05212,1058745
5.06025,954233
5.06837,824822
5.07650,756585
5.08462,718583
5.09273,677580
5.10087,647623
5.10898,627878
5.11710,613522
5.12523,602122
5.13335,575533
5.14148,563371
5.14960,602625
5.15772,687967
5.16585,810591
5.17397,876254
5.18210,834034
5.19022,770476
5.19833,737268
5.20647,781526
5.21458,836240
5.22270,826369
5.23083,753498
5.23895,674471
5.24708,615488
5.25520,587317
5.26332,536529
5.27145,502820
5.27957,477259
5.28770,473052
5.29582,452822
5.30393,447883
5.31207,443782
5.32018,446438
5.32832,455610
5.33643,468441
5.34455,479472
5.35268,477978
5.36080,464304
5.36892,438095
5.37705,426741
5.38517,447524
5.39330,485188
5.40142,523887
5.40953,545234
5.41767,520725
5.42578,475188
5.43392,450236
5.44203,439300
5.45015,481736
5.45828,515208
5.46640,542056
5.47452,510740
5.48265,455949
5.49077,423278
5.49890,392516
5.50702,386834
5.51513,383199
5.52327,391186
5.53138,380756
5.53952,383899
5.54763,400036
5.55575,480213
5.56388,712654
5.57200,1031244
5.58013,1245453
5.58825,1208368
5.59637,985043
5.60450,735700
5.61262,583968
5.62073,497780
5.62887,453302
5.63698,441492
5.64512,431525
5.65323,420771
5.66135,401414
5.66948,393089
5.67760,402302
5.68573,424163
5.69385,441107
5.70197,447801
5.71010,437948
5.71822,422200
5.72635,401137
5.73447,383790
5.74258,368166
5.75072,359469
5.75883,354315
5.76695,354057
5.77508,348709
5.78320,332922
5.79133,347208
5.79945,340551
5.80757,338285
5.81570,334815
5.82382,334286
5.83195,337812
5.84007,329265
5.84818,327671
5.85632,328438
5.86443,321651
5.87255,323589
5.88068,316472
5.88880,319016
5.89693,317748
5.90505,314408
5.91317,298274
5.92130,297044
5.92942,300467
5.93755,284306
5.94567,268946
5.95378,281599
5.96192,320969
5.97003,399473
5.97817,583169
5.98628,742920
5.99440,830232
6.00253,737850
6.01065,600791
6.01877,457194
6.02690,374819
6.03502,324743
6.04315,295936
6.05127,290269
6.05938,274181
6.06752,269617
6.07563,265560
6.08377,263605
6.09188,250448
6.10000,254076
6.10813,251014
6.11625,246298
6.12438,276649
6.13250,382426
6.14062,561335
6.14875,746724
6.15687,782370
6.16498,672289
6.17312,516150
6.18123,402272
6.18937,348214
6.19748,336922
6.20560,308027
6.21373,288960
6.22185,280529
6.22998,276171
6.23810,283612
6.24622,285851
6.25435,310678
6.26247,360417
6.27058,379344
6.27872,353905
6.28683,300637
6.29497,281141
6.30308,264807
6.31120,257115
6.31933,258222
6.32745,270517
6.33558,291117
6.34370,303826
6.35182,303835
6.35995,281422
6.36807,261485
6.37620,250893
6.38432,246487
6.39243,248714
6.40057,249084
6.40868,232916
6.41680,231057
6.42493,224135
6.43305,225406
6.44118,234306
6.44930,230131
6.45742,223052
6.46555,236027
6.47367,231626
6.48180,225722
6.48992,221695
6.49803,226083
6.50617,229086
6.51428,230860
6.52240,240453
6.53053,227256
6.53865,237088
6.54678,232363
6.55490,244621
6.56302,312622
6.57115,487520
6.57927,773589
6.58740,962740
6.59552,907929
6.60363,693320
6.61177,478840
6.61988,363124
6.62802,314272
6.63613,285941
6.64425,290416
6.65238,376931
6.66050,653737
6.66862,1081869
6.67675,1405369
6.68487,1280771
6.69300,937131
6.70112,596923
6.70923,447153
6.71737,363565
6.72548,313566
6.73362,304426
6.74173,310272
6.74985,296784
6.75798,277666
6.76610,272321
6.77423,263153
6.78235,266118
6.79047,257025
6.79860,250746
6.80672,231566
6.81483,213409
6.82297,218359
6.83108,206676
6.83922,228671
6.84733,249644
6.85545,293981
6.86358,360625
6.87170,378833
6.87983,346587
6.88795,282651
6.89607,216862
6.90420,167662
6.91232,153304
6.92043,145780
6.92857,134504
6.93668,144744
6.94482,130484
6.95293,133709
6.96105,137074
6.96918,156759
6.97730,172366
6.98543,186115
6.99355,184172
7.00167,166298
7.00980,151329
7.01792,141168
7.02605,140133
7.03417,152088
7.04228,166701
7.05042,202284
7.05853,255758
7.06665,309422
7.07478,326174
7.08290,301492
7.09103,259005
7.09915,206585
7.10727,172274
7.11540,159187
7.12352,145898
7.13165,141805
7.13977,149809
7.14788,173253
7.15602,230734
7.16413,287334
7.17227,315413
7.18038,297096
7.18850,240427
7.19663,199514
7.20475,227349
7.21287,428507
7.22100,975212
7.22912,1838383
7.23725,2568555
7.24537,2596717
7.25348,1932126
7.26162,1197942
7.26973,723511
7.27787,516335
7.28598,362678
7.29410,268052
7.30223,199785
7.31035,168839
7.31847,161884
7.32660,172186
7.33472,172136
7.34285,172593
7.35097,169855
7.35908,153687
7.36722,152292
7.37533,147748
7.38347,140620
7.39158,140237
7.39970,143912
7.40783,137739
7.41595,126404
7.42408,124870
7.43220,122027
7.44032,131826
7.44845,127370
7.45657,132586
7.46468,136210
7.47282,130539
7.48093,129864
7.48907,120917
7.49718,122697
7.50530,136338
7.51343,180868
7.52155,341499
7.52968,732946
7.53780,1517549
7.54592,2688348
7.55405,4021171
7.56217,4939832
7.57028,5113397
7.57842,4428756
7.58653,3346103
7.59467,2188766
7.60278,1332773
7.61090,843493
7.61903,583587
7.62715,431493
7.63528,346156
7.64340,283133
7.65152,252552
7.65965,217171
7.66777,196809
7.67590,175120
7.68402,159344
7.69213,154549
7.70027,153140
7.70838,149306
7.71650,155738
7.72463,151460
7.73275,145384
7.74088,148795
7.74900,144847
7.75712,152616
7.76525,174318
7.77337,186430
7.78150,196689
7.78962,210612
7.79773,228802
7.80587,223795
7.81398,245274
7.82212,238875
7.83023,220452
7.83835,198711
7.84648,191839
7.85460,186701
7.86272,212455
7.87085,228681
7.87897,268686
7.88710,308859
7.89522,330137
7.90333,294373
7.91147,252036
7.91958,213811
7.92772,190714
7.93583,191416
7.94395,208582
7.95208,223321
7.96020,217161
7.96833,202810
7.97645,168757
7.98457,147126
7.99270,140931
8.00082,125600
8.00893,118822
8.01707,123637
8.02518,123030
8.03332,126214
8.04143,123675
8.04955,117894
8.05768,124800
8.06580,117825
8.07393,119034
8.08205,114620
8.09017,111069
8.09830,111151
8.10642,108791
8.11453,104305
8.12267,110177
8.13078,114494
8.13892,137413
8.14703,162636
8.15515,174329
8.16328,180843
8.17140,165202
8.17953,142902
8.18765,121888
8.19577,110360
8.20390,110207
8.21202,107430
8.22015,106657
8.22827,110531
8.23638,114065
8.24452,109482
8.25263,99839
8.26075,100572
8.26888,98732
8.27700,96788
8.28513,99325
8.29325,102541
8.30137,104988
8.30950,117680
8.31762,126980
8.32575,138737
8.33387,141178
8.34198,135922
8.35012,119021
8.35823,104753
8.36635,97978
8.37448,99908
8.38260,99918
8.39073,97692
8.39885,92889
8.40697,90636
8.41510,86598
8.42322,90353
8.43135,86081
8.43947,88324
8.44758,89822
8.45572,89389
8.46383,92634
8.47197,91452
8.48008,94507
8.48820,94699
8.49633,86696
8.50445,87534
8.51257,84208
8.52070,96395
8.52882,128072
8.53695,191995
8.54507,280294
8.55318,352114
8.56132,354240
8.56943,289894
8.57757,211916
8.58568,151124
8.59380,132726
8.60193,123481
8.61005,122982
8.61818,121265
8.62630,122697
8.63442,111877
8.64255,106850
8.65067,96838
8.65878,94560
8.66692,94694
8.67503,93351
8.68317,99827
8.69128,91469
8.69940,93370
8.70753,95759
8.71565,101156
8.72378,102522
8.73190,96120
8.74002,87064
8.74815,93316
8.75627,107514
8.76438,149068
8.77252,237794
8.78063,366589
8.78877,488280
8.79688,552881
8.80500,505011
8.81313,414011
8.82125,306493
8.82938,248730
8.83750,229932
8.84562,216206
8.85375,226054
8.86187,235646
8.87000,237238
8.87812,228493
8.88623,213342
8.89437,207894
8.90248,209580
8.91060,201171
8.91873,197673
8.92685,205735
8.93498,216341
8.94310,238890
8.95122,250016
8.95935,247676
8.96747,246290
8.97560,252360
8.98372,255766
8.99183,257592
8.99997,262670
9.00808,238655
9.01622,206943
9.02433,201829
9.03245,178045
9.04058,165791
9.04870,157650
9.05682,162739
9.06495,160075
9.07307,158551
9.08120,155093
9.08932,168809
9.09743,200372
9.10557,235041
9.11368,299931
9.12182,339533
9.12993,344130
9.13805,299474
9.14618,244631
9.15430,213769
9.16242,182599
9.17055,168301
9.17867,161504
9.18680,146502
9.19492,150552
9.20303,143332
9.21117,150482
9.21928,146309
9.22742,152120
9.23553,145823
9.24365,153517
9.25178,150831
9.25990,155654
9.26803,146482
9.27615,143433
9.28427,131077
9.29240,130795
9.30052,129436
9.30863,127616
9.31677,127001
9.32488,130908
9.33302,129499
9.34113,126851
9.34925,128970
9.35738,126926
9.36550,125498
9.37363,121706
9.38175,126645
9.38987,129546
9.39800,141856
9.40612,163261
9.41423,197280
9.42237,244026
9.43048,315542
9.43862,375779
9.44673,405423
9.45485,370421
9.46298,303875
9.47110,250077
9.47923,187896
9.48735,167828
9.49547,138769
9.50360,150423
9.51172,160360
9.51985,186017
9.52797,217765
9.53608,229678
9.54422,210642
9.55233,190091
9.56045,160566
9.56858,133865
9.57670,125484
9.58483,123408
9.59295,122240
9.60107,129558
9.60920,126711
9.61732,103930
9.62545,91389
9.63357,92094
9.64168,90917
9.64982,96847
9.65793,92697
9.66607,87236
9.67418,85362
9.68230,88620
9.69043,77568
9.69855,73862
9.70667,75356
9.71480,73191
9.72292,72067
9.73105,72362
9.73917,69357
9.74728,70481
9.75542,68004
9.76353,66953
9.77167,63463
9.77978,61645
9.78790,64964
9.79603,64763
9.80415,67562
9.81227,64818
9.82040,72948
9.82852,63484
9.83665,64061
9.84477,63448
9.85288,71388
9.86102,63776
9.86913,72027
9.87727,68487
9.88538,72042
9.89350,73818
9.90163,71713
9.90975,69059
9.91788,76105
9.92600,101826
9.93412,145864
9.94225,237286
9.95037,359639
9.95848,452509
9.96662,484255
9.97473,446078
9.98287,334133
9.99098,235701
9.99910,161478
10.00723,137682
10.01535,115206
10.02348,104767
10.03160,96908
10.03972,89381
10.04785,86829
10.05597,95229
10.06410,95124
10.07222,94283
10.08033,98423
10.08847,95151
10.09658,95132
10.10470,98093
10.11283,92891
10.12095,91674
10.12908,86243
10.13720,84971
10.14532,83624
10.15345,83569
10.16157,85424
10.16970,77628
10.17782,77763
10.18593,72278
10.19407,70769
10.20218,74596
10.21030,70115
10.21843,75542
10.22655,80702
10.23468,87408
10.24280,86718
10.25092,105374
10.25905,135525
10.26717,231708
10.27530,534563
10.28342,1174771
10.29153,2181636
10.29967,3399305
10.30778,4752785
10.31592,6562598
10.32403,9286675
10.33215,1.248038E+07
10.34028,1.474973E+07
10.34840,1.476356E+07
10.35652,1.234294E+07
10.36465,9332704
10.37277,7132319
10.38090,5734101
10.38902,4402473
10.39713,3087864
10.40527,2006362
10.41338,1268372
10.42152,854829
10.42963,662746
10.43775,628358
10.44588,641049
10.45400,656560
10.46213,664837
10.47025,616623
10.47837,575301
10.48650,515338
10.49462,457339
10.50273,427059
10.51087,379532
10.51898,357010
10.52712,333052
10.53523,318419
10.54335,295173
10.55148,292434
10.55960,282610
10.56773,268376
10.57585,265417
10.58397,252516
10.59210,251466
10.60022,234231
10.60833,227343
10.61647,219376
10.62458,206172
10.63272,201977
10.64083,189293
10.64895,186316
10.65708,175669
10.66520,177477
10.67333,179102
10.68145,176371
10.68957,180627
10.69770,190853
10.70582,201510
10.71395,198778
10.72207,198269
10.73018,182013
10.73832,169433
10.74643,166527
10.75455,148339
10.76268,141823
10.77080,149413
10.77893,144996
10.78705,138086
10.79517,152687
10.80330,161497
10.81142,170481
10.81955,183528
10.82767,174506
10.83578,165554
10.84392,151317
10.85203,127376
10.86015,117723
10.86828,111276
10.87640,110849
10.88453,103070
10.89265,108332
10.90077,103981
10.90890,108776
10.91702,104168
10.92515,107833
10.93327,102144
10.94138,103499
10.94952,104133
10.95763,103001
10.96577,105306
10.97388,105792
10.98200,110725
10.99013,116081
10.99825,137370
11.00637,137440
11.01450,141803
11.02262,141776
11.03075,126729
11.03887,120263
11.04698,104894
11.05512,106591
11.06323,106943
11.07137,116832
11.07948,131496
11.08760,133549
11.09573,148942
11.10385,151242
11.11198,147059
11.12010,133860
11.12822,119007
11.13635,108675
11.14447,95012
11.15258,94729
11.16072,92550
11.16883,93277
11.17697,92735
11.18508,89412
11.19320,92354
11.20133,91788
11.20945,80924
11.21758,83819
11.22570,82692
11.23382,72023
11.24195,72254
11.25007,70613
11.25818,62926
11.26632,70487
11.27443,70183
11.28257,70099
11.29068,76934
11.29880,132992
11.30693,272062
11.31505,620042
11.32318,1345467
11.33130,2358485
11.33942,3444654
11.34755,4187588
11.35567,4091826
11.36380,3333672
11.37192,2376311
11.38003,1504061
11.38817,970506
11.39628,700957
11.40440,596872
11.41253,547251
11.42065,505446
11.42878,469715
11.43690,414138
11.44502,356967
11.45315,320924
11.46127,286540
11.46940,262537
11.47752,253366
11.48563,271680
11.49377,283380
11.50188,308369
11.51002,309556
11.51813,293263
11.52625,254826
11.53438,230516
11.54250,207178
11.55062,197344
11.55875,188684
11.56687,189055
11.57500,187445
11.58312,183114
11.59123,176998
11.59937,181544
11.60748,207812
11.61562,236661
11.62373,258356
11.63185,254925
11.63998,216848
11.64810,195709
11.65622,157301
11.66435,138348
11.67247,127598
11.68060,127023
11.68872,130468
11.69683,137576
11.70497,143094
11.71308,141206
11.72122,134026
11.72933,120459
11.73745,107058
11.74558,109115
11.75370,96615
11.76183,96150
11.76995,93036
11.77807,88178
11.78620,91315
11.79432,90332
11.80243,90564
11.81057,84800
11.81868,82560
11.82682,79344
11.83493,87682
11.84305,81335
11.85118,89099
11.85930,80150
11.86743,75912
11.87555,77946
11.88367,75478
11.89180,70806
11.89992,73168
11.90803,70258
11.91617,77335
11.92428,79691
11.93242,82069
11.94053,83253
11.94865,82832
11.95678,74436
11.96490,73985
11.97303,68365
11.98115,67320
11.98927,77359
11.99740,102053
12.00552,125314
12.01365,153935
12.02177,157636
12.02988,150954
12.03802,127686
12.04613,107229
12.05425,100574
12.06238,94840
12.07050,98746
12.07863,108276
12.08675,120674
12.09487,149303
12.10300,214891
12.11112,382525
12.11925,631058
12.12737,980949
12.13548,1243686
12.14362,1380065
12.15173,1243313
12.15987,954241
12.16798,624055
12.17610,371250
12.18423,248901
12.19235,215703
12.20047,216302
12.20860,216456
12.21672,203433
12.22485,200081
12.23297,182818
12.24108,175160
12.24922,166730
12.25733,160390
12.26547,154397
12.27358,142868
12.28170,143742
12.28983,135275
12.29795,131291
12.30608,123852
12.31420,115366
12.32232,112626
12.33045,109174
12.33857,111049
12.34668,104408
12.35482,106018
12.36293,103480
12.37107,102477
12.37918,102219
12.38730,101447
12.39543,109076
12.40355,117115
12.41168,133700
12.41980,145983
12.42792,164947
12.43605,169311
12.44417,161278
12.45228,156830
12.46042,146175
12.46853,133338
12.47667,123319
12.48478,120890
12.49290,111200
12.50103,118720
12.50915,117775
12.51728,106151
12.52540,106108
12.53352,100029
12.54165,108231
12.54977,121558
12.55790,130742
12.56602,140393
12.57413,146691
12.58227,142748
12.59038,126933
12.59850,121397
12.60663,110686
12.61475,102232
12.62288,103458
12.63100,104803
12.63912,93644
12.64725,96335
12.65537,95963
12.66350,88459
12.67162,86005
12.67973,83385
12.68787,75766
12.69598,74624
12.70410,75376
12.71223,79770
12.72035,80934
12.72848,85926
12.73660,92361
12.74472,98354
12.75285,97364
12.76097,87752
12.76910,81920
12.77722,78617
12.78533,71537
12.79347,71691
12.80158,68655
12.80972,63395
12.81783,65471
12.82595,64170
12.83408,61720
12.84220,60068
12.85032,56087
12.85845,53726
12.86657,61764
12.87470,52924
12.88282,52862
12.89093,50393
12.89907,51408
12.90718,53716
12.91532,53747
12.92343,52791
12.93155,50016
12.93968,54689
12.94780,53862
12.95593,56861
12.96405,64962
12.97217,83136
12.98030,103429
12.98842,115223
12.99653,116946
13.00467,106234
13.01278,91726
13.02092,77265
13.02903,68301
13.03715,59975
13.04528,69485
13.05340,55998
13.06153,56510
13.06965,57351
13.07777,59118
13.08590,54453
13.09402,57541
13.10213,63534
13.11027,58567
13.11838,56898
13.12652,54549
13.13463,55902
13.14275,53850
13.15088,53711
13.15900,55259
13.16713,51233
13.17525,61444
13.18337,60650
13.19150,61908
13.19962,62447
13.20775,62972
13.21587,70483
13.22398,71286
13.23212,72035
13.24023,68071
13.24835,63204
13.25648,68777
13.26460,63383
13.27273,61464
13.28085,60135
13.28897,55943
13.29710,55962
13.30522,52272
13.31335,52546
13.32147,51578
13.32958,50331
13.33772,51173
13.34583,50906
13.35397,48871
13.36208,47963
13.37020,52460
13.37833,50656
13.38645,46649
13.39457,48327
13.40270,47158
13.41082,47762
13.41895,49417
13.42707,48477
13.43518,48532
13.44332,48925
13.45143,50874
13.45957,57847
13.46768,59700
13.47580,58626
13.48393,62398
13.49205,56000
13.50017,57245
13.50830,55525
13.51642,53820
13.52455,61544
13.53267,54112
13.54078,56448
13.54892,54970
13.55703,51418
13.56517,55910
13.57328,57499
13.58140,66441
13.58953,68992
13.59765,76409
13.60578,75756
13.61390,74402
13.62202,73903
13.63015,71123
13.63827,70415
13.64638,67782
13.65452,63338
13.66263,54976
13.67077,52073
13.67888,50191
13.68700,47418
13.69513,47215
13.70325,45935
13.71138,45218
13.71950,47406
13.72762,49373
13.73575,51964
13.74387,68177
13.75198,95164
13.76012,169024
13.76823,260121
13.77637,368616
13.78448,453832
13.79260,490116
13.80073,486589
13.80885,481447
13.81698,532759
13.82510,589316
13.83322,683944
13.84135,745715
13.84947,724949
13.85760,644918
13.86572,514143
13.87383,396595
13.88197,307457
13.89008,251894
13.89820,211362
13.90633,181202
13.91445,160201
13.92258,153865
13.93070,142608
13.93882,142028
13.94695,128852
13.95507,124945
13.96320,121686
13.97132,130189
13.97943,131725
13.98757,142270
13.99568,129675
14.00382,135119
14.01193,129550
14.02005,124142
14.02818,120960
14.03630,117526
14.04442,112332
14.05255,119411
14.06067,123534
14.06880,118122
14.07692,114348
14.08503,115152
14.09317,112415
14.10128,103278
14.10942,103492
14.11753,104352
14.12565,109053
14.13378,109964
14.14190,117553
14.15002,123510
14.15815,139775
14.16627,145420
14.17440,157326
14.18252,151166
14.19063,165349
14.19877,180873
14.20688,225831
14.21502,266964
14.22313,301588
14.23125,310774
14.23938,300050
14.24750,311954
14.25563,323183
14.26375,314877
14.27187,287766
14.28000,248982
14.28812,213873
14.29623,188560
14.30437,182324
14.31248,163176
14.32062,150434
14.32873,157777
14.33685,140830
14.34498,139234
14.35310,126621
14.36123,119531
14.36935,104525
14.37747,92876
14.38560,81184
14.39372,82340
14.40185,78385
14.40997,79690
14.41808,87065
14.42622,86348
14.43433,97179
14.44245,90243
14.45058,82612
14.45870,87616
14.46683,89751
14.47495,91776
14.48307,101029
14.49120,99643
14.49932,97536
14.50745,93133
14.51557,90128
14.52368,83055
14.53182,82053
14.53993,83777
14.54805,80201
14.55618,78419
14.56430,67570
14.57243,73890
14.58055,66675
14.58867,62997
14.59680,59270
14.60492,61150
14.61305,58433
14.62117,58906
14.62928,60496
14.63742,56876
14.64553,55246
14.65367,55331
14.66178,56366
14.66990,51037
14.67803,54487
14.68615,55691
14.69427,54882
14.70240,56063
14.71052,54009
14.71865,54062
14.72677,58067
14.73488,59378
14.74302,58565
14.75113,60817
14.75927,61197
14.76738,66258
14.77550,68958
14.78363,75317
14.79175,128576
14.79988,288368
14.80800,793377
14.81612,1841695
14.82425,3466889
14.83237,5124056
14.84048,6180703
14.84862,5993886
14.85673,4622303
14.86487,3028141
14.87298,1841020
14.88110,1135915
14.88923,753673
14.89735,575570
14.90548,469687
14.91360,407977
14.92172,376867
14.92985,350808
14.93797,323449
14.94608,300429
14.95422,271154
14.96233,247544
14.97047,233728
14.97858,219122
14.98670,201415
14.99483,199846
15.00295,198340
15.01108,185358
15.01920,182508
15.02732,184048
15.03545,179349
15.04357,177156
15.05170,162715
15.05982,153701
15.06793,148323
15.07607,143322
15.08418,135185
15.09230,126455
15.10043,127758
15.10855,125116
15.11668,120786
15.12480,122432
15.13292,134000
15.14105,137357
15.14917,143051
15.15730,140558
15.16542,127883
15.17353,111722
15.18167,94421
15.18978,85050
15.19790,76801
15.20603,79578
15.21415,69049
15.22228,68463
15.23040,68604
15.23852,71757
15.24665,71377
15.25477,64728
15.26290,64604
15.27102,66153
15.27913,68254
15.28727,62753
15.29538,58808
15.30352,53715
15.31163,56694
15.31975,54887
15.32788,57552
15.33600,55538
15.34412,53635
15.35225,55126
15.36037,53416
15.36850,52127
15.37662,49540
15.38473,55131
15.39287,54152
15.40098,57583
15.40912,56421
15.41723,52786
15.42535,54292
15.43348,55813
15.44160,51267
15.44973,52886
15.45785,62477
15.46597,88490
15.47410,138803
15.48222,234932
15.49033,369226
15.49847,502900
15.50658,610666
15.51472,633689
15.52283,571842
15.53095,482497
15.53908,393970
15.54720,316906
15.55533,261869
15.56345,212313
15.57157,171729
15.57970,142329
15.58782,120190
15.59593,105616
15.60407,96852
15.61218,94254
15.62032,86075
15.62843,85268
15.63655,82666
15.64468,80946
15.65280,72545
15.66093,69166
15.66905,68077
15.67717,70394
15.68530,66413
15.69342,61008
15.70155,64988
15.70967,58663
15.71778,64080
15.72592,61104
15.73403,59269
15.74215,60141
15.75028,70972
15.75840,78349
15.76653,119758
15.77465,183849
15.78277,281757
15.79090,368140
15.79902,391650
15.80715,363492
15.81527,290882
15.82338,215785
15.83152,155438
15.83963,124846
15.84777,107314
15.85588,94652
15.86400,92427
15.87213,95466
15.88025,84689
15.88837,91611
15.89650,84661
15.90462,79360
15.91275,78877
15.92087,80892
15.92898,72553
15.93712,74940
15.94523,73683
15.95337,70490
15.96148,73276
15.96960,73590
15.97773,77322
15.98585,84099
15.99397,82788
16.00210,81329
16.01022,82566
16.01835,93036
16.02647,97076
16.03458,102248
16.04272,105078
16.05083,95708
16.05897,87496
16.06708,83657
16.07520,74803
16.08333,71298
16.09145,68932
16.09958,70333
16.10770,65329
16.11582,70952
16.12395,68601
16.13207,78544
16.14018,82421
16.14832,93485
16.15643,85181
16.16457,83927
16.17268,85084
16.18080,78081
16.18893,69723
16.19705,68063
16.20518,65454
16.21330,65398
16.22142,67569
16.22955,64543
16.23767,65345
16.24578,62689
16.25392,63110
16.26203,61641
16.27017,60339
16.27828,63969
16.28640,72291
16.29453,79154
16.30265,89755
16.31078,94309
16.31890,84917
16.32702,85925
16.33515,80792
16.34327,76526
16.35140,74868
16.35952,80869
16.36763,86817
16.37577,94518
16.38388,103208
16.39200,102820
16.40013,90985
16.40825,80977
16.41638,82367
16.42450,69790
16.43262,67878
16.44075,84901
16.44887,107241
16.45700,186884
16.46512,372181
16.47323,701686
16.48137,1049883
16.48948,1261707
16.49762,1201049
16.50573,979969
16.51385,662346
16.52198,431048
16.53010,267102
16.53822,199718
16.54635,162722
16.55447,136642
16.56260,118254
16.57072,114086
16.57883,114974
16.58697,104459
16.59508,113578
16.60322,102813
16.61133,111280
16.61945,104720
16.62758,101471
16.63570,95876
16.64383,95376
16.65195,88443
16.66007,88731
16.66820,79633
16.67632,72752
16.68443,72645
16.69257,71620
16.70068,70480
16.70882,70834
16.71693,65553
16.72505,64040
16.73318,67554
16.74130,67523
16.74943,61927
16.75755,62529
16.76567,78385
16.77380,70669
16.78192,73348
16.79003,66933
16.79817,66343
16.80628,56499
16.81442,56188
16.82253,55929
16.83065,54366
16.83878,51645
16.84690,57851
16.85503,52019
16.86315,53671
16.87127,52152
16.87940,52093
16.88752,51167
16.89565,50309
16.90377,51299
16.91188,49321
16.92002,49248
16.92813,50453
16.93625,49975
16.94438,47759
16.95250,49082
16.96063,50932
16.96875,51332
16.97687,51930
16.98500,52007
16.99312,52597
17.00125,55631
17.00937,56428
17.01748,57718
17.02562,53849
17.03373,50512
17.04185,56727
17.04998,60695
17.05810,58457
17.06623,63898
17.07435,58804
17.08247,60271
17.09060,58518
17.09872,57624
17.10685,57153
17.11497,66067
17.12308,61051
17.13122,65374
17.13933,64409
17.14747,64942
17.15558,70163
17.16370,67331
17.17183,63691
17.17995,62134
17.18807,57822
17.19620,59633
17.20432,53301
17.21245,54690
17.22057,51389
17.22868,49968
17.23682,48573
17.24493,52379
17.25307,55580
17.26118,55281
17.26930,53144
17.27743,50436
17.28555,49476
17.29367,50359
17.30180,50108
17.30992,50969
17.31805,56661
17.32617,63174
17.33428,77680
17.34242,86635
17.35053,98375
17.35867,98684
17.36678,101135
17.37490,92560
17.38303,93477
17.39115,93649
17.39928,88147
17.40740,92778
17.41552,89179
17.42365,100084
17.43177,99552
17.43988,100560
17.44802,94270
17.45613,86844
17.46427,78674
17.47238,78765
17.48050,67339
17.48863,68380
17.49675,61544
17.50488,60322
17.51300,62309
17.52112,62572
17.52925,67216
17.53737,61447
17.54550,64473
17.55362,64371
17.56173,77355
17.56987,96145
17.57798,150659
17.58610,224620
17.59423,345576
17.60235,489239
17.61048,609178
17.61860,653305
17.62672,580169
17.63485,457268
17.64297,335083
17.65110,250711
17.65922,193610
17.66733,166320
17.67547,153734
17.68358,137385
17.69172,127349
17.69983,122585
17.70795,115467
17.71608,115247
17.72420,120640
17.73232,116760
17.74045,115074
17.74857,110759
17.75670,107738
17.76482,103322
17.77293,98368
17.78107,90193
17.78918,85654
17.79732,84141
17.80543,93599
17.81355,109726
17.82168,132096
17.82980,147210
17.83792,169747
17.84605,174976
17.85417,166194
17.86230,159964
17.87042,162716
17.87853,151296
17.88667,131810
17.89478,115964
17.90292,102544
17.91103,83223
17.91915,74870
17.92728,68612
17.93540,66984
17.94353,65395
17.95165,65522
17.95977,64932
17.96790,64487
17.97602,61813
17.98413,62024
17.99227,61970
18.00038,66412
18.00852,64668
18.01663,77303
18.02475,88164
18.03288,114416
18.04100,137809
18.04913,146399
18.05725,190335
18.06537,274020
18.07350,499226
18.08162,890669
18.08973,1385815
18.09787,1766065
18.10598,1854287
18.11412,1653576
18.12223,1317291
18.13035,944190
18.13848,685514
18.14660,538272
18.15473,449158
18.16285,391553
18.17097,332481
18.17910,301563
18.18722,285206
18.19535,249353
18.20347,218562
18.21158,207567
18.21972,197935
18.22783,176383
18.23595,172405
18.24408,159654
18.25220,153562
18.26033,148005
18.26845,140503
18.27657,121596
18.28470,108457
18.29282,93567
18.30095,89337
18.30907,72435
18.31718,68254
18.32532,63840
18.33343,61729
18.34157,63642
18.34968,62967
18.35780,65564
18.36593,59152
18.37405,58641
18.38217,59153
18.39030,59420
18.39842,60763
18.40655,69859
18.41467,81737
18.42278,96974
18.43092,127958
18.43903,152908
18.44717,175516
18.45528,196582
18.46340,218519
18.47153,219954
18.47965,242013
18.48777,250405
18.49590,241933
18.50402,204315
18.51215,177918
18.52027,144627
18.52838,114450
18.53652,101864
18.54463,91965
18.55277,81194
18.56088,76515
18.56900,78155
18.57713,75553
18.58525,73104
18.59338,80851
18.60150,83702
18.60962,98059
18.61775,99287
18.62587,104614
18.63398,113096
18.64212,104967
18.65023,101617
18.65837,95074
18.66648,85506
18.67460,74093
18.68273,69641
18.69085,71254
18.69898,63853
18.70710,69196
18.71522,68703
18.72335,66461
18.73147,68589
18.73960,70092
18.74772,61772
18.75583,58226
18.76397,56419
18.77208,54052
18.78020,51572
18.78833,61706
18.79645,54823
18.80458,56642
18.81270,55804
18.82082,54517
18.82895,55896
18.83707,52784
18.84520,53930
18.85332,56560
18.86143,63478
18.86957,68785
18.87768,83343
18.88580,83657
18.89393,81529
18.90205,79882
18.91018,76515
18.91830,74274
18.92642,67162
18.93455,65717
18.94267,64234
18.95080,70852
18.95892,71691
18.96703,78950
18.97517,75765
18.98328,72933
18.99142,69512
18.99953,67557
19.00765,60890
19.01578,58209
19.02390,62110
19.03202,58317
19.04015,62158
19.04827,58116
19.05640,62482
19.06452,65572
19.07263,85291
19.08077,126193
19.08888,215666
19.09702,331470
19.10513,433346
19.11325,529621
19.12138,530092
19.12950,445924
19.13762,345512
19.14575,246453
19.15387,184861
19.16200,145326
19.17012,124408
19.17823,122687
19.18637,118578
19.19448,127188
19.20262,128282
19.21073,126588
19.21885,125771
19.22698,123127
19.23510,119592
19.24323,119208
19.25135,117639
19.25947,116164
19.26760,118946
19.27572,121346
19.28383,129446
19.29197,137892
19.30008,141324
19.30822,146163
19.31633,146265
19.32445,143458
19.33258,139334
19.34070,140129
19.34883,142069
19.35695,151185
19.36507,172211
19.37320,189657
19.38132,203191
19.38945,203009
19.39757,192726
19.40568,175941
19.41382,160366
19.42193,156684
19.43005,149830
19.43818,140916
19.44630,140329
19.45443,140066
19.46255,153659
19.47067,150702
19.47880,161911
19.48692,179410
19.49505,196106
19.50317,232181
19.51128,296334
19.51942,341260
19.52753,357404
19.53565,328961
19.54378,292837
19.55190,250920
19.56003,201123
19.56815,176509
19.57627,156712
19.58440,144262
19.59252,134829
19.60065,132904
19.60877,126353
19.61688,122434
19.62502,125777
19.63313,135045
19.64127,153581
19.64938,199652
19.65750,274880
19.66563,357858
19.67375,445045
19.68187,492428
19.69000,498515
19.69812,472915
19.70625,438593
19.71437,370349
19.72248,318548
19.73062,288901
19.73873,258864
19.74687,235380
19.75498,210492
19.76310,190990
19.77123,192230
19.77935,198999
19.78748,213575
19.79560,249015
19.80372,262578
19.81185,273321
19.81997,249759
19.82808,222344
19.83622,193614
19.84433,175096
19.85247,174855
19.86058,222166
19.86870,408698
19.87683,820432
19.88495,1449611
19.89308,2242148
19.90120,3005547
19.90932,3405376
19.91745,3235740
19.92557,2620644
19.93368,1924778
19.94182,1333262
19.94993,950523
19.95807,744687
19.96618,633070
19.97430,545839
19.98243,493611
19.99055,467681
19.99868,438992
20.00680,417951
20.01492,401151
20.02305,381915
20.03117,357664
20.03930,344769
20.04742,319474
20.05553,309270
20.06367,314735
20.07178,337195
20.07990,382318
20.08803,409930
20.09615,418411
20.10428,405515
20.11240,350797
20.12052,288773
20.12865,244961
20.13677,236847
20.14490,275547
20.15302,382052
20.16113,626385
20.16927,991347
20.17738,1555070
20.18552,2155948
20.19363,2659232
20.20175,2889157
20.20988,2775098
20.21800,2490810
20.22612,2078787
20.23425,1622004
20.24237,1401776
20.25050,1354166
20.25862,1499274
20.26673,1774042
20.27487,2009096
20.28298,2127849
20.29112,2064273
20.29923,1871339
20.30735,1547756
20.31548,1169236
20.32360,886822
20.33172,651911
20.33985,494474
20.34797,374039
20.35610,292178
20.36422,241873
20.37233,208713
20.38047,181201
20.38858,165230
20.39672,154809
20.40483,143553
20.41295,145863
20.42108,145798
20.42920,147843
20.43733,147563
20.44545,163904
20.45357,165448
20.46170,171277
20.46982,162441
20.47793,149849
20.48607,145714
20.49418,133294
20.50232,120556
20.51043,109538
20.51855,105482
20.52668,100648
20.53480,101078
20.54293,91568
20.55105,97812
20.55917,96536
20.56730,91876
20.57542,87175
20.58353,90498
20.59167,90504
20.59978,81381
20.60792,78111
20.61603,83515
20.62415,85470
20.63228,85997
20.64040,96476
20.64853,104792
20.65665,100999
20.66477,100297
20.67290,92469
20.68102,86096
20.68915,89053
20.69727,82914
20.70538,78860
20.71352,76917
20.72163,73376
20.72975,76611
20.73788,73165
20.74600,78467
20.75413,79022
20.76225,82382
20.77037,85702
20.77850,99699
20.78662,128575
20.79475,193728
20.80287,297018
20.81098,458858
20.81912,597846
20.82723,674687
20.83537,619481
20.84348,482971
20.85160,352713
20.85973,243667
20.86785,171418
20.87597,137136
20.88410,120422
20.89222,113812
20.90035,117134
20.90847,125717
20.91658,133735
20.92472,155240
20.93283,175662
20.94097,181254
20.94908,181864
20.95720,174329
20.96533,149919
20.97345,138984
20.98157,120703
20.98970,107504
20.99782,98560
21.00595,92402
21.01407,87022
21.02218,89267
21.03032,92282
21.03843,89928
21.04657,91754
21.05468,87149
21.06280,90723
21.07093,78482
21.07905,88151
21.08718,83231
21.09530,78673
21.10342,75398
21.11155,77515
21.11967,74467
21.12778,81232
21.13592,90266
21.14403,126823
21.15217,164040
21.16028,229300
21.16840,254763
21.17653,269247
21.18465,233212
21.19278,191839
21.20090,152694
21.20902,126280
21.21715,112122
21.22527,95926
21.23340,94587
21.24152,91577
21.24963,86011
21.25777,83056
21.26588,82992
21.27400,84177
21.28213,80506
21.29025,80906
21.29838,77323
21.30650,77143
21.31462,76331
21.32275,73428
21.33087,75881
21.33900,72826
21.34712,75990
21.35523,71669
21.36337,71696
21.37148,78803
21.37960,81052
21.38773,87235
21.39585,108541
21.40398,126161
21.41210,151433
21.42022,160329
21.42835,156289
21.43647,141151
21.44460,122944
21.45272,113593
21.46083,98632
21.46897,92993
21.47708,88315
21.48522,84749
21.49333,80355
21.50145,78015
21.50958,76606
21.51770,75891
21.52582,76939
21.53395,68860
21.54207,68939
21.55020,74987
21.55832,76780
21.56643,73474
21.57457,77929
21.58268,79878
21.59082,85468
21.59893,93300
21.60705,93242
21.61518,100028
21.62330,103949
21.63142,113512
21.63955,127595
21.64767,137202
21.65580,134388
21.66392,141265
21.67203,143250
21.68017,136783
21.68828,126936
21.69642,118584
21.70453,113816
21.71265,100586
21.72078,92932
21.72890,87058
21.73703,78438
21.74515,76793
21.75327,77885
21.76140,74754
21.76952,76925
21.77763,74424
21.78577,69798
21.79388,77608
21.80202,78589
21.81013,86743
21.81825,95322
21.82638,105286
21.83450,113736
21.84263,122403
21.85075,128485
21.85887,130283
21.86700,113467
21.87512,103367
21.88325,97081
21.89137,88261
21.89948,81033
21.90762,77039
21.91573,76808
21.92385,77329
21.93198,72551
21.94010,69795
21.94823,67860
21.95635,68024
21.96447,64288
21.97260,66146
21.98072,59646
21.98885,57837
21.99697,57507
22.00508,59743
22.01322,62314
22.02133,57561
22.02945,61538
22.03758,60091
22.04570,69146
22.05383,63291
22.06195,66204
22.07007,63388
22.07820,62163
22.08632,62603
22.09445,60763
22.10257,63091
22.11068,63388
22.11882,60663
22.12693,59079
22.13507,58408
22.14318,59156
22.15130,60923
22.15943,60924
22.16755,61763
22.17567,57789
22.18380,62289
22.19192,57547
22.20005,57853
22.20817,57574
22.21628,60975
22.22442,68148
22.23253,67244
22.24067,72216
22.24878,70383
22.25690,68473
22.26503,68223
22.27315,72763
22.28128,73889
22.28940,78178
22.29752,74530
22.30565,79118
22.31377,76361
22.32188,77160
22.33002,77989
22.33813,83193
22.34627,77438
22.35438,75785
22.36250,78887
22.37063,78453
22.37875,82100
22.38688,94929
22.39500,110001
22.40312,131478
22.41125,169627
22.41937,200412
22.42748,221318
22.43562,225956
22.44373,199847
22.45187,177009
22.45998,141346
22.46810,120900
22.47623,118277
22.48435,116186
22.49248,131208
22.50060,141135
22.50872,154455
22.51685,174700
22.52497,173209
22.53310,165170
22.54122,151460
22.54933,138960
22.55747,125434
22.56558,113610
22.57370,95881
22.58183,92045
22.58995,86645
22.59808,85744
22.60620,76599
22.61432,75996
22.62245,71559
22.63057,69353
22.63870,66860
22.64682,68981
22.65493,70374
22.66307,70988
22.67118,69680
22.67930,71592
22.68743,76573
22.69555,82194
22.70368,92815
22.71180,100668
22.71992,111441
22.72805,110329
22.73617,102917
22.74430,95921
22.75242,90468
22.76053,85545
22.76867,81324
22.77678,84250
22.78492,85037
22.79303,96804
22.80115,104401
22.80928,116558
22.81740,123687
22.82552,122088
22.83365,117820
22.84177,115512
22.84990,118897
22.85802,132696
22.86613,140624
22.87427,169115
22.88238,204546
22.89052,238334
22.89863,259572
22.90675,275005
22.91488,281414
22.92300,281117
22.93113,279993
22.93925,288818
22.94737,268462
22.95550,251310
22.96362,237076
22.97173,212761
22.97987,209943
22.98798,183206
22.99612,173301
23.00423,164633
23.01235,150216
23.02048,146983
23.02860,143729
23.03673,128976
23.04485,126309
23.05297,128570
23.06110,130961
23.06922,143039
23.07735,136855
23.08547,140255
23.09358,138805
23.10172,131749
23.10983,126233
23.11795,122207
23.12608,117598
23.13420,121264
23.14233,112184
23.15045,110212
23.15857,111431
23.16670,107885
23.17482,108536
23.18295,108046
23.19107,106186
23.19918,102588
23.20732,100159
23.21543,105949
23.22355,99411
23.23168,100474
23.23980,113369
23.24793,103493
23.25605,106623
23.26417,114200
23.27230,119238
23.28042,120814
23.28855,114500
23.29667,112222
23.30478,104343
23.31292,104669
23.32103,109732
23.32917,112544
23.33728,124850
23.34540,145396
23.35353,162283
23.36165,207006
23.36977,236842
23.37790,254692
23.38602,277814
23.39415,280170
23.40227,287034
23.41038,285124
23.41852,286563
23.42663,288525
23.43477,280451
23.44288,272234
23.45100,261121
23.45913,250682
23.46725,241813
23.47537,225756
23.48350,215614
23.49162,208493
23.49975,194471
23.50787,178675
23.51598,174334
23.52412,167386
23.53223,164258
23.54037,167569
23.54848,175665
23.55660,192598
23.56473,207309
23.57285,239212
23.58098,294978
23.58910,360565
23.59722,417446
23.60535,485143
23.61347,482164
23.62158,436238
23.62972,369159
23.63783,303026
23.64597,245868
23.65408,199345
23.66220,185145
23.67033,182183
23.67845,172620
23.68658,157467
23.69470,148782
23.70282,131752
23.71095,123224
23.71907,123437
23.72720,119235
23.73532,115202
23.74343,117841
23.75157,162640
23.75968,264997
23.76780,541720
23.77593,1058536
23.78405,1830922
23.79218,2689273
23.80030,3159960
23.80842,3136945
23.81655,2715483
23.82467,2163455
23.83280,1640393
23.84092,1237705
23.84903,969445
23.85717,755121
23.86528,616036
23.87340,521648
23.88153,451802
23.88965,407330
23.89778,373566
23.90590,352549
23.91402,338311
23.92215,319378
23.93027,307753
23.93840,279909
23.94652,258458
23.95463,235941
23.96277,223734
23.97088,222633
23.97902,204996
23.98713,193327
23.99525,182211
24.00338,189051
24.01150,179549
24.01962,186703
24.02775,194904
24.03587,198714
24.04400,213220
24.05212,207016
24.06023,187063
24.06837,165236
24.07648,155940
24.08462,141765
24.09273,144810
24.10085,131237
24.10898,130068
24.11710,133323
24.12523,133590
24.13335,145662
24.14147,164236
24.14960,172761
24.15772,181533
24.16583,186559
24.17397,173082
24.18208,177292
24.19022,185876
24.19833,184474
24.20645,176352
24.21458,175901
24.22270,172768
24.23083,156898
24.23895,150452
24.24707,135514
24.25520,124827
24.26332,113425
24.27143,108776
24.27957,105712
24.28768,104241
24.29582,105286
24.30393,106627
24.31205,107814
24.32018,104192
24.32830,104491
24.33643,104390
24.34455,103852
24.35267,98814
24.36080,97750
24.36892,98722
24.37705,108984
24.38517,120692
24.39328,156028
24.40142,180296
24.40953,215528
24.41765,205593
24.42578,186667
24.43390,154452
24.44203,130247
24.45015,112095
24.45827,108877
24.46640,113248
24.47452,126845
24.48265,135999
24.49077,155914
24.49888,164866
24.50702,160921
24.51513,156813
24.52325,160466
24.53138,156745
24.53950,163552
24.54763,172573
24.55575,172152
24.56387,175203
24.57200,170367
24.58012,168749
24.58825,165455
24.59637,161274
24.60448,170478
24.61262,156788
24.62073,158865
24.62887,155671
24.63698,157717
24.64510,158234
24.65323,161777
24.66135,163782
24.66947,168575
24.67760,165838
24.68572,162850
24.69385,171787
24.70197,168782
24.71008,166475
24.71822,167694
24.72633,157885
24.73447,161244
24.74258,155862
24.75070,154556
24.75883,158813
24.76695,156501
24.77508,157234
24.78320,165563
24.79132,164542
24.79945,162894
24.80757,162565
24.81568,169061
24.82382,167479
24.83193,177269
24.84007,196951
24.84818,228373
24.85630,270097
24.86443,346407
24.87255,440689
24.88068,559539
24.88880,676293
24.89692,734619
24.90505,738904
24.91317,638938
24.92128,521277
24.92942,395515
24.93753,293746
24.94567,235613
24.95378,187863
24.96190,168621
24.97003,154461
24.97815,156715
24.98628,144472
24.99440,144065
25.00252,146860
25.01065,145818
25.01877,141516
25.02690,137284
25.03502,135964
25.04313,138714
25.05127,132372
25.05938,137992
25.06750,130065
25.07563,134596
25.08375,140417
25.09188,151615
25.10000,193707
25.10812,290936
25.11625,561880
25.12437,1106091
25.13250,1945564
25.14062,2890141
25.14873,3583205
25.15687,3691626
25.16498,3364802
25.17312,2530702
25.18123,1733711
25.18935,1079290
25.19748,668046
25.20560,433780
25.21372,314024
25.22185,240229
25.22997,218266
25.23810,214730
25.24622,223685
25.25433,251227
25.26247,292351
25.27058,303557
25.27872,315689
25.28683,306118
25.29495,278486
25.30308,246712
25.31120,211512
25.31932,190957
25.32745,173598
25.33557,165260
25.34370,155930
25.35182,146702
25.35993,138698
25.36807,127864
25.37618,125463
25.38432,120323
25.39243,123984
25.40055,120654
25.40868,116581
25.41680,107596
25.42493,112573
25.43305,113726
25.44117,108298
25.44930,108608
25.45742,109566
25.46553,107682
25.47367,117541
25.48178,113734
25.48992,111267
25.49803,110421
25.50615,103391
25.51428,94767
25.52240,93691
25.53053,89183
25.53865,88622
25.54677,81706
25.55490,80628
25.56302,82527
25.57115,79325
25.57927,78776
25.58738,78659
25.59552,79037
25.60363,81390
25.61175,77829
25.61988,74238
25.62800,73844
25.63613,72571
25.64425,77132
25.65237,74605
25.66050,81866
25.66862,77047
25.67675,84614
25.68487,87980
25.69298,95254
25.70112,91834
25.70923,90681
25.71735,84988
25.72548,77969
25.73360,84728
25.74173,75033
25.74985,74913
25.75797,70057
25.76610,72588
25.77422,70799
25.78235,76594
25.79047,73682
25.79858,76270
25.80672,77058
25.81483,80077
25.82297,79575
25.83108,79385
25.83920,80027
25.84733,83604
25.85545,88738
25.86357,86599
25.87170,90937
25.87982,90920
25.88795,90687
25.89607,105735
25.90418,115764
25.91232,124515
25.92043,134401
25.92857,130664
25.93668,133839
25.94480,130747
25.95293,132109
25.96105,134272
25.96917,137572
25.97730,144650
25.98542,141756
25.99355,131397
26.00167,136765
26.00978,134064
26.01792,135991
26.02603,124142
26.03417,129698
26.04228,135869
26.05040,134581
26.05853,135939
26.06665,138205
26.07478,140951
26.08290,143448
26.09102,144581
26.09915,145601
26.10727,149111
26.11538,142025
26.12352,140618
26.13163,151194
26.13977,154924
26.14788,155911
26.15600,160436
26.16413,158767
26.17225,155187
26.18038,154086
26.18850,153079
26.19662,137598
26.20475,139598
26.21287,131368
26.22100,126892
26.22912,122727
26.23723,126114
26.24537,124404
26.25348,118152
26.26160,123951
26.26973,119132
26.27785,118773
26.28598,112900
26.29410,111746
26.30222,112303
26.31035,111791
26.31847,111783
26.32660,108164
26.33472,112577
26.34283,122156
26.35097,146754
26.35908,203583
26.36720,313015
26.37533,484134
26.38345,703314
26.39158,964206
26.39970,1179748
26.40782,1282368
26.41595,1189497
26.42407,978202
26.43220,719631
26.44032,511061
26.44843,347218
26.45657,247119
26.46468,195685
26.47282,155410
26.48093,142831
26.48905,129398
26.49718,119819
26.50530,113044
26.51342,110173
26.52155,105053
26.52967,102471
26.53780,96981
26.54592,97291
26.55403,92841
26.56217,94451
26.57028,92823
26.57842,95233
26.58653,90426
26.59465,93069
26.60278,88288
26.61090,88313
26.61903,82912
26.62715,81995
26.63527,84106
26.64340,86612
26.65152,86331
26.65963,89637
26.66777,85849
26.67588,84166
26.68402,86059
26.69213,80887
26.70025,82760
26.70838,84580
26.71650,79868
26.72463,74625
26.73275,80793
26.74087,73534
26.74900,77306
26.75712,77405
26.76523,80339
26.77337,79438
26.78148,80130
26.78962,82285
26.79773,80987
26.80585,79632
26.81398,82745
26.82210,82361
26.83023,80465
26.83835,79339
26.84647,81755
26.85460,78456
26.86272,76878
26.87085,78219
26.87897,76907
26.88708,76363
26.89522,77135
26.90333,72190
26.91145,71082
26.91958,70948
26.92770,67893
26.93583,74921
26.94395,65554
26.95207,67306
26.96020,74711
26.96832,78109
26.97645,98664
26.98457,119119
26.99268,180458
27.00082,254761
27.00893,357246
27.01705,494342
27.02518,606185
27.03330,692951
27.04143,722319
27.04955,641278
27.05767,564874
27.06580,453826
27.07392,371933
27.08205,310987
27.09017,264954
27.09828,240433
27.10642,212285
27.11453,183288
27.12267,178264
27.13078,173120
27.13890,164716
27.14703,161652
27.15515,153273
27.16327,156240
27.17140,166696
27.17952,183981
27.18765,197500
27.19577,200408
27.20388,196763
27.21202,194174
27.22013,172326
27.22827,153683
27.23638,150483
27.24450,137194
27.25263,126370
27.26075,119582
27.26888,115736
27.27700,106919
27.28512,113883
27.29325,107454
27.30137,105814
27.30948,99688
27.31762,96660
27.32573,103549
27.33387,102862
27.34198,101873
27.35010,102921
27.35823,96382
27.36635,99167
27.37448,96364
27.38260,99687
27.39072,92129
27.39885,90152
27.40697,87479
27.41508,90709
27.42322,86837
27.43133,89666
27.43947,86752
27.44758,85119
27.45570,81632
27.46383,79392
27.47195,75541
27.48008,75183
27.48820,73246
27.49632,73849
27.50445,74935
27.51257,76372
27.52070,76027
27.52882,81367
27.53693,77763
27.54507,78196
27.55318,79049
27.56130,70571
27.56943,74833
27.57755,84231
27.58568,91274
27.59380,102515
27.60192,107617
27.61005,120742
27.61817,118179
27.62630,110081
27.63442,101411
27.64253,94874
27.65067,93018
27.65878,85399
27.66692,85373
27.67503,84555
27.68315,87117
27.69128,89625
27.69940,88950
27.70752,87853
27.71565,85104
27.72377,81538
27.73190,75759
27.74002,72424
27.74813,67991
27.75627,75577
27.76438,66712
27.77252,73443
27.78063,69918
27.78875,74464
27.79688,73139
27.80500,75799
27.81312,72583
27.82125,73843
27.82937,71478
27.83750,69340
27.84562,67855
27.85373,73745
27.86187,75964
27.86998,69637
27.87812,66247
27.88623,69010
27.89435,63015
27.90248,63053
27.91060,68163
27.91873,61324
27.92685,63897
27.93497,61557
27.94310,61809
27.95122,64473
27.95933,62518
27.96747,64027
27.97558,67956
27.98372,65300
27.99183,59387
27.99995,73303
28.00808,72439
28.01620,80186
28.02433,86873
28.03245,100549
28.04057,123877
28.04870,133752
28.05682,141418
28.06493,143406
28.07307,123358
28.08118,107318
28.08932,97088
28.09743,85206
28.10555,84334
28.11368,78765
28.12180,71517
28.12993,67223
28.13805,65290
28.14617,66306
28.15430,60313
28.16242,61807
28.17055,63953
28.17867,62442
28.18678,74045
28.19492,81526
28.20303,93494
28.21115,106286
28.21928,108823
28.22740,116343
28.23553,109158
28.24365,104553
28.25177,89543
28.25990,83307
28.26802,80460
28.27615,74083
28.28427,66490
28.29238,73141
28.30052,78633
28.30863,85061
28.31677,93251
28.32488,109309
28.33300,111729
28.34113,121040
28.34925,130940
28.35737,137120
28.36550,148555
28.37362,155320
28.38175,169417
28.38987,178382
28.39798,178908
28.40612,178545
28.41423,173985
28.42237,167006
28.43048,152915
28.43860,151170
28.44673,140409
28.45485,125419
28.46298,123663
28.47110,121486
28.47922,115941
28.48735,111912
28.49547,119836
28.50358,122652
28.51172,120517
28.51983,115224
28.52797,111905
28.53608,100124
28.54420,97799
28.55233,91013
28.56045,83176
28.56858,85833
28.57670,81921
28.58482,79397
28.59295,77526
28.60107,85135
28.60918,85900
28.61732,88454
28.62543,86660
28.63357,96113
28.64168,96786
28.64980,104123
28.65793,101920
28.66605,98914
28.67418,102598
28.68230,94807
28.69042,92085
28.69855,86536
28.70667,80479
28.71480,76277
28.72292,74432
28.73103,71596
28.73917,68983
28.74728,75061
28.75540,84991
28.76353,92632
28.77165,111142
28.77978,113934
28.78790,115241
28.79602,112832
28.80415,107680
28.81227,99344
28.82040,87510
28.82852,87972
28.83663,79881
28.84477,77584
28.85288,80012
28.86100,69119
28.86913,75782
28.87725,74981
28.88538,76284
28.89350,78370
28.90162,87996
28.90975,86189
28.91787,85414
28.92600,83794
28.93412,81421
28.94223,83208
28.95037,81114
28.95848,81043
28.96662,78712
28.97473,73301
28.98285,74755
28.99098,71380
28.99910,68471
29.00722,66473
29.01535,69452
29.02347,65290
29.03160,62722
29.03972,72311
29.04783,62452
29.05597,64548
29.06408,63848
29.07222,65487
29.08033,66413
29.08845,68316
29.09658,67211
29.10470,67576
29.11283,64889
29.12095,63870
29.12907,62475
29.13720,59775
29.14532,61802
29.15343,63066
29.16157,61641
29.16968,62649
29.17782,63926
29.18593,71202
29.19405,81191
29.20218,84279
29.21030,94855
29.21843,99516
29.22655,109272
29.23467,116520
29.24280,120090
29.25092,133305
29.25903,150530
29.26717,170063
29.27528,177078
29.28342,161739
29.29153,142403
29.29965,116417
29.30778,94254
29.31590,74814
29.32403,64513
29.33215,67265
29.34027,59130
29.34840,62552
29.35652,61118
29.36465,63365
29.37277,63891
29.38088,61496
29.38902,61928
29.39713,61334
29.40525,57615
29.41338,65303
29.42150,68659
29.42963,65603
29.43775,65472
29.44587,65762
29.45400,64234
29.46212,62530
29.47025,63082
29.47837,64287
29.48648,67709
29.49462,68744
29.50273,74487
29.51087,77362
29.51898,79317
29.52710,73807
29.53523,67849
29.54335,66511
29.55147,65574
29.55960,61882
29.56772,66955
29.57585,55240
29.58397,60841
29.59208,55781
29.60022,55634
29.60833,56995
29.61647,58022
29.62458,57234
29.63270,57546
29.64083,55189
29.64895,54996
29.65707,58003
29.66520,57759
29.67332,58119
29.68145,60540
29.68957,62313
29.69768,60711
29.70582,62576
29.71393,60814
29.72207,62951
29.73018,63134
29.73830,59535
29.74643,57599
29.75455,57366
29.76268,56066
29.77080,56486
29.77892,53139
29.78705,54626
29.79517,53765
29.80328,55776
29.81142,50676
29.81953,53376
29.82767,50074
29.83578,52907
29.84390,53081
29.85203,53680
29.86015,50611
29.86828,54020
29.87640,61210
29.88452,62692
29.89265,81761
29.90077,89851
29.90888,101018
29.91702,94734
29.92513,84340
29.93327,76137
29.94138,71510
29.94950,65169
29.95763,68514
29.96575,68630
29.97388,77664
29.98200,77997
29.99012,87572
29.99825,97593
30.00637,100277
30.01450,100388
30.02262,109995
30.03073,109425
30.03887,116726
30.04698,107132
30.05510,122009
30.06323,111800
30.07135,116592
30.07948,112731
30.08760,111769
30.09572,109942
30.10385,111291
30.11197,99526
30.12010,100337
30.12822,94486
30.13633,92663
30.14447,93764
30.15258,86438
30.16072,93002
30.16883,93068
30.17695,87805
30.18508,94778
30.19320,94236
30.20132,100143
30.20945,94873
30.21757,91921
30.22570,92758
30.23382,83676
30.24193,84050
30.25007,70040
30.25818,69543
30.26632,63301
30.27443,62408
30.28255,65509
30.29068,62227
30.29880,62239
30.30692,61192
30.31505,62287
30.32317,62813
30.33130,65676
30.33942,60975
30.34753,63669
30.35567,64698
30.36378,65223
30.37192,62986
30.38003,62611
30.38815,62319
30.39628,61969
30.40440,55808
30.41253,56942
30.42065,60966
30.42877,57210
30.43690,56296
30.44502,57742
30.45313,58003
30.46127,56743
30.46938,58772
30.47752,59132
30.48563,53252
30.49375,56466
30.50188,66573
30.51000,56326
30.51813,56848
30.52625,58334
30.53437,53525
30.54250,54627
30.55062,52758
30.55875,58104
30.56687,55761
30.57498,55947
30.58312,59762
30.59123,54588
30.59935,60702
30.60748,57197
30.61560,57599
30.62373,59582
30.63185,55060
30.63997,55551
30.64810,52682
30.65622,52659
30.66435,58262
30.67247,53628
30.68058,51234
30.68872,50051
30.69683,47535
30.70495,50041
30.71308,53308
30.72120,56105
30.72933,55547
30.73745,52799
30.74557,53941
30.75370,54167
30.76182,54708
30.76995,60854
30.77807,61972
30.78618,70869
30.79432,77522
30.80243,95409
30.81057,106197
30.81868,114314
30.82680,110472
30.83493,108639
30.84305,88748
30.85117,85729
30.85930,72177
30.86742,72466
30.87555,75162
30.88367,71191
30.89178,69226
30.89992,75104
30.90803,68581
30.91617,65931
30.92428,63852
30.93240,57744
30.94053,60840
30.94865,62356
30.95678,58155
30.96490,59967
30.97302,60212
30.98115,59422
30.98927,58160
30.99738,55127
31.00552,58688
31.01363,54973
31.02177,53273
31.02988,52244
31.03800,59159
31.04613,60728
31.05425,62119
31.06238,60767
31.07050,60507
31.07862,68833
31.08675,73973
31.09487,82289
31.10298,90752
31.11112,101489
31.11923,102175
31.12737,100267
31.13548,86866
31.14360,81709
31.15173,82215
31.15985,82167
31.16798,85033
31.17610,89946
31.18422,98790
31.19235,114236
31.20047,141603
31.20860,180922
31.21672,208291
31.22483,249912
31.23297,249384
31.24108,244154
31.24920,211426
31.25733,157500
31.26545,129745
31.27358,105498
31.28170,87430
31.28982,87124
31.29795,79198
31.30607,79336
31.31420,76250
31.32232,73800
31.33043,73044
31.33857,71439
31.34668,74521
31.35480,73392
31.36293,74355
31.37105,73707
31.37918,70560
31.38730,71987
31.39542,73077
31.40355,74606
31.41167,71855
31.41980,73911
31.42792,70683
31.43603,70352
31.44417,68309
31.45228,65526
31.46042,73189
31.46853,69091
31.47665,70299
31.48478,68041
31.49290,70733
31.50102,73803
31.50915,74078
31.51727,77479
31.52540,83930
31.53352,76884
31.54163,75878
31.54977,77873
31.55788,72823
31.56602,72080
31.57413,70344
31.58225,67846
31.59038,65231
31.59850,70346
31.60663,66811
31.61475,63078
31.62287,70546
31.63100,60428
31.63912,65903
31.64723,65282
31.65537,67193
31.66348,67974
31.67162,70605
31.67973,73709
31.68785,72524
31.69598,71209
31.70410,69406
31.71223,68500
31.72035,64058
31.72847,61518
31.73660,59436
31.74472,60752
31.75283,60665
31.76097,57646
31.76908,59606
31.77722,60256
31.78533,64092
31.79345,60584
31.80158,58456
31.80970,68228
31.81783,65838
31.82595,66646
31.83407,66879
31.84220,63720
31.85032,68624
31.85845,66257
31.86657,67664
31.87468,76065
31.88282,79934
31.89093,74713
31.89905,79975
31.90718,75938
31.91530,81582
31.92343,81539
31.93155,85540
31.93967,91646
31.94780,95583
31.95592,103803
31.96405,111454
31.97217,120688
31.98028,121653
31.98842,130401
31.99653,132853
32.00467,135654
32.01278,130041
32.02090,123723
32.02903,126231
32.03715,115725
32.04527,112109
32.05340,110639
32.06152,106276
32.06965,101854
32.07777,100545
32.08588,102950
32.09402,99915
32.10213,94077
32.11027,96790
32.11838,89877
32.12650,82043
32.13463,78450
32.14275,80518
32.15087,74308
32.15900,76303
32.16712,74414
32.17525,74728
32.18337,79036
32.19148,76220
32.19962,75055
32.20773,70710
32.21587,74021
32.22398,74216
32.23210,75475
32.24023,73860
32.24835,74252
32.25648,75106
32.26460,75367
32.27272,77961
32.28085,80956
32.28897,73819
32.29708,69849
32.30522,74722
32.31333,68777
32.32147,66450
32.32958,68365
32.33770,71332
32.34583,70981
32.35395,73927
32.36208,70076
32.37020,66720
32.37832,73600
32.38645,73140
32.39457,67749
32.40268,68144
32.41082,68814
32.41893,65993
32.42707,72167
32.43518,62883
32.44330,62542
32.45143,63135
32.45955,61676
32.46768,63708
32.47580,61338
32.48392,59021
32.49205,60699
32.50017,65548
32.50830,65406
32.51642,65050
32.52453,64416
32.53267,66965
32.54078,69344
32.54890,64203
32.55703,64787
32.56515,65000
32.57328,63893
32.58140,61723
32.58952,60056
32.59765,62072
32.60577,58571
32.61390,58627
32.62202,61167
32.63013,59815
32.63827,61346
32.64638,67773
32.65452,67584
32.66263,78136
32.67075,86941
32.67888,86989
32.68700,92314
32.69512,89731
32.70325,82465
32.71137,81909
32.71950,72099
32.72762,70916
32.73573,70222
32.74387,69107
32.75198,70805
32.76012,65652
32.76823,63289
32.77635,64461
32.78448,61220
32.79260,59403
32.80072,59248
32.80885,63842
32.81697,58764
32.82510,61660
32.83322,60377
32.84133,59334
32.84947,61885
32.85758,63971
32.86572,64261
32.87383,64599
32.88195,67297
32.89008,70541
32.89820,77684
32.90633,76081
32.91445,78470
32.92257,81574
32.93070,74408
32.93882,71700
32.94693,69559
32.95507,67697
32.96318,62178
32.97132,66088
32.97943,67083
32.98755,76754
32.99568,81457
33.00380,89211
33.01193,89102
33.02005,94425
33.02817,81373
33.03630,81968
33.04442,71557
33.05255,72610
33.06067,68065
33.06878,83030
33.07692,89677
33.08503,93932
33.09315,100999
33.10128,111066
33.10940,120187
33.11753,117968
33.12565,123773
33.13377,112364
33.14190,104486
33.15002,97122
33.15815,83532
33.16627,77910
33.17438,69725
33.18252,71333
33.19063,70441
33.19875,67420
33.20688,71404
33.21500,72980
33.22313,73128
33.23125,74944
33.23937,74155
33.24750,74093
33.25562,73119
33.26375,72130
33.27187,68562
33.27998,65889
33.28812,66241
33.29623,68812
33.30437,68840
33.31248,74819
33.32060,70256
33.32873,70696
33.33685,73184
33.34497,71685
33.35310,74072
33.36122,76771
33.36935,77412
33.37747,70456
33.38558,70411
33.39372,71075
33.40183,72168
33.40997,63114
33.41808,64077
33.42620,58022
33.43433,61310
33.44245,61258
33.45057,66393
33.45870,61155
33.46682,66117
33.47495,64374
33.48307,58668
33.49118,60443
33.49932,65862
33.50743,64890
33.51557,66885
33.52368,70120
33.53180,71663
33.53993,72988
33.54805,74515
33.55618,70062
33.56430,74881
33.57242,74270
33.58055,77508
33.58867,73090
33.59678,66427
33.60492,65243
33.61303,63741
33.62117,63729
33.62928,64062
33.63740,69285
33.64553,70942
33.65365,73961
33.66178,76066
33.66990,68199
33.67802,76501
33.68615,72909
33.69427,72415
33.70240,64369
33.71052,64229
33.71863,68168
33.72677,60343
33.73488,59275
33.74300,61102
33.75113,66200
33.75925,61694
33.76738,65282
33.77550,62083
33.78362,55077
33.79175,60448
33.79987,57914
33.80800,63601
33.81612,63979
33.82423,61683
33.83237,65043
33.84048,64275
33.84862,68995
33.85673,70819
33.86485,71226
33.87298,68303
33.88110,67655
33.88922,68182
33.89735,67908
33.90547,67618
33.91360,63168
33.92172,69991
33.92983,75728
33.93797,65984
33.94608,65409
33.95422,65996
33.96233,71528
33.97045,65270
33.97858,62991
33.98670,61360
33.99482,66667
34.00295,68637
34.01107,66695
34.01920,65807
34.02732,62880
34.03543,65899
34.04357,66363
34.05168,67697
34.05982,71709
34.06793,66449
34.07605,67336
34.08418,63782
34.09230,65159
34.10043,65835
34.10855,65521
34.11667,68001
34.12480,64698
34.13292,75578
34.14103,68615
34.14917,72102
34.15728,72008
34.16542,73692
34.17353,76077
34.18165,73536
34.18978,76530
34.19790,77179
34.20603,81964
34.21415,81687
34.22227,79743
34.23040,81243
34.23852,82533
34.24663,80296
34.25477,85072
34.26288,81733
34.27102,83961
34.27913,80820
34.28725,81398
34.29538,75828
34.30350,81403
34.31163,80702
34.31975,84001
34.32787,82242
34.33600,81189
34.34412,74588
34.35225,80783
34.36037,87102
34.36848,82104
34.37662,86336
34.38473,80456
34.39285,80203
34.40098,79465
34.40910,71853
34.41723,75743
34.42535,78858
34.43347,74377
34.44160,74919
34.44972,73389
34.45785,74165
34.46597,77722
34.47408,77737
34.48222,70633
34.49033,74057
34.49847,77742
34.50658,76655
34.51470,83153
34.52283,92444
34.53095,96723
34.53907,119256
34.54720,128094
34.55532,144168
34.56345,147467
34.57157,145574
34.57968,137896
34.58782,136625
34.59593,128915
34.60407,121576
34.61218,113938
34.62030,104479
34.62843,100242
34.63655,94860
34.64467,94831
34.65280,93100
34.66092,93430
34.66905,93665
34.67717,88722
34.68528,87234
34.69342,88177
34.70153,84806
34.70967,83131
34.71778,80161
34.72590,80053
34.73403,77777
34.74215,82601
34.75028,79515
34.75840,79250
34.76652,79102
34.77465,76721
34.78277,83096
34.79088,82939
34.79902,77138
34.80713,80643
34.81527,79201
34.82338,76172
34.83150,79286
34.83963,75490
34.84775,79750
34.85588,81579
34.86400,77877
34.87212,74282
34.88025,81294
34.88837,74911
34.89650,78836
34.90462,78089
34.91273,81419
34.92087,84171
34.92898,83255
34.93710,86575
34.94523,90755
34.95335,89978
34.96148,99061
34.96960,91594
34.97772,91353
34.98585,97968
34.99397,95664
35.00210,98931
35.01022,94394
35.01833,94428
35.02647,88032
35.03458,86403
35.04270,82732
35.05083,90922
35.05895,83891
35.06708,88086
35.07520,83274
35.08332,82962
35.09145,86184
35.09957,83789
35.10770,81163
35.11582,86847
35.12393,77590
35.13207,77885
35.14018,80867
35.14832,76329
35.15643,80175
35.16455,79086
35.17268,78505
35.18080,77716
35.18892,70831
35.19705,68442
35.20517,70319
35.21330,71845
35.22142,73770
35.22953,69973
35.23767,68092
35.24578,67077
35.25392,74115
35.26203,74237
35.27015,75354
35.27828,77586
35.28640,79653
35.29452,77668
35.30265,74637
35.31077,70355
35.31890,73525
35.32702,71393
35.33513,68130
35.34327,65083
35.35138,71663
35.35952,69231
35.36763,71531
35.37575,72247
35.38388,73893
35.39200,81019
35.40013,80577
35.40825,88132
35.41637,95387
35.42450,98380
35.43262,102578
35.44073,97383
35.44887,100793
35.45698,99038
35.46512,88375
35.47323,91028
35.48135,84155
35.48948,90981
35.49760,79320
35.50573,75971
35.51385,81549
35.52197,72720
35.53010,69538
35.53822,73751
35.54635,69352
35.55447,71422
35.56258,77874
35.57072,70625
35.57883,68430
35.58695,70139
35.59508,75044
35.60320,68210
35.61133,71599
35.61945,73156
35.62757,65923
35.63570,75834
35.64382,67218
35.65195,70502
35.66007,70172
35.66818,73722
35.67632,76121
35.68443,81027
35.69255,83379
35.70068,81536
35.70880,85347
35.71693,82322
35.72505,73918
35.73317,78362
35.74130,82161
35.74942,85499
35.75755,91359
35.76567,95436
35.77378,91584
35.78192,92989
35.79003,93107
35.79817,90215
35.80628,78789
35.81440,78895
35.82253,79200
35.83065,75148
35.83877,77178
35.84690,80580
35.85502,78555
35.86315,76594
35.87127,82387
35.87938,78273
35.88752,73470
35.89563,70113
35.90377,76064
35.91188,76578
35.92000,75884
35.92813,74895
35.93625,73515
35.94438,68035
35.95250,70343
35.96062,71533
35.96875,73856
35.97687,73436
35.98498,72490
35.99312,76431
36.00123,78195
36.00937,77704
36.01748,81026
36.02560,83068
36.03373,79241
36.04185,89536
36.04998,84063
36.05810,81595
36.06622,76081
36.07435,77528
36.08247,77239
36.09058,72662
36.09872,78149
36.10683,74955
36.11497,78368
36.12308,79089
36.13120,78754
36.13933,84847
36.14745,81674
36.15558,84902
36.16370,82780
36.17182,78653
36.17995,79254
36.18807,80438
36.19620,78815
36.20432,77237
36.21243,71930
36.22057,77667
36.22868,79324
36.23680,75535
36.24493,73560
36.25305,71946
36.26118,71268
36.26930,78242
36.27742,74349
36.28555,77240
36.29367,82172
36.30180,81353
36.30992,97778
36.31803,92023
36.32617,103669
36.33428,93631
36.34242,90021
36.35053,93204
36.35865,83819
36.36678,84104
36.37490,78253
36.38302,83195
36.39115,84218
36.39927,85401
36.40740,74485
36.41552,83619
36.42363,76740
36.43177,80446
36.43988,81288
36.44802,77805
36.45613,76106
36.46425,79899
36.47238,74359
36.48050,77524
36.48862,75255
36.49675,75727
36.50487,72387
36.51300,71543
36.52112,76680
36.52923,81833
36.53737,78971
36.54548,80992
36.55362,76180
36.56173,73835
36.56985,76992
36.57798,77821
36.58610,71751
36.59423,76282
36.60235,76275
36.61047,76746
36.61860,77068
36.62672,82291
36.63483,75976
36.64297,81694
36.65108,85504
36.65922,87806
36.66733,87568
36.67545,84455
36.68358,86892
36.69170,85336
36.69983,77958
36.70795,81979
36.71607,78388
36.72420,83689
36.73232,84457
36.74043,80486
36.74857,83212
36.75668,83081
36.76482,83171
36.77293,81423
36.78105,82987
36.78918,84862
36.79730,82875
36.80543,82293
36.81355,74262
36.82167,81632
36.82980,74440
36.83792,79822
36.84605,77473
36.85417,76769
36.86228,80008
36.87042,89126
36.87853,83017
36.88665,76639
36.89478,88281
36.90290,80911
36.91103,76780
36.91915,77810
36.92727,83002
36.93540,84499
36.94352,86729
36.95165,89962
36.95977,95029
36.96788,89737
36.97602,98645
36.98413,99857
36.99227,94326
37.00038,83709
37.00850,87906
37.01663,86810
37.02475,83649
37.03287,81580
37.04100,79921
37.04912,81422
37.05725,80248
37.06537,87601
37.07348,86802
37.08162,88285
37.08973,89443
37.09787,91825
37.10598,87410
37.11410,89015
37.12223,87822
37.13035,93431
37.13847,89590
37.14660,86029
37.15472,86763
37.16285,86917
37.17097,89030
37.17908,81099
37.18722,80525
37.19533,84095
37.20347,82351
37.21158,82773
37.21970,85534
37.22783,83170
37.23595,85567
37.24408,79841
37.25220,82351
37.26032,82028
37.26845,80074
37.27657,78954
37.28468,86415
37.29282,85932
37.30093,81820
37.30907,82627
37.31718,85813
37.32530,90418
37.33343,95361
37.34155,102091
37.34968,116763
37.35780,122128
37.36592,123763
37.37405,122144
37.38217,132164
37.39030,114340
37.39842,115044
37.40653,112324
37.41467,108704
37.42278,107112
37.43090,107350
37.43903,110612
37.44715,110269
37.45528,96525
37.46340,102466
37.47152,102955
37.47965,103063
37.48777,97805
