C:\MassHunter\GCMS\1\data\JTB-E18\JTB-E18-035-09.D Wed Oct 16 15:34:25 2019
Start of data points
2.09525,214232
2.10338,203219
2.11150,200183
2.11963,194840
2.12775,184839
2.13587,178904
2.14400,173125
2.15212,163054
2.16023,163497
2.16837,165547
2.17648,156900
2.18462,154963
2.19273,146363
2.20085,140676
2.20898,143306
2.21710,140818
2.22523,140231
2.23335,133952
2.24147,132004
2.24960,130437
2.25772,127433
2.26583,176784
2.27397,1093394
2.28208,2841846
2.29022,1702518
2.29833,764758
2.30645,564298
2.31458,468347
2.32270,415527
2.33083,366431
2.33895,340963
2.34707,300952
2.35520,286877
2.36332,258499
2.37145,253493
2.37957,247418
2.38768,268841
2.39582,249843
2.40393,221960
2.41205,218105
2.42018,243510
2.42830,306071
2.43643,268184
2.44455,237650
2.45267,229237
2.46080,208224
2.46892,187936
2.47705,191505
2.48517,177665
2.49328,205409
2.50142,204335
2.50953,179859
2.51765,178815
2.52578,168746
2.53390,168076
2.54203,165367
2.55015,164448
2.55827,208751
2.56640,227481
2.57452,183097
2.58265,168583
2.59077,166039
2.59888,157781
2.60702,163816
2.61513,189952
2.62327,197023
2.63138,183646
2.63950,175186
2.64763,158494
2.65575,154686
2.66387,153892
2.67200,156184
2.68012,172179
2.68825,182171
2.69637,159218
2.70448,146108
2.71262,148917
2.72073,144535
2.72887,134033
2.73698,138782
2.74510,142179
2.75323,129735
2.76135,130520
2.76948,134304
2.77760,136551
2.78572,167921
2.79385,192703
2.80197,166035
2.81008,160244
2.81822,196469
2.82633,284635
2.83447,475605
2.84258,491639
2.85070,332589
2.85883,256257
2.86695,228267
2.87508,222293
2.88320,190526
2.89132,180093
2.89945,162136
2.90757,152261
2.91568,152608
2.92382,145628
2.93193,143331
2.94007,139282
2.94818,135296
2.95630,136963
2.96443,125985
2.97255,128242
2.98068,128908
2.98880,132683
2.99692,138423
3.00505,141439
3.01317,146461
3.02130,165516
3.02942,290299
3.03753,583069
3.04567,851112
3.05378,2234062
3.06190,6112594
3.07003,7237280
3.07815,4559825
3.08628,2505324
3.09440,1787760
3.10252,2167258
3.11065,3948166
3.11877,4469505
3.12690,2983745
3.13502,1955424
3.14313,1495798
3.15127,1189180
3.15938,984685
3.16752,871669
3.17563,853684
3.18375,894295
3.19188,1407352
3.20000,1981453
3.20812,1648058
3.21625,1170787
3.22437,936171
3.23250,791273
3.24062,680552
3.24873,587361
3.25687,505861
3.26498,455367
3.27312,417304
3.28123,412864
3.28935,624519
3.29748,1311350
3.30560,2354374
3.31372,2886479
3.32185,2483842
3.32997,1851526
3.33810,1425280
3.34622,1165922
3.35433,1003466
3.36247,889616
3.37058,875339
3.37872,1018747
3.38683,1156411
3.39495,1051265
3.40308,1092752
3.41120,1897669
3.41933,3099706
3.42745,2970635
3.43557,1927278
3.44370,1213903
3.45182,926997
3.45993,812027
3.46807,729816
3.47618,676998
3.48432,613170
3.49243,578338
3.50055,539993
3.50868,500154
3.51680,475751
3.52493,450173
3.53305,443466
3.54117,430344
3.54930,432354
3.55742,409412
3.56553,382550
3.57367,372215
3.58178,362196
3.58992,339737
3.59803,336199
3.60615,334838
3.61428,363323
3.62240,570139
3.63053,1188688
3.63865,1946241
3.64677,1918094
3.65490,1342804
3.66302,1025640
3.67115,1784201
3.67927,3944195
3.68738,5227305
3.69552,4142356
3.70363,2695537
3.71175,2022773
3.71988,1646161
3.72800,1400664
3.73613,1223942
3.74425,1060530
3.75237,983905
3.76050,897223
3.76862,866614
3.77675,835316
3.78487,800659
3.79298,754313
3.80112,735666
3.80923,952013
3.81737,1416665
3.82548,1608134
3.83360,1296827
3.84173,998815
3.84985,833522
3.85797,735863
3.86610,658613
3.87422,599220
3.88235,547831
3.89047,521579
3.89858,487317
3.90672,467258
3.91483,461188
3.92297,530874
3.93108,626811
3.93920,650036
3.94733,573040
3.95545,517051
3.96357,539327
3.97170,556773
3.97982,521214
3.98795,457321
3.99607,457084
4.00418,682974
4.01232,1224884
4.02043,1602434
4.02857,1397807
4.03668,975595
4.04480,696979
4.05293,553856
4.06105,455326
4.06918,419620
4.07730,381069
4.08542,354792
4.09355,319313
4.10167,315054
4.10978,297378
4.11792,281515
4.12603,276429
4.13417,297517
4.14228,379410
4.15040,539443
4.15853,632943
4.16665,567150
4.17478,446729
4.18290,366591
4.19102,315879
4.19915,296786
4.20727,379920
4.21540,1300435
4.22352,5008209
4.23163,1.170478E+07
4.23977,1.781859E+07
4.24788,1.901938E+07
4.25600,1.377902E+07
4.26413,7571614
4.27225,4527383
4.28038,3150380
4.28850,2297707
4.29662,1762797
4.30475,1402624
4.31287,1182935
4.32100,1024858
4.32912,874995
4.33723,774196
4.34537,731816
4.35348,674705
4.36160,656052
4.36973,623626
4.37785,576118
4.38598,530757
4.39410,508170
4.40222,460743
4.41035,452120
4.41847,433013
4.42660,418866
4.43472,389455
4.44283,384622
4.45097,387152
4.45908,385629
4.46722,367989
4.47533,356142
4.48345,342041
4.49158,324458
4.49970,326601
4.50782,313096
4.51595,296982
4.52407,293730
4.53220,291484
4.54032,287805
4.54843,282767
4.55657,286322
4.56468,278638
4.57282,272472
4.58093,257596
4.58905,253993
4.59718,248369
4.60530,250688
4.61343,244555
4.62155,255534
4.62967,319218
4.63780,421065
4.64592,493987
4.65403,500496
4.66217,425653
4.67028,349665
4.67842,312560
4.68653,293559
4.69465,270578
4.70278,254699
4.71090,245881
4.71903,236428
4.72715,232305
4.73527,222419
4.74340,219957
4.75152,217029
4.75963,205463
4.76777,207490
4.77588,205604
4.78402,205006
4.79213,222331
4.80025,285027
4.80838,380835
4.81650,399466
4.82463,360973
4.83275,315500
4.84087,291685
4.84900,292619
4.85712,275222
4.86525,258630
4.87337,251312
4.88148,239849
4.88962,230361
4.89773,220024
4.90585,217937
4.91398,222243
4.92210,260964
4.93023,372476
4.93835,586076
4.94647,801149
4.95460,899797
4.96272,830449
4.97085,686866
4.97897,571797
4.98708,486947
4.99522,439455
5.00333,405467
5.01145,375843
5.01958,390901
5.02770,494319
5.03583,752891
5.04395,1075309
5.05207,1181271
5.06020,1055142
5.06832,856465
5.07645,729202
5.08457,629455
5.09268,576768
5.10082,541466
5.10893,556010
5.11707,550187
5.12518,561028
5.13330,492763
5.14143,460490
5.14955,417705
5.15767,402343
5.16580,429176
5.17392,456420
5.18205,477192
5.19017,498326
5.19828,476578
5.20642,457558
5.21453,422378
5.22267,397065
5.23078,372843
5.23890,384243
5.24703,366227
5.25515,352333
5.26328,314061
5.27140,288123
5.27952,278195
5.28765,263452
5.29577,274671
5.30388,248443
5.31202,244869
5.32013,230931
5.32827,237393
5.33638,235233
5.34450,250017
5.35263,238117
5.36075,233240
5.36888,229807
5.37700,218529
5.38512,218835
5.39325,215560
5.40137,221067
5.40948,215434
5.41762,210785
5.42573,211091
5.43387,198969
5.44198,191005
5.45010,196923
5.45823,200637
5.46635,191728
5.47448,187693
5.48260,187164
5.49072,180740
5.49885,179200
5.50697,174411
5.51510,185965
5.52322,192767
5.53133,181002
5.53947,181993
5.54758,174889
5.55570,177054
5.56383,185973
5.57195,192762
5.58008,196074
5.58820,209341
5.59632,193605
5.60445,187745
5.61257,186002
5.62070,182597
5.62882,180926
5.63693,185015
5.64507,184076
5.65318,182721
5.66132,177751
5.66943,175661
5.67755,178701
5.68568,194349
5.69380,225638
5.70192,236282
5.71005,238439
5.71817,240905
5.72630,242033
5.73442,230726
5.74253,230152
5.75067,217655
5.75878,216906
5.76692,231972
5.77503,227292
5.78315,221248
5.79128,220175
5.79940,211415
5.80752,257386
5.81565,390406
5.82377,621719
5.83190,901145
5.84002,1043065
5.84813,956999
5.85627,724379
5.86438,512405
5.87252,388358
5.88063,309639
5.88875,269759
5.89688,238809
5.90500,236249
5.91313,273444
5.92125,336900
5.92937,431624
5.93750,499741
5.94562,476009
5.95373,410109
5.96187,352262
5.96998,324849
5.97812,316373
5.98623,319868
5.99435,332264
6.00248,318762
6.01060,278957
6.01873,250263
6.02685,210782
6.03497,199225
6.04310,180709
6.05122,168287
6.05933,168433
6.06747,166488
6.07558,150621
6.08372,152763
6.09183,147334
6.09995,139254
6.10808,136417
6.11620,144093
6.12433,158159
6.13245,189786
6.14057,269587
6.14870,346709
6.15682,369524
6.16495,341635
6.17307,287512
6.18118,257352
6.18932,234342
6.19743,228724
6.20555,228559
6.21368,226292
6.22180,213374
6.22993,210491
6.23805,197585
6.24617,196378
6.25430,188859
6.26242,188424
6.27055,191260
6.27867,192037
6.28678,191529
6.29492,196226
6.30303,194481
6.31117,187142
6.31928,188072
6.32740,219037
6.33553,229258
6.34365,248326
6.35177,251954
6.35990,241113
6.36802,234663
6.37615,230611
6.38427,221374
6.39238,209636
6.40052,217380
6.40863,212444
6.41677,212862
6.42488,216053
6.43300,218959
6.44113,218695
6.44925,217781
6.45737,225370
6.46550,228339
6.47362,232390
6.48175,232628
6.48987,224397
6.49798,231820
6.50612,231041
6.51423,234979
6.52237,229074
6.53048,232612
6.53860,243278
6.54673,244140
6.55485,243439
6.56298,242555
6.57110,242728
6.57922,256695
6.58735,256592
6.59547,257569
6.60358,255815
6.61172,250912
6.61983,246924
6.62797,255230
6.63608,252135
6.64420,243101
6.65233,271260
6.66045,328111
6.66858,431889
6.67670,511331
6.68482,518880
6.69295,511262
6.70107,486742
6.70920,439682
6.71732,378246
6.72543,330948
6.73357,312407
6.74168,288768
6.74980,285011
6.75793,268233
6.76605,269665
6.77418,282060
6.78230,345139
6.79042,404473
6.79855,548877
6.80667,699103
6.81480,696128
6.82292,571538
6.83103,398064
6.83917,271662
6.84728,194624
6.85540,169844
6.86353,145270
6.87165,128605
6.87978,121835
6.88790,118413
6.89602,108390
6.90415,100775
6.91227,108249
6.92040,118311
6.92852,150725
6.93663,188168
6.94477,232075
6.95288,242405
6.96102,235182
6.96913,205455
6.97725,173632
6.98538,148935
6.99350,133457
7.00162,121002
7.00975,109391
7.01787,101760
7.02600,97580
7.03412,92669
7.04223,92486
7.05037,92087
7.05848,86060
7.06662,79674
7.07473,85170
7.08285,77535
7.09098,77668
7.09910,70442
7.10722,76105
7.11535,77897
7.12347,71973
7.13160,75024
7.13972,78613
7.14783,82602
7.15597,98045
7.16408,120205
7.17222,127736
7.18033,136106
7.18845,133984
7.19658,128076
7.20470,116526
7.21283,119830
7.22095,160584
7.22907,301656
7.23720,663841
7.24532,1163630
7.25343,1462185
7.26157,1326434
7.26968,887735
7.27782,531380
7.28593,354739
7.29405,292763
7.30218,286412
7.31030,291202
7.31843,266358
7.32655,241524
7.33467,209929
7.34280,169234
7.35092,147108
7.35905,121316
7.36717,114244
7.37528,108971
7.38342,105054
7.39153,105075
7.39965,121778
7.40778,133502
7.41590,145760
7.42403,151097
7.43215,145566
7.44027,133150
7.44840,121601
7.45652,112076
7.46465,104177
7.47277,95024
7.48088,89015
7.48902,87229
7.49713,82181
7.50527,82840
7.51338,93777
7.52150,90893
7.52963,105604
7.53775,121860
7.54587,126548
7.55400,133656
7.56212,133954
7.57025,114930
7.57837,99237
7.58648,91056
7.59462,85290
7.60273,79156
7.61087,84175
7.61898,85892
7.62710,73579
7.63523,78875
7.64335,79445
7.65147,69690
7.65960,69576
7.66772,70150
7.67585,73666
7.68397,66492
7.69208,68041
7.70022,67074
7.70833,70770
7.71647,70570
7.72458,68841
7.73270,71083
7.74083,70153
7.74895,64856
7.75708,67900
7.76520,66131
7.77332,63532
7.78145,72120
7.78957,69019
7.79768,67934
7.80582,66526
7.81393,70270
7.82207,66266
7.83018,66987
7.83830,64337
7.84643,65325
7.85455,62487
7.86268,68977
7.87080,65204
7.87892,65940
7.88705,64712
7.89517,64434
7.90328,61335
7.91142,62721
7.91953,65331
7.92767,69510
7.93578,74404
7.94390,89766
7.95203,96309
7.96015,94007
7.96828,85384
7.97640,83477
7.98452,71183
7.99265,71826
8.00077,62543
8.00890,59374
8.01702,58941
8.02513,61500
8.03327,60369
8.04138,63971
8.04950,59209
8.05763,56636
8.06575,57070
8.07388,54725
8.08200,57980
8.09012,55402
8.09825,57151
8.10637,53675
8.11450,54718
8.12262,58286
8.13073,57594
8.13887,56228
8.14698,63304
8.15512,66246
8.16323,54310
8.17135,67206
8.17948,59049
8.18760,56956
8.19572,58240
8.20385,55651
8.21197,57732
8.22010,57151
8.22822,54700
8.23633,55311
8.24447,55097
8.25258,54114
8.26072,54440
8.26883,53541
8.27695,56992
8.28508,56979
8.29320,49655
8.30132,52485
8.30945,54082
8.31757,56149
8.32570,59843
8.33382,54487
8.34193,52168
8.35007,50432
8.35818,49684
8.36632,48634
8.37443,51974
8.38255,53215
8.39068,52314
8.39880,48877
8.40693,49612
8.41505,53740
8.42317,50980
8.43130,47977
8.43942,48568
8.44753,50612
8.45567,46747
8.46378,50108
8.47192,47268
8.48003,47972
8.48815,50629
8.49628,50686
8.50440,48807
8.51253,51770
8.52065,51364
8.52877,56054
8.53690,77999
8.54502,125264
8.55315,189620
8.56127,239161
8.56938,249371
8.57752,212689
8.58563,154907
8.59375,103831
8.60188,84240
8.61000,67254
8.61813,68201
8.62625,65621
8.63437,57375
8.64250,55578
8.65062,53970
8.65875,54343
8.66687,56059
8.67498,55212
8.68312,55108
8.69123,54938
8.69935,56377
8.70748,52866
8.71560,61279
8.72373,78714
8.73185,114724
8.73997,148370
8.74810,185263
8.75622,181463
8.76435,157213
8.77247,132214
8.78058,106328
8.78872,92565
8.79683,82890
8.80497,81272
8.81308,74177
8.82120,79062
8.82933,83414
8.83745,85275
8.84557,86412
8.85370,84581
8.86182,82887
8.86995,82077
8.87807,74868
8.88618,73985
8.89432,74864
8.90243,71912
8.91057,77458
8.91868,72901
8.92680,69400
8.93493,76661
8.94305,74627
8.95117,83664
8.95930,81001
8.96742,81408
8.97555,76438
8.98367,74298
8.99178,75643
8.99992,72314
9.00803,65485
9.01617,67527
9.02428,67369
9.03240,67408
9.04053,67111
9.04865,63293
9.05678,64858
9.06490,61358
9.07302,58446
9.08115,58671
9.08927,65388
9.09738,62403
9.10552,65532
9.11363,67945
9.12177,66202
9.12988,66201
9.13800,61888
9.14613,59182
9.15425,58278
9.16238,57513
9.17050,54670
9.17862,53050
9.18675,49604
9.19487,56197
9.20300,55342
9.21112,52826
9.21923,57038
9.22737,55687
9.23548,52593
9.24360,54915
9.25173,54000
9.25985,51344
9.26798,54818
9.27610,55270
9.28422,55612
9.29235,53996
9.30047,51472
9.30860,56336
9.31672,49653
9.32483,55146
9.33297,53056
9.34108,56630
9.34920,53646
9.35733,54743
9.36545,52671
9.37358,54563
9.38170,54645
9.38982,51050
9.39795,55615
9.40607,52483
9.41420,55202
9.42232,56621
9.43043,61720
9.43857,61442
9.44668,63103
9.45482,54338
9.46293,55227
9.47105,52587
9.47918,49769
9.48730,51021
9.49542,48195
9.50355,49981
9.51167,53240
9.51980,51371
9.52792,55567
9.53603,50028
9.54417,45525
9.55228,41420
9.56042,40604
9.56853,38087
9.57665,38202
9.58478,37679
9.59290,38033
9.60103,37744
9.60915,34466
9.61727,32997
9.62540,35449
9.63352,40060
9.64163,39519
9.64977,38153
9.65788,35629
9.66602,37040
9.67413,40752
9.68225,32049
9.69038,35747
9.69850,35029
9.70663,35491
9.71475,33979
9.72287,33589
9.73100,36814
9.73912,30822
9.74723,33084
9.75537,34118
9.76348,32928
9.77162,30215
9.77973,30877
9.78785,29157
9.79598,32692
9.80410,33189
9.81223,34450
9.82035,29500
9.82847,31789
9.83660,35090
9.84472,37755
9.85285,29085
9.86097,33894
9.86908,38423
9.87722,33501
9.88533,36626
9.89345,34063
9.90158,33812
9.90970,32949
9.91783,37799
9.92595,36250
9.93407,39052
9.94220,49772
9.95032,51662
9.95845,59808
9.96657,60238
9.97468,56580
9.98282,51037
9.99093,47947
9.99907,42385
10.00718,39908
10.01530,37591
10.02343,37970
10.03155,38503
10.03967,32487
10.04780,35795
10.05592,38219
10.06405,35270
10.07217,33525
10.08028,37468
10.08842,34582
10.09653,36055
10.10467,37195
10.11278,31644
10.12090,34640
10.12903,35046
10.13715,35439
10.14527,32125
10.15340,34811
10.16152,36550
10.16965,35506
10.17777,31761
10.18588,31902
10.19402,30819
10.20213,29801
10.21027,33676
10.21838,34814
10.22650,34467
10.23463,36906
10.24275,38951
10.25088,41080
10.25900,43860
10.26712,70528
10.27525,140966
10.28337,294790
10.29148,613647
10.29962,1077199
10.30773,1697218
10.31587,2595138
10.32398,4025567
10.33210,5663306
10.34023,6762651
10.34835,6335623
10.35648,4734200
10.36460,2857231
10.37272,1515611
10.38085,860990
10.38897,531292
10.39708,365991
10.40522,279812
10.41333,230333
10.42147,192276
10.42958,168932
10.43770,153073
10.44583,138862
10.45395,133585
10.46208,122442
10.47020,122241
10.47832,112221
10.48645,106360
10.49457,103025
10.50270,98911
10.51082,93956
10.51893,88088
10.52707,79244
10.53518,83057
10.54330,78589
10.55143,76334
10.55955,71925
10.56768,70368
10.57580,77779
10.58392,69764
10.59205,68743
10.60017,69274
10.60830,66270
10.61642,67836
10.62453,60716
10.63267,60701
10.64078,59446
10.64892,61970
10.65703,57652
10.66515,61088
10.67328,60224
10.68140,57107
10.68952,55083
10.69765,59020
10.70577,55319
10.71390,52743
10.72202,52906
10.73013,53603
10.73827,50861
10.74638,50767
10.75452,57122
10.76263,55862
10.77075,51358
10.77888,44531
10.78700,46215
10.79512,45973
10.80325,46863
10.81137,47274
10.81950,45856
10.82762,48772
10.83573,42733
10.84387,44300
10.85198,42600
10.86012,41476
10.86823,47023
10.87635,41041
10.88448,40275
10.89260,43115
10.90073,41900
10.90885,39829
10.91697,38748
10.92510,41035
10.93322,40658
10.94133,39428
10.94947,42872
10.95758,46454
10.96572,38632
10.97383,38706
10.98195,37259
10.99008,40077
10.99820,35786
11.00633,40772
11.01445,38863
11.02257,36981
11.03070,35217
11.03882,35313
11.04695,36735
11.05507,39205
11.06318,33029
11.07132,34693
11.07943,41026
11.08755,38207
11.09568,42495
11.10380,39903
11.11193,40685
11.12005,37781
11.12817,39548
11.13630,35962
11.14442,34623
11.15255,36741
11.16067,37382
11.16878,36091
11.17692,34419
11.18503,35915
11.19315,37100
11.20128,36836
11.20940,39995
11.21753,35381
11.22565,34105
11.23377,33743
11.24190,39216
11.25002,40146
11.25815,43225
11.26627,50406
11.27438,60693
11.28252,65114
11.29063,68772
11.29877,66220
11.30688,70106
11.31500,86707
11.32313,103258
11.33125,124472
11.33937,139303
11.34750,131506
11.35562,116345
11.36375,97382
11.37187,81689
11.37998,70538
11.38812,64037
11.39623,55657
11.40437,58451
11.41248,55538
11.42060,53094
11.42873,54140
11.43685,54038
11.44497,51800
11.45310,51549
11.46122,45095
11.46935,46553
11.47747,48934
11.48558,55667
11.49372,62220
11.50183,70946
11.50997,67687
11.51808,69445
11.52620,67484
11.53433,62582
11.54245,58971
11.55058,54327
11.55870,54086
11.56682,48597
11.57495,49200
11.58307,46901
11.59118,47129
11.59932,49608
11.60743,55647
11.61557,65619
11.62368,70532
11.63180,70016
11.63993,64888
11.64805,57213
11.65618,53682
11.66430,48635
11.67242,49007
11.68055,50450
11.68867,49874
11.69680,53006
11.70492,55002
11.71303,54620
11.72117,57288
11.72928,53497
11.73740,53419
11.74553,46957
11.75365,44669
11.76178,44309
11.76990,42455
11.77802,38144
11.78615,40101
11.79427,38405
11.80240,36628
11.81052,37358
11.81863,40279
11.82677,36043
11.83488,42421
11.84302,36920
11.85113,32265
11.85925,32208
11.86738,32682
11.87550,33935
11.88362,33548
11.89175,36647
11.89987,36824
11.90800,36509
11.91612,45723
11.92423,45935
11.93237,47785
11.94048,48029
11.94862,45366
11.95673,41292
11.96485,37582
11.97298,37333
11.98110,35486
11.98922,36978
11.99735,36788
12.00547,40867
12.01360,47451
12.02172,49676
12.02983,46345
12.03797,40050
12.04608,41640
12.05422,41602
12.06233,37363
12.07045,34243
12.07858,33927
12.08670,34780
12.09483,33251
12.10295,35371
12.11107,31891
12.11920,33893
12.12732,38517
12.13543,37304
12.14357,35053
12.15168,34725
12.15982,34839
12.16793,30954
12.17605,31176
12.18418,29045
12.19230,31053
12.20043,34672
12.20855,32895
12.21667,31056
12.22480,33004
12.23292,31387
12.24103,30971
12.24917,35978
12.25728,34353
12.26542,33407
12.27353,33475
12.28165,35831
12.28978,31469
12.29790,28768
12.30603,29999
12.31415,31945
12.32227,30763
12.33040,28156
12.33852,34659
12.34665,27143
12.35477,26748
12.36288,28636
12.37102,26442
12.37913,28364
12.38725,30770
12.39538,33591
12.40350,38687
12.41163,46319
12.41975,56126
12.42787,61033
12.43600,60977
12.44412,55356
12.45225,46768
12.46037,39993
12.46848,36307
12.47662,36550
12.48473,33386
12.49287,32413
12.50098,30366
12.50910,29631
12.51723,29547
12.52535,31007
12.53347,37806
12.54160,37656
12.54972,45076
12.55785,58246
12.56597,67765
12.57408,83604
12.58222,72615
12.59033,61436
12.59847,53752
12.60658,46392
12.61470,40645
12.62283,37794
12.63095,36326
12.63907,37110
12.64720,33058
12.65532,32563
12.66345,32709
12.67157,32379
12.67968,30989
12.68782,31283
12.69593,30814
12.70407,30925
12.71218,29339
12.72030,30671
12.72843,28789
12.73655,30595
12.74468,32578
12.75280,30052
12.76092,27837
12.76905,30807
12.77717,29995
12.78528,32074
12.79342,30194
12.80153,28592
12.80967,32708
12.81778,29288
12.82590,29084
12.83403,27975
12.84215,28585
12.85028,28343
12.85840,29229
12.86652,28384
12.87465,29651
12.88277,26218
12.89090,27349
12.89902,26862
12.90713,26504
12.91527,26763
12.92338,32661
12.93150,35663
12.93963,38580
12.94775,47227
12.95588,52285
12.96400,56108
12.97212,59152
12.98025,62406
12.98837,63273
12.99650,60012
13.00462,51100
13.01273,48023
13.02087,46062
13.02898,40698
13.03710,36905
13.04523,36347
13.05335,34834
13.06148,39656
13.06960,33803
13.07772,31288
13.08585,30625
13.09397,35857
13.10210,35087
13.11022,30125
13.11833,31513
13.12647,31280
13.13458,33028
13.14272,30602
13.15083,36011
13.15895,34353
13.16708,32918
13.17520,32781
13.18332,27802
13.19145,24379
13.19957,32125
13.20770,30622
13.21582,31068
13.22393,30626
13.23207,32635
13.24018,34762
13.24832,31802
13.25643,36726
13.26455,37386
13.27268,32949
13.28080,32824
13.28892,34030
13.29705,32306
13.30517,31643
13.31330,31331
13.32142,34937
13.32953,33973
13.33767,34399
13.34578,30824
13.35392,27034
13.36203,33996
13.37015,28676
13.37828,32525
13.38640,29651
13.39453,33314
13.40265,29179
13.41077,28496
13.41890,26755
13.42702,30353
13.43513,25963
13.44327,26070
13.45138,27115
13.45952,29089
13.46763,25248
13.47575,26991
13.48388,27800
13.49200,27401
13.50013,27199
13.50825,27277
13.51637,27905
13.52450,30888
13.53262,33601
13.54075,32028
13.54887,29866
13.55698,36860
13.56512,32390
13.57323,30958
13.58135,31735
13.58948,35690
13.59760,39709
13.60573,49717
13.61385,68472
13.62197,82323
13.63010,87400
13.63822,82801
13.64635,75920
13.65447,59670
13.66258,46766
13.67072,39922
13.67883,38818
13.68695,38723
13.69508,40258
13.70320,36129
13.71133,34381
13.71945,31751
13.72757,33457
13.73570,35306
13.74382,40634
13.75195,50902
13.76007,69539
13.76818,91546
13.77632,127827
13.78443,146431
13.79257,158051
13.80068,152640
13.80880,139308
13.81693,130560
13.82505,123805
13.83317,126166
13.84130,116407
13.84942,113591
13.85755,88875
13.86567,84288
13.87378,75530
13.88192,70207
13.89003,63884
13.89817,63611
13.90628,59647
13.91440,56113
13.92253,51096
13.93065,50178
13.93878,46921
13.94690,45485
13.95502,50758
13.96315,44546
13.97127,44206
13.97938,44665
13.98752,40696
13.99563,46387
14.00377,45718
14.01188,46933
14.02000,41905
14.02813,41893
14.03625,40671
14.04438,42138
14.05250,36828
14.06062,37252
14.06875,37482
14.07687,34457
14.08498,35131
14.09312,34665
14.10123,35337
14.10937,36243
14.11748,38548
14.12560,44100
14.13373,52023
14.14185,63141
14.14998,72809
14.15810,86710
14.16622,85915
14.17435,80172
14.18247,72007
14.19060,69255
14.19872,70572
14.20683,61687
14.21497,60295
14.22308,55634
14.23120,56203
14.23933,57056
14.24745,52649
14.25558,50832
14.26370,50296
14.27182,48541
14.27995,50156
14.28807,43137
14.29620,41309
14.30432,42619
14.31243,34514
14.32057,34893
14.32868,34330
14.33680,32522
14.34493,32256
14.35305,32340
14.36118,33603
14.36930,30328
14.37742,35733
14.38555,34817
14.39367,44259
14.40180,58158
14.40992,81511
14.41803,108365
14.42617,125683
14.43428,124075
14.44242,111855
14.45053,87653
14.45865,68514
14.46678,54335
14.47490,49174
14.48302,45248
14.49115,42011
14.49927,40174
14.50740,36150
14.51552,35255
14.52363,39721
14.53177,37058
14.53988,34642
14.54802,34774
14.55613,35816
14.56425,33878
14.57238,33218
14.58050,32095
14.58863,30663
14.59675,31702
14.60487,31246
14.61300,27243
14.62112,30875
14.62923,28749
14.63737,27847
14.64548,31108
14.65362,27725
14.66173,25789
14.66985,27677
14.67798,28058
14.68610,31517
14.69423,31320
14.70235,28613
14.71047,27646
14.71860,30002
14.72672,31831
14.73483,28512
14.74297,29423
14.75108,28255
14.75922,27829
14.76733,29558
14.77545,34282
14.78358,34760
14.79170,53073
14.79983,96752
14.80795,201136
14.81607,393619
14.82420,702367
14.83232,981763
14.84045,1039984
14.84857,891402
14.85668,637544
14.86482,430284
14.87293,283719
14.88105,215100
14.88918,171328
14.89730,143970
14.90543,126655
14.91355,109668
14.92167,102249
14.92980,89962
14.93792,83551
14.94605,81159
14.95417,74369
14.96228,70218
14.97042,69242
14.97853,62400
14.98667,64520
14.99478,58915
15.00290,58842
15.01103,53874
15.01915,57887
15.02727,52732
15.03540,48143
15.04352,45293
15.05165,46549
15.05977,44133
15.06788,41926
15.07602,50185
15.08413,45421
15.09227,41794
15.10038,42430
15.10850,40730
15.11663,42642
15.12475,43035
15.13287,43824
15.14100,48066
15.14912,47535
15.15725,43771
15.16537,38098
15.17348,38253
15.18162,42402
15.18973,37851
15.19787,34385
15.20598,35502
15.21410,33988
15.22223,33839
15.23035,33879
15.23848,31026
15.24660,30763
15.25472,29738
15.26285,31040
15.27097,30563
15.27908,32834
15.28722,29251
15.29533,31094
15.30347,31344
15.31158,31669
15.31970,32345
15.32783,31678
15.33595,27168
15.34408,26386
15.35220,29680
15.36032,29448
15.36845,28221
15.37657,29689
15.38470,35314
15.39282,30956
15.40093,30155
15.40907,28197
15.41718,30502
15.42530,30717
15.43343,28954
15.44155,29511
15.44968,29908
15.45780,27293
15.46592,37954
15.47405,37373
15.48217,39910
15.49030,44380
15.49842,48504
15.50653,53752
15.51467,47058
15.52278,48824
15.53090,51468
15.53903,53018
15.54715,46708
15.55528,52424
15.56340,44604
15.57152,42138
15.57965,36706
15.58777,36554
15.59590,34245
15.60402,33429
15.61213,31570
15.62027,34594
15.62838,31937
15.63652,33228
15.64463,31213
15.65275,31947
15.66088,31993
15.66900,29983
15.67712,31145
15.68525,30023
15.69337,31090
15.70150,29679
15.70962,28356
15.71773,31291
15.72587,29458
15.73398,30352
15.74212,31136
15.75023,33851
15.75835,34950
15.76648,52209
15.77460,69897
15.78272,86972
15.79085,94158
15.79897,93079
15.80710,84342
15.81522,70939
15.82333,52701
15.83147,47187
15.83958,46170
15.84772,43418
15.85583,41961
15.86395,41613
15.87208,41725
15.88020,40698
15.88833,40347
15.89645,40752
15.90457,37496
15.91270,38240
15.92082,37110
15.92893,37909
15.93707,32083
15.94518,32307
15.95332,33444
15.96143,29985
15.96955,34427
15.97768,34695
15.98580,38665
15.99393,38034
16.00205,36607
16.01017,34304
16.01830,38248
16.02642,34588
16.03455,37381
16.04267,33578
16.05078,29846
16.05892,29971
16.06703,28021
16.07515,32144
16.08328,31940
16.09140,30408
16.09953,29379
16.10765,29706
16.11577,29126
16.12390,31581
16.13202,26216
16.14015,32744
16.14827,31174
16.15638,31658
16.16452,30711
16.17263,30703
16.18075,29829
16.18888,27370
16.19700,29070
16.20513,27903
16.21325,30740
16.22137,32907
16.22950,28554
16.23762,26153
16.24575,27560
16.25387,26087
16.26198,28792
16.27012,28734
16.27823,34303
16.28637,30166
16.29448,30591
16.30260,28630
16.31073,32017
16.31885,27938
16.32697,29337
16.33510,30277
16.34322,29708
16.35135,31423
16.35947,27871
16.36758,31305
16.37572,29325
16.38383,31006
16.39197,31063
16.40008,29973
16.40820,28294
16.41633,32528
16.42445,28906
16.43258,31465
16.44070,32572
16.44882,37492
16.45695,53740
16.46507,66329
16.47318,87645
16.48132,100771
16.48943,104854
16.49757,97523
16.50568,79419
16.51380,64895
16.52193,52006
16.53005,46287
16.53818,42374
16.54630,45629
16.55442,41567
16.56255,40350
16.57067,35054
16.57878,39434
16.58692,37894
16.59503,38624
16.60317,34852
16.61128,31359
16.61940,38366
16.62753,35188
16.63565,37502
16.64378,33919
16.65190,30258
16.66002,34368
16.66815,30240
16.67627,30498
16.68440,30422
16.69252,29977
16.70063,29998
16.70877,28424
16.71688,31857
16.72500,30595
16.73313,28047
16.74125,29331
16.74938,29913
16.75750,26239
16.76562,30434
16.77375,30873
16.78187,31583
16.79000,28413
16.79812,26606
16.80623,25911
16.81437,28181
16.82248,29670
16.83060,29253
16.83873,28942
16.84685,25686
16.85498,30164
16.86310,30950
16.87122,30435
16.87935,28784
16.88747,27697
16.89560,26874
16.90372,24599
16.91183,27649
16.91997,26515
16.92808,25764
16.93622,31251
16.94433,28125
16.95245,25031
16.96058,24132
16.96870,28535
16.97682,25996
16.98495,27267
16.99307,27256
17.00120,29824
17.00932,25201
17.01743,28987
17.02557,27860
17.03368,27883
17.04182,26361
17.04993,28453
17.05805,28916
17.06618,30659
17.07430,32083
17.08243,31560
17.09055,33551
17.09867,28509
17.10680,34174
17.11492,38778
17.12303,35522
17.13117,33742
17.13928,31132
17.14742,31513
17.15553,28821
17.16365,32244
17.17178,27264
17.17990,29782
17.18803,24802
17.19615,27737
17.20427,28447
17.21240,27196
17.22052,32121
17.22865,27361
17.23677,30022
17.24488,30428
17.25302,26507
17.26113,26329
17.26925,26114
17.27738,26123
17.28550,29717
17.29363,25872
17.30175,27431
17.30987,23589
17.31800,27986
17.32612,26555
17.33425,29910
17.34237,29704
17.35048,29587
17.35862,27437
17.36673,30849
17.37485,27834
17.38298,35688
17.39110,29398
17.39923,29589
17.40735,31229
17.41547,31473
17.42360,26838
17.43172,30440
17.43985,32103
17.44797,29901
17.45608,31727
17.46422,31711
17.47233,30928
17.48047,30317
17.48858,25296
17.49670,27806
17.50483,28379
17.51295,32228
17.52107,30702
17.52920,34926
17.53732,34509
17.54545,36638
17.55357,39627
17.56168,44850
17.56982,52583
17.57793,71771
17.58607,89607
17.59418,110776
17.60230,120581
17.61043,120397
17.61855,107349
17.62667,96354
17.63480,76456
17.64292,65402
17.65105,53679
17.65917,52109
17.66728,47420
17.67542,47378
17.68353,43909
17.69167,41997
17.69978,40847
17.70790,42354
17.71603,40984
17.72415,37988
17.73228,36197
17.74040,36692
17.74852,36862
17.75665,35163
17.76477,35613
17.77288,36793
17.78102,35274
17.78913,32895
17.79727,33399
17.80538,34027
17.81350,36010
17.82163,37155
17.82975,34448
17.83788,35575
17.84600,36709
17.85412,39141
17.86225,37555
17.87037,40972
17.87850,38468
17.88662,36061
17.89473,34922
17.90287,33873
17.91098,31536
17.91910,31204
17.92723,30652
17.93535,33380
17.94348,28331
17.95160,30642
17.95972,28404
17.96785,28863
17.97597,33004
17.98410,31082
17.99222,31038
18.00033,32480
18.00847,31288
18.01658,35130
18.02470,36612
18.03283,40262
18.04095,48234
18.04908,44825
18.05720,65073
18.06532,119603
18.07345,195673
18.08157,293582
18.08970,376639
18.09782,434872
18.10593,458945
18.11407,463769
18.12218,435510
18.13032,422112
18.13843,388811
18.14655,393768
18.15468,369768
18.16280,375210
18.17092,358498
18.17905,353538
18.18717,340579
18.19530,334592
18.20342,327078
18.21153,312433
18.21967,311564
18.22778,296609
18.23592,296374
18.24403,295096
18.25215,293751
18.26028,287100
18.26840,272051
18.27653,259054
18.28465,255989
18.29277,249689
18.30090,238810
18.30902,243313
18.31713,238543
18.32527,229675
18.33338,222427
18.34152,219783
18.34963,212321
18.35775,210627
18.36588,210438
18.37400,200912
18.38213,195192
18.39025,200963
18.39837,192573
18.40650,186209
18.41462,183815
18.42273,187820
18.43087,180081
18.43898,179062
18.44712,186188
18.45523,189005
18.46335,194824
18.47148,206218
18.47960,204847
18.48773,194842
18.49585,191208
18.50397,175817
18.51210,170201
18.52022,164211
18.52835,149635
18.53647,146195
18.54458,146593
18.55272,137968
18.56083,131645
18.56895,132602
18.57708,136846
18.58520,134907
18.59333,131517
18.60145,128072
18.60957,133951
18.61770,123741
18.62582,124168
18.63395,119176
18.64207,115849
18.65018,112150
18.65832,117755
18.66643,106618
18.67455,108329
18.68268,106668
18.69080,102076
18.69893,100647
18.70705,100526
18.71517,92565
18.72330,94145
18.73142,94952
18.73955,95293
18.74767,89976
18.75578,88172
18.76392,87438
18.77203,83807
18.78017,87579
18.78828,90402
18.79640,85793
18.80453,84857
18.81265,83666
18.82077,77131
18.82890,79543
18.83702,79360
18.84515,74826
18.85327,80747
18.86138,70182
18.86952,76553
18.87763,76307
18.88577,75267
18.89388,75910
18.90200,69015
18.91013,66737
18.91825,67882
18.92638,72998
18.93450,71833
18.94262,72510
18.95075,68313
18.95887,70340
18.96698,71514
18.97512,68470
18.98323,66789
18.99137,66062
18.99948,62685
19.00760,60542
19.01573,56612
19.02385,60443
19.03198,59656
19.04010,59692
19.04822,59795
19.05635,57518
19.06447,58667
19.07258,61428
19.08072,68108
19.08883,68325
19.09697,75941
19.10508,78334
19.11320,74778
19.12133,74637
19.12945,72252
19.13758,68133
19.14570,68810
19.15382,66844
19.16195,57781
19.17007,64577
19.17820,61152
19.18632,59282
19.19443,57921
19.20257,58901
19.21068,56313
19.21880,49333
19.22693,51816
19.23505,51942
19.24318,51732
19.25130,52267
19.25942,49481
19.26755,47858
19.27567,50229
19.28380,48547
19.29192,47934
19.30003,50875
19.30817,49342
19.31628,46989
19.32442,46834
19.33253,49404
19.34065,47198
19.34878,48604
19.35690,48129
19.36502,51709
19.37315,51518
19.38127,53846
19.38940,51419
19.39752,52435
19.40563,50205
19.41377,48715
19.42188,55438
19.43002,61896
19.43813,65348
19.44625,74405
19.45438,83026
19.46250,83215
19.47062,69082
19.47875,64874
19.48687,56945
19.49500,51147
19.50312,49679
19.51123,47534
19.51937,43104
19.52748,46176
19.53562,44728
19.54373,44484
19.55185,46066
19.55998,41652
19.56810,43373
19.57623,41641
19.58435,41048
19.59247,47512
19.60060,41457
19.60872,43542
19.61683,48953
19.62497,60421
19.63308,77772
19.64122,111210
19.64933,137107
19.65745,164152
19.66558,170569
19.67370,168908
19.68183,142802
19.68995,125543
19.69807,109206
19.70620,91094
19.71432,81662
19.72245,74244
19.73057,65553
19.73868,61429
19.74682,55361
19.75493,53713
19.76305,49767
19.77118,50381
19.77930,51038
19.78743,56149
19.79555,52994
19.80367,53499
19.81180,48541
19.81992,47144
19.82805,51628
19.83617,46539
19.84428,53221
19.85242,53465
19.86053,75226
19.86865,111745
19.87678,179812
19.88490,277204
19.89303,390054
19.90115,463164
19.90927,475660
19.91740,431449
19.92552,350004
19.93365,280598
19.94177,212800
19.94988,178946
19.95802,151912
19.96613,142606
19.97427,127769
19.98238,117400
19.99050,114118
19.99863,103710
20.00675,109291
20.01487,96544
20.02300,95876
20.03112,90218
20.03925,85173
20.04737,78227
20.05548,67782
20.06362,67378
20.07173,62039
20.07987,59313
20.08798,56860
20.09610,54067
20.10423,54459
20.11235,56199
20.12047,52387
20.12860,50162
20.13672,51700
20.14485,51128
20.15297,48573
20.16108,51197
20.16922,55663
20.17733,52906
20.18547,56937
20.19358,58990
20.20170,55824
20.20983,54042
20.21795,61791
20.22608,67314
20.23420,83025
20.24232,97920
20.25045,118145
20.25857,125553
20.26668,111090
20.27482,110016
20.28293,90564
20.29107,89428
20.29918,76277
20.30730,62819
20.31543,55182
20.32355,55480
20.33168,48693
20.33980,43691
20.34792,45122
20.35605,47852
20.36417,46012
20.37230,41592
20.38042,41625
20.38853,46580
20.39667,47974
20.40478,55165
20.41290,57421
20.42103,61004
20.42915,58670
20.43728,54145
20.44540,49289
20.45352,49303
20.46165,48108
20.46977,41264
20.47790,44228
20.48602,43874
20.49413,37193
20.50227,37858
20.51038,36373
20.51850,35725
20.52663,38760
20.53475,38538
20.54288,38002
20.55100,39302
20.55912,42705
20.56725,34791
20.57537,36371
20.58350,37321
20.59162,35826
20.59973,37328
20.60787,34157
20.61598,37427
20.62412,34213
20.63223,34282
20.64035,36251
20.64848,32449
20.65660,38233
20.66472,38852
20.67285,37026
20.68097,33632
20.68910,32617
20.69722,31560
20.70533,31164
20.71347,36612
20.72158,35225
20.72972,36557
20.73783,34947
20.74595,34687
20.75408,37131
20.76220,37925
20.77033,40256
20.77845,42538
20.78657,52217
20.79470,54192
20.80282,72415
20.81093,81099
20.81907,86225
20.82718,75350
20.83532,68982
20.84343,59455
20.85155,50742
20.85968,46409
20.86780,40893
20.87593,39309
20.88405,39331
20.89217,42080
20.90030,38870
20.90842,39617
20.91653,36306
20.92467,37094
20.93278,35222
20.94092,39576
20.94903,34425
20.95715,33643
20.96528,33747
20.97340,35406
20.98153,33568
20.98965,33820
20.99777,30207
21.00590,34211
21.01402,32261
21.02215,36975
21.03027,33570
21.03838,36145
21.04652,30248
21.05463,31896
21.06275,33240
21.07088,35541
21.07900,34624
21.08713,32639
21.09525,33343
21.10337,32889
21.11150,33674
21.11962,35593
21.12775,36796
21.13587,41802
21.14398,44775
21.15212,49167
21.16023,52236
21.16835,51823
21.17648,47948
21.18460,46843
21.19273,41009
21.20085,40947
21.20897,41617
21.21710,36804
21.22522,34848
21.23335,39374
21.24147,39929
21.24958,35764
21.25772,43681
21.26583,44529
21.27397,45006
21.28208,48104
21.29020,48038
21.29833,46352
21.30645,45566
21.31457,45752
21.32270,45553
21.33082,48591
21.33895,45564
21.34707,41920
21.35518,43205
21.36332,43586
21.37143,44834
21.37957,41300
21.38768,48293
21.39580,51470
21.40393,49408
21.41205,53601
21.42018,51268
21.42830,51118
21.43642,49805
21.44455,51891
21.45267,45902
21.46078,48356
21.46892,49278
21.47703,46730
21.48517,47500
21.49328,46374
21.50140,46107
21.50953,45783
21.51765,45900
21.52578,45506
21.53390,50067
21.54202,47521
21.55015,46789
21.55827,52133
21.56640,54152
21.57452,58434
21.58263,64382
21.59077,67493
21.59888,70657
21.60700,68359
21.61513,60376
21.62325,60315
21.63138,55341
21.63950,49849
21.64762,50745
21.65575,44752
21.66387,45446
21.67200,43500
21.68012,50750
21.68823,41889
21.69637,43901
21.70448,44629
21.71260,36431
21.72073,35385
21.72885,37071
21.73698,38040
21.74510,37505
21.75322,37773
21.76135,40568
21.76947,46842
21.77760,48933
21.78572,49727
21.79383,56004
21.80197,56942
21.81008,51969
21.81822,47941
21.82633,44092
21.83445,38733
21.84258,39254
21.85070,35282
21.85882,33811
21.86695,35817
21.87507,34626
21.88320,38355
21.89132,33701
21.89943,33465
21.90757,32230
21.91568,30941
21.92382,35670
21.93193,38011
21.94005,52868
21.94818,63083
21.95630,81851
21.96442,91482
21.97255,96213
21.98067,102891
21.98880,104385
21.99692,110015
22.00503,112290
22.01317,108233
22.02128,108638
22.02942,114955
22.03753,111208
22.04565,108429
22.05378,108456
22.06190,116089
22.07003,104405
22.07815,103060
22.08627,103685
22.09440,104304
22.10252,105050
22.11063,99236
22.11877,103032
22.12688,101240
22.13502,94083
22.14313,94984
22.15125,91276
22.15938,90882
22.16750,97781
22.17563,89821
22.18375,92802
22.19187,91689
22.20000,86544
22.20812,86021
22.21623,86228
22.22437,81851
22.23248,79627
22.24062,73598
22.24873,75464
22.25685,72132
22.26498,73834
22.27310,70424
22.28123,69256
22.28935,73910
22.29747,68452
22.30560,67262
22.31372,62901
22.32185,66112
22.32997,65347
22.33808,66536
22.34622,61249
22.35433,64836
22.36245,62078
22.37058,60839
22.37870,59503
22.38683,55136
22.39495,65803
22.40307,64617
22.41120,70331
22.41932,71376
22.42745,72005
22.43557,61650
22.44368,61473
22.45182,55731
22.45993,51413
22.46807,52425
22.47618,57393
22.48430,50970
22.49243,55319
22.50055,52289
22.50867,56497
22.51680,52602
22.52492,54500
22.53305,51826
22.54117,46896
22.54928,47844
22.55742,43853
22.56553,45746
22.57367,44709
22.58178,37657
22.58990,44624
22.59803,44241
22.60615,42655
22.61428,41667
22.62240,41650
22.63052,39624
22.63865,48462
22.64677,40832
22.65488,43778
22.66302,42757
22.67113,40862
22.67927,42964
22.68738,44060
22.69550,49095
22.70363,52284
22.71175,46379
22.71988,47157
22.72800,48100
22.73612,44919
22.74425,43866
22.75237,44740
22.76048,40802
22.76862,45242
22.77673,43261
22.78487,45044
22.79298,45415
22.80110,44831
22.80923,48009
22.81735,46800
22.82548,46340
22.83360,43547
22.84172,40596
22.84985,45623
22.85797,45916
22.86610,48575
22.87422,47470
22.88233,47095
22.89047,53861
22.89858,57235
22.90670,70733
22.91483,93587
22.92295,93420
22.93108,101321
22.93920,98521
22.94732,98796
22.95545,82189
22.96357,73242
22.97170,63811
22.97982,64347
22.98793,55234
22.99607,54793
23.00418,50637
23.01230,45553
23.02043,46394
23.02855,45574
23.03668,43315
23.04480,42056
23.05292,42824
23.06105,39918
23.06917,39880
23.07730,41319
23.08542,39605
23.09353,40213
23.10167,38220
23.10978,34903
23.11792,39069
23.12603,37391
23.13415,37463
23.14228,35769
23.15040,37713
23.15852,34316
23.16665,37814
23.17477,34072
23.18290,38143
23.19102,35103
23.19913,34639
23.20727,36009
23.21538,33950
23.22352,33704
23.23163,32634
23.23975,32695
23.24788,31722
23.25600,33144
23.26413,35279
23.27225,32787
23.28037,34183
23.28850,35374
23.29662,32602
23.30473,34872
23.31287,35575
23.32098,33674
23.32912,34351
23.33723,38760
23.34535,41641
23.35348,42455
23.36160,45690
23.36973,50425
23.37785,45512
23.38597,42117
23.39410,42502
23.40222,36302
23.41033,36836
23.41847,39254
23.42658,39672
23.43472,40426
23.44283,36985
23.45095,38734
23.45908,34724
23.46720,35129
23.47533,37522
23.48345,34223
23.49157,36210
23.49970,39465
23.50782,33222
23.51595,34620
23.52407,32171
23.53218,33778
23.54032,30675
23.54843,33070
23.55655,36257
23.56468,39936
23.57280,44276
23.58093,49431
23.58905,58224
23.59717,60672
23.60530,65101
23.61342,58592
23.62155,54607
23.62967,52596
23.63778,55518
23.64592,49439
23.65403,50109
23.66217,49724
23.67028,49427
23.67840,46116
23.68653,44330
23.69465,49274
23.70277,57957
23.71090,77358
23.71902,94308
23.72715,106523
23.73527,152050
23.74338,257863
23.75152,496660
23.75963,1042090
23.76777,1937674
23.77588,3123527
23.78400,3827236
23.79213,3874207
23.80025,3350826
23.80837,2708440
23.81650,2054515
23.82462,1513105
23.83275,1135433
23.84087,887546
23.84898,714557
23.85712,606439
23.86523,519329
23.87337,459723
23.88148,410209
23.88960,381120
23.89773,358468
23.90585,320757
23.91398,295209
23.92210,281514
23.93022,267145
23.93835,254265
23.94647,246177
23.95458,226367
23.96272,219518
23.97083,211046
23.97897,205644
23.98708,190246
23.99520,185389
24.00333,173859
24.01145,175419
24.01958,179102
24.02770,172530
24.03582,172136
24.04395,168233
24.05207,161264
24.06018,158419
24.06832,154136
24.07643,145834
24.08457,137814
24.09268,137196
24.10080,130167
24.10893,130533
24.11705,123035
24.12518,129461
24.13330,129818
24.14142,132718
24.14955,125225
24.15767,131650
24.16580,132075
24.17392,121097
24.18203,121416
24.19017,114829
24.19828,104526
24.20640,95999
24.21453,102094
24.22265,97655
24.23078,89563
24.23890,91144
24.24702,89557
24.25515,88007
24.26327,80397
24.27140,74737
24.27952,83465
24.28763,86285
24.29577,80059
24.30388,83765
24.31202,90208
24.32013,95374
24.32825,97342
24.33638,105499
24.34450,92989
24.35262,93173
24.36075,76721
24.36887,75461
24.37700,71542
24.38512,69513
24.39323,70639
24.40137,65935
24.40948,66394
24.41762,70998
24.42573,70806
24.43385,76762
24.44198,76832
24.45010,82810
24.45822,77996
24.46635,78163
24.47447,69219
24.48260,68038
24.49072,63236
24.49883,62748
24.50697,60615
24.51508,60253
24.52322,59179
24.53133,58967
24.53945,64431
24.54758,63516
24.55570,63418
24.56383,61986
24.57195,61182
24.58007,59435
24.58820,59726
24.59632,57993
24.60443,51433
24.61257,52424
24.62068,53110
24.62882,52277
24.63693,48145
24.64505,49711
24.65318,51652
24.66130,51963
24.66943,48219
24.67755,50970
24.68567,48535
24.69380,48637
24.70192,47783
24.71005,41622
24.71817,50551
24.72628,45667
24.73442,49627
24.74253,45945
24.75065,45085
24.75878,43492
24.76690,47552
24.77503,49323
24.78315,47602
24.79127,50453
24.79940,46448
24.80752,43626
24.81565,47582
24.82377,48475
24.83188,50593
24.84002,56951
24.84813,67035
24.85625,69886
24.86438,86398
24.87250,96040
24.88063,108286
24.88875,112642
24.89687,105841
24.90500,93452
24.91312,90654
24.92125,93608
24.92937,101846
24.93748,110814
24.94562,116465
24.95373,118961
24.96187,124218
24.96998,122947
24.97810,127060
24.98623,129452
24.99435,132347
25.00247,136842
25.01060,137122
25.01872,135774
25.02685,136800
25.03497,137424
25.04308,131883
25.05122,129254
25.05933,129947
25.06747,126183
25.07558,125374
25.08370,127562
25.09183,137560
25.09995,152365
25.10808,193228
25.11620,261763
25.12432,373354
25.13245,496473
25.14057,586425
25.14868,646262
25.15682,593444
25.16493,488171
25.17307,363234
25.18118,279660
25.18930,222552
25.19743,174878
25.20555,158658
25.21368,142812
25.22180,144043
25.22992,142605
25.23805,153632
25.24617,187777
25.25428,211676
25.26242,240886
25.27053,252746
25.27867,242437
25.28678,213961
25.29490,187486
25.30303,155235
25.31115,134207
25.31928,119599
25.32740,106221
25.33552,99728
25.34365,97127
25.35177,90876
25.35990,88187
25.36802,88009
25.37613,79621
25.38427,77094
25.39238,81247
25.40050,80386
25.40863,82877
25.41675,75220
25.42488,74158
25.43300,72217
25.44112,70248
25.44925,71150
25.45737,66837
25.46550,63617
25.47362,64731
25.48173,64980
25.48987,62339
25.49798,62823
25.50610,60429
25.51423,61300
25.52235,58424
25.53048,59423
25.53860,57050
25.54672,54879
25.55485,58354
25.56297,53251
25.57110,51553
25.57922,51177
25.58733,55451
25.59547,53782
25.60358,53112
25.61172,50550
25.61983,51781
25.62795,50178
25.63608,50741
25.64420,50485
25.65232,47494
25.66045,53603
25.66857,50939
25.67670,50446
25.68482,48006
25.69293,48851
25.70107,46395
25.70918,49229
25.71732,46207
25.72543,44166
25.73355,44505
25.74168,49013
25.74980,48985
25.75793,44399
25.76605,45835
25.77417,46027
25.78230,41546
25.79042,41773
25.79853,44899
25.80667,40772
25.81478,43074
25.82292,42740
25.83103,41704
25.83915,42682
25.84728,42046
25.85540,42791
25.86353,41194
25.87165,44432
25.87977,43050
25.88790,41516
25.89602,43204
25.90413,41099
25.91227,42356
25.92038,42914
25.92852,42687
25.93663,42217
25.94475,44398
25.95288,42721
25.96100,41134
25.96913,41218
25.97725,41736
25.98537,41967
25.99350,39815
26.00162,39090
26.00975,38813
26.01787,41425
26.02598,37728
26.03412,45844
26.04223,40753
26.05035,42016
26.05848,39446
26.06660,46148
26.07473,40547
26.08285,41487
26.09097,38786
26.09910,39121
26.10722,40466
26.11535,41816
26.12347,39821
26.13158,42061
26.13972,40734
26.14783,41694
26.15597,42933
26.16408,45018
26.17220,41612
26.18033,42938
26.18845,38834
26.19657,40523
26.20470,39339
26.21282,39566
26.22095,40256
26.22907,41257
26.23718,40998
26.24532,38010
26.25343,43455
26.26157,38699
26.26968,41007
26.27780,37683
26.28593,35970
26.29405,36976
26.30217,37658
26.31030,34855
26.31842,41907
26.32655,34125
26.33467,40577
26.34278,42774
26.35092,42816
26.35903,40029
26.36717,39828
26.37528,40971
26.38340,39833
26.39153,43174
26.39965,41908
26.40778,39146
26.41590,40530
26.42402,37490
26.43215,37226
26.44027,37128
26.44838,36255
26.45652,38032
26.46463,36602
26.47277,34402
26.48088,33478
26.48900,35411
26.49713,37638
26.50525,36635
26.51338,33578
26.52150,37483
26.52962,35000
26.53775,36228
26.54587,35006
26.55398,33985
26.56212,33774
26.57023,36575
26.57837,35470
26.58648,37465
26.59460,35187
26.60273,34697
26.61085,33819
26.61898,33049
26.62710,36914
26.63522,33419
26.64335,32359
26.65147,38676
26.65960,39780
26.66772,35026
26.67583,39826
26.68397,37209
26.69208,37340
26.70020,37261
26.70833,38079
26.71645,34631
26.72458,36804
26.73270,35982
26.74082,36031
26.74895,33776
26.75707,35681
26.76520,36173
26.77332,37242
26.78143,37757
26.78957,42226
26.79768,36672
26.80582,36018
26.81393,34292
26.82205,34890
26.83018,37562
26.83830,37141
26.84642,37137
26.85455,31731
26.86267,30045
26.87080,29884
26.87892,34643
26.88703,35134
26.89517,33618
26.90328,33302
26.91142,34418
26.91953,32738
26.92765,37038
26.93578,41181
26.94390,45825
26.95203,70185
26.96015,102387
26.96827,174753
26.97640,246891
26.98452,364461
26.99263,464784
27.00077,536946
27.00888,549303
27.01702,506791
27.02513,430272
27.03325,350296
27.04138,269489
27.04950,211750
27.05763,177780
27.06575,143889
27.07387,124345
27.08200,110956
27.09012,96146
27.09823,90030
27.10637,79973
27.11448,80623
27.12262,76533
27.13073,71584
27.13885,70107
27.14698,67922
27.15510,69104
27.16323,68992
27.17135,70479
27.17947,67434
27.18760,62193
27.19572,57528
27.20385,58927
27.21197,57309
27.22008,55105
27.22822,50819
27.23633,50534
27.24445,50807
27.25258,48469
27.26070,48808
27.26883,48838
27.27695,45156
27.28507,46517
27.29320,47723
27.30132,42489
27.30945,48111
27.31757,45655
27.32568,42774
27.33382,45013
27.34193,43252
27.35005,41334
27.35818,44111
27.36630,45476
27.37443,42797
27.38255,41689
27.39067,39313
27.39880,42068
27.40692,44041
27.41505,40599
27.42317,42107
27.43128,42173
27.43942,42732
27.44753,44294
27.45567,40265
27.46378,41499
27.47190,38628
27.48003,44563
27.48815,35835
27.49627,39390
27.50440,38116
27.51252,36259
27.52065,39664
27.52877,36991
27.53688,40392
27.54502,37162
27.55313,37832
27.56127,35841
27.56938,39202
27.57750,43174
27.58563,39180
27.59375,41784
27.60188,41466
27.61000,40891
27.61812,41551
27.62625,36297
27.63437,37473
27.64248,36462
27.65062,34732
27.65873,38296
27.66687,37584
27.67498,34047
27.68310,36575
27.69123,38009
27.69935,37496
27.70748,38036
27.71560,34316
27.72372,37218
27.73185,33843
27.73997,36274
27.74808,39202
27.75622,38538
27.76433,40261
27.77247,43539
27.78058,39760
27.78870,38813
27.79683,39646
27.80495,38620
27.81308,39317
27.82120,38131
27.82932,35729
27.83745,32877
27.84557,36779
27.85370,35062
27.86182,36182
27.86993,34207
27.87807,31686
27.88618,31513
27.89430,33021
27.90243,31474
27.91055,32292
27.91868,34607
27.92680,35407
27.93492,33040
27.94305,32268
27.95117,35124
27.95930,29254
27.96742,33595
27.97553,34351
27.98367,35512
27.99178,35302
27.99992,37554
28.00803,36391
28.01615,37988
28.02428,36182
28.03240,40829
28.04052,39800
28.04865,42419
28.05677,41250
28.06490,37399
28.07302,36788
28.08113,36694
28.08927,36611
28.09738,37341
28.10552,43173
28.11363,46732
28.12175,42726
28.12988,44871
28.13800,38340
28.14612,37680
28.15425,32494
28.16237,30667
28.17050,34357
28.17862,35611
28.18673,32181
28.19487,32454
28.20298,33763
28.21112,35204
28.21923,36305
28.22735,37118
28.23548,37920
28.24360,39182
28.25173,41247
28.25985,42895
28.26797,53234
28.27610,58363
28.28422,75568
28.29233,88452
28.30047,104759
28.30858,117166
28.31672,122090
28.32483,123594
28.33295,123634
28.34108,118648
28.34920,108927
28.35733,97763
28.36545,92570
28.37357,91062
28.38170,80653
28.38982,76636
28.39793,69692
28.40607,64189
28.41418,59346
28.42232,62503
28.43043,53550
28.43855,45939
28.44668,45359
28.45480,46878
28.46293,43221
28.47105,46613
28.47917,42756
28.48730,44960
28.49542,43844
28.50355,42830
28.51167,39373
28.51978,40813
28.52792,37617
28.53603,38863
28.54415,41039
28.55228,38716
28.56040,36707
28.56853,39811
28.57665,33937
28.58477,35337
28.59290,35295
28.60102,35176
28.60915,36903
28.61727,37646
28.62538,38068
28.63352,37686
28.64163,37672
28.64977,43144
28.65788,44253
28.66600,43280
28.67413,44175
28.68225,46924
28.69037,51367
28.69850,52837
28.70662,48436
28.71475,43335
28.72287,37391
28.73098,36527
28.73912,39566
28.74723,31087
28.75537,31068
28.76348,33666
28.77160,33337
28.77973,32548
28.78785,35023
28.79597,34634
28.80410,35239
28.81222,30897
28.82035,32963
28.82847,31841
28.83658,34951
28.84472,35711
28.85283,32084
28.86097,32142
28.86908,31257
28.87720,35062
28.88533,34358
28.89345,34752
28.90158,35002
28.90970,34044
28.91782,31819
28.92595,32765
28.93407,36998
28.94218,36003
28.95032,35202
28.95843,35924
28.96657,36212
28.97468,35071
28.98280,35101
28.99093,34257
28.99905,32391
29.00718,32175
29.01530,30322
29.02342,34563
29.03155,34024
29.03967,33645
29.04780,34941
29.05592,37273
29.06403,38488
29.07217,35546
29.08028,34926
29.08840,32463
29.09653,33467
29.10465,31581
29.11278,32881
29.12090,29519
29.12902,32153
29.13715,32503
29.14527,29837
29.15340,32550
29.16152,31813
29.16963,32657
29.17777,34664
29.18588,36404
29.19400,41136
29.20213,36033
29.21025,37369
29.21838,37955
29.22650,40681
29.23462,37516
29.24275,40429
29.25087,37448
29.25900,36462
29.26712,34539
29.27523,30323
29.28337,30847
29.29148,29684
29.29962,35182
29.30773,31709
29.31585,31384
29.32398,28161
29.33210,29928
29.34022,29915
29.34835,30358
29.35647,30405
29.36460,28944
29.37272,30710
29.38083,31945
29.38897,31770
29.39708,33380
29.40522,30981
29.41333,33945
29.42145,35722
29.42958,31926
29.43770,30008
29.44582,29828
29.45395,32700
29.46207,27440
29.47020,29624
29.47832,32541
29.48643,31722
29.49457,30016
29.50268,33789
29.51082,30409
29.51893,34811
29.52705,33202
29.53518,31163
29.54330,30991
29.55143,31409
29.55955,31212
29.56767,30828
29.57580,31692
29.58392,31554
29.59203,33024
29.60017,31015
29.60828,31052
29.61642,32766
29.62453,36198
29.63265,31264
29.64078,30334
29.64890,30474
29.65703,28778
29.66515,32056
29.67327,29651
29.68140,29020
29.68952,30894
29.69765,31450
29.70577,27989
29.71388,26996
29.72202,34854
29.73013,30591
29.73825,26639
29.74638,29126
29.75450,28716
29.76263,25897
29.77075,28520
29.77887,26756
29.78700,29768
29.79512,27583
29.80325,28291
29.81137,26889
29.81948,30466
29.82762,25496
29.83573,27329
29.84385,28494
29.85198,29641
29.86010,29883
29.86823,37103
29.87635,44231
29.88447,47903
29.89260,57314
29.90072,59441
29.90885,64260
29.91697,67382
29.92508,69155
29.93322,68675
29.94133,69521
29.94947,69185
29.95758,66697
29.96570,73006
29.97383,72929
29.98195,68330
29.99007,65096
29.99820,61441
30.00632,56752
30.01445,53980
30.02257,52097
30.03068,51786
30.03882,52868
30.04693,49406
30.05507,50083
30.06318,53381
30.07130,54274
30.07943,50507
30.08755,46945
30.09568,51047
30.10380,53914
30.11192,47838
30.12005,50002
30.12817,52044
30.13628,47753
30.14442,42906
30.15253,42032
30.16067,44092
30.16878,44780
30.17690,45743
30.18503,42228
30.19315,37880
30.20128,41552
30.20940,45256
30.21752,40482
30.22565,41299
30.23377,40208
30.24188,39885
30.25002,42614
30.25813,37922
30.26627,37065
30.27438,38594
30.28250,36899
30.29063,34806
30.29875,35005
30.30688,36340
30.31500,35492
30.32312,34771
30.33125,34431
30.33937,36104
30.34750,34941
30.35562,35902
30.36373,34446
30.37187,35025
30.37998,31940
30.38810,34267
30.39623,34756
30.40435,33044
30.41248,31862
30.42060,33896
30.42872,35077
30.43685,34661
30.44497,34458
30.45310,31803
30.46122,33772
30.46933,33221
30.47747,35624
30.48558,34860
30.49372,32529
30.50183,30469
30.50995,31369
30.51808,31790
30.52620,33419
30.53432,30586
30.54245,33690
30.55057,30069
30.55870,30300
30.56682,29412
30.57493,32694
30.58307,30084
30.59118,31644
30.59932,33267
30.60743,32666
30.61555,30917
30.62368,30263
30.63180,29137
30.63992,32434
30.64805,29549
30.65617,32311
30.66430,28931
30.67242,30088
30.68053,30323
30.68867,28475
30.69678,27258
30.70492,33556
30.71303,28087
30.72115,29382
30.72928,28759
30.73740,28766
30.74553,30755
30.75365,34394
30.76177,30618
30.76990,35343
30.77802,37239
30.78613,48268
30.79427,53853
30.80238,52635
30.81052,50012
30.81863,49812
30.82675,43022
30.83488,39680
30.84300,35147
30.85113,33012
30.85925,34043
30.86737,31339
30.87550,30957
30.88362,31260
30.89173,31560
30.89987,29769
30.90798,29195
30.91612,32110
30.92423,31511
30.93235,30087
30.94048,28623
30.94860,30953
30.95673,29132
30.96485,30054
30.97297,28728
30.98110,29991
30.98922,28713
30.99735,32400
31.00547,29047
31.01358,31707
31.02172,28627
31.02983,28899
31.03795,29166
31.04608,33326
31.05420,34554
31.06233,29361
31.07045,34421
31.07857,38743
31.08670,38673
31.09482,39995
31.10295,40489
31.11107,40640
31.11918,39104
31.12732,38538
31.13543,34303
31.14357,33053
31.15168,35146
31.15980,33844
31.16793,36873
31.17605,38108
31.18417,45383
31.19230,53671
31.20042,53816
31.20855,64827
31.21667,62105
31.22478,54512
31.23292,50887
31.24103,41438
31.24917,38940
31.25728,34090
31.26540,31006
31.27353,28391
31.28165,34169
31.28977,26654
31.29790,29570
31.30602,30377
31.31415,31237
31.32227,37373
31.33038,36993
31.33852,29563
31.34663,31125
31.35477,34700
31.36288,32042
31.37100,32540
31.37913,29689
31.38725,30126
31.39538,31132
31.40350,33365
31.41162,32068
31.41975,30825
31.42787,30575
31.43598,29348
31.44412,31280
31.45223,29025
31.46037,35554
31.46848,30032
31.47660,35267
31.48473,38832
31.49285,34465
31.50098,37591
31.50910,35873
31.51722,31889
31.52535,34314
31.53347,32976
31.54160,36875
31.54972,36214
31.55783,34001
31.56597,34276
31.57408,35531
31.58220,31345
31.59033,32842
31.59845,31568
31.60658,33928
31.61470,31308
31.62282,35069
31.63095,32415
31.63907,37546
31.64720,32478
31.65532,31886
31.66343,29346
31.67157,30511
31.67968,31350
31.68780,32148
31.69593,32437
31.70405,30724
31.71218,31852
31.72030,30097
31.72842,31101
31.73655,28212
31.74467,30494
31.75280,30368
31.76092,27851
31.76903,32585
31.77717,37472
31.78528,31776
31.79342,31078
31.80153,31752
31.80965,32474
31.81778,29382
31.82590,34522
31.83402,37782
31.84215,43559
31.85027,45839
31.85840,49591
31.86652,54553
31.87463,53083
31.88277,58962
31.89088,60289
31.89902,55302
31.90713,60194
31.91525,53966
31.92338,53381
31.93150,45911
31.93962,46518
31.94775,47118
31.95587,49351
31.96400,42366
31.97212,45062
31.98023,46451
31.98837,47685
31.99648,45251
32.00462,41133
32.01273,37564
32.02085,37723
32.02898,36142
32.03710,35447
32.04523,38622
32.05335,34199
32.06147,33894
32.06960,33385
32.07772,31782
32.08583,27032
32.09397,32447
32.10208,30991
32.11022,34044
32.11833,33122
32.12645,29529
32.13458,33322
32.14270,30944
32.15083,31660
32.15895,29807
32.16707,31184
32.17520,34088
32.18332,32008
32.19145,30250
32.19957,29771
32.20768,30939
32.21582,33668
32.22393,30927
32.23205,32605
32.24018,30856
32.24830,32430
32.25643,33449
32.26455,30847
32.27267,34824
32.28080,30469
32.28892,30096
32.29705,27680
32.30517,31843
32.31328,31335
32.32142,30531
32.32953,31253
32.33767,31242
32.34578,30827
32.35390,28836
32.36203,30808
32.37015,31153
32.37827,32478
32.38640,26441
32.39452,30300
32.40265,31549
32.41077,32982
32.41888,30057
32.42702,28813
32.43513,32104
32.44327,30494
32.45138,32930
32.45950,30657
32.46763,29180
32.47575,31488
32.48387,27981
32.49200,29143
32.50012,31538
32.50825,30433
32.51637,28725
32.52448,26889
32.53262,31384
32.54073,30813
32.54887,28966
32.55698,28388
32.56510,32479
32.57323,34626
32.58135,38088
32.58948,40005
32.59760,35755
32.60572,37959
32.61385,32646
32.62197,27751
32.63008,28790
32.63822,30475
32.64633,30348
32.65447,33853
32.66258,34472
32.67070,32100
32.67883,28766
32.68695,27730
32.69508,30621
32.70320,31025
32.71132,29558
32.71945,33972
32.72757,30917
32.73568,33282
32.74382,33957
32.75193,30862
32.76007,28157
32.76818,32714
32.77630,30501
32.78443,29464
32.79255,28849
32.80068,31345
32.80880,30532
32.81692,32006
32.82505,30579
32.83317,31220
32.84130,28432
32.84942,30713
32.85753,28434
32.86567,27801
32.87378,29697
32.88190,29184
32.89003,29213
32.89815,28932
32.90628,29271
32.91440,29470
32.92252,30096
32.93065,30450
32.93877,27773
32.94690,32844
32.95502,30327
32.96313,34270
32.97127,37624
32.97938,42866
32.98752,47044
32.99563,49918
33.00375,48210
33.01188,46787
33.02000,43402
33.02812,36470
33.03625,36865
33.04437,39153
33.05250,35307
33.06062,32846
33.06873,34829
33.07687,33704
33.08498,34538
33.09312,38134
33.10123,41490
33.10935,45294
33.11748,41265
33.12560,41695
33.13372,44014
33.14185,36583
33.14997,36017
33.15810,33649
33.16622,36476
33.17433,34296
33.18247,31407
33.19058,30394
33.19872,30747
33.20683,31792
33.21495,30765
33.22308,29447
33.23120,29464
33.23933,31321
33.24745,31214
33.25557,28450
33.26370,28755
33.27182,29997
33.27993,29757
33.28807,29956
33.29618,32741
33.30432,31063
33.31243,30708
33.32055,30323
33.32868,31021
33.33680,33480
33.34493,33087
33.35305,28909
33.36117,30251
33.36930,32125
33.37742,31272
33.38555,32685
33.39367,29835
33.40178,32095
33.40992,31851
33.41803,30730
33.42615,30349
33.43428,31473
33.44240,31667
33.45053,32672
33.45865,29689
33.46677,32847
33.47490,34113
33.48302,29337
33.49115,31937
33.49927,32893
33.50738,32922
33.51552,32457
33.52363,35547
33.53175,31592
33.53988,34453
33.54800,32092
33.55613,33520
33.56425,33786
33.57237,32431
33.58050,32240
33.58862,31295
33.59675,32549
33.60487,30991
33.61298,31444
33.62112,31541
33.62923,31360
33.63737,32621
33.64548,31526
33.65360,29976
33.66173,30916
33.66985,30385
33.67797,32357
33.68610,28216
33.69422,29088
33.70235,32244
33.71047,31549
33.71858,31897
33.72672,33275
33.73483,34067
33.74297,33461
33.75108,34747
33.75920,34557
33.76733,29588
33.77545,33480
33.78357,32017
33.79170,31813
33.79982,34659
33.80795,32718
33.81607,32703
33.82418,33271
33.83232,34985
33.84043,36111
33.84857,30701
33.85668,32418
33.86480,31090
33.87293,32664
33.88105,32546
33.88918,33824
33.89730,31069
33.90542,35065
33.91355,32999
33.92167,33846
33.92978,34098
33.93792,33647
33.94603,30730
33.95417,29188
33.96228,30687
33.97040,29505
33.97853,32658
33.98665,33627
33.99478,32419
34.00290,31805
34.01102,31818
34.01915,32618
34.02727,29719
34.03540,31151
34.04352,33778
34.05163,30539
34.05977,28897
34.06788,32588
34.07600,31951
34.08413,32679
34.09225,31681
34.10038,33367
34.10850,31348
34.11662,31049
34.12475,34197
34.13287,32417
34.14100,33258
34.14912,28985
34.15723,34349
34.16537,32064
34.17348,32399
34.18160,31063
34.18973,30500
34.19785,31662
34.20598,35581
34.21410,29471
34.22222,30221
34.23035,31441
34.23847,32389
34.24660,31336
34.25472,33722
34.26283,35950
34.27097,31584
34.27908,33121
34.28722,31629
34.29533,30943
34.30345,32163
34.31158,31646
34.31970,33116
34.32782,30079
34.33595,31419
34.34407,31255
34.35220,31696
34.36032,31790
34.36843,33062
34.37657,31954
34.38468,34193
34.39282,35297
34.40093,31948
34.40905,31264
34.41718,33787
34.42530,33744
34.43343,40039
34.44155,38480
34.44967,44575
34.45780,46190
34.46592,51494
34.47403,58238
34.48217,62685
34.49028,58947
34.49842,55783
34.50653,53555
34.51465,54187
34.52278,48893
34.53090,46730
34.53903,44836
34.54715,44608
34.55527,42310
34.56340,41604
34.57152,39487
34.57963,36204
34.58777,38279
34.59588,37149
34.60402,35598
34.61213,35794
34.62025,41568
34.62838,37682
34.63650,38853
34.64463,37192
34.65275,36776
34.66087,37767
34.66900,35813
34.67712,37253
34.68525,36753
34.69337,34272
34.70148,33832
34.70962,34967
34.71773,32273
34.72585,35322
34.73398,30987
34.74210,34624
34.75023,35201
34.75835,30618
34.76647,34368
34.77460,32304
34.78272,35928
34.79085,36567
34.79897,34787
34.80708,35204
34.81522,34109
34.82333,34570
34.83145,36069
34.83958,35155
34.84770,35677
34.85583,35814
34.86395,33532
34.87207,33375
34.88020,36303
34.88832,38232
34.89645,36308
34.90457,34582
34.91268,34790
34.92082,35179
34.92893,34683
34.93707,33885
34.94518,34982
34.95330,34793
34.96143,35237
34.96955,35567
34.97767,34954
34.98580,37977
34.99392,36542
35.00205,34716
35.01017,34553
35.01828,33217
35.02642,32482
35.03453,34265
35.04267,36453
35.05078,38721
35.05890,35006
35.06703,38854
35.07515,39640
35.08328,36119
35.09140,40337
35.09952,32509
35.10765,35264
35.11577,34886
35.12388,37080
35.13202,35197
35.14013,36620
35.14827,35687
35.15638,36039
35.16450,34321
35.17263,36557
35.18075,37053
35.18888,34707
35.19700,35053
35.20512,35363
35.21325,38737
35.22137,36025
35.22948,33224
35.23762,36046
35.24573,33169
35.25387,35344
35.26198,33398
35.27010,35559
35.27823,34080
35.28635,40691
35.29448,33605
35.30260,37350
35.31072,34194
35.31885,35346
35.32697,32898
35.33510,41361
35.34322,37939
35.35133,32954
35.35947,32912
35.36758,33222
35.37570,35590
35.38383,34120
35.39195,36080
35.40008,37464
35.40820,38010
35.41632,39658
35.42445,38749
35.43257,39332
35.44070,37909
35.44882,36879
35.45693,36752
35.46507,39603
35.47318,36178
35.48132,40235
35.48943,38868
35.49755,41877
35.50568,36827
35.51380,35799
35.52192,37810
35.53005,38837
35.53817,35551
35.54630,34814
35.55442,38296
35.56253,38459
35.57067,46757
35.57878,41292
35.58692,41212
35.59503,41559
35.60315,44538
35.61128,42430
35.61940,43529
35.62752,36809
35.63565,40779
35.64377,37690
35.65190,41177
35.66002,38922
35.66813,43198
35.67627,37401
35.68438,36868
35.69252,34548
35.70063,38993
35.70875,35733
35.71688,36957
35.72500,37953
35.73313,37620
35.74125,34749
35.74937,44627
35.75750,38269
35.76562,37994
35.77373,36207
35.78187,39542
35.78998,41002
35.79812,38236
35.80623,38755
35.81435,35275
35.82248,43912
35.83060,38006
35.83873,39148
35.84685,35645
35.85497,38349
35.86310,40131
35.87122,39384
35.87935,36104
35.88747,35056
35.89558,39788
35.90372,37645
35.91183,39316
35.91995,38317
35.92808,38894
35.93620,39437
35.94433,38543
35.95245,37048
35.96057,37194
35.96870,37261
35.97682,38106
35.98495,39438
35.99307,42562
36.00118,42666
36.00932,41676
36.01743,42296
36.02555,45534
36.03368,41321
36.04180,43691
36.04993,42901
36.05805,40602
36.06617,37374
36.07430,40977
36.08242,41850
36.09055,40534
36.09867,43047
36.10678,40710
36.11492,40568
36.12303,39931
36.13117,38511
36.13928,38615
36.14740,38101
36.15553,40371
36.16365,39560
36.17177,36104
36.17990,39077
36.18802,38857
36.19615,38103
36.20427,41424
36.21238,45924
36.22052,43906
36.22863,50281
36.23677,46566
36.24488,47935
36.25300,42111
36.26113,41345
36.26925,40324
36.27737,43751
36.28550,44889
36.29362,43428
36.30175,40143
36.30987,39877
36.31798,39104
36.32612,36425
36.33423,38877
36.34237,38768
36.35048,37612
36.35860,35079
36.36673,41356
36.37485,41771
36.38298,45005
36.39110,43407
36.39922,42341
36.40735,39261
36.41547,39678
36.42358,39300
36.43172,43651
36.43983,36504
36.44797,43676
36.45608,38030
36.46420,41814
36.47233,42147
36.48045,40489
36.48858,41483
36.49670,40572
36.50482,40015
36.51295,39587
36.52107,40061
36.52920,40489
36.53732,43709
36.54543,41325
36.55357,41771
36.56168,41062
36.56980,42777
36.57793,45922
36.58605,41527
36.59418,43991
36.60230,43971
36.61042,39823
36.61855,44102
36.62667,42072
36.63480,43101
36.64292,39053
36.65103,39665
36.65917,43159
36.66728,43388
36.67540,44184
36.68353,45416
36.69165,41017
36.69978,41939
36.70790,40979
36.71602,42835
36.72415,34822
36.73227,39331
36.74040,42495
36.74852,44294
36.75663,44244
36.76477,43501
36.77288,44791
36.78102,42845
36.78913,41869
36.79725,43088
36.80538,39755
36.81350,40992
36.82162,42538
36.82975,41283
36.83787,39004
36.84600,46778
36.85412,42586
36.86223,41581
36.87037,41216
36.87848,42908
36.88662,43256
36.89473,41499
36.90285,41532
36.91098,43091
36.91910,42578
36.92723,42006
36.93535,44112
36.94347,51531
36.95160,48288
36.95972,49211
36.96783,48069
36.97597,49286
36.98408,42938
36.99222,46880
37.00033,48220
37.00845,52555
37.01658,55769
37.02470,49612
37.03283,47932
37.04095,49691
37.04907,48539
37.05720,49425
37.06532,46994
37.07343,43016
37.08157,46740
37.08968,47629
37.09782,47154
37.10593,49038
37.11405,47843
37.12218,46351
37.13030,48944
37.13843,41858
37.14655,46437
37.15467,44404
37.16280,42518
37.17092,44639
37.17905,44937
37.18717,42992
37.19528,43370
37.20342,48302
37.21153,40865
37.21965,47325
37.22778,50279
37.23590,50634
37.24403,57344
37.25215,56071
37.26027,63014
37.26840,64156
37.27652,62752
37.28465,63574
37.29277,62264
37.30088,63051
37.30902,60630
37.31713,61581
37.32525,55266
37.33338,56157
37.34150,49498
37.34963,50728
37.35775,51635
37.36587,48965
37.37400,51728
37.38212,46466
37.39025,50538
37.39837,50764
37.40648,48767
37.41462,44780
37.42273,47680
37.43087,51155
37.43898,50396
37.44710,47834
37.45523,51722
37.46335,53419
37.47147,51150
37.47960,47996
37.48772,48133
