C:\MassHunter\GCMS\1\data\JTB-E02\BACandBLUE\JTB-E18-015-08.D Wed Jun 26 10:36:19 2019
Start of data points
2.09515	81469
2.10328	81561
2.11140	84223
2.11953	78912
2.12765	81310
2.13577	79032
2.14390	77644
2.15202	85751
2.16013	79580
2.16827	79369
2.17638	79044
2.18452	78457
2.19263	82420
2.20075	94054
2.20888	407935
2.21700	1060534
2.22513	673652
2.23325	329907
2.24137	253336
2.24950	210247
2.25762	196327
2.26575	178103
2.27387	183136
2.28198	166914
2.29012	152025
2.29823	147211
2.30635	140230
2.31448	139011
2.32260	138312
2.33073	129219
2.33885	135051
2.34697	130737
2.35510	126119
2.36322	126984
2.37135	123520
2.37947	127023
2.38758	119925
2.39572	121063
2.40383	117949
2.41197	113647
2.42008	121350
2.42820	140558
2.43633	152012
2.44445	129635
2.45257	119637
2.46070	117171
2.46882	124775
2.47695	116961
2.48507	119619
2.49318	147669
2.50132	192691
2.50943	163137
2.51757	145295
2.52568	128447
2.53380	130332
2.54193	297506
2.55005	996956
2.55817	1073638
2.56630	599435
2.57442	371611
2.58255	286448
2.59067	236579
2.59878	204166
2.60692	183890
2.61503	166809
2.62317	155549
2.63128	154136
2.63940	143039
2.64753	138707
2.65565	132789
2.66378	130655
2.67190	133077
2.68002	124575
2.68815	120485
2.69627	123727
2.70438	118723
2.71252	126308
2.72063	180503
2.72877	287736
2.73688	247188
2.74500	177529
2.75313	169112
2.76125	184960
2.76938	184928
2.77750	162028
2.78562	140836
2.79375	132826
2.80187	131676
2.81000	128061
2.81812	121475
2.82623	115295
2.83437	121394
2.84248	119189
2.85060	115703
2.85873	113454
2.86685	113073
2.87498	110723
2.88310	111333
2.89122	111643
2.89935	120310
2.90747	142699
2.91560	142822
2.92372	131691
2.93183	122579
2.93997	123191
2.94808	119013
2.95620	120159
2.96433	113231
2.97245	109844
2.98058	111920
2.98870	108657
2.99682	111607
3.00495	111865
3.01307	117018
3.02120	233550
3.02932	1134496
3.03743	2942556
3.04557	4198966
3.05368	5237353
3.06182	4503103
3.06993	2776133
3.07805	1837292
3.08618	1438590
3.09430	1143381
3.10242	944428
3.11055	846080
3.11867	792197
3.12680	879001
3.13492	1470038
3.14303	2007069
3.15117	1583045
3.15928	1111091
3.16742	905418
3.17553	761013
3.18365	657295
3.19178	594925
3.19990	532534
3.20802	488444
3.21615	440665
3.22427	422982
3.23240	533251
3.24052	1269420
3.24863	3400760
3.25677	5828547
3.26488	6108775
3.27302	4469389
3.28113	2898236
3.28925	2047472
3.29738	1602380
3.30550	1321794
3.31363	1130529
3.32175	1026936
3.32987	889605
3.33800	831997
3.34612	761893
3.35423	713672
3.36237	662384
3.37048	614379
3.37862	586204
3.38673	562638
3.39485	524168
3.40298	502088
3.41110	509061
3.41923	521623
3.42735	499938
3.43547	471031
3.44360	455593
3.45172	438518
3.45985	416774
3.46797	401364
3.47608	413478
3.48422	420857
3.49233	426061
3.50045	405425
3.50858	390389
3.51670	439852
3.52483	498663
3.53295	483728
3.54107	426574
3.54920	382328
3.55732	373190
3.56545	377530
3.57357	374925
3.58168	374856
3.58982	368936
3.59793	367660
3.60607	412976
3.61418	1064973
3.62230	3701946
3.63043	7060679
3.63855	6849263
3.64667	4246704
3.65480	2612059
3.66292	1947070
3.67105	1621825
3.67917	1398446
3.68728	1246275
3.69542	1117259
3.70353	1030562
3.71167	944660
3.71978	885543
3.72790	833446
3.73603	815798
3.74415	778931
3.75227	972631
3.76040	1671263
3.76852	2423633
3.77665	2229493
3.78477	1586703
3.79288	1204461
3.80102	1019725
3.80913	894657
3.81727	825571
3.82538	762537
3.83350	712898
3.84163	688548
3.84975	653891
3.85788	621181
3.86600	685146
3.87412	815794
3.88225	941007
3.89037	923446
3.89848	1209419
3.90662	2782220
3.91473	5659493
3.92287	7067701
3.93098	5581738
3.93910	3550399
3.94723	4243034
3.95535	1.139343E+07
3.96348	2.445019E+07
3.97160	3.155372E+07
3.97972	2.638668E+07
3.98785	1.491888E+07
3.99597	8001601
4.00408	5131042
4.01222	3819709
4.02033	3067473
4.02847	2509090
4.03658	2139778
4.04470	1869315
4.05283	1655894
4.06095	1477497
4.06908	1317041
4.07720	1219138
4.08532	1145188
4.09345	1179342
4.10157	1333294
4.10970	1445883
4.11782	1332403
4.12593	1141388
4.13407	1010542
4.14218	927928
4.15030	838089
4.15843	901511
4.16655	1737267
4.17468	5058623
4.18280	1.132117E+07
4.19092	1.632113E+07
4.19905	1.629865E+07
4.20717	1.171992E+07
4.21530	7069591
4.22342	4864285
4.23153	3658931
4.23967	2920952
4.24778	2395762
4.25592	2059993
4.26403	1818735
4.27215	1633363
4.28028	1462046
4.28840	1341786
4.29652	1274574
4.30465	1223463
4.31277	1155227
4.32090	1146180
4.32902	1075302
4.33713	992716
4.34527	912011
4.35338	851257
4.36152	814259
4.36963	777186
4.37775	734793
4.38588	716871
4.39400	690988
4.40212	683884
4.41025	665168
4.41837	633484
4.42650	620168
4.43462	611447
4.44273	596001
4.45087	571829
4.45898	560621
4.46712	547295
4.47523	531738
4.48335	511579
4.49148	519121
4.49960	500368
4.50773	496350
4.51585	490194
4.52397	478984
4.53210	458078
4.54022	446764
4.54833	442498
4.55647	433113
4.56458	427092
4.57272	450136
4.58083	511397
4.58895	712636
4.59708	962401
4.60520	1044667
4.61333	875760
4.62145	686277
4.62957	562921
4.63770	507461
4.64582	478049
4.65395	454628
4.66207	434613
4.67018	403873
4.67832	392426
4.68643	379318
4.69455	380055
4.70268	357560
4.71080	356598
4.71893	344991
4.72705	355682
4.73517	344944
4.74330	345796
4.75142	371470
4.75955	436486
4.76767	513112
4.77578	498823
4.78392	458068
4.79203	424906
4.80015	424375
4.80828	427678
4.81640	423035
4.82453	412471
4.83265	399982
4.84077	373397
4.84890	356593
4.85702	337205
4.86515	331637
4.87327	329602
4.88138	321551
4.88952	327431
4.89763	389657
4.90577	615786
4.91388	1231815
4.92200	2193832
4.93013	3006091
4.93825	3085967
4.94637	2590329
4.95450	1872171
4.96262	1399646
4.97075	1084166
4.97887	920987
4.98698	953083
4.99512	1220264
5.00323	1514762
5.01137	1543387
5.01948	1280536
5.02760	1023039
5.03573	879565
5.04385	774481
5.05197	724109
5.06010	664402
5.06822	625375
5.07635	593106
5.08447	561650
5.09258	541464
5.10072	519402
5.10883	517223
5.11697	547899
5.12508	590785
5.13320	615237
5.14133	599485
5.14945	544139
5.15758	538993
5.16570	561580
5.17382	580239
5.18195	564239
5.19007	531996
5.19818	497002
5.20632	471038
5.21443	444821
5.22257	418324
5.23068	396650
5.23880	391813
5.24693	376032
5.25505	365965
5.26318	348701
5.27130	346500
5.27942	347924
5.28755	349648
5.29567	368774
5.30380	399703
5.31192	407116
5.32003	379756
5.32817	357132
5.33628	339842
5.34440	344500
5.35253	334793
5.36065	356984
5.36878	354255
5.37690	341259
5.38502	324623
5.39315	307717
5.40127	305705
5.40940	313620
5.41752	324699
5.42563	312828
5.43377	313337
5.44188	300304
5.45000	289926
5.45813	280993
5.46625	278110
5.47438	276847
5.48250	298605
5.49062	286833
5.49875	283492
5.50687	268163
5.51500	272126
5.52312	291794
5.53123	326344
5.53937	354533
5.54748	360868
5.55562	331928
5.56373	293156
5.57185	281976
5.57998	279793
5.58810	279755
5.59622	284649
5.60435	306543
5.61247	297158
5.62060	297629
5.62872	282206
5.63683	273719
5.64497	283945
5.65308	304229
5.66122	329576
5.66933	332239
5.67745	309057
5.68558	286269
5.69370	272630
5.70183	262903
5.70995	251209
5.71807	248934
5.72620	244704
5.73432	244785
5.74243	237051
5.75057	230018
5.75868	232871
5.76682	230216
5.77493	224814
5.78305	221749
5.79118	227747
5.79930	224809
5.80743	228409
5.81555	230732
5.82367	219903
5.83180	222202
5.83992	218835
5.84803	220342
5.85617	213873
5.86428	200917
5.87242	212011
5.88053	211707
5.88865	219259
5.89678	215561
5.90490	209342
5.91303	195543
5.92115	188056
5.92927	204431
5.93740	225234
5.94552	259648
5.95365	288083
5.96177	325836
5.96988	314854
5.97802	289676
5.98613	252648
5.99425	217253
6.00238	196452
6.01050	176427
6.01863	171141
6.02675	166200
6.03487	157316
6.04300	155125
6.05112	161327
6.05925	148074
6.06737	157636
6.07548	157322
6.08362	161845
6.09173	193450
6.09987	269911
6.10798	432768
6.11610	572528
6.12423	576889
6.13235	485320
6.14047	356197
6.14860	290690
6.15672	252013
6.16485	226364
6.17297	221793
6.18108	214033
6.18922	219704
6.19733	205528
6.20547	206427
6.21358	205835
6.22170	210124
6.22983	221664
6.23795	206435
6.24607	214565
6.25420	197825
6.26232	196497
6.27045	199787
6.27857	199229
6.28668	200476
6.29482	202148
6.30293	206916
6.31107	212133
6.31918	216364
6.32730	208777
6.33543	200823
6.34355	198339
6.35168	204087
6.35980	206366
6.36792	199263
6.37605	205264
6.38417	193193
6.39228	196446
6.40042	191504
6.40853	196190
6.41667	201016
6.42478	208379
6.43290	197940
6.44103	201405
6.44915	196713
6.45728	193632
6.46540	198280
6.47352	205135
6.48165	197365
6.48977	199150
6.49788	199133
6.50602	209142
6.51413	208320
6.52227	206963
6.53038	213666
6.53850	230192
6.54663	249670
6.55475	273300
6.56288	277249
6.57100	260595
6.57912	241453
6.58725	234174
6.59537	226258
6.60350	224429
6.61162	231485
6.61973	304623
6.62787	545184
6.63598	1012970
6.64410	1465927
6.65223	1522016
6.66035	1182396
6.66848	821334
6.67660	566240
6.68472	443265
6.69285	382810
6.70097	363277
6.70910	325354
6.71722	313609
6.72533	298757
6.73347	261881
6.74158	240597
6.74972	238879
6.75783	222551
6.76595	208066
6.77408	201111
6.78220	191350
6.79032	184101
6.79845	176833
6.80657	180457
6.81470	191067
6.82282	203884
6.83093	246367
6.83907	281411
6.84718	268497
6.85532	239675
6.86343	191802
6.87155	147786
6.87968	121275
6.88780	119216
6.89592	112135
6.90405	108723
6.91217	101635
6.92030	104097
6.92842	110067
6.93653	119425
6.94467	136869
6.95278	161073
6.96092	161203
6.96903	150455
6.97715	132518
6.98528	119552
6.99340	100501
7.00153	104659
7.00965	108178
7.01777	109821
7.02590	110779
7.03402	105619
7.04213	107256
7.05027	104799
7.05838	101053
7.06652	99461
7.07463	96591
7.08275	90941
7.09088	92598
7.09900	95360
7.10713	99636
7.11525	112844
7.12337	165234
7.13150	216263
7.13962	275387
7.14775	273143
7.15587	220534
7.16398	183689
7.17212	140669
7.18023	143033
7.18835	179273
7.19648	348581
7.20460	743385
7.21273	1243982
7.22085	1538513
7.22897	1355695
7.23710	947557
7.24522	585807
7.25335	396442
7.26147	310358
7.26958	243775
7.27772	176529
7.28583	145572
7.29395	130828
7.30208	127297
7.31020	129035
7.31833	122090
7.32645	111855
7.33457	107781
7.34270	106809
7.35082	114363
7.35895	112067
7.36707	121541
7.37518	120964
7.38332	116000
7.39143	108366
7.39957	102025
7.40768	95720
7.41580	93043
7.42393	97215
7.43205	95355
7.44017	95141
7.44830	95437
7.45642	89860
7.46455	90080
7.47267	90155
7.48078	88690
7.48892	103745
7.49703	124522
7.50517	184386
7.51328	281420
7.52140	381722
7.52953	479672
7.53765	507458
7.54577	476162
7.55390	394598
7.56202	296747
7.57015	214944
7.57827	158206
7.58638	125683
7.59452	116934
7.60263	106947
7.61077	103434
7.61888	90642
7.62700	87776
7.63513	92849
7.64325	86309
7.65138	82425
7.65950	81101
7.66762	80006
7.67575	84851
7.68387	82787
7.69198	83267
7.70012	82335
7.70823	85832
7.71637	83042
7.72448	82171
7.73260	85871
7.74073	86535
7.74885	87274
7.75698	89789
7.76510	95138
7.77322	100314
7.78135	106018
7.78947	109030
7.79760	110073
7.80572	105717
7.81383	88616
7.82197	86650
7.83008	84725
7.83820	92212
7.84633	98639
7.85445	101324
7.86258	105349
7.87070	113379
7.87882	99682
7.88695	91360
7.89507	93401
7.90320	95821
7.91132	114489
7.91943	138988
7.92757	148694
7.93568	155314
7.94382	137963
7.95193	115025
7.96005	95288
7.96818	87024
7.97630	77791
7.98442	70892
7.99255	73352
8.00067	75956
8.00880	68233
8.01692	76184
8.02503	75285
8.03317	80442
8.04128	72406
8.04942	71922
8.05753	73734
8.06565	69429
8.07378	69259
8.08190	69790
8.09002	68527
8.09815	73632
8.10627	71806
8.11440	76772
8.12252	96175
8.13063	109515
8.13877	112311
8.14688	101085
8.15502	94647
8.16313	75591
8.17125	71808
8.17938	73293
8.18750	70387
8.19563	70940
8.20375	71668
8.21187	74536
8.22000	64928
8.22812	74850
8.23623	61226
8.24437	65529
8.25248	60376
8.26062	61736
8.26873	63243
8.27685	61496
8.28498	63107
8.29310	71710
8.30123	72582
8.30935	72996
8.31747	68784
8.32560	67920
8.33372	67243
8.34183	65886
8.34997	68935
8.35808	73490
8.36622	68820
8.37433	71923
8.38245	66445
8.39058	66365
8.39870	58904
8.40683	60762
8.41495	60395
8.42307	62384
8.43120	53501
8.43932	51886
8.44745	59680
8.45557	60362
8.46368	59372
8.47182	57227
8.47993	59528
8.48805	55965
8.49618	55618
8.50430	65700
8.51243	93806
8.52055	162315
8.52867	250385
8.53680	324709
8.54492	324540
8.55305	253635
8.56117	179046
8.56928	127894
8.57742	97899
8.58553	92764
8.59367	83622
8.60178	83512
8.60990	75042
8.61803	78897
8.62615	71016
8.63427	68160
8.64240	64712
8.65052	68965
8.65865	69690
8.66677	73069
8.67488	69864
8.68302	73347
8.69113	74555
8.69927	68763
8.70738	66593
8.71550	64413
8.72363	61612
8.73175	68407
8.73987	93442
8.74800	173542
8.75612	357184
8.76425	663640
8.77237	952655
8.78048	1092996
8.78862	986920
8.79673	705183
8.80487	489870
8.81298	314990
8.82110	227413
8.82923	192636
8.83735	188334
8.84548	191570
8.85360	187348
8.86172	173378
8.86985	167009
8.87797	154396
8.88608	144973
8.89422	141409
8.90233	134963
8.91047	133006
8.91858	136299
8.92670	154311
8.93483	157746
8.94295	164490
8.95108	155882
8.95920	152174
8.96732	143486
8.97545	135026
8.98357	131583
8.99170	129141
8.99982	118186
9.00793	114834
9.01607	111470
9.02418	103568
9.03230	101966
9.04043	104372
9.04855	98849
9.05668	101718
9.06480	101890
9.07292	97999
9.08105	114324
9.08917	123111
9.09730	144068
9.10542	146129
9.11353	140500
9.12167	134901
9.12978	115068
9.13790	107990
9.14603	100165
9.15415	96151
9.16228	100262
9.17040	88126
9.17852	90960
9.18665	88529
9.19477	83641
9.20290	88302
9.21102	88677
9.21913	85269
9.22727	85374
9.23538	88794
9.24352	80033
9.25163	89356
9.25975	81136
9.26788	82732
9.27600	79803
9.28412	80536
9.29225	82382
9.30037	83989
9.30850	80651
9.31662	79174
9.32473	79842
9.33287	81514
9.34098	82461
9.34912	76590
9.35723	79652
9.36535	74476
9.37348	77121
9.38160	84228
9.38972	88266
9.39785	100124
9.40597	114129
9.41410	127984
9.42222	133551
9.43033	138921
9.43847	123652
9.44658	115697
9.45472	96890
9.46283	87803
9.47095	76708
9.47908	76362
9.48720	82012
9.49533	82974
9.50345	93095
9.51157	91688
9.51970	95696
9.52782	93788
9.53593	90148
9.54407	79190
9.55218	78617
9.56032	80634
9.56843	78273
9.57655	81021
9.58468	71687
9.59280	69622
9.60093	64958
9.60905	54529
9.61717	53298
9.62530	52286
9.63342	59694
9.64155	50762
9.64967	47514
9.65778	50894
9.66592	46355
9.67403	47949
9.68215	47020
9.69028	47296
9.69840	41049
9.70653	43734
9.71465	44193
9.72277	45064
9.73090	41859
9.73902	44001
9.74715	42033
9.75527	46425
9.76338	41826
9.77152	43158
9.77963	40728
9.78775	40597
9.79588	40795
9.80400	42167
9.81213	38839
9.82025	41500
9.82837	41020
9.83650	40416
9.84462	40083
9.85275	39808
9.86087	45831
9.86898	50328
9.87712	43912
9.88523	47163
9.89337	48101
9.90148	47225
9.90960	53064
9.91773	68676
9.92585	103777
9.93397	147160
9.94210	186185
9.95022	204094
9.95835	184494
9.96647	147789
9.97458	111689
9.98272	87330
9.99083	81747
9.99897	73153
10.00708	66983
10.01520	65730
10.02333	60213
10.03145	63939
10.03958	52071
10.04770	54376
10.05582	56233
10.06395	54782
10.07207	55028
10.08018	56327
10.08832	58140
10.09643	56605
10.10457	56883
10.11268	53546
10.12080	51982
10.12893	50649
10.13705	52424
10.14518	50944
10.15330	50599
10.16142	46742
10.16955	51009
10.17767	50415
10.18578	48321
10.19392	44994
10.20203	49880
10.21017	48568
10.21828	46929
10.22640	50370
10.23453	50313
10.24265	60450
10.25078	99231
10.25890	207229
10.26702	459479
10.27515	938595
10.28327	1571433
10.29140	2307691
10.29952	3144557
10.30763	4499618
10.31577	6494496
10.32388	8092672
10.33200	8563605
10.34013	7098189
10.34825	4767175
10.35638	2881453
10.36450	1755047
10.37262	1192769
10.38075	824538
10.38887	583275
10.39700	431847
10.40512	336088
10.41323	286155
10.42137	251263
10.42948	235107
10.43760	228784
10.44573	222645
10.45385	212770
10.46198	204425
10.47010	184644
10.47822	179225
10.48635	161716
10.49447	151843
10.50260	139793
10.51072	141435
10.51883	144177
10.52697	129299
10.53508	128839
10.54322	129878
10.55133	124259
10.55945	123286
10.56758	126234
10.57570	126714
10.58382	112448
10.59195	106024
10.60007	106519
10.60820	97735
10.61632	97635
10.62443	93914
10.63257	87915
10.64068	92121
10.64882	79963
10.65693	81915
10.66505	84446
10.67318	84985
10.68130	82881
10.68943	81932
10.69755	78994
10.70567	79803
10.71380	83261
10.72192	81980
10.73003	81357
10.73817	83068
10.74628	75747
10.75442	77795
10.76253	70535
10.77065	71436
10.77878	71764
10.78690	66502
10.79503	73992
10.80315	67102
10.81127	75313
10.81940	71869
10.82752	67574
10.83563	64026
10.84377	60806
10.85188	62059
10.86002	57010
10.86813	62864
10.87625	58969
10.88438	61001
10.89250	56417
10.90063	56462
10.90875	58229
10.91687	56979
10.92500	55168
10.93312	52932
10.94125	53580
10.94937	54541
10.95748	52831
10.96562	58310
10.97373	56633
10.98185	60111
10.98998	56033
10.99810	53983
11.00623	56717
11.01435	51135
11.02247	50997
11.03060	49820
11.03872	46819
11.04685	50133
11.05497	52109
11.06308	54920
11.07122	54048
11.07933	59309
11.08747	58926
11.09558	58442
11.10370	54536
11.11183	51841
11.11995	52125
11.12807	49469
11.13620	47418
11.14432	45984
11.15245	43094
11.16057	47191
11.16868	48604
11.17682	52699
11.18493	48774
11.19307	51785
11.20118	52852
11.20930	48166
11.21743	47255
11.22555	42087
11.23367	44919
11.24180	40953
11.24992	37518
11.25805	41552
11.26617	40480
11.27428	42323
11.28242	50529
11.29053	63121
11.29867	98970
11.30678	176110
11.31490	298600
11.32303	459740
11.33115	604536
11.33928	658514
11.34740	603161
11.35552	462962
11.36365	325328
11.37177	215383
11.37988	159736
11.38802	135722
11.39613	120070
11.40427	114497
11.41238	107491
11.42050	101633
11.42863	94350
11.43675	82201
11.44488	89921
11.45300	83412
11.46112	87559
11.46925	111124
11.47737	148495
11.48550	180020
11.49362	205044
11.50173	217196
11.50987	172769
11.51798	143351
11.52610	123870
11.53423	100729
11.54235	96714
11.55048	91027
11.55860	89345
11.56672	83329
11.57485	84414
11.58297	79770
11.59110	89728
11.59922	104359
11.60733	121429
11.61547	136102
11.62358	134211
11.63170	119514
11.63983	102193
11.64795	80432
11.65608	68404
11.66420	61382
11.67232	63028
11.68045	64009
11.68857	61343
11.69670	61157
11.70482	61388
11.71293	56861
11.72107	55899
11.72918	55824
11.73732	57903
11.74543	56499
11.75355	54527
11.76168	53032
11.76980	49757
11.77792	48558
11.78605	48436
11.79417	46767
11.80230	52131
11.81042	52361
11.81853	49236
11.82667	52664
11.83478	55312
11.84292	53971
11.85103	61341
11.85915	55218
11.86728	54326
11.87540	52218
11.88352	46892
11.89165	51724
11.89977	43935
11.90790	47837
11.91602	48393
11.92413	54044
11.93227	52310
11.94038	49449
11.94852	45983
11.95663	43211
11.96475	44448
11.97288	57573
11.98100	76171
11.98913	105101
11.99725	143150
12.00537	169138
12.01350	175845
12.02162	154807
12.02973	117882
12.03787	86617
12.04598	73736
12.05412	62965
12.06223	63661
12.07035	61847
12.07848	59784
12.08660	53768
12.09473	58536
12.10285	58835
12.11097	58565
12.11910	60241
12.12722	66819
12.13535	61082
12.14347	62907
12.15158	55422
12.15972	52997
12.16783	51143
12.17595	46411
12.18408	49090
12.19220	47081
12.20033	45644
12.20845	43917
12.21657	46780
12.22470	44949
12.23282	45029
12.24095	47304
12.24907	41270
12.25718	45337
12.26532	44172
12.27343	46001
12.28155	44683
12.28968	42309
12.29780	45379
12.30593	38809
12.31405	41732
12.32217	41548
12.33030	38859
12.33842	42968
12.34655	42230
12.35467	39969
12.36278	37861
12.37092	38305
12.37903	42375
12.38717	43876
12.39528	48665
12.40340	56101
12.41153	71472
12.41965	83011
12.42777	81037
12.43590	80372
12.44402	76092
12.45215	67095
12.46027	57758
12.46838	58508
12.47652	52126
12.48463	51394
12.49277	49871
12.50088	45895
12.50900	47950
12.51713	47462
12.52525	57529
12.53338	64807
12.54150	82978
12.54962	96029
12.55775	122027
12.56587	133697
12.57398	116104
12.58212	99440
12.59023	81157
12.59837	69401
12.60648	56804
12.61460	58082
12.62273	56792
12.63085	49840
12.63898	46534
12.64710	48378
12.65522	45202
12.66335	41983
12.67147	42771
12.67958	48577
12.68772	44323
12.69583	44178
12.70397	44809
12.71208	43001
12.72020	49867
12.72833	49220
12.73645	51835
12.74458	49753
12.75270	50722
12.76082	46213
12.76895	41594
12.77707	40621
12.78520	36074
12.79332	36727
12.80143	38349
12.80957	35934
12.81768	37059
12.82580	35577
12.83393	32551
12.84205	37655
12.85018	36239
12.85830	35033
12.86642	34590
12.87455	35036
12.88267	37773
12.89080	31996
12.89892	34826
12.90703	33302
12.91517	33915
12.92328	34082
12.93140	32113
12.93953	35614
12.94765	39726
12.95578	45425
12.96390	61953
12.97202	73630
12.98015	84900
12.98827	87727
12.99640	74193
13.00452	64204
13.01263	53096
13.02077	47720
13.02888	39701
13.03702	40555
13.04513	40511
13.05325	41622
13.06138	38170
13.06950	38777
13.07762	37231
13.08575	40081
13.09387	36371
13.10200	35126
13.11012	37125
13.11823	38133
13.12637	33596
13.13448	36726
13.14262	35643
13.15073	35941
13.15885	38327
13.16698	37080
13.17510	39900
13.18323	39619
13.19135	43700
13.19947	42549
13.20760	41839
13.21572	40896
13.22383	42096
13.23197	40510
13.24008	41085
13.24822	35222
13.25633	34473
13.26445	34343
13.27258	34519
13.28070	34712
13.28883	33738
13.29695	32618
13.30507	33066
13.31320	31614
13.32132	36246
13.32945	32490
13.33757	34409
13.34568	33700
13.35382	38174
13.36193	33366
13.37005	36446
13.37818	33519
13.38630	31467
13.39443	28158
13.40255	32774
13.41067	32782
13.41880	34773
13.42692	32542
13.43505	33208
13.44317	28335
13.45128	30441
13.45942	33027
13.46753	33712
13.47565	34305
13.48378	32793
13.49190	33820
13.50003	36410
13.50815	33363
13.51627	31075
13.52440	33321
13.53252	33152
13.54065	32269
13.54877	33692
13.55688	31959
13.56502	32882
13.57313	35405
13.58127	38391
13.58938	45742
13.59750	59204
13.60563	85756
13.61375	112765
13.62187	125289
13.63000	135097
13.63812	113061
13.64625	90185
13.65437	65310
13.66248	55477
13.67062	50736
13.67873	40331
13.68687	39603
13.69498	35980
13.70310	35668
13.71123	38266
13.71935	39857
13.72747	50241
13.73560	89915
13.74372	194626
13.75185	410049
13.75997	804684
13.76808	1181846
13.77622	1457552
13.78433	1460305
13.79247	1206080
13.80058	900207
13.80870	656359
13.81683	519916
13.82495	478318
13.83308	466961
13.84120	435058
13.84932	379693
13.85745	315513
13.86557	266866
13.87368	211415
13.88182	183410
13.88993	153932
13.89807	147548
13.90618	134611
13.91430	122680
13.92243	118835
13.93055	113731
13.93868	113731
13.94680	106089
13.95492	108575
13.96305	109727
13.97117	114435
13.97930	114787
13.98742	117931
13.99553	110039
14.00367	109216
14.01178	105530
14.01990	98217
14.02803	91156
14.03615	89593
14.04428	89539
14.05240	89552
14.06052	88384
14.06865	87653
14.07677	89273
14.08490	82201
14.09302	77551
14.10113	76630
14.10927	75858
14.11738	84714
14.12550	76353
14.13363	81551
14.14175	76511
14.14988	85572
14.15800	88783
14.16612	93076
14.17425	110649
14.18237	159404
14.19050	226659
14.19862	314242
14.20673	378109
14.21487	376274
14.22298	330510
14.23112	263751
14.23923	211058
14.24735	191432
14.25548	166641
14.26360	152169
14.27172	130850
14.27985	118108
14.28797	107736
14.29610	106512
14.30422	92394
14.31233	87783
14.32047	85987
14.32858	81830
14.33672	81769
14.34483	79428
14.35295	68494
14.36108	64250
14.36920	59207
14.37733	58292
14.38545	69218
14.39357	95628
14.40170	149672
14.40982	236896
14.41793	333170
14.42607	379611
14.43418	345173
14.44232	264558
14.45043	192154
14.45855	131812
14.46668	104462
14.47480	84154
14.48293	81333
14.49105	76675
14.49917	76199
14.50730	70503
14.51542	70157
14.52353	69349
14.53167	63355
14.53978	60780
14.54792	61593
14.55603	55956
14.56415	56055
14.57228	50418
14.58040	54048
14.58853	49486
14.59665	51807
14.60477	48771
14.61290	46496
14.62102	44265
14.62915	43181
14.63727	42460
14.64538	45625
14.65352	44361
14.66163	40820
14.66975	41445
14.67788	38111
14.68600	42242
14.69413	40801
14.70225	41322
14.71037	43721
14.71850	43378
14.72662	45598
14.73475	42177
14.74287	47195
14.75098	49819
14.75912	49253
14.76723	52031
14.77535	49098
14.78348	63025
14.79160	106445
14.79973	258467
14.80785	604510
14.81597	1156949
14.82410	1878117
14.83222	2398472
14.84035	2497356
14.84847	2034787
14.85658	1437170
14.86472	894238
14.87283	559987
14.88097	370242
14.88908	283053
14.89720	231178
14.90533	188663
14.91345	170610
14.92157	154972
14.92970	137241
14.93782	126655
14.94595	118303
14.95407	118477
14.96218	102170
14.97032	104118
14.97843	93220
14.98657	94623
14.99468	91214
15.00280	87877
15.01093	88327
15.01905	85555
15.02718	76795
15.03530	77082
15.04342	73384
15.05155	81315
15.05967	74976
15.06778	67330
15.07592	64525
15.08403	64701
15.09217	62467
15.10028	63491
15.10840	66266
15.11653	65815
15.12465	74421
15.13278	72324
15.14090	74916
15.14902	76028
15.15715	74481
15.16527	64080
15.17338	59561
15.18152	59427
15.18963	52104
15.19777	46798
15.20588	45830
15.21400	46528
15.22213	45811
15.23025	44848
15.23838	43993
15.24650	43349
15.25462	41595
15.26275	38374
15.27087	41620
15.27900	42276
15.28712	42054
15.29523	38658
15.30337	40529
15.31148	36942
15.31960	39741
15.32773	39695
15.33585	37889
15.34398	36907
15.35210	34428
15.36022	41772
15.36835	36142
15.37647	34878
15.38460	37972
15.39272	35928
15.40083	37931
15.40897	38497
15.41708	34628
15.42522	38427
15.43333	34801
15.44145	39097
15.44958	43221
15.45770	38306
15.46582	48450
15.47395	61435
15.48207	80868
15.49020	104974
15.49832	122497
15.50643	128745
15.51457	131000
15.52268	140366
15.53082	132750
15.53893	144790
15.54705	143253
15.55518	140321
15.56330	118855
15.57142	98639
15.57955	78345
15.58767	66993
15.59580	55876
15.60392	51754
15.61203	50638
15.62017	44991
15.62828	47892
15.63642	44553
15.64453	43839
15.65265	44185
15.66078	43635
15.66890	42661
15.67703	38937
15.68515	40105
15.69327	35943
15.70140	39046
15.70952	39656
15.71763	38434
15.72577	37239
15.73388	38816
15.74202	39585
15.75013	51079
15.75825	69379
15.76638	99651
15.77450	156649
15.78263	216075
15.79075	258405
15.79887	251346
15.80700	216376
15.81512	172046
15.82323	123874
15.83137	97373
15.83948	74019
15.84762	64170
15.85573	59929
15.86385	58655
15.87198	53190
15.88010	60526
15.88823	53852
15.89635	48355
15.90447	47999
15.91260	48733
15.92072	49754
15.92885	46989
15.93697	47421
15.94508	50654
15.95322	54924
15.96133	69813
15.96945	83688
15.97758	92124
15.98570	89285
15.99383	90317
16.00195	76540
16.01007	73967
16.01820	71023
16.02632	69092
16.03445	65155
16.04257	63166
16.05068	58137
16.05882	53189
16.06693	53120
16.07507	49831
16.08318	47860
16.09130	45206
16.09943	46722
16.10755	47156
16.11567	44540
16.12380	46900
16.13192	48671
16.14005	52499
16.14817	54689
16.15628	52739
16.16442	52559
16.17253	49486
16.18067	46664
16.18878	45155
16.19690	41988
16.20503	44681
16.21315	43485
16.22127	43276
16.22940	48217
16.23752	46242
16.24565	40086
16.25377	38305
16.26188	39601
16.27002	42885
16.27813	42713
16.28627	41618
16.29438	48540
16.30250	49501
16.31063	47184
16.31875	48283
16.32688	45032
16.33500	45135
16.34312	46780
16.35125	53721
16.35937	65365
16.36748	81967
16.37562	94057
16.38373	94520
16.39187	89872
16.39998	77274
16.40810	65352
16.41623	57164
16.42435	50848
16.43248	49645
16.44060	51766
16.44872	67410
16.45685	103901
16.46497	170111
16.47310	253263
16.48122	342866
16.48933	373698
16.49747	321266
16.50558	251883
16.51370	182852
16.52183	129247
16.52995	94054
16.53808	75224
16.54620	66360
16.55432	64908
16.56245	59602
16.57057	60792
16.57870	61444
16.58682	60779
16.59493	69623
16.60307	78183
16.61118	84703
16.61930	82765
16.62743	80085
16.63555	73802
16.64368	68289
16.65180	60340
16.65992	55554
16.66805	54821
16.67617	52163
16.68430	48945
16.69242	52117
16.70053	46041
16.70867	45969
16.71678	43998
16.72492	46236
16.73303	44430
16.74115	42891
16.74928	42820
16.75740	44259
16.76552	46233
16.77365	46362
16.78177	44080
16.78990	41860
16.79802	40036
16.80613	39615
16.81427	38031
16.82238	37683
16.83052	36895
16.83863	38859
16.84675	39086
16.85488	38704
16.86300	32447
16.87113	33476
16.87925	35253
16.88737	35518
16.89550	36387
16.90362	35435
16.91173	32694
16.91987	35866
16.92798	34733
16.93612	37242
16.94423	35622
16.95235	37058
16.96048	37820
16.96860	35435
16.97673	36773
16.98485	36433
16.99297	37496
17.00110	39503
17.00922	39968
17.01733	36821
17.02547	38070
17.03358	37882
17.04172	36234
17.04983	42561
17.05795	42183
17.06608	49423
17.07420	49920
17.08233	43758
17.09045	40247
17.09857	37404
17.10670	37853
17.11482	41327
17.12295	42585
17.13107	42751
17.13918	39338
17.14732	42093
17.15543	42562
17.16355	38857
17.17168	36709
17.17980	40481
17.18793	41489
17.19605	35432
17.20417	33671
17.21230	36080
17.22042	31450
17.22855	38308
17.23667	38914
17.24478	35832
17.25292	33842
17.26103	33514
17.26915	37363
17.27728	38109
17.28540	36792
17.29353	36470
17.30165	38170
17.30977	36415
17.31790	40578
17.32602	42856
17.33415	49371
17.34227	52759
17.35038	55664
17.35852	59420
17.36663	57558
17.37477	52728
17.38288	52218
17.39100	47914
17.39913	48186
17.40725	53772
17.41537	46696
17.42350	50193
17.43162	53087
17.43975	49683
17.44787	47165
17.45598	41676
17.46412	41601
17.47223	42843
17.48037	38454
17.48848	38015
17.49660	34553
17.50473	38077
17.51285	38644
17.52098	37717
17.52910	40148
17.53722	39817
17.54535	44519
17.55347	48213
17.56158	66360
17.56972	99307
17.57783	176100
17.58597	296997
17.59408	478742
17.60220	672450
17.61033	817880
17.61845	811062
17.62658	697300
17.63470	531886
17.64282	372633
17.65095	271434
17.65907	208253
17.66718	169668
17.67532	154713
17.68343	137818
17.69157	116967
17.69968	111589
17.70780	90079
17.71593	92903
17.72405	83850
17.73218	78784
17.74030	71397
17.74842	73218
17.75655	67207
17.76467	63925
17.77280	62576
17.78092	58993
17.78903	69219
17.79717	78101
17.80528	114981
17.81340	168666
17.82153	224782
17.82965	273720
17.83778	275736
17.84590	249499
17.85402	209519
17.86215	173714
17.87027	134782
17.87840	122728
17.88652	104412
17.89463	91317
17.90277	74225
17.91088	72024
17.91902	65854
17.92713	65423
17.93525	67914
17.94338	63356
17.95150	58734
17.95962	57831
17.96775	55529
17.97587	56740
17.98400	53469
17.99212	53053
18.00023	58795
18.00837	55594
18.01648	60866
18.02462	73199
18.03273	75246
18.04085	87783
18.04898	112851
18.05710	172288
18.06522	333674
18.07335	668857
18.08147	1152342
18.08960	1740616
18.09772	2075963
18.10583	2054761
18.11397	1699218
18.12208	1255610
18.13022	868136
18.13833	613147
18.14645	475863
18.15458	396294
18.16270	335180
18.17083	300551
18.17895	266280
18.18707	242804
18.19520	220417
18.20332	204168
18.21143	188790
18.21957	175909
18.22768	163873
18.23582	157211
18.24393	143190
18.25205	139905
18.26018	132556
18.26830	124823
18.27643	113322
18.28455	98677
18.29267	77262
18.30080	67741
18.30892	62129
18.31703	57313
18.32517	54002
18.33328	51409
18.34142	53224
18.34953	51310
18.35765	51152
18.36578	47942
18.37390	50639
18.38203	46071
18.39015	48896
18.39827	45160
18.40640	49118
18.41452	51913
18.42265	55732
18.43077	59263
18.43888	65812
18.44702	77435
18.45513	104793
18.46325	134534
18.47138	176133
18.47950	212250
18.48763	245802
18.49575	239012
18.50387	215864
18.51200	166653
18.52012	136461
18.52825	107073
18.53637	82716
18.54448	76881
18.55262	75229
18.56073	68838
18.56887	59511
18.57698	57015
18.58510	61587
18.59323	58772
18.60135	63885
18.60947	61125
18.61760	59881
18.62572	59094
18.63385	63010
18.64197	61485
18.65008	58232
18.65822	56767
18.66633	56512
18.67447	52135
18.68258	51284
18.69070	58413
18.69883	77615
18.70695	98704
18.71507	111169
18.72320	127160
18.73132	129964
18.73945	139357
18.74757	140983
18.75568	141955
18.76382	143605
18.77193	157115
18.78007	146870
18.78818	154029
18.79630	160572
18.80443	159884
18.81255	158640
18.82068	155251
18.82880	152733
18.83692	154483
18.84505	159972
18.85317	151821
18.86128	150597
18.86942	153956
18.87753	159964
18.88567	153072
18.89378	154610
18.90190	149677
18.91003	149737
18.91815	153709
18.92628	157333
18.93440	155523
18.94252	154591
18.95065	151501
18.95877	152519
18.96690	154973
18.97502	152561
18.98313	150530
18.99127	147678
18.99938	145834
19.00750	145337
19.01563	144286
19.02375	146985
19.03188	136383
19.04000	135533
19.04812	139868
19.05625	143311
19.06437	157474
19.07250	208372
19.08062	311705
19.08873	476416
19.09687	694429
19.10498	904056
19.11310	974876
19.12123	917371
19.12935	725547
19.13748	547015
19.14560	398310
19.15372	297262
19.16185	240297
19.16997	209103
19.17810	189201
19.18622	174338
19.19433	162839
19.20247	160075
19.21058	149202
19.21872	144841
19.22683	145486
19.23495	137864
19.24308	129245
19.25120	122468
19.25932	129311
19.26745	121637
19.27557	120187
19.28370	124322
19.29182	127874
19.29993	126540
19.30807	131699
19.31618	131279
19.32432	125795
19.33243	118061
19.34055	124176
19.34868	135676
19.35680	149894
19.36492	160447
19.37305	177431
19.38117	189624
19.38930	182475
19.39742	169033
19.40553	148032
19.41367	129633
19.42178	123954
19.42992	118791
19.43803	112370
19.44615	112367
19.45428	110390
19.46240	114948
19.47053	124587
19.47865	135213
19.48677	162167
19.49490	211217
19.50302	256374
19.51113	281858
19.51927	297718
19.52738	265221
19.53552	212163
19.54363	164869
19.55175	140403
19.55988	121237
19.56800	109261
19.57613	110341
19.58425	109696
19.59237	105929
19.60050	97978
19.60862	100221
19.61675	94671
19.62487	93176
19.63298	100596
19.64112	111303
19.64923	124600
19.65735	165300
19.66548	197305
19.67360	231758
19.68173	255794
19.68985	261040
19.69797	261213
19.70610	234937
19.71422	206442
19.72235	190946
19.73047	173379
19.73858	152415
19.74672	132902
19.75483	127581
19.76297	115968
19.77108	118072
19.77920	111263
19.78733	126663
19.79545	129456
19.80357	135458
19.81170	136361
19.81982	129986
19.82795	120919
19.83607	117822
19.84418	119921
19.85232	195532
19.86043	416192
19.86857	991575
19.87668	2226933
19.88480	4146244
19.89293	6542351
19.90105	8394449
19.90917	9038586
19.91730	8015343
19.92542	6160139
19.93355	4200254
19.94167	2707082
19.94978	1826361
19.95792	1364929
19.96603	1105832
19.97417	942265
19.98228	837543
19.99040	780481
19.99853	703196
20.00665	664087
20.01478	610638
20.02290	574066
20.03102	520667
20.03915	470350
20.04727	428413
20.05538	374596
20.06352	317822
20.07163	259546
20.07977	221880
20.08788	201199
20.09600	185197
20.10413	166868
20.11225	156652
20.12038	153134
20.12850	138613
20.13662	134629
20.14475	131017
20.15287	129061
20.16098	132158
20.16912	146207
20.17723	147507
20.18537	163657
20.19348	174909
20.20160	179637
20.20973	168283
20.21785	159621
20.22598	154557
20.23410	151818
20.24222	144669
20.25035	152692
20.25847	167218
20.26660	190907
20.27472	220263
20.28283	238910
20.29097	257869
20.29908	244239
20.30720	223798
20.31533	196319
20.32345	169657
20.33158	154263
20.33970	126298
20.34782	113908
20.35595	104292
20.36407	90824
20.37220	84422
20.38032	87620
20.38843	81808
20.39657	77482
20.40468	70511
20.41282	73646
20.42093	78666
20.42905	82068
20.43718	85477
20.44530	85853
20.45342	89570
20.46155	90385
20.46967	87527
20.47780	81071
20.48592	78984
20.49403	72516
20.50217	75897
20.51028	68444
20.51842	64877
20.52653	69533
20.53465	68073
20.54278	65069
20.55090	68162
20.55902	65341
20.56715	64834
20.57527	66148
20.58340	71323
20.59152	58969
20.59963	62715
20.60777	57990
20.61588	58852
20.62402	57334
20.63213	61868
20.64025	66464
20.64838	66942
20.65650	65661
20.66463	64683
20.67275	63881
20.68087	60891
20.68900	65003
20.69712	62337
20.70523	57152
20.71337	56065
20.72148	54836
20.72962	56712
20.73773	59830
20.74585	58195
20.75398	55752
20.76210	62361
20.77023	64899
20.77835	71443
20.78647	94305
20.79460	121117
20.80272	184432
20.81085	255248
20.81897	310275
20.82708	359134
20.83522	325430
20.84333	257961
20.85145	189110
20.85958	136430
20.86770	108692
20.87583	85852
20.88395	81011
20.89207	73680
20.90020	70773
20.90832	65974
20.91645	65995
20.92457	67293
20.93268	66611
20.94082	67843
20.94893	67832
20.95705	61716
20.96518	60121
20.97330	61498
20.98143	57096
20.98955	56969
20.99767	61417
21.00580	58775
21.01392	58696
21.02205	59099
21.03017	64484
21.03828	58378
21.04642	60469
21.05453	64007
21.06267	62895
21.07078	62950
21.07890	61002
21.08703	58561
21.09515	57201
21.10327	57092
21.11140	52121
21.11952	54248
21.12765	57803
21.13577	64919
21.14388	67648
21.15202	80465
21.16013	88009
21.16827	95544
21.17638	98179
21.18450	91544
21.19263	80585
21.20075	68951
21.20887	64073
21.21700	62781
21.22512	56140
21.23325	57931
21.24137	58027
21.24948	57929
21.25762	56820
21.26573	57710
21.27387	56294
21.28198	56982
21.29010	57639
21.29823	53918
21.30635	51960
21.31448	55058
21.32260	51585
21.33072	49619
21.33885	51996
21.34697	51381
21.35508	50642
21.36322	50377
21.37133	52500
21.37947	54332
21.38758	61004
21.39570	63341
21.40383	78357
21.41195	85636
21.42008	86039
21.42820	86377
21.43632	75220
21.44445	69691
21.45257	62748
21.46070	58085
21.46882	56594
21.47693	58520
21.48507	55717
21.49318	48738
21.50130	47779
21.50943	48162
21.51755	49412
21.52568	52096
21.53380	48256
21.54192	48061
21.55005	47795
21.55817	47390
21.56630	47947
21.57442	52934
21.58253	57548
21.59067	63557
21.59878	71434
21.60690	70699
21.61503	67510
21.62315	66497
21.63128	71904
21.63940	80132
21.64752	80002
21.65565	81781
21.66377	83386
21.67190	85050
21.68002	82475
21.68813	80184
21.69627	84166
21.70438	73203
21.71252	68797
21.72063	63472
21.72875	61120
21.73688	54018
21.74500	51123
21.75312	56863
21.76125	53088
21.76937	50441
21.77750	53546
21.78562	54117
21.79373	54849
21.80187	51166
21.80998	54388
21.81812	54585
21.82623	59656
21.83435	64330
21.84248	72120
21.85060	72528
21.85873	67178
21.86685	64467
21.87497	59718
21.88310	58173
21.89122	52637
21.89933	53059
21.90747	56338
21.91558	50409
21.92372	51067
21.93183	49796
21.93995	51461
21.94808	42899
21.95620	41190
21.96433	43760
21.97245	42934
21.98057	43155
21.98870	44952
21.99682	41309
22.00493	41819
22.01307	40681
22.02118	44532
22.02932	47330
22.03743	42329
22.04555	45065
22.05368	44836
22.06180	45952
22.06993	40556
22.07805	42449
22.08617	41877
22.09430	42172
22.10242	41616
22.11055	47600
22.11867	49114
22.12678	52654
22.13492	62679
22.14303	60540
22.15115	65476
22.15928	64801
22.16740	65837
22.17553	63454
22.18365	63378
22.19177	62089
22.19990	66761
22.20802	67612
22.21615	71926
22.22427	73683
22.23238	76012
22.24052	73833
22.24863	72249
22.25677	79455
22.26488	74382
22.27300	73388
22.28113	73649
22.28925	81096
22.29737	83595
22.30550	79241
22.31362	76599
22.32175	80650
22.32987	77325
22.33798	76917
22.34612	66815
22.35423	67207
22.36237	61343
22.37048	61839
22.37860	58690
22.38673	62324
22.39485	72541
22.40297	91577
22.41110	114651
22.41922	127260
22.42735	131694
22.43547	126268
22.44358	118808
22.45172	102295
22.45983	83500
22.46797	78800
22.47608	76558
22.48420	81915
22.49233	94115
22.50045	102331
22.50858	100697
22.51670	100883
22.52482	93473
22.53295	84371
22.54107	73919
22.54918	69557
22.55732	66080
22.56543	63808
22.57357	60043
22.58168	52302
22.58980	50837
22.59793	47435
22.60605	47288
22.61418	50481
22.62230	47148
22.63042	51666
22.63855	58167
22.64667	71589
22.65478	86063
22.66292	86860
22.67103	92635
22.67917	101188
22.68728	101991
22.69540	116773
22.70353	116932
22.71165	126758
22.71978	135354
22.72790	130924
22.73602	130677
22.74415	127214
22.75227	126673
22.76040	122735
22.76852	119920
22.77663	129630
22.78477	134300
22.79288	147267
22.80100	155047
22.80913	174589
22.81725	182288
22.82538	174169
22.83350	157033
22.84162	148595
22.84975	141874
22.85787	131815
22.86600	134624
22.87412	135720
22.88223	144606
22.89037	148828
22.89848	164623
22.90662	176004
22.91473	203529
22.92285	226974
22.93098	239335
22.93910	227696
22.94722	209716
22.95535	188301
22.96347	166042
22.97160	143948
22.97972	135929
22.98783	125734
22.99597	122357
23.00408	116733
23.01222	115139
23.02033	106365
23.02845	103954
23.03658	101490
23.04470	106691
23.05282	99959
23.06095	100515
23.06907	95489
23.07720	100904
23.08532	97271
23.09343	96011
23.10157	94443
23.10968	96042
23.11782	96224
23.12593	89510
23.13405	84116
23.14218	87811
23.15030	89177
23.15843	86518
23.16655	83775
23.17467	84001
23.18280	83000
23.19092	82515
23.19903	79804
23.20717	79440
23.21528	81722
23.22342	80184
23.23153	78228
23.23965	80590
23.24778	81860
23.25590	83184
23.26403	87769
23.27215	93005
23.28027	89633
23.28840	87884
23.29652	85998
23.30465	79281
23.31277	80052
23.32088	81092
23.32902	83753
23.33713	91356
23.34525	111510
23.35338	147696
23.36150	189621
23.36963	250914
23.37775	328493
23.38587	406588
23.39400	453971
23.40212	536300
23.41025	574541
23.41837	596865
23.42648	605750
23.43462	609225
23.44273	578803
23.45085	561980
23.45898	531147
23.46710	473796
23.47523	450805
23.48335	417708
23.49147	388397
23.49960	352474
23.50772	328329
23.51585	302155
23.52397	277396
23.53208	262445
23.54022	253402
23.54833	233114
23.55647	224333
23.56458	225792
23.57270	226054
23.58083	242936
23.58895	283165
23.59707	310355
23.60520	342253
23.61332	354029
23.62145	330183
23.62957	288002
23.63768	247382
23.64582	231162
23.65393	227961
23.66207	227825
23.67018	226911
23.67830	225484
23.68643	206289
23.69455	176960
23.70267	160578
23.71080	144653
23.71892	130173
23.72705	121999
23.73517	122934
23.74328	122519
23.75142	155920
23.75953	250288
23.76767	446272
23.77578	814269
23.78390	1290677
23.79203	1725265
23.80015	2080573
23.80828	1997394
23.81640	1807820
23.82452	1523470
23.83265	1162682
23.84077	925935
23.84888	714690
23.85702	572892
23.86513	465190
23.87327	407238
23.88138	362724
23.88950	318047
23.89763	299391
23.90575	284049
23.91388	254412
23.92200	250657
23.93012	236224
23.93825	219002
23.94637	202354
23.95450	188274
23.96262	179755
23.97073	161194
23.97887	157101
23.98698	149213
23.99510	145431
24.00323	144721
24.01135	154034
24.01948	177301
24.02760	187613
24.03572	212174
24.04385	208131
24.05197	207211
24.06010	179742
24.06822	144701
24.07633	131595
24.08447	120382
24.09258	117284
24.10070	110076
24.10883	104962
24.11695	104950
24.12508	104984
24.13320	105177
24.14132	107440
24.14945	104056
24.15757	108244
24.16570	106582
24.17382	101834
24.18193	108720
24.19007	101128
24.19818	102844
24.20632	102891
24.21443	104545
24.22255	99871
24.23068	100361
24.23880	90900
24.24692	88049
24.25505	83715
24.26317	78388
24.27130	77821
24.27942	79878
24.28753	73675
24.29567	72035
24.30378	76268
24.31192	80801
24.32003	72688
24.32815	72126
24.33628	70387
24.34440	69438
24.35253	72392
24.36065	69531
24.36877	80465
24.37690	96514
24.38502	133533
24.39313	170450
24.40127	205271
24.40938	211444
24.41752	198518
24.42563	188139
24.43375	170167
24.44188	164351
24.45000	159942
24.45813	173814
24.46625	187705
24.47437	212276
24.48250	221110
24.49062	252942
24.49873	252246
24.50687	249703
24.51498	248270
24.52312	239087
24.53123	245582
24.53935	247119
24.54748	251131
24.55560	259593
24.56373	268674
24.57185	260826
24.57997	241434
24.58810	218031
24.59622	200523
24.60435	182875
24.61247	181839
24.62058	171922
24.62872	165272
24.63683	166679
24.64495	159739
24.65308	155279
24.66120	161037
24.66933	150704
24.67745	151629
24.68557	151994
24.69370	151658
24.70182	149661
24.70995	143131
24.71807	144566
24.72618	147573
24.73432	143186
24.74243	145780
24.75055	142070
24.75868	141524
24.76680	145382
24.77493	152171
24.78305	150226
24.79117	154335
24.79930	150394
24.80742	153545
24.81555	148394
24.82367	158551
24.83178	167120
24.83992	187724
24.84803	215815
24.85617	268195
24.86428	325852
24.87240	420686
24.88053	542102
24.88865	633562
24.89677	659603
24.90490	638825
24.91302	556183
24.92115	455033
24.92927	348468
24.93738	269464
24.94552	222506
24.95363	187040
24.96177	168350
24.96988	163937
24.97800	157001
24.98613	146180
24.99425	142973
25.00238	147012
25.01050	133382
25.01862	128875
25.02675	128678
25.03487	131168
25.04298	121101
25.05112	123390
25.05923	125957
25.06737	121806
25.07548	127138
25.08360	128472
25.09173	136234
25.09985	169604
25.10798	256494
25.11610	477491
25.12422	898950
25.13235	1481908
25.14047	2131886
25.14860	2617060
25.15672	2714637
25.16483	2302530
25.17297	1745593
25.18108	1132739
25.18920	689424
25.19733	408139
25.20545	265259
25.21358	185641
25.22170	145319
25.22982	132758
25.23795	141721
25.24607	146733
25.25420	189026
25.26232	229647
25.27043	277946
25.27857	284679
25.28668	261609
25.29480	237913
25.30293	189909
25.31105	154656
25.31918	127919
25.32730	107097
25.33542	92188
25.34355	85639
25.35167	82506
25.35980	76428
25.36792	71200
25.37603	70448
25.38417	73067
25.39228	69337
25.40042	68650
25.40853	65649
25.41665	65918
25.42478	64425
25.43290	63454
25.44102	60923
25.44915	62275
25.45727	63360
25.46540	59473
25.47352	60618
25.48163	64360
25.48977	61052
25.49788	65925
25.50602	61885
25.51413	58621
25.52225	55651
25.53038	59698
25.53850	59561
25.54662	58799
25.55475	62577
25.56287	59206
25.57100	68630
25.57912	79111
25.58723	106908
25.59537	118086
25.60348	142693
25.61162	154729
25.61973	163386
25.62785	169197
25.63598	163902
25.64410	170038
25.65223	174393
25.66035	184341
25.66847	178935
25.67660	175446
25.68472	180238
25.69283	182276
25.70097	178746
25.70908	186438
25.71722	176190
25.72533	181283
25.73345	175259
25.74158	174111
25.74970	176946
25.75783	178547
25.76595	171441
25.77407	173614
25.78220	175283
25.79032	179139
25.79845	168109
25.80657	173450
25.81468	175117
25.82282	175190
25.83093	173207
25.83905	178061
25.84718	168609
25.85530	172643
25.86343	176367
25.87155	171010
25.87967	167405
25.88780	162832
25.89592	155887
25.90405	156460
25.91217	149774
25.92028	142053
25.92842	145699
25.93653	145219
25.94465	140547
25.95278	152365
25.96090	139429
25.96903	139499
25.97715	133750
25.98527	133648
25.99340	130219
26.00152	134029
26.00965	127866
26.01777	132429
26.02588	123374
26.03402	125638
26.04213	121314
26.05027	121071
26.05838	125442
26.06650	124552
26.07463	121779
26.08275	123212
26.09087	118468
26.09900	121880
26.10712	119360
26.11525	118217
26.12337	115343
26.13148	113841
26.13962	116132
26.14773	114667
26.15587	113480
26.16398	112349
26.17210	115145
26.18023	117008
26.18835	107487
26.19648	106853
26.20460	106375
26.21272	98401
26.22085	103987
26.22897	96141
26.23708	93263
26.24522	94578
26.25333	94106
26.26147	92420
26.26958	86109
26.27770	94088
26.28583	89029
26.29395	86297
26.30208	89824
26.31020	86545
26.31832	86576
26.32645	79592
26.33457	80552
26.34268	79714
26.35082	79895
26.35893	87224
26.36707	82056
26.37518	89936
26.38330	82100
26.39143	88799
26.39955	93128
26.40768	102316
26.41580	97946
26.42392	94856
26.43205	88953
26.44017	82451
26.44830	84109
26.45642	77241
26.46453	79153
26.47267	76020
26.48078	80971
26.48890	75603
26.49703	78045
26.50515	76873
26.51328	75362
26.52140	70320
26.52952	67656
26.53765	67675
26.54577	67248
26.55390	63329
26.56202	66202
26.57013	63615
26.57827	65239
26.58638	60716
26.59450	64503
26.60263	57048
26.61075	63676
26.61888	61435
26.62700	56930
26.63512	57738
26.64325	61677
26.65137	61135
26.65950	61298
26.66762	63618
26.67573	67404
26.68387	69375
26.69198	64565
26.70012	60840
26.70823	56788
26.71635	61836
26.72448	62361
26.73260	54779
26.74072	57869
26.74885	57223
26.75697	54655
26.76510	53440
26.77322	60528
26.78133	57890
26.78947	65728
26.79758	63046
26.80572	61199
26.81383	61569
26.82195	61220
26.83008	56437
26.83820	57322
26.84633	56318
26.85445	54734
26.86257	58339
26.87070	60724
26.87882	55884
26.88693	50763
26.89507	49093
26.90318	52049
26.91132	48788
26.91943	50310
26.92755	51341
26.93568	51351
26.94380	54600
26.95193	51448
26.96005	55143
26.96817	61427
26.97630	67114
26.98442	80721
26.99253	108584
27.00067	145973
27.00878	201644
27.01692	263985
27.02503	306198
27.03315	326838
27.04128	338387
27.04940	313360
27.05753	276435
27.06565	239626
27.07377	212331
27.08190	185280
27.09002	158529
27.09815	140106
27.10627	128690
27.11438	125233
27.12252	113261
27.13063	114620
27.13875	114357
27.14688	99706
27.15500	94382
27.16313	93338
27.17125	104096
27.17937	96624
27.18750	96336
27.19562	96767
27.20375	90934
27.21187	88524
27.21998	85618
27.22812	79924
27.23623	80152
27.24437	75883
27.25248	71910
27.26060	76038
27.26873	69709
27.27685	68389
27.28497	64953
27.29310	67682
27.30122	63367
27.30935	57848
27.31747	62086
27.32558	61314
27.33372	64632
27.34183	58500
27.34997	62753
27.35808	60470
27.36620	65685
27.37433	62839
27.38245	61604
27.39057	60288
27.39870	62497
27.40682	58025
27.41495	58098
27.42307	55160
27.43118	54300
27.43932	54232
27.44743	55430
27.45557	51887
27.46368	55449
27.47180	51337
27.47993	55378
27.48805	51365
27.49618	52433
27.50430	54359
27.51242	54182
27.52055	59340
27.52867	55564
27.53678	59826
27.54492	56685
27.55303	54518
27.56117	57291
27.56928	56561
27.57740	62107
27.58553	65180
27.59365	74476
27.60178	74327
27.60990	80014
27.61802	71575
27.62615	73929
27.63427	60381
27.64240	57596
27.65052	53340
27.65863	55345
27.66677	59353
27.67488	56962
27.68300	58907
27.69113	58198
27.69925	58292
27.70738	54702
27.71550	59563
27.72362	56067
27.73175	51580
27.73987	48839
27.74800	52048
27.75612	45545
27.76423	47142
27.77237	50090
27.78048	47817
27.78860	48736
27.79673	48282
27.80485	48280
27.81298	49637
27.82110	45240
27.82922	46218
27.83735	48853
27.84547	48017
27.85360	44204
27.86172	46388
27.86983	50294
27.87797	45399
27.88608	45111
27.89422	42997
27.90233	45735
27.91045	46177
27.91858	43046
27.92670	46426
27.93482	43942
27.94295	42970
27.95107	41232
27.95920	48139
27.96732	40688
27.97543	47449
27.98357	40840
27.99168	47709
27.99982	44547
28.00793	49709
28.01605	55946
28.02418	59482
28.03230	64528
28.04042	75210
28.04855	82029
28.05667	86937
28.06480	83536
28.07292	79564
28.08103	69716
28.08917	67101
28.09728	64666
28.10542	62242
28.11353	57762
28.12165	53220
28.12978	50962
28.13790	47045
28.14603	45192
28.15415	39587
28.16227	41430
28.17040	46200
28.17852	45455
28.18663	51309
28.19477	55055
28.20288	61331
28.21102	70815
28.21913	77280
28.22725	77647
28.23538	83448
28.24350	70481
28.25163	67417
28.25975	61580
28.26787	53606
28.27600	48276
28.28412	47543
28.29225	51749
28.30037	50439
28.30848	58726
28.31662	59632
28.32473	69750
28.33285	79470
28.34098	75179
28.34910	84203
28.35723	89508
28.36535	93060
28.37347	107496
28.38160	114322
28.38972	116845
28.39785	120199
28.40597	119517
28.41408	115318
28.42222	114251
28.43033	106406
28.43845	105659
28.44658	93875
28.45470	96850
28.46283	89106
28.47095	84193
28.47907	80724
28.48720	82698
28.49532	77661
28.50345	77720
28.51157	71785
28.51968	70903
28.52782	70565
28.53593	65436
28.54407	61083
28.55218	59480
28.56030	64003
28.56843	60362
28.57655	54927
28.58467	53799
28.59280	55750
28.60092	51803
28.60905	57746
28.61717	60126
28.62528	53116
28.63342	56128
28.64153	58073
28.64967	58110
28.65778	59839
28.66590	57463
28.67403	56795
28.68215	55226
28.69028	57940
28.69840	55925
28.70652	52650
28.71465	45099
28.72277	50827
28.73088	51950
28.73902	52271
28.74713	56914
28.75527	61931
28.76338	69360
28.77150	77516
28.77963	80042
28.78775	73409
28.79588	65893
28.80400	61964
28.81212	61538
28.82025	59244
28.82837	59894
28.83648	54238
28.84462	54284
28.85273	50210
28.86087	56229
28.86898	53320
28.87710	60543
28.88523	59361
28.89335	68831
28.90148	64501
28.90960	69560
28.91772	61364
28.92585	63064
28.93397	60853
28.94210	59469
28.95022	53979
28.95833	55311
28.96647	56932
28.97458	54048
28.98270	47253
28.99083	49696
28.99895	47471
29.00708	49763
29.01520	47730
29.02332	46684
29.03145	43756
29.03957	41332
29.04770	43737
29.05582	46852
29.06393	44951
29.07207	46523
29.08018	46610
29.08830	48479
29.09643	50802
29.10455	49109
29.11268	47595
29.12080	50789
29.12892	44736
29.13705	43717
29.14517	44765
29.15330	42097
29.16142	50268
29.16953	47144
29.17767	50160
29.18578	55972
29.19392	61019
29.20203	73366
29.21015	83822
29.21828	93321
29.22640	98266
29.23452	93994
29.24265	89666
29.25077	83244
29.25890	86614
29.26702	88797
29.27513	91208
29.28327	83644
29.29138	77163
29.29952	66562
29.30763	64858
29.31575	55886
29.32388	48695
29.33200	45835
29.34013	45270
29.34825	40875
29.35637	41245
29.36450	40940
29.37262	42548
29.38073	44398
29.38887	42624
29.39698	39579
29.40512	44112
29.41323	42328
29.42135	42956
29.42948	42019
29.43760	43346
29.44573	45401
29.45385	44560
29.46197	42420
29.47010	41797
29.47822	45405
29.48635	43917
29.49447	43308
29.50258	43262
29.51072	44655
29.51883	46387
29.52695	44500
29.53508	43004
29.54320	41488
29.55133	42852
29.55945	39239
29.56757	41451
29.57570	38370
29.58382	38919
29.59195	41505
29.60007	40389
29.60818	38826
29.61632	39464
29.62443	38590
29.63255	41555
29.64068	40220
29.64880	39189
29.65693	42002
29.66505	40306
29.67317	43909
29.68130	44334
29.68942	46771
29.69755	46021
29.70567	47042
29.71378	46251
29.72192	47396
29.73003	44434
29.73817	44454
29.74628	45650
29.75440	42514
29.76253	41237
29.77065	39815
29.77877	38044
29.78690	39949
29.79502	36907
29.80315	38283
29.81127	33343
29.81938	39867
29.82752	36736
29.83563	35061
29.84377	37434
29.85188	40229
29.86000	38466
29.86813	39030
29.87625	51358
29.88437	61707
29.89250	68725
29.90062	69812
29.90875	74124
29.91687	72391
29.92498	65512
29.93312	56489
29.94123	47747
29.94937	46365
29.95748	47149
29.96560	52184
29.97373	48682
29.98185	54473
29.98998	56168
29.99810	56616
30.00622	65004
30.01435	67891
30.02247	66362
30.03058	74082
30.03872	73969
30.04683	74456
30.05497	73027
30.06308	73666
30.07120	73915
30.07933	73899
30.08745	75572
30.09558	75328
30.10370	75709
30.11182	72611
30.11995	67565
30.12807	67473
30.13620	64609
30.14432	63809
30.15243	62239
30.16057	58372
30.16868	56800
30.17680	59357
30.18493	58808
30.19305	58697
30.20118	60554
30.20930	58588
30.21742	54326
30.22555	53015
30.23367	54051
30.24180	50545
30.24992	51045
30.25803	49495
30.26617	50601
30.27428	45827
30.28240	47502
30.29053	42888
30.29865	44556
30.30678	45480
30.31490	47270
30.32302	48873
30.33115	41411
30.33927	43718
30.34740	42603
30.35552	49033
30.36363	47006
30.37177	45874
30.37988	46256
30.38802	43649
30.39613	42034
30.40425	43186
30.41238	40031
30.42050	44321
30.42862	41672
30.43675	41211
30.44487	43053
30.45300	41686
30.46112	41961
30.46923	42475
30.47737	41847
30.48548	41053
30.49362	43439
30.50173	41134
30.50985	38978
30.51798	43177
30.52610	40922
30.53423	40909
30.54235	40316
30.55047	41624
30.55860	37221
30.56672	38626
30.57483	42336
30.58297	39075
30.59108	38907
30.59922	38935
30.60733	40585
30.61545	37579
30.62358	38830
30.63170	41704
30.63983	39181
30.64795	36266
30.65607	40146
30.66420	40197
30.67232	39180
30.68043	35237
30.68857	38183
30.69668	37912
30.70482	38592
30.71293	38494
30.72105	39166
30.72918	35211
30.73730	39470
30.74543	33941
30.75355	35112
30.76167	41341
30.76980	44121
30.77792	47081
30.78605	56490
30.79417	62109
30.80228	73050
30.81042	88493
30.81853	93132
30.82665	82400
30.83478	71767
30.84290	60400
30.85103	52235
30.85915	47700
30.86727	49143
30.87540	45906
30.88352	41713
30.89165	42161
30.89977	39020
30.90788	43029
30.91602	44516
30.92413	45059
30.93225	47328
30.94038	46625
30.94850	46550
30.95663	49764
30.96475	53218
30.97287	53862
30.98100	55367
30.98912	54020
30.99725	50570
31.00537	52476
31.01348	51377
31.02162	52279
31.02973	48694
31.03787	49653
31.04598	54955
31.05410	50498
31.06223	55319
31.07035	55120
31.07847	59630
31.08660	62352
31.09472	64137
31.10285	73410
31.11097	75107
31.11908	74712
31.12722	70584
31.13533	60328
31.14347	64530
31.15158	61282
31.15970	58724
31.16783	65519
31.17595	67421
31.18408	76510
31.19220	81465
31.20032	106961
31.20845	139463
31.21657	155064
31.22468	185071
31.23282	190223
31.24093	171547
31.24907	150222
31.25718	125498
31.26530	93160
31.27343	78140
31.28155	70573
31.28968	63639
31.29780	57945
31.30592	51839
31.31405	57157
31.32217	57341
31.33028	55597
31.33842	57214
31.34653	53155
31.35467	54574
31.36278	57628
31.37090	56257
31.37903	57972
31.38715	57927
31.39528	57432
31.40340	57579
31.41152	60048
31.41965	55308
31.42777	53736
31.43590	50122
31.44402	52882
31.45213	48063
31.46027	49722
31.46838	49529
31.47650	48757
31.48463	51498
31.49275	47893
31.50088	50607
31.50900	53733
31.51712	48240
31.52525	51677
31.53337	54771
31.54150	48824
31.54962	48616
31.55773	48627
31.56587	48973
31.57398	50473
31.58212	48868
31.59023	47780
31.59835	48082
31.60648	45581
31.61460	48877
31.62272	44841
31.63085	45089
31.63897	43894
31.64710	48336
31.65522	47077
31.66333	50288
31.67147	50452
31.67958	49482
31.68772	49714
31.69583	49967
31.70395	48132
31.71208	45062
31.72020	47290
31.72832	42801
31.73645	46446
31.74457	43249
31.75270	43922
31.76082	42176
31.76893	43442
31.77707	42438
31.78518	44727
31.79332	46204
31.80143	46208
31.80955	46472
31.81768	44551
31.82580	43992
31.83393	46507
31.84205	43730
31.85017	47202
31.85830	48944
31.86642	46761
31.87453	46494
31.88267	47009
31.89078	50865
31.89892	53114
31.90703	58510
31.91515	59859
31.92328	66467
31.93140	64230
31.93953	69299
31.94765	67661
31.95577	71560
31.96390	69611
31.97202	72767
31.98013	78364
31.98827	79808
31.99638	74045
32.00452	74712
32.01263	72301
32.02075	68137
32.02888	69584
32.03700	67104
32.04513	66827
32.05325	64681
32.06137	62876
32.06950	66799
32.07762	65319
32.08575	62888
32.09387	61030
32.10198	57668
32.11012	54266
32.11823	53635
32.12635	54577
32.13448	50074
32.14260	53102
32.15073	47121
32.15885	47365
32.16697	46889
32.17510	44901
32.18322	46551
32.19135	47460
32.19947	44789
32.20758	48828
32.21572	46295
32.22383	46650
32.23197	47971
32.24008	46045
32.24820	44923
32.25633	50721
32.26445	45548
32.27257	53168
32.28070	45733
32.28882	47924
32.29695	46739
32.30507	45041
32.31318	47123
32.32132	45499
32.32943	42010
32.33757	36374
32.34568	38876
32.35380	43327
32.36193	47070
32.37005	43753
32.37817	45311
32.38630	43844
32.39442	41265
32.40255	43531
32.41067	40071
32.41878	43716
32.42692	42241
32.43503	39152
32.44317	46541
32.45128	43820
32.45940	41289
32.46753	41074
32.47565	41678
32.48378	39829
32.49190	41233
32.50002	41802
32.50815	42177
32.51627	40526
32.52438	42174
32.53252	42680
32.54063	40201
32.54877	42587
32.55688	44226
32.56500	43374
32.57313	40509
32.58125	41472
32.58938	44621
32.59750	39123
32.60562	37747
32.61375	38849
32.62187	44497
32.63000	43068
32.63812	43597
32.64623	47055
32.65437	50170
32.66248	58533
32.67060	59225
32.67873	57190
32.68685	52421
32.69498	54517
32.70310	44831
32.71122	44054
32.71935	45708
32.72747	44212
32.73560	46426
32.74372	44438
32.75183	42140
32.75997	43193
32.76808	39340
32.77620	43641
32.78433	40704
32.79245	41839
32.80058	40650
32.80870	38887
32.81682	39172
32.82495	43369
32.83307	39529
32.84120	41268
32.84932	42676
32.85743	40872
32.86557	38301
32.87368	44611
32.88182	39149
32.88993	40604
32.89805	44303
32.90618	44562
32.91430	43771
32.92242	44866
32.93055	41843
32.93867	44584
32.94680	43614
32.95492	42506
32.96303	46534
32.97117	44652
32.97928	50471
32.98742	50444
32.99553	55711
33.00365	61007
33.01178	64633
33.01990	58221
33.02803	58020
33.03615	55818
33.04427	51269
33.05240	43366
33.06052	45851
33.06863	50859
33.07677	51139
33.08488	54348
33.09302	60871
33.10113	62257
33.10925	60357
33.11738	68998
33.12550	66838
33.13363	63545
33.14175	60228
33.14987	53143
33.15800	49486
33.16612	50854
33.17423	44447
33.18237	45241
33.19048	47660
33.19862	43935
33.20673	40158
33.21485	45148
33.22298	43985
33.23110	44732
33.23923	44375
33.24735	43308
33.25547	42149
33.26360	44050
33.27172	39082
33.27985	43186
33.28797	40937
33.29608	42298
33.30422	40042
33.31233	39611
33.32045	41031
33.32858	40996
33.33670	41181
33.34483	45058
33.35295	44721
33.36107	48196
33.36920	47678
33.37732	46426
33.38545	45644
33.39357	44777
33.40168	44825
33.40982	42963
33.41793	42113
33.42605	40230
33.43418	41842
33.44230	36128
33.45043	39662
33.45855	42302
33.46667	38850
33.47480	40241
33.48292	41682
33.49105	39650
33.49917	40593
33.50728	41322
33.51542	46321
33.52353	43548
33.53167	40035
33.53978	43840
33.54790	48284
33.55603	51529
33.56415	49036
33.57227	49878
33.58040	47989
33.58852	46748
33.59665	42020
33.60477	42862
33.61288	42615
33.62102	42373
33.62913	44151
33.63727	43769
33.64538	43853
33.65350	43298
33.66163	45934
33.66975	42306
33.67788	42277
33.68600	43262
33.69412	42720
33.70225	39715
33.71037	42283
33.71848	40922
33.72662	37987
33.73473	38996
33.74287	37556
33.75098	41967
33.75910	39901
33.76723	40291
33.77535	38381
33.78348	38691
33.79160	43094
33.79972	38894
33.80785	42659
33.81597	43299
33.82408	40211
33.83222	38830
33.84033	40281
33.84847	39631
33.85658	39580
33.86470	42124
33.87283	42304
33.88095	42014
33.88908	44483
33.89720	41858
33.90532	43754
33.91345	45504
33.92157	43560
33.92970	47162
33.93782	42599
33.94593	42260
33.95407	41826
33.96218	38797
33.97030	41296
33.97843	39843
33.98655	40040
33.99468	40692
34.00280	39810
34.01092	37638
34.01905	40248
34.02717	39061
34.03530	39654
34.04342	41984
34.05153	43690
34.05967	42620
34.06778	43797
34.07592	42343
34.08403	42469
34.09215	43234
34.10028	39445
34.10840	41936
34.11652	44444
34.12465	42155
34.13277	43984
34.14090	44012
34.14902	41482
34.15713	44677
34.16527	42504
34.17338	45475
34.18152	43592
34.18963	44144
34.19775	43060
34.20588	42039
34.21400	40297
34.22212	44283
34.23025	45737
34.23837	43572
34.24650	41699
34.25462	42106
34.26273	40527
34.27087	40046
34.27898	46992
34.28712	38671
34.29523	43046
34.30335	40509
34.31148	40755
34.31960	40567
34.32773	39400
34.33585	42569
34.34397	41351
34.35210	42002
34.36022	45709
34.36833	42894
34.37647	39706
34.38458	44181
34.39272	41725
34.40083	41775
34.40895	40604
34.41708	43887
34.42520	44770
34.43333	40146
34.44145	40965
34.44957	43599
34.45770	37574
34.46582	42267
34.47393	39358
34.48207	41988
34.49018	43553
34.49832	44067
34.50643	44651
34.51455	50238
34.52268	54249
34.53080	57186
34.53893	58676
34.54705	67289
34.55517	70550
34.56330	66994
34.57142	67068
34.57955	70328
34.58767	64535
34.59578	65472
34.60392	59075
34.61203	59828
34.62015	58326
34.62828	55835
34.63640	53255
34.64453	54146
34.65265	48350
34.66077	50523
34.66890	48371
34.67702	50108
34.68515	46619
34.69327	50624
34.70138	46608
34.70952	47163
34.71763	50296
34.72577	46963
34.73388	48672
34.74200	47188
34.75013	46730
34.75825	44928
34.76637	46745
34.77450	48330
34.78262	44266
34.79075	46881
34.79887	50302
34.80698	46290
34.81512	47177
34.82323	48806
34.83137	46642
34.83948	45995
34.84760	52183
34.85573	49084
34.86385	47460
34.87198	48313
34.88010	47811
34.88822	43839
34.89635	47216
34.90447	47403
34.91258	45016
34.92072	51305
34.92883	47246
34.93697	50224
34.94508	51226
34.95320	51418
34.96133	49713
34.96945	55252
34.97758	52277
34.98570	56820
34.99382	53192
35.00195	52429
35.01007	48091
35.01818	46489
35.02632	47428
35.03443	45412
35.04257	47282
35.05068	43727
35.05880	54429
35.06693	49078
35.07505	46069
35.08318	43697
35.09130	45052
35.09942	45453
35.10755	44963
35.11567	46574
35.12380	44960
35.13192	43268
35.14003	44478
35.14817	45926
35.15628	47062
35.16440	47639
35.17253	46855
35.18065	48362
35.18878	44230
35.19690	44555
35.20502	43732
35.21315	44379
35.22127	45421
35.22940	45065
35.23752	50577
35.24563	42416
35.25377	42061
35.26188	45239
35.27000	42938
35.27813	42828
35.28625	46060
35.29438	48410
35.30250	44498
35.31062	43118
35.31875	46910
35.32687	43116
35.33500	44522
35.34312	44096
35.35123	44715
35.35937	47811
35.36748	43469
35.37562	40924
35.38373	46727
35.39185	47241
35.39998	46621
35.40810	46956
35.41622	49711
35.42435	53579
35.43247	54139
35.44060	54967
35.44872	50587
35.45683	54460
35.46497	51413
35.47308	49807
35.48122	51043
35.48933	49342
35.49745	45068
35.50558	50891
35.51370	48071
35.52183	46818
35.52995	47995
35.53807	46723
35.54620	51556
35.55432	45516
35.56243	44957
35.57057	45738
35.57868	43379
35.58682	47442
35.59493	44095
35.60305	42066
35.61118	46542
35.61930	46329
35.62743	43887
35.63555	45458
35.64367	47971
35.65180	47810
35.65992	49136
35.66803	47687
35.67617	48678
35.68428	47482
35.69242	49093
35.70053	49493
35.70865	45791
35.71678	47359
35.72490	45099
35.73303	49087
35.74115	47736
35.74927	52990
35.75740	54926
35.76552	52257
35.77365	53948
35.78177	50565
35.78988	51262
35.79802	50179
35.80613	49841
35.81425	48637
35.82238	44314
35.83050	45030
35.83863	45460
35.84675	45461
35.85487	48367
35.86300	48392
35.87112	44048
35.87925	46837
35.88737	43908
35.89548	46809
35.90362	43825
35.91173	46679
35.91987	49830
35.92798	46554
35.93610	44119
35.94423	50175
35.95235	48346
35.96047	51300
35.96860	47857
35.97672	44388
35.98485	46764
35.99297	46918
36.00108	46441
36.00922	49318
36.01733	49154
36.02547	48876
36.03358	50247
36.04170	50389
36.04983	47892
36.05795	46295
36.06607	48813
36.07420	56250
36.08232	55330
36.09045	45864
36.09857	46153
36.10668	47369
36.11482	45161
36.12293	49623
36.13107	44179
36.13918	51012
36.14730	52094
36.15543	45623
36.16355	53550
36.17168	49278
36.17980	49473
36.18792	47902
36.19605	45643
36.20417	46132
36.21228	46750
36.22042	49826
36.22853	45007
36.23667	47553
36.24478	44541
36.25290	45226
36.26103	49370
36.26915	47680
36.27728	45765
36.28540	54075
36.29352	58748
36.30165	59029
36.30977	61712
36.31788	65986
36.32602	59987
36.33413	57573
36.34227	53008
36.35038	50525
36.35850	53765
36.36663	45596
36.37475	47302
36.38288	48360
36.39100	47328
36.39912	50895
36.40725	51747
36.41537	52300
36.42350	48717
36.43162	51188
36.43973	49692
36.44787	52431
36.45598	51112
36.46410	48065
36.47223	50465
36.48035	50218
36.48848	51237
36.49660	53337
36.50472	50041
36.51285	50523
36.52097	53123
36.52910	54644
36.53722	52931
36.54533	51074
36.55347	51490
36.56158	52260
36.56972	50108
36.57783	53755
36.58595	54508
36.59408	52811
36.60220	55231
36.61032	53289
36.61845	55091
36.62657	55819
36.63470	54540
36.64282	50086
36.65093	51536
36.65907	48690
36.66718	53570
36.67532	51362
36.68343	53354
36.69155	54546
36.69968	52788
36.70780	50534
36.71592	52618
36.72405	59565
36.73217	52495
36.74030	52961
36.74842	57839
36.75653	55080
36.76467	58072
36.77278	54063
36.78092	53413
36.78903	50240
36.79715	53526
36.80528	54346
36.81340	58504
36.82153	53904
36.82965	54079
36.83777	54838
36.84590	53073
36.85402	51463
36.86213	52196
36.87027	50712
36.87838	50391
36.88652	60588
36.89463	51175
36.90275	60205
36.91088	56511
36.91900	59740
36.92713	59284
36.93525	58375
36.94337	59850
36.95150	57090
36.95962	67301
36.96775	65569
36.97587	62324
36.98398	68041
36.99212	61536
37.00023	60521
37.00835	62565
37.01648	55973
37.02460	54491
37.03273	53344
37.04085	57391
37.04897	55777
37.05710	54416
37.06522	53976
37.07335	53795
37.08147	51552
37.08958	58241
37.09772	53630
37.10583	55965
37.11395	56641
37.12208	53833
37.13020	54673
37.13833	55575
37.14645	55186
37.15457	56943
37.16270	53059
37.17082	54679
37.17895	57619
37.18707	54172
37.19518	56932
37.20332	57839
37.21143	55576
37.21957	54528
37.22768	52382
37.23580	57743
37.24393	56556
37.25205	56031
37.26017	55175
37.26830	55801
37.27642	51698
37.28455	53525
37.29267	55538
37.30078	51880
37.30892	55522
37.31703	58704
37.32517	63839
37.33328	69687
37.34140	75754
37.34953	77712
37.35765	78905
37.36578	77029
37.37390	76417
37.38202	75044
37.39015	72542
37.39827	71675
37.40638	66429
37.41452	67559
37.42263	67359
37.43077	63306
37.43888	68320
37.44700	65632
37.45513	62710
37.46325	63315
37.47138	63915
37.47950	63387
37.48762	67513
