Z:\data\JTB-E02\BACandBLUE\JTB-E18-006-10.D Thu Apr 11 12:55:18 2019
Start of data points
2.09510	124542
2.10322	117382
2.11135	125515
2.11947	127104
2.12758	125572
2.13572	131118
2.14383	123587
2.15197	125332
2.16008	130993
2.16820	120206
2.17633	122282
2.18445	119734
2.19257	115942
2.20070	122044
2.20882	121989
2.21695	116792
2.22507	117958
2.23318	115979
2.24132	112475
2.24943	116900
2.25757	117556
2.26568	158393
2.27380	1429768
2.28193	5577104
2.29005	5310280
2.29818	2216821
2.30630	1331915
2.31442	1071164
2.32255	906315
2.33067	775255
2.33878	687630
2.34692	608967
2.35503	547611
2.36317	505249
2.37128	474164
2.37940	443780
2.38753	426293
2.39565	434910
2.40378	457027
2.41190	409876
2.42002	359637
2.42815	352099
2.43627	334549
2.44440	321438
2.45252	319896
2.46063	307482
2.46877	305721
2.47688	300591
2.48500	284731
2.49313	291630
2.50125	289961
2.50938	289147
2.51750	263563
2.52562	276702
2.53375	267072
2.54187	260520
2.55000	271651
2.55812	445591
2.56623	1058742
2.57437	1133491
2.58248	781223
2.59060	597882
2.59873	504523
2.60685	453158
2.61498	471130
2.62310	470351
2.63122	436822
2.63935	383449
2.64747	347136
2.65560	345220
2.66372	326135
2.67183	309417
2.67997	294404
2.68808	293910
2.69622	289096
2.70433	282820
2.71245	278830
2.72058	269971
2.72870	264331
2.73682	258686
2.74495	256327
2.75307	249707
2.76120	251040
2.76932	255029
2.77743	267731
2.78557	498351
2.79368	942607
2.80182	895214
2.80993	624041
2.81805	505400
2.82618	447070
2.83430	405235
2.84242	369715
2.85055	334311
2.85867	308632
2.86680	300135
2.87492	287612
2.88303	278058
2.89117	268285
2.89928	257840
2.90742	254606
2.91553	250765
2.92365	237509
2.93178	232890
2.93990	232015
2.94803	234860
2.95615	226922
2.96427	240968
2.97240	231312
2.98052	228763
2.98863	228192
2.99677	254925
3.00488	281994
3.01302	277139
3.02113	268820
3.02925	249871
3.03738	238567
3.04550	234274
3.05363	232418
3.06175	246379
3.06987	275948
3.07800	282386
3.08612	262259
3.09425	256035
3.10237	295275
3.11048	363710
3.11862	399589
3.12673	367935
3.13485	312722
3.14298	294020
3.15110	260834
3.15923	246774
3.16735	242511
3.17547	272174
3.18360	343503
3.19172	681212
3.19985	1312247
3.20797	1398699
3.21608	1036495
3.22422	798913
3.23233	668345
3.24045	568872
3.24858	500086
3.25670	448362
3.26483	415100
3.27295	373576
3.28107	346991
3.28920	386491
3.29732	741510
3.30545	2028575
3.31357	4292652
3.32168	5896422
3.32982	5772077
3.33793	4837423
3.34607	4017805
3.35418	3387716
3.36230	2962542
3.37043	2571147
3.37855	2308626
3.38667	2129892
3.39480	1917779
3.40292	1743273
3.41105	1607570
3.41917	1526601
3.42728	1440744
3.43542	1378413
3.44353	1280053
3.45167	1208081
3.45978	1125465
3.46790	1062250
3.47603	1023824
3.48415	967015
3.49228	919511
3.50040	886264
3.50852	825967
3.51665	811885
3.52477	817866
3.53288	846175
3.54102	857260
3.54913	799426
3.55727	755398
3.56538	716241
3.57350	689934
3.58163	663019
3.58975	651147
3.59788	611735
3.60600	609059
3.61412	588407
3.62225	571487
3.63037	563596
3.63848	563533
3.64662	560571
3.65473	543336
3.66287	677830
3.67098	1978587
3.67910	6457577
3.68723	1.115638E+07
3.69535	1.099587E+07
3.70348	7735941
3.71160	5333582
3.71972	4191739
3.72785	3533080
3.73597	3043757
3.74410	2707784
3.75222	2432766
3.76033	2193361
3.76847	2024563
3.77658	1872336
3.78470	1736125
3.79283	1627260
3.80095	1554469
3.80908	1451835
3.81720	1393026
3.82532	1316062
3.83345	1243057
3.84157	1208419
3.84970	1152992
3.85782	1071717
3.86593	1056579
3.87407	993890
3.88218	961817
3.89030	948749
3.89843	891330
3.90655	875541
3.91468	861578
3.92280	882452
3.93092	948651
3.93905	1000769
3.94717	986281
3.95530	900162
3.96342	848609
3.97153	866263
3.97967	842807
3.98778	789290
3.99592	739609
4.00403	731462
4.01215	799282
4.02028	918137
4.02840	954373
4.03652	867764
4.04465	771917
4.05277	714046
4.06090	653942
4.06902	628200
4.07713	603592
4.08527	587585
4.09338	576587
4.10152	569823
4.10963	541465
4.11775	529801
4.12588	561909
4.13400	834843
4.14213	1985423
4.15025	4259882
4.15837	6112806
4.16650	5878772
4.17462	4233855
4.18273	2772414
4.19087	1880228
4.19898	1432974
4.20712	1338463
4.21523	2459303
4.22335	7186144
4.23148	1.525167E+07
4.23960	2.275124E+07
4.24773	2.762073E+07
4.25585	2.885268E+07
4.26397	2.43697E+07
4.27210	1.556059E+07
4.28022	9979313
4.28835	7233159
4.29647	5422399
4.30458	4254186
4.31272	3406244
4.32083	2775759
4.32895	2339087
4.33708	2022391
4.34520	1793754
4.35333	1585201
4.36145	1451399
4.36957	1374023
4.37770	1307867
4.38582	1200368
4.39395	1097146
4.40207	990621
4.41018	933434
4.41832	868632
4.42643	820968
4.43455	788890
4.44268	749200
4.45080	709780
4.45893	681846
4.46705	704684
4.47517	983136
4.48330	1889272
4.49142	3282702
4.49955	4025092
4.50767	3502754
4.51578	2596971
4.52392	1940505
4.53203	1636861
4.54017	1455537
4.54828	1313125
4.55640	1236270
4.56453	1169522
4.57265	1087250
4.58077	1050692
4.58890	998605
4.59702	940927
4.60515	904221
4.61327	892669
4.62138	882960
4.62952	873081
4.63763	949487
4.64577	1053536
4.65388	1124458
4.66200	1082435
4.67013	969159
4.67825	892941
4.68637	839232
4.69450	801075
4.70262	768383
4.71075	752557
4.71887	728106
4.72698	688143
4.73512	677447
4.74323	654187
4.75137	626627
4.75948	636422
4.76760	623465
4.77573	607090
4.78385	600473
4.79198	594179
4.80010	588399
4.80822	587433
4.81635	598415
4.82447	590329
4.83258	569477
4.84072	561643
4.84883	555936
4.85697	553606
4.86508	535323
4.87320	510768
4.88133	527543
4.88945	514887
4.89758	508909
4.90570	508896
4.91382	493282
4.92195	481452
4.93007	490760
4.93820	532312
4.94632	757566
4.95443	1320660
4.96257	2314072
4.97068	3253725
4.97880	3642525
4.98693	3378882
4.99505	2853218
5.00318	2376913
5.01130	1993288
5.01942	1765909
5.02755	1604546
5.03567	1504679
5.04380	1471011
5.05192	1432200
5.06003	1357042
5.06817	1251355
5.07628	1174372
5.08440	1095899
5.09253	1021648
5.10065	980328
5.10878	946661
5.11690	899046
5.12502	877128
5.13315	851750
5.14127	820149
5.14940	790927
5.15752	799177
5.16563	804427
5.17377	844597
5.18188	843691
5.19002	819701
5.19813	796789
5.20625	775110
5.21438	786133
5.22250	799336
5.23062	777336
5.23875	747276
5.24687	733067
5.25500	677294
5.26312	653584
5.27123	627342
5.27937	600516
5.28748	571293
5.29562	563633
5.30373	557016
5.31185	536360
5.31998	542914
5.32810	525312
5.33623	509094
5.34435	514836
5.35247	505651
5.36060	503022
5.36872	494772
5.37683	484651
5.38497	489517
5.39308	500379
5.40122	512087
5.40933	502096
5.41745	506853
5.42558	497217
5.43370	486062
5.44183	555191
5.44995	736794
5.45807	1096412
5.46620	1386180
5.47432	1442249
5.48243	1230139
5.49057	944051
5.49868	734253
5.50682	634649
5.51493	568413
5.52305	538153
5.53118	505573
5.53930	498572
5.54743	480390
5.55555	479820
5.56367	501100
5.57180	576309
5.57992	650011
5.58805	675960
5.59617	627650
5.60428	549686
5.61242	502272
5.62053	480879
5.62865	456651
5.63678	446021
5.64490	432936
5.65303	430893
5.66115	431290
5.66927	440373
5.67740	503788
5.68552	683221
5.69365	991236
5.70177	1227219
5.70988	1243104
5.71802	1046128
5.72613	837556
5.73425	706424
5.74238	608231
5.75050	550967
5.75863	507973
5.76675	474730
5.77487	472116
5.78300	452481
5.79112	442564
5.79925	461490
5.80737	493311
5.81548	578565
5.82362	620667
5.83173	615593
5.83987	569343
5.84798	557437
5.85610	513967
5.86423	491232
5.87235	463576
5.88047	450062
5.88860	439303
5.89672	411320
5.90485	406848
5.91297	374215
5.92108	357552
5.92922	348418
5.93733	343713
5.94547	348774
5.95358	355627
5.96170	356059
5.96983	367309
5.97795	379343
5.98608	390696
5.99420	424345
6.00232	423455
6.01045	409450
6.01857	377439
6.02668	350219
6.03482	335806
6.04293	324191
6.05107	306491
6.05918	303282
6.06730	283274
6.07543	281874
6.08355	277401
6.09168	264959
6.09980	265681
6.10792	255488
6.11605	264115
6.12417	262882
6.13228	289683
6.14042	358913
6.14853	472744
6.15667	555815
6.16478	605949
6.17290	577602
6.18103	507975
6.18915	453606
6.19728	400622
6.20540	377957
6.21352	346487
6.22165	341964
6.22977	328263
6.23790	303978
6.24602	305951
6.25413	309341
6.26227	325155
6.27038	313482
6.27850	305160
6.28663	299673
6.29475	300712
6.30288	332803
6.31100	371229
6.31912	433981
6.32725	438250
6.33537	408256
6.34350	356327
6.35162	320848
6.35973	288275
6.36787	284009
6.37598	285312
6.38412	268959
6.39223	277442
6.40035	270898
6.40848	270068
6.41660	259536
6.42472	264782
6.43285	254511
6.44097	253868
6.44910	258284
6.45722	254469
6.46533	250915
6.47347	253598
6.48158	244076
6.48972	245709
6.49783	248249
6.50595	248416
6.51408	244687
6.52220	256775
6.53032	243893
6.53845	243432
6.54657	246413
6.55470	243316
6.56282	247708
6.57093	265196
6.57907	315886
6.58718	354578
6.59532	375926
6.60343	336292
6.61155	309965
6.61968	267637
6.62780	259142
6.63593	267176
6.64405	286336
6.65217	453439
6.66030	844279
6.66842	1395716
6.67653	1789892
6.68467	1672529
6.69278	1243910
6.70092	852530
6.70903	599078
6.71715	478760
6.72528	430980
6.73340	386599
6.74153	400751
6.74965	377886
6.75777	361835
6.76590	340008
6.77402	307503
6.78213	301997
6.79027	304781
6.79838	299036
6.80652	309539
6.81463	332341
6.82275	349348
6.83088	347665
6.83900	334218
6.84713	309305
6.85525	278981
6.86337	259063
6.87150	226009
6.87962	204612
6.88775	194973
6.89587	183165
6.90398	170591
6.91212	158518
6.92023	154070
6.92835	154906
6.93648	154310
6.94460	151761
6.95273	153629
6.96085	151689
6.96897	167703
6.97710	180271
6.98522	191088
6.99335	200694
7.00147	184995
7.00958	175359
7.01772	158006
7.02583	157054
7.03397	151959
7.04208	161801
7.05020	160334
7.05833	167927
7.06645	178436
7.07457	182536
7.08270	173076
7.09082	168974
7.09895	158783
7.10707	156764
7.11518	145315
7.12332	147445
7.13143	148593
7.13957	150001
7.14768	146503
7.15580	168100
7.16393	189119
7.17205	216319
7.18017	221022
7.18830	211285
7.19642	198896
7.20455	234141
7.21267	416172
7.22078	1008107
7.22892	2205098
7.23703	3813185
7.24517	4701068
7.25328	4304985
7.26140	3033637
7.26953	1847003
7.27765	1141677
7.28578	722217
7.29390	445614
7.30202	276099
7.31015	213271
7.31827	189922
7.32638	196183
7.33452	194389
7.34263	186711
7.35077	188982
7.35888	181496
7.36700	172447
7.37513	169239
7.38325	162553
7.39138	156068
7.39950	161681
7.40762	165351
7.41575	152375
7.42387	151638
7.43200	150677
7.44012	151349
7.44823	149670
7.45637	146732
7.46448	144687
7.47260	151530
7.48073	138867
7.48885	137901
7.49698	136586
7.50510	133119
7.51322	142078
7.52135	153274
7.52947	217196
7.53760	314505
7.54572	500979
7.55383	731376
7.56197	923410
7.57008	1017255
7.57820	985105
7.58633	816779
7.59445	645712
7.60258	494277
7.61070	399638
7.61882	333521
7.62695	275522
7.63507	226959
7.64320	205345
7.65132	187731
7.65943	164625
7.66757	151555
7.67568	148243
7.68382	137725
7.69193	134473
7.70005	137100
7.70818	135527
7.71630	135481
7.72442	135073
7.73255	134816
7.74067	130077
7.74880	126379
7.75692	126673
7.76503	137169
7.77317	145784
7.78128	149759
7.78942	157967
7.79753	170718
7.80565	175518
7.81378	186635
7.82190	216726
7.83003	297350
7.83815	560119
7.84627	1067952
7.85440	1892437
7.86252	3013464
7.87063	4566777
7.87877	6830728
7.88688	9591197
7.89502	1.179163E+07
7.90313	1.211299E+07
7.91125	1.02584E+07
7.91938	7381502
7.92750	4981149
7.93563	3362331
7.94375	2461961
7.95187	1888158
7.96000	1452886
7.96812	1134881
7.97623	899643
7.98437	717937
7.99248	588781
8.00062	517971
8.00873	516078
8.01685	562301
8.02498	677705
8.03310	813945
8.04123	925574
8.04935	943408
8.05747	931357
8.06560	900377
8.07372	833308
8.08185	802969
8.08997	752705
8.09808	722203
8.10622	687959
8.11433	665023
8.12245	634846
8.13058	612208
8.13870	594434
8.14683	569324
8.15495	559104
8.16307	547121
8.17120	528207
8.17932	507835
8.18745	488159
8.19557	479091
8.20368	455386
8.21182	448728
8.21993	430398
8.22805	423750
8.23618	425245
8.24430	404475
8.25243	408248
8.26055	379209
8.26867	374554
8.27680	375934
8.28492	356883
8.29305	364823
8.30117	355830
8.30928	347879
8.31742	328814
8.32553	326544
8.33367	330089
8.34178	311695
8.34990	307536
8.35803	303363
8.36615	296610
8.37427	298770
8.38240	294796
8.39052	284332
8.39865	277370
8.40677	274225
8.41488	263373
8.42302	272776
8.43113	262013
8.43927	257757
8.44738	252426
8.45550	248170
8.46363	245438
8.47175	246329
8.47988	240312
8.48800	238788
8.49612	236952
8.50425	244217
8.51237	257117
8.52048	367738
8.52862	757687
8.53673	1842414
8.54487	3810800
8.55298	6102231
8.56110	7418075
8.56923	6988695
8.57735	4933458
8.58548	2797030
8.59360	1533315
8.60172	896965
8.60985	686836
8.61797	591972
8.62608	552961
8.63422	526210
8.64233	482434
8.65047	441986
8.65858	418838
8.66670	408265
8.67483	382306
8.68295	377443
8.69108	362975
8.69920	341370
8.70732	327228
8.71545	310951
8.72357	309156
8.73170	296347
8.73982	273668
8.74793	286850
8.75607	286130
8.76418	329797
8.77230	437374
8.78043	645841
8.78855	937799
8.79668	1129110
8.80480	1138555
8.81292	991956
8.82105	811243
8.82917	648154
8.83730	556224
8.84542	530467
8.85353	527110
8.86167	523185
8.86978	523896
8.87792	494279
8.88603	468046
8.89415	462782
8.90228	421691
8.91040	423473
8.91852	403847
8.92665	388618
8.93477	384260
8.94290	398522
8.95102	398523
8.95913	405176
8.96727	389433
8.97538	371255
8.98352	346608
8.99163	349233
8.99975	318715
9.00788	317053
9.01600	306579
9.02412	287114
9.03225	284173
9.04037	280040
9.04850	285299
9.05662	267667
9.06473	263841
9.07287	265720
9.08098	257528
9.08912	257678
9.09723	255475
9.10535	273284
9.11348	274097
9.12160	277181
9.12973	278827
9.13785	271870
9.14597	274776
9.15410	275745
9.16222	289247
9.17033	283116
9.17847	282134
9.18658	266165
9.19472	258511
9.20283	243737
9.21095	240817
9.21908	234509
9.22720	227654
9.23533	221150
9.24345	219181
9.25157	198425
9.25970	188456
9.26782	186432
9.27593	195647
9.28407	199234
9.29218	196684
9.30032	195192
9.30843	195588
9.31655	180920
9.32468	175257
9.33280	169575
9.34093	162456
9.34905	161994
9.35717	157668
9.36530	161635
9.37342	154730
9.38155	152564
9.38967	159919
9.39778	160879
9.40592	154651
9.41403	167180
9.42215	178710
9.43028	198181
9.43840	232204
9.44653	263768
9.45465	289859
9.46277	292007
9.47090	274567
9.47902	251683
9.48715	228066
9.49527	196373
9.50338	180445
9.51152	167430
9.51963	164199
9.52777	171060
9.53588	171916
9.54400	166786
9.55213	169877
9.56025	151069
9.56837	133579
9.57650	123619
9.58462	118147
9.59275	110699
9.60087	113286
9.60898	110798
9.61712	111394
9.62523	108944
9.63337	103653
9.64148	99478
9.64960	97806
9.65773	95726
9.66585	96924
9.67398	91571
9.68210	96634
9.69022	93243
9.69835	88566
9.70647	84656
9.71458	88047
9.72272	86921
9.73083	90303
9.73897	94160
9.74708	93470
9.75520	94930
9.76333	97834
9.77145	93626
9.77958	87457
9.78770	83518
9.79582	82813
9.80395	87494
9.81207	90991
9.82018	83856
9.82832	80483
9.83643	81509
9.84457	82771
9.85268	83980
9.86080	90798
9.86893	102551
9.87705	110511
9.88518	106857
9.89330	109978
9.90142	100527
9.90955	98179
9.91767	100751
9.92580	98309
9.93392	102612
9.94203	105025
9.95017	110516
9.95828	117617
9.96640	117006
9.97453	123960
9.98265	114713
9.99078	112702
9.99890	125596
10.00702	130720
10.01515	136419
10.02327	139434
10.03140	135794
10.03952	137312
10.04763	132968
10.05577	119663
10.06388	122304
10.07200	124484
10.08013	119735
10.08825	120097
10.09638	115164
10.10450	116132
10.11262	111848
10.12075	104932
10.12887	109085
10.13700	103737
10.14512	103556
10.15323	93777
10.16137	93613
10.16948	94791
10.17762	95020
10.18573	98589
10.19385	92771
10.20198	93458
10.21010	93299
10.21822	86995
10.22635	94641
10.23447	92828
10.24260	97207
10.25072	110072
10.25883	161239
10.26697	354986
10.27508	982824
10.28322	2487547
10.29133	5036892
10.29945	8466027
10.30758	1.187344E+07
10.31570	1.522633E+07
10.32383	1.866597E+07
10.33195	2.353422E+07
10.34007	2.936543E+07
10.34820	3.60813E+07
10.35632	4.052057E+07
10.36443	4.045933E+07
10.37257	3.231492E+07
10.38068	1.940727E+07
10.38882	9687953
10.39693	5467833
10.40505	3870580
10.41318	3072044
10.42130	2503738
10.42943	2031048
10.43755	1709939
10.44567	1486649
10.45380	1360254
10.46192	1298176
10.47003	1217656
10.47817	1093695
10.48628	1036290
10.49442	921297
10.50253	866676
10.51065	796470
10.51878	754972
10.52690	721920
10.53503	672138
10.54315	647525
10.55127	611912
10.55940	586952
10.56752	561100
10.57565	533067
10.58377	521538
10.59188	493822
10.60002	479485
10.60813	468733
10.61625	448075
10.62438	419033
10.63250	415104
10.64063	391872
10.64875	388562
10.65687	376946
10.66500	363077
10.67312	360157
10.68125	345150
10.68937	338331
10.69748	316897
10.70562	313946
10.71373	310442
10.72187	307601
10.72998	304162
10.73810	301802
10.74623	290302
10.75435	289050
10.76247	276780
10.77060	265777
10.77872	257055
10.78685	269523
10.79497	243723
10.80308	252768
10.81122	241291
10.81933	233448
10.82747	235621
10.83558	229755
10.84370	222623
10.85183	216883
10.85995	206544
10.86807	203432
10.87620	205584
10.88432	198526
10.89245	196499
10.90057	192850
10.90868	190980
10.91682	182480
10.92493	182778
10.93307	180830
10.94118	183084
10.94930	180290
10.95743	187762
10.96555	182341
10.97368	187392
10.98180	190098
10.98992	186386
10.99805	180337
11.00617	174694
11.01428	168217
11.02242	166760
11.03053	158593
11.03867	161950
11.04678	162251
11.05490	150953
11.06303	148841
11.07115	154969
11.07928	153644
11.08740	152540
11.09552	164121
11.10365	155618
11.11177	145619
11.11988	143413
11.12802	137537
11.13613	125851
11.14427	130330
11.15238	115833
11.16050	115122
11.16863	113638
11.17675	121145
11.18488	117682
11.19300	120629
11.20112	119492
11.20925	116187
11.21737	115880
11.22550	111534
11.23362	107904
11.24173	107857
11.24987	103314
11.25798	105109
11.26610	96048
11.27423	86665
11.28235	90352
11.29048	87079
11.29860	93296
11.30672	110608
11.31485	144102
11.32297	221049
11.33110	322748
11.33922	436436
11.34733	557289
11.35547	579881
11.36358	519318
11.37172	426033
11.37983	318937
11.38795	260000
11.39608	235474
11.40420	227738
11.41232	242784
11.42045	230192
11.42857	218411
11.43670	205008
11.44482	193623
11.45293	173291
11.46107	152726
11.46918	152807
11.47732	152486
11.48543	164358
11.49355	167723
11.50168	186167
11.50980	197139
11.51792	200485
11.52605	217345
11.53417	228654
11.54230	252389
11.55042	278244
11.55853	295153
11.56667	269387
11.57478	239153
11.58292	208630
11.59103	187029
11.59915	176469
11.60728	187513
11.61540	223944
11.62353	247301
11.63165	264928
11.63977	264434
11.64790	229448
11.65602	206544
11.66413	190958
11.67227	173052
11.68038	162815
11.68852	153143
11.69663	149532
11.70475	135673
11.71288	136340
11.72100	120933
11.72913	124011
11.73725	110452
11.74537	108202
11.75350	108986
11.76162	104166
11.76975	105300
11.77787	103625
11.78598	103804
11.79412	102054
11.80223	99611
11.81035	100981
11.81848	94041
11.82660	92690
11.83473	96701
11.84285	95409
11.85097	95764
11.85910	101508
11.86722	100907
11.87535	99073
11.88347	94704
11.89158	95039
11.89972	99925
11.90783	99365
11.91595	121707
11.92408	149445
11.93220	183331
11.94033	202230
11.94845	206057
11.95657	193570
11.96470	169140
11.97282	164551
11.98095	223765
11.98907	387201
11.99718	771853
12.00532	1413356
12.01343	1952316
12.02157	2633269
12.02968	2919805
12.03780	3361501
12.04593	3375571
12.05405	3285589
12.06217	2826408
12.07030	2224274
12.07842	1700805
12.08655	1352684
12.09467	1161350
12.10278	1035964
12.11092	1008346
12.11903	939187
12.12717	903275
12.13528	942543
12.14340	912800
12.15153	851029
12.15965	796543
12.16778	776667
12.17590	681155
12.18402	687097
12.19215	649587
12.20027	631576
12.20838	609650
12.21652	597613
12.22463	596701
12.23277	591264
12.24088	581931
12.24900	597360
12.25713	632809
12.26525	679009
12.27338	700704
12.28150	665232
12.28962	667373
12.29775	586219
12.30587	531119
12.31398	503730
12.32212	491565
12.33023	482532
12.33837	482587
12.34648	443468
12.35460	439999
12.36273	417503
12.37085	403875
12.37898	393309
12.38710	395592
12.39522	392293
12.40335	369873
12.41147	373046
12.41960	383512
12.42772	388194
12.43583	377736
12.44397	367049
12.45208	382112
12.46020	346394
12.46833	347361
12.47645	325021
12.48458	320719
12.49270	314161
12.50082	317883
12.50895	327958
12.51707	321363
12.52520	324900
12.53332	322891
12.54143	308732
12.54957	299542
12.55768	312582
12.56580	288662
12.57393	283798
12.58205	272393
12.59018	269762
12.59830	262094
12.60642	256136
12.61455	250741
12.62267	241965
12.63080	242671
12.63892	252788
12.64703	242727
12.65517	235275
12.66328	223460
12.67142	224973
12.67953	203714
12.68765	182830
12.69578	159795
12.70390	141757
12.71202	131733
12.72015	119513
12.72827	128625
12.73640	124429
12.74452	122564
12.75263	121988
12.76077	119125
12.76888	109629
12.77702	107947
12.78513	102392
12.79325	105965
12.80138	103100
12.80950	107939
12.81763	105137
12.82575	106095
12.83387	104546
12.84200	98531
12.85012	95636
12.85823	104257
12.86637	94377
12.87448	94478
12.88262	90004
12.89073	87902
12.89885	87771
12.90698	87038
12.91510	94909
12.92323	83897
12.93135	81205
12.93947	86959
12.94760	89958
12.95572	96774
12.96383	93465
12.97197	95641
12.98008	104542
12.98822	111583
12.99633	107657
13.00445	112021
13.01258	111908
13.02070	101045
13.02883	101009
13.03695	99366
13.04507	90136
13.05320	86840
13.06132	91200
13.06945	88554
13.07757	88920
13.08568	89154
13.09382	91633
13.10193	93058
13.11005	92038
13.11818	95192
13.12630	92935
13.13443	87745
13.14255	89086
13.15067	85524
13.15880	83536
13.16692	89367
13.17505	86807
13.18317	89427
13.19128	88977
13.19942	96438
13.20753	97953
13.21567	102872
13.22378	102735
13.23190	97916
13.24003	97195
13.24815	93007
13.25627	86763
13.26440	86686
13.27252	87630
13.28065	89112
13.28877	82524
13.29688	79527
13.30502	77676
13.31313	77153
13.32127	78042
13.32938	77408
13.33750	76140
13.34563	79227
13.35375	75627
13.36187	74022
13.37000	78606
13.37812	81525
13.38625	73776
13.39437	75098
13.40248	76407
13.41062	73742
13.41873	75173
13.42687	72462
13.43498	70529
13.44310	71924
13.45123	77114
13.45935	68994
13.46748	69984
13.47560	77146
13.48372	69748
13.49185	70681
13.49997	75568
13.50808	76991
13.51622	71887
13.52433	73129
13.53247	73800
13.54058	78261
13.54870	76161
13.55683	76009
13.56495	75232
13.57308	87894
13.58120	83871
13.58932	89321
13.59745	99446
13.60557	114129
13.61368	133908
13.62182	161015
13.62993	192316
13.63807	193489
13.64618	195343
13.65430	179480
13.66243	159671
13.67055	139702
13.67868	118997
13.68680	108796
13.69492	104872
13.70305	104230
13.71117	96376
13.71930	91872
13.72742	86625
13.73553	92190
13.74367	107520
13.75178	153582
13.75990	262990
13.76803	438592
13.77615	724816
13.78428	1101490
13.79240	1538312
13.80052	2053911
13.80865	2563832
13.81677	2825973
13.82490	2730218
13.83302	2330444
13.84113	1862362
13.84927	1490241
13.85738	1182222
13.86552	1037486
13.87363	869789
13.88175	796057
13.88988	747224
13.89800	685890
13.90612	636716
13.91425	585879
13.92237	546883
13.93050	520105
13.93862	489433
13.94673	476286
13.95487	483457
13.96298	516221
13.97112	610977
13.97923	685669
13.98735	865651
13.99548	998319
14.00360	1192550
14.01172	1359457
14.01985	1439960
14.02797	1448205
14.03610	1191202
14.04422	1031347
14.05233	855877
14.06047	756862
14.06858	641227
14.07672	610134
14.08483	615558
14.09295	603300
14.10108	533838
14.10920	529601
14.11733	512155
14.12545	511513
14.13357	510160
14.14170	565873
14.14982	589871
14.15793	642423
14.16607	708945
14.17418	754942
14.18232	825864
14.19043	878981
14.19855	921244
14.20668	886357
14.21480	829696
14.22293	767624
14.23105	684806
14.23917	663411
14.24730	610398
14.25542	577650
14.26355	526576
14.27167	495532
14.27978	438835
14.28792	408863
14.29603	371834
14.30415	369960
14.31228	339553
14.32040	325539
14.32853	312653
14.33665	303704
14.34477	305458
14.35290	279039
14.36102	264264
14.36915	238511
14.37727	233846
14.38538	215230
14.39352	221940
14.40163	217275
14.40975	209205
14.41788	213460
14.42600	208667
14.43413	210355
14.44225	202897
14.45037	184347
14.45850	187644
14.46662	168499
14.47475	161979
14.48287	141481
14.49098	140652
14.49912	141413
14.50723	139865
14.51537	146548
14.52348	145713
14.53160	152032
14.53973	168450
14.54785	185978
14.55597	204954
14.56410	218751
14.57222	209607
14.58035	196191
14.58847	177883
14.59658	166152
14.60472	144183
14.61283	138531
14.62097	134342
14.62908	125021
14.63720	121493
14.64533	117216
14.65345	112756
14.66157	107781
14.66970	117662
14.67782	109747
14.68595	116344
14.69407	111778
14.70218	106533
14.71032	105037
14.71843	108060
14.72657	103623
14.73468	107731
14.74280	106413
14.75093	115985
14.75905	114149
14.76718	113535
14.77530	114976
14.78342	125295
14.79155	119420
14.79967	116976
14.80778	133123
14.81592	186000
14.82403	361764
14.83217	838201
14.84028	1738428
14.84840	2958734
14.85653	4111642
14.86465	4567703
14.87278	4202017
14.88090	3310519
14.88902	2277179
14.89715	1473198
14.90527	1046173
14.91340	803288
14.92152	686638
14.92963	607816
14.93777	540216
14.94588	494650
14.95400	442785
14.96213	418240
14.97025	386630
14.97838	365356
14.98650	343621
14.99462	319982
15.00275	314171
15.01087	293218
15.01900	287143
15.02712	267815
15.03523	262107
15.04337	242387
15.05148	237500
15.05962	228855
15.06773	222875
15.07585	218751
15.08398	212659
15.09210	203700
15.10022	201916
15.10835	188611
15.11647	193166
15.12460	183998
15.13272	184355
15.14083	178016
15.14897	180971
15.15708	205187
15.16522	206886
15.17333	222891
15.18145	211313
15.18958	191375
15.19770	167366
15.20582	146411
15.21395	133206
15.22207	123456
15.23020	118191
15.23832	113109
15.24643	107409
15.25457	106646
15.26268	102176
15.27082	97220
15.27893	97049
15.28705	95327
15.29518	92875
15.30330	96287
15.31143	91761
15.31955	88091
15.32767	92306
15.33580	96211
15.34392	91813
15.35203	92344
15.36017	90267
15.36828	93839
15.37642	88645
15.38453	92940
15.39265	94351
15.40078	95223
15.40890	84490
15.41703	92599
15.42515	85355
15.43327	88976
15.44140	91153
15.44952	89278
15.45763	90759
15.46577	85974
15.47388	91072
15.48202	99693
15.49013	109726
15.49825	120002
15.50638	135247
15.51450	137520
15.52263	135698
15.53075	138931
15.53887	139312
15.54700	135385
15.55512	126836
15.56325	120484
15.57137	115525
15.57948	112294
15.58762	99338
15.59573	94821
15.60385	94961
15.61198	90854
15.62010	84005
15.62823	86909
15.63635	85590
15.64447	82493
15.65260	81304
15.66072	81059
15.66885	77207
15.67697	82207
15.68508	80259
15.69322	83940
15.70133	77214
15.70947	77481
15.71758	78476
15.72570	78744
15.73383	79488
15.74195	79598
15.75007	75397
15.75820	78290
15.76632	82249
15.77445	105779
15.78257	152595
15.79068	257346
15.79882	466835
15.80693	773125
15.81507	1053276
15.82318	1170738
15.83130	1075167
15.83943	861437
15.84755	644740
15.85567	487815
15.86380	376966
15.87192	302275
15.88005	265395
15.88817	243128
15.89628	211911
15.90442	202167
15.91253	189604
15.92067	180800
15.92878	173429
15.93690	171982
15.94503	165257
15.95315	158150
15.96128	151857
15.96940	159070
15.97752	145781
15.98565	159644
15.99377	171645
16.00188	198583
16.01002	241129
16.01813	273151
16.02627	296499
16.03438	285106
16.04250	264828
16.05063	248878
16.05875	200777
16.06688	193273
16.07500	174818
16.08312	155971
16.09125	140134
16.09937	141190
16.10750	134352
16.11562	140922
16.12373	158594
16.13187	189844
16.13998	247143
16.14810	291974
16.15623	312709
16.16435	302151
16.17248	276967
16.18060	222315
16.18872	181005
16.19685	159616
16.20497	139209
16.21310	131651
16.22122	129970
16.22933	124164
16.23747	123256
16.24558	124061
16.25370	118294
16.26183	113221
16.26995	116205
16.27808	106963
16.28620	109378
16.29432	108673
16.30245	108281
16.31057	110035
16.31870	109560
16.32682	106689
16.33493	101866
16.34307	103554
16.35118	101103
16.35932	95354
16.36743	96414
16.37555	91311
16.38368	100679
16.39180	106415
16.39992	121643
16.40805	145244
16.41617	183985
16.42430	243885
16.43242	308022
16.44053	335334
16.44867	324559
16.45678	303219
16.46492	249954
16.47303	216921
16.48115	224142
16.48928	293846
16.49740	438318
16.50552	653174
16.51365	869275
16.52177	933417
16.52990	884266
16.53802	695400
16.54613	512334
16.55427	378605
16.56238	291006
16.57052	244940
16.57863	218437
16.58675	197982
16.59488	188835
16.60300	179006
16.61113	167483
16.61925	161787
16.62737	157257
16.63550	144181
16.64362	153147
16.65173	149651
16.65987	141372
16.66798	138462
16.67612	136417
16.68423	129042
16.69235	126523
16.70048	124660
16.70860	123529
16.71673	118442
16.72485	111503
16.73297	104283
16.74110	104490
16.74922	102939
16.75735	91676
16.76547	96462
16.77358	95632
16.78172	97064
16.78983	89681
16.79795	96327
16.80608	94313
16.81420	101981
16.82233	91335
16.83045	89673
16.83857	83873
16.84670	87787
16.85482	83787
16.86295	82420
16.87107	82858
16.87918	86570
16.88732	90707
16.89543	92160
16.90355	87303
16.91168	86767
16.91980	85042
16.92793	82752
16.93605	82087
16.94417	78412
16.95230	80646
16.96042	78560
16.96855	74994
16.97667	74445
16.98478	82607
16.99292	80358
17.00103	84663
17.00917	79207
17.01728	85996
17.02540	75077
17.03353	83100
17.04165	80732
17.04977	73409
17.05790	82197
17.06602	81599
17.07415	86371
17.08227	88256
17.09038	97092
17.09852	98595
17.10663	91945
17.11477	95574
17.12288	97656
17.13100	97820
17.13913	99955
17.14725	104461
17.15538	107110
17.16350	106056
17.17162	101898
17.17975	98081
17.18787	96422
17.19598	92715
17.20412	90290
17.21223	85173
17.22037	84358
17.22848	79261
17.23660	78118
17.24473	79835
17.25285	77760
17.26098	77372
17.26910	79553
17.27722	78421
17.28535	81927
17.29347	80849
17.30158	80356
17.30972	82003
17.31783	80780
17.32597	79445
17.33408	80434
17.34220	83279
17.35033	91308
17.35845	101413
17.36658	120080
17.37470	131625
17.38282	141885
17.39095	143719
17.39907	154962
17.40720	144363
17.41532	137091
17.42343	865707
17.43157	4.88641E+07
17.43968	5.149875E+07
17.44780	5.058863E+07
17.45593	4.995959E+07
17.46405	4.986607E+07
17.47218	4.913494E+07
17.48030	4.81528E+07
17.48842	4.763464E+07
17.49655	4.790247E+07
17.50467	4.711798E+07
17.51280	4.644406E+07
17.52092	4.540788E+07
17.52903	4.456485E+07
17.53717	4.390343E+07
17.54528	4.35096E+07
17.55342	4.318465E+07
17.56153	4.248529E+07
17.56965	4.144268E+07
17.57778	4.053655E+07
17.58590	3.999396E+07
17.59402	3.874065E+07
17.60215	3.813588E+07
17.61027	3.72555E+07
17.61840	3.613383E+07
17.62652	3.599266E+07
17.63463	3.53433E+07
17.64277	3.461326E+07
17.65088	3.414183E+07
17.65902	3.26161E+07
17.66713	3.094938E+07
17.67525	2.870406E+07
17.68338	2.767437E+07
17.69150	2.642423E+07
17.69962	2.507697E+07
17.70775	2.330534E+07
17.71587	2.241642E+07
17.72400	2.123796E+07
17.73212	1.997035E+07
17.74023	1.889019E+07
17.74837	1.784332E+07
17.75648	1.657402E+07
17.76462	1.528328E+07
17.77273	1.439767E+07
17.78085	1.34805E+07
17.78898	1.266366E+07
17.79710	1.186365E+07
17.80523	1.110281E+07
17.81335	1.051551E+07
17.82147	9828771
17.82960	9315113
17.83772	8847046
17.84583	8313637
17.85397	7787733
17.86208	7424575
17.87022	7174478
17.87833	6793859
17.88645	6531486
17.89458	6254903
17.90270	5921461
17.91083	5538629
17.91895	5270823
17.92707	5143825
17.93520	4943598
17.94332	4814834
17.95143	4535437
17.95957	4388016
17.96768	4237569
17.97582	4125625
17.98393	3928985
17.99205	3753989
18.00018	3668674
18.00830	3554611
18.01643	3468475
18.02455	3370299
18.03267	3277581
18.04080	3213707
18.04892	3146622
18.05705	3034792
18.06517	2973448
18.07328	2877756
18.08142	2729775
18.08953	2703066
18.09765	2616638
18.10578	2551326
18.11390	2477674
18.12203	2434356
18.13015	2375474
18.13827	2313398
18.14640	2230146
18.15452	2176127
18.16265	2134634
18.17077	2039470
18.17888	2004010
18.18702	1962215
18.19513	1848055
18.20327	1797839
18.21138	1731640
18.21950	1717640
18.22763	1693713
18.23575	1611754
18.24387	1573074
18.25200	1534350
18.26012	1485982
18.26825	1455010
18.27637	1422443
18.28448	1370360
18.29262	1323811
18.30073	1296179
18.30887	1246701
18.31698	1212520
18.32510	1178860
18.33323	1175463
18.34135	1120179
18.34947	1105727
18.35760	1063957
18.36572	1026925
18.37385	1038290
18.38197	1005077
18.39008	1002390
18.39822	961347
18.40633	946775
18.41447	917408
18.42258	887504
18.43070	905074
18.43883	875672
18.44695	892618
18.45508	930424
18.46320	979288
18.47132	1103811
18.47945	1310847
18.48757	1523754
18.49568	1684294
18.50382	1698756
18.51193	1553800
18.52007	1346651
18.52818	1178184
18.53630	1026462
18.54443	926054
18.55255	855866
18.56068	818425
18.56880	783255
18.57692	767793
18.58505	728408
18.59317	708426
18.60130	709726
18.60942	695581
18.61753	681615
18.62567	678762
18.63378	669446
18.64190	661192
18.65003	643984
18.65815	624681
18.66628	620554
18.67440	606767
18.68252	602374
18.69065	578032
18.69877	569010
18.70690	566037
18.71502	544677
18.72313	540875
18.73127	530980
18.73938	524244
18.74750	524829
18.75563	515559
18.76375	508289
18.77188	494297
18.78000	493275
18.78812	486379
18.79625	487471
18.80437	491070
18.81250	478061
18.82062	501481
18.82873	478052
18.83687	462623
18.84498	463655
18.85312	460624
18.86123	439269
18.86935	442584
18.87748	443062
18.88560	431421
18.89372	431986
18.90185	426278
18.90997	428997
18.91810	423658
18.92622	425909
18.93433	428400
18.94247	432133
18.95058	458954
18.95872	490407
18.96683	507845
18.97495	503823
18.98308	519245
18.99120	506682
18.99932	476545
19.00745	452943
19.01557	438281
19.02370	428316
19.03182	422175
19.03993	410896
19.04807	405695
19.05618	399825
19.06432	388794
19.07243	388864
19.08055	397265
19.08868	419692
19.09680	466761
19.10493	510144
19.11305	549821
19.12117	580316
19.12930	565126
19.13742	521533
19.14553	485001
19.15367	452181
19.16178	439128
19.16992	428496
19.17803	408290
19.18615	398919
19.19428	392242
19.20240	368698
19.21053	369314
19.21865	367721
19.22677	360407
19.23490	359449
19.24302	347615
19.25115	329080
19.25927	329206
19.26738	329247
19.27552	315757
19.28363	323382
19.29175	326945
19.29988	328786
19.30800	339805
19.31613	326350
19.32425	317237
19.33237	318295
19.34050	320394
19.34862	315022
19.35675	313987
19.36487	321548
19.37298	324284
19.38112	313778
19.38923	318140
19.39737	318442
19.40548	319435
19.41360	305899
19.42173	297505
19.42985	303951
19.43797	297231
19.44610	302923
19.45422	295253
19.46235	303984
19.47047	310509
19.47858	309236
19.48672	325439
19.49483	357503
19.50297	407508
19.51108	472817
19.51920	525394
19.52733	546445
19.53545	527031
19.54357	473727
19.55170	405659
19.55982	352591
19.56795	327492
19.57607	293249
19.58418	284766
19.59232	286320
19.60043	284182
19.60857	280784
19.61668	279569
19.62480	274744
19.63293	288691
19.64105	327136
19.64918	407732
19.65730	517598
19.66542	706637
19.67355	883743
19.68167	1020417
19.68978	1052327
19.69792	994961
19.70603	885140
19.71417	778829
19.72228	664345
19.73040	574031
19.73853	506508
19.74665	459585
19.75478	419613
19.76290	391872
19.77102	361468
19.77915	342186
19.78727	332053
19.79538	334262
19.80352	324637
19.81163	314601
19.81977	323649
19.82788	326704
19.83600	307392
19.84413	296131
19.85225	281527
19.86038	275593
19.86850	272226
19.87662	276761
19.88475	283646
19.89287	297579
19.90100	338734
19.90912	346491
19.91723	356456
19.92537	369816
19.93348	371992
19.94160	372381
19.94973	360550
19.95785	349642
19.96598	345536
19.97410	340000
19.98222	326001
19.99035	330598
19.99847	329535
20.00660	332537
20.01472	344168
20.02283	338549
20.03097	339317
20.03908	345299
20.04722	340188
20.05533	309694
20.06345	299618
20.07158	289098
20.07970	280371
20.08782	278121
20.09595	279870
20.10407	276874
20.11220	272247
20.12032	264269
20.12843	267692
20.13657	256720
20.14468	254323
20.15282	255404
20.16093	256817
20.16905	280880
20.17718	304952
20.18530	319653
20.19342	354810
20.20155	383050
20.20967	389766
20.21780	394785
20.22592	379581
20.23403	374157
20.24217	357215
20.25028	356513
20.25842	416167
20.26653	501901
20.27465	624477
20.28278	749896
20.29090	848334
20.29903	860718
20.30715	804875
20.31527	712413
20.32340	617324
20.33152	504161
20.33963	440717
20.34777	371213
20.35588	338434
20.36402	306251
20.37213	298871
20.38025	279995
20.38838	279472
20.39650	288178
20.40463	304267
20.41275	318911
20.42087	335836
20.42900	344880
20.43712	365218
20.44525	371965
20.45337	374696
20.46148	370043
20.46962	370211
20.47773	348290
20.48585	314294
20.49398	307164
20.50210	278056
20.51023	270113
20.51835	246551
20.52647	239491
20.53460	230113
20.54272	235880
20.55085	237017
20.55897	221737
20.56708	214101
20.57522	216186
20.58333	206919
20.59145	223811
20.59958	216797
20.60770	214782
20.61583	211737
20.62395	205261
20.63207	215252
20.64020	207594
20.64832	211685
20.65645	205399
20.66457	213740
20.67268	214474
20.68082	204030
20.68893	201866
20.69707	203151
20.70518	200475
20.71330	202111
20.72143	200417
20.72955	194723
20.73767	202749
20.74580	197147
20.75392	210756
20.76205	209927
20.77017	205942
20.77828	203811
20.78642	218061
20.79453	239708
20.80267	263236
20.81078	319490
20.81890	363872
20.82703	397755
20.83515	419034
20.84327	385621
20.85140	347293
20.85952	293398
20.86765	266222
20.87577	242986
20.88388	227781
20.89202	221158
20.90013	219513
20.90827	207201
20.91638	204278
20.92450	212421
20.93263	202302
20.94075	206244
20.94888	210923
20.95700	208422
20.96512	208194
20.97325	203145
20.98137	197374
20.98948	198215
20.99762	194440
21.00573	200630
21.01387	191391
21.02198	195772
21.03010	198676
21.03823	195538
21.04635	192744
21.05448	191181
21.06260	188464
21.07072	188583
21.07885	194857
21.08697	185605
21.09510	184781
21.10322	186823
21.11133	186353
21.11947	189447
21.12758	192549
21.13570	194959
21.14383	214398
21.15195	235963
21.16008	278934
21.16820	306674
21.17632	317458
21.18445	319587
21.19257	298301
21.20070	276799
21.20882	240271
21.21693	240844
21.22507	217204
21.23318	213467
21.24130	208421
21.24943	197947
21.25755	194852
21.26568	190744
21.27380	190898
21.28192	182493
21.29005	183079
21.29817	186382
21.30630	187914
21.31442	193885
21.32253	183660
21.33067	181981
21.33878	177310
21.34692	196232
21.35503	180697
21.36315	185538
21.37128	177778
21.37940	184795
21.38752	183434
21.39565	186113
21.40377	180860
21.41190	189039
21.42002	203410
21.42813	209432
21.43627	211014
21.44438	190086
21.45252	199637
21.46063	188291
21.46875	176781
21.47688	174032
21.48500	166800
21.49313	173045
21.50125	163555
21.50937	160791
21.51750	160668
21.52562	167870
21.53373	163971
21.54187	161846
21.54998	160634
21.55812	152233
21.56623	154418
21.57435	155387
21.58248	157487
21.59060	153658
21.59873	152260
21.60685	155433
21.61497	164539
21.62310	176560
21.63122	198510
21.63933	220582
21.64747	242131
21.65558	257246
21.66372	264409
21.67183	252524
21.67995	237105
21.68808	226164
21.69620	212334
21.70433	195337
21.71245	180853
21.72057	176191
21.72870	171699
21.73682	161734
21.74495	164976
21.75307	170398
21.76118	165166
21.76932	155153
21.77743	159028
21.78555	174472
21.79368	179325
21.80180	173983
21.80993	182769
21.81805	190604
21.82617	207562
21.83430	222975
21.84242	244326
21.85055	254526
21.85867	239963
21.86678	240461
21.87492	221101
21.88303	195006
21.89115	175238
21.89928	163770
21.90740	156965
21.91553	149116
21.92365	137753
21.93177	140374
21.93990	135110
21.94802	132214
21.95615	136022
21.96427	131544
21.97238	130347
21.98052	125145
21.98863	124301
21.99677	123329
22.00488	120065
22.01300	120721
22.02113	120059
22.02925	128288
22.03737	123527
22.04550	127901
22.05362	132123
22.06175	136930
22.06987	135175
22.07798	151650
22.08612	157019
22.09423	166210
22.10237	162405
22.11048	168033
22.11860	171655
22.12673	161214
22.13485	158828
22.14298	157129
22.15110	153499
22.15922	151513
22.16735	169307
22.17547	177380
22.18358	194345
22.19172	199021
22.19983	204399
22.20797	205685
22.21608	200228
22.22420	203545
22.23233	210175
22.24045	211828
22.24858	201850
22.25670	200665
22.26482	192435
22.27295	186247
22.28107	184548
22.28918	188988
22.29732	181684
22.30543	186946
22.31357	189051
22.32168	184977
22.32980	183902
22.33793	187529
22.34605	182982
22.35418	176816
22.36230	174824
22.37042	175754
22.37855	179649
22.38667	178550
22.39480	173346
22.40292	184081
22.41103	194391
22.41917	213759
22.42728	228500
22.43540	232883
22.44353	233561
22.45165	216167
22.45978	210092
22.46790	194561
22.47602	186485
22.48415	179273
22.49227	166568
22.50040	162185
22.50852	159902
22.51663	154191
22.52477	152325
22.53288	139827
22.54102	132202
22.54913	131988
22.55725	135437
22.56538	132601
22.57350	125673
22.58162	132099
22.58975	122244
22.59787	126960
22.60600	119488
22.61412	116372
22.62223	109353
22.63037	107202
22.63848	100609
22.64662	109283
22.65473	112904
22.66285	113708
22.67098	113018
22.67910	113599
22.68722	113986
22.69535	114985
22.70347	115305
22.71160	118314
22.71972	122119
22.72783	122125
22.73597	131086
22.74408	128263
22.75222	126867
22.76033	121639
22.76845	121550
22.77658	123753
22.78470	124746
22.79283	139677
22.80095	151477
22.80907	158013
22.81720	167822
22.82532	175167
22.83343	180289
22.84157	179217
22.84968	193365
22.85782	186425
22.86593	195628
22.87405	204162
22.88218	203492
22.89030	208890
22.89843	225833
22.90655	243441
22.91467	262255
22.92280	301659
22.93092	328395
22.93905	344744
22.94717	366629
22.95528	346980
22.96342	327339
22.97153	311973
22.97965	288158
22.98778	274227
22.99590	254272
23.00403	249278
23.01215	242449
23.02027	230806
23.02840	239215
23.03652	219853
23.04465	212494
23.05277	202496
23.06088	194579
23.06902	188039
23.07713	178263
23.08525	189776
23.09338	180634
23.10150	179474
23.10963	179951
23.11775	178320
23.12587	178836
23.13400	166621
23.14212	175921
23.15025	174217
23.15837	178460
23.16648	180409
23.17462	170432
23.18273	172023
23.19087	168262
23.19898	167022
23.20710	166134
23.21523	168765
23.22335	162489
23.23147	171783
23.23960	167353
23.24772	157476
23.25585	167837
23.26397	168819
23.27208	169547
23.28022	173283
23.28833	173969
23.29647	167566
23.30458	164196
23.31270	156885
23.32083	153266
23.32895	157727
23.33707	165091
23.34520	170382
23.35332	179830
23.36145	190588
23.36957	211916
23.37768	218796
23.38582	218314
23.39393	216793
23.40207	199310
23.41018	185676
23.41830	177216
23.42643	165544
23.43455	168038
23.44268	164971
23.45080	162478
23.45892	158982
23.46705	160873
23.47517	151431
23.48328	157656
23.49142	147520
23.49953	150848
23.50767	151750
23.51578	146290
23.52390	152355
23.53203	150733
23.54015	150315
23.54828	151597
23.55640	150944
23.56452	156845
23.57265	153408
23.58077	168672
23.58890	176902
23.59702	180927
23.60513	198282
23.61327	213855
23.62138	201708
23.62950	195110
23.63763	189214
23.64575	178141
23.65388	161433
23.66200	156202
23.67012	158768
23.67825	155740
23.68637	148525
23.69450	150766
23.70262	138388
23.71073	144309
23.71887	141146
23.72698	135686
23.73510	146197
23.74323	157178
23.75135	225513
23.75948	408332
23.76760	871898
23.77572	1747425
23.78385	3021311
23.79197	4388615
23.80010	5169327
23.80822	5096998
23.81633	4372957
23.82447	3383101
23.83258	2595648
23.84072	1905051
23.84883	1410981
23.85695	1073260
23.86508	876174
23.87320	730499
23.88132	618297
23.88945	572413
23.89757	513099
23.90570	467933
23.91382	431785
23.92193	412911
23.93007	387017
23.93818	381843
23.94632	359398
23.95443	341473
23.96255	327996
23.97068	305190
23.97880	288523
23.98693	275027
23.99505	284609
24.00317	334885
24.01130	522407
24.01942	877008
24.02753	1470595
24.03567	2120915
24.04378	2611966
24.05192	2572980
24.06003	2125355
24.06815	1526814
24.07628	960925
24.08440	602003
24.09253	407486
24.10065	310674
24.10877	249824
24.11690	226109
24.12502	217130
24.13313	224796
24.14127	233541
24.14938	246911
24.15752	249710
24.16563	254404
24.17375	247934
24.18188	229634
24.19000	224797
24.19813	203740
24.20625	196105
24.21437	210440
24.22250	215502
24.23062	214585
24.23875	197980
24.24687	185573
24.25498	180950
24.26312	177683
24.27123	163127
24.27935	162698
24.28748	152412
24.29560	156516
24.30373	147839
24.31185	150314
24.31997	149455
24.32810	146538
24.33622	144653
24.34435	151196
24.35247	142237
24.36058	136704
24.36872	141997
24.37683	137481
24.38495	149757
24.39308	171246
24.40120	207440
24.40933	255481
24.41745	302144
24.42557	325930
24.43370	317949
24.44182	295281
24.44995	284366
24.45807	282963
24.46618	270691
24.47432	274862
24.48243	280475
24.49057	273898
24.49868	293210
24.50680	300422
24.51493	315979
24.52305	324406
24.53117	334087
24.53930	331873
24.54742	335299
24.55555	323234
24.56367	323825
24.57178	322933
24.57992	322186
24.58803	320416
24.59617	321601
24.60428	316771
24.61240	308811
24.62053	324986
24.62865	320870
24.63678	319649
24.64490	315083
24.65302	313310
24.66115	309892
24.66927	309400
24.67738	318463
24.68552	308311
24.69363	313757
24.70177	303047
24.70988	302934
24.71800	294259
24.72613	284878
24.73425	285305
24.74238	282624
24.75050	286070
24.75862	283577
24.76675	278327
24.77487	284602
24.78300	299906
24.79112	298586
24.79923	305568
24.80737	302428
24.81548	288242
24.82360	286349
24.83173	292405
24.83985	305349
24.84798	310996
24.85610	339086
24.86422	385277
24.87235	449552
24.88047	533577
24.88860	649772
24.89672	707998
24.90483	758020
24.91297	712525
24.92108	625127
24.92920	526630
24.93733	427701
24.94545	376707
24.95358	328379
24.96170	300487
24.96982	281522
24.97795	275710
24.98607	269090
24.99420	260694
25.00232	264771
25.01043	266150
25.01857	258913
25.02668	249678
25.03482	254404
25.04293	252400
25.05105	254393
25.05918	247947
25.06730	256394
25.07542	241020
25.08355	249885
25.09167	249115
25.09980	263025
25.10792	296239
25.11603	416288
25.12417	653799
25.13228	1049336
25.14042	1629849
25.14853	2129347
25.15665	2491153
25.16478	2445911
25.17290	2221159
25.18102	1735268
25.18915	1243605
25.19727	896184
25.20540	659444
25.21352	486014
25.22163	399219
25.22977	342360
25.23788	355506
25.24602	407472
25.25413	572347
25.26225	787944
25.27038	1040539
25.27850	1296330
25.28663	1406414
25.29475	1357721
25.30287	1076588
25.31100	795661
25.31912	560229
25.32723	389605
25.33537	295898
25.34348	250149
25.35162	225091
25.35973	211766
25.36785	202925
25.37598	194234
25.38410	173160
25.39223	170221
25.40035	163755
25.40847	155161
25.41660	148867
25.42472	155338
25.43285	134559
25.44097	134528
25.44908	141155
25.45722	139566
25.46533	139869
25.47345	142607
25.48158	153778
25.48970	146569
25.49783	148306
25.50595	144938
25.51407	133769
25.52220	137118
25.53032	128248
25.53845	123024
25.54657	123553
25.55468	122373
25.56282	119278
25.57093	114746
25.57905	118261
25.58718	118770
25.59530	119661
25.60343	121360
25.61155	117538
25.61967	119962
25.62780	130167
25.63592	148536
25.64405	170422
25.65217	192631
25.66028	190901
25.66842	180277
25.67653	159641
25.68467	141794
25.69278	130156
25.70090	120590
25.70903	114539
25.71715	112906
25.72527	110459
25.73340	111037
25.74152	108422
25.74965	115229
25.75777	114995
25.76588	139941
25.77402	153269
25.78213	215733
25.79027	272855
25.79838	313286
25.80650	319905
25.81463	303977
25.82275	278294
25.83088	265424
25.83900	254404
25.84712	252955
25.85525	253533
25.86337	260918
25.87148	263437
25.87962	248819
25.88773	242636
25.89587	242342
25.90398	239402
25.91210	238745
25.92023	238734
25.92835	236248
25.93648	239325
25.94460	251594
25.95272	257374
25.96085	253481
25.96897	254481
25.97708	250469
25.98522	245693
25.99333	236211
26.00147	226046
26.00958	222633
26.01770	222306
26.02583	229081
26.03395	223851
26.04208	229123
26.05020	222960
26.05832	220340
26.06645	221514
26.07457	221033
26.08270	226467
26.09082	221704
26.09893	225400
26.10707	230908
26.11518	225338
26.12330	217100
26.13143	222255
26.13955	218042
26.14768	218497
26.15580	217483
26.16392	221812
26.17205	215257
26.18017	208852
26.18830	207773
26.19642	204517
26.20453	204699
26.21267	208893
26.22078	197170
26.22890	195291
26.23703	201346
26.24515	195812
26.25328	184230
26.26140	191017
26.26952	204434
26.27765	213794
26.28577	226736
26.29390	233600
26.30202	245043
26.31013	241934
26.31827	230483
26.32638	221264
26.33452	206582
26.34263	188833
26.35075	180637
26.35888	183276
26.36700	188414
26.37512	185194
26.38325	197709
26.39137	199481
26.39950	211623
26.40762	222946
26.41573	223426
26.42387	220311
26.43198	212483
26.44012	209010
26.44823	200832
26.45635	183232
26.46448	179431
26.47260	180549
26.48073	183787
26.48885	173461
26.49697	167533
26.50510	167749
26.51322	158653
26.52133	166106
26.52947	149816
26.53758	153112
26.54572	151468
26.55383	150448
26.56195	150075
26.57008	147721
26.57820	144933
26.58633	147697
26.59445	142365
26.60257	148394
26.61070	146979
26.61882	144592
26.62693	137612
26.63507	142050
26.64318	147788
26.65132	144873
26.65943	146366
26.66755	146607
26.67568	148984
26.68380	147529
26.69193	148529
26.70005	143145
26.70817	140330
26.71630	137813
26.72442	142705
26.73255	136289
26.74067	138020
26.74878	132466
26.75692	132167
26.76503	145544
26.77315	137626
26.78128	136365
26.78940	140129
26.79753	144823
26.80565	151048
26.81377	147378
26.82190	152496
26.83002	148427
26.83815	141006
26.84627	146124
26.85438	146962
26.86252	137245
26.87063	139891
26.87877	142489
26.88688	130621
26.89500	138747
26.90313	133036
26.91125	128743
26.91937	131359
26.92750	121195
26.93562	124443
26.94375	126839
26.95187	132488
26.95998	144638
26.96812	168427
26.97623	219370
26.98437	316434
26.99248	504539
27.00060	825080
27.00873	1303227
27.01685	1864765
27.02497	2390094
27.03310	2648184
27.04122	2658772
27.04935	2297141
27.05747	1869287
27.06558	1446221
27.07372	1077596
27.08183	841997
27.08997	693744
27.09808	579280
27.10620	500488
27.11433	452122
27.12245	411703
27.13058	366509
27.13870	342120
27.14682	322212
27.15495	312629
27.16307	310802
27.17118	334204
27.17932	362461
27.18743	389568
27.19557	397154
27.20368	389416
27.21180	378256
27.21993	348312
27.22805	309483
27.23618	283260
27.24430	257014
27.25242	239365
27.26055	228624
27.26867	216118
27.27680	199078
27.28492	203332
27.29303	201779
27.30117	194289
27.30928	188253
27.31740	182104
27.32553	171372
27.33365	170578
27.34178	171030
27.34990	169835
27.35802	166108
27.36615	168720
27.37427	172843
27.38240	173786
27.39052	166908
27.39863	172296
27.40677	160756
27.41488	155094
27.42300	145337
27.43113	138581
27.43925	142812
27.44738	142464
27.45550	137669
27.46362	140658
27.47175	127870
27.47987	138576
27.48800	135295
27.49612	127042
27.50423	130888
27.51237	130928
27.52048	126672
27.52862	127583
27.53673	133772
27.54485	131946
27.55298	136769
27.56110	136714
27.56922	133780
27.57735	131687
27.58547	137562
27.59360	145754
27.60172	152823
27.60983	152377
27.61797	149278
27.62608	151738
27.63422	137520
27.64233	133690
27.65045	126401
27.65858	123594
27.66670	119997
27.67482	113488
27.68295	114729
27.69107	119986
27.69920	115374
27.70732	110801
27.71543	108810
27.72357	108145
27.73168	108663
27.73982	109696
27.74793	105418
27.75605	116746
27.76418	129803
27.77230	143990
27.78043	176319
27.78855	189133
27.79667	214185
27.80480	210657
27.81292	193030
27.82103	170186
27.82917	150367
27.83728	132053
27.84542	121427
27.85353	115262
27.86165	107307
27.86978	107972
27.87790	106930
27.88603	109636
27.89415	100183
27.90227	102335
27.91040	102189
27.91852	100644
27.92665	96791
27.93477	96002
27.94288	95523
27.95102	98863
27.95913	96410
27.96725	97339
27.97538	89936
27.98350	96515
27.99163	97006
27.99975	102108
28.00787	105885
28.01600	102525
28.02412	101515
28.03225	102069
28.04037	100586
28.04848	102824
28.05662	103094
28.06473	105127
28.07285	100845
28.08098	100333
28.08910	94351
28.09723	93985
28.10535	95889
28.11347	94920
28.12160	91950
28.12972	92118
28.13785	91126
28.14597	92698
28.15408	84171
28.16222	91265
28.17033	86631
28.17847	91429
28.18658	95318
28.19470	106055
28.20283	109670
28.21095	128376
28.21907	133311
28.22720	141247
28.23532	146931
28.24345	130489
28.25157	130035
28.25968	122713
28.26782	114837
28.27593	111019
28.28407	105340
28.29218	111410
28.30030	102101
28.30843	109686
28.31655	111697
28.32468	124488
28.33280	137113
28.34092	160626
28.34905	171616
28.35717	203537
28.36528	227915
28.37342	250751
28.38153	284394
28.38967	286777
28.39778	297737
28.40590	296440
28.41403	280143
28.42215	279530
28.43028	261331
28.43840	238546
28.44652	229405
28.45465	203103
28.46277	192037
28.47088	188748
28.47902	186963
28.48713	176794
28.49527	174307
28.50338	163181
28.51150	167969
28.51963	167896
28.52775	168266
28.53588	157719
28.54400	146522
28.55212	143844
28.56025	135387
28.56837	137418
28.57650	138822
28.58462	125111
28.59273	129049
28.60087	129433
28.60898	123070
28.61710	131197
28.62523	131623
28.63335	130413
28.64148	131349
28.64960	133637
28.65772	135085
28.66585	136732
28.67397	132262
28.68210	130736
28.69022	125986
28.69833	126330
28.70647	116961
28.71458	119529
28.72270	113096
28.73083	112954
28.73895	111546
28.74708	116090
28.75520	114353
28.76332	124655
28.77145	132440
28.77957	138146
28.78770	147332
28.79582	149753
28.80393	156545
28.81207	144091
28.82018	139482
28.82832	127239
28.83643	117934
28.84455	112587
28.85268	111616
28.86080	112744
28.86892	107670
28.87705	107714
28.88517	107868
28.89330	109744
28.90142	115914
28.90953	116637
28.91767	115988
28.92578	113041
28.93392	111053
28.94203	109719
28.95015	123487
28.95828	116971
28.96640	116334
28.97453	117437
28.98265	112528
28.99077	107385
28.99890	101465
29.00702	101506
29.01513	103799
29.02327	93556
29.03138	98512
29.03952	100210
29.04763	101461
29.05575	108592
29.06388	111626
29.07200	117296
29.08013	127631
29.08825	126867
29.09637	129124
29.10450	122753
29.11262	116967
29.12073	112798
29.12887	98770
29.13698	101757
29.14512	95106
29.15323	101190
29.16135	93743
29.16948	96236
29.17760	94212
29.18573	100552
29.19385	100146
29.20197	108663
29.21010	115225
29.21822	122084
29.22635	126245
29.23447	132708
29.24258	135697
29.25072	141132
29.25883	157900
29.26695	163735
29.27508	169027
29.28320	168444
29.29133	153158
29.29945	136879
29.30757	126145
29.31570	117869
29.32382	108450
29.33195	97383
29.34007	99323
29.34818	99173
29.35632	93067
29.36443	92455
29.37257	90386
29.38068	97391
29.38880	90959
29.39693	94239
29.40505	93037
29.41317	85938
29.42130	92016
29.42942	94774
29.43755	97668
29.44567	91291
29.45378	101156
29.46192	91625
29.47003	95001
29.47817	93814
29.48628	100154
29.49440	104587
29.50253	107807
29.51065	108568
29.51877	108463
29.52690	113483
29.53502	107050
29.54315	104885
29.55127	106678
29.55938	110104
29.56752	107801
29.57563	100189
29.58377	101383
29.59188	96346
29.60000	91042
29.60813	91168
29.61625	92977
29.62438	91493
29.63250	94581
29.64062	87809
29.64875	86094
29.65687	92751
29.66498	87690
29.67312	82326
29.68123	84554
29.68937	81501
29.69748	84690
29.70560	90201
29.71373	87154
29.72185	81896
29.72998	84276
29.73810	91451
29.74622	83736
29.75435	76621
29.76247	77334
29.77058	76774
29.77872	78186
29.78683	80361
29.79497	80178
29.80308	79180
29.81120	76425
29.81933	84745
29.82745	76923
29.83558	77823
29.84370	81376
29.85182	81446
29.85995	93374
29.86807	100424
29.87620	131513
29.88432	165505
29.89243	236390
29.90057	295607
29.90868	336623
29.91680	329726
29.92493	287697
29.93305	233372
29.94118	172228
29.94930	131594
29.95742	114620
29.96555	107667
29.97367	110562
29.98180	113621
29.98992	117846
29.99803	123860
30.00617	132772
30.01428	149729
30.02242	136118
30.03053	146201
30.03865	151366
30.04678	160336
30.05490	161908
30.06302	160500
30.07115	151261
30.07927	156560
30.08740	150957
30.09552	149523
30.10363	151627
30.11177	144638
30.11988	142512
30.12802	139125
30.13613	135322
30.14425	129057
30.15238	126857
30.16050	119242
30.16863	118325
30.17675	119899
30.18487	118398
30.19300	115399
30.20112	110862
30.20923	103324
30.21737	107375
30.22548	107316
30.23362	103929
30.24173	102677
30.24985	100516
30.25798	97399
30.26610	102521
30.27423	94486
30.28235	97273
30.29047	87681
30.29860	91534
30.30672	91372
30.31483	90505
30.32297	90525
30.33108	89424
30.33922	92959
30.34733	89994
30.35545	90429
30.36358	89463
30.37170	90036
30.37983	80258
30.38795	79045
30.39607	85248
30.40420	82006
30.41232	83704
30.42045	83485
30.42857	83825
30.43668	84088
30.44482	86420
30.45293	82058
30.46105	85792
30.46918	86156
30.47730	81089
30.48543	95409
30.49355	95908
30.50167	96796
30.50980	97212
30.51792	101378
30.52605	94771
30.53417	93081
30.54228	87504
30.55042	88534
30.55853	88938
30.56665	88173
30.57478	87312
30.58290	84359
30.59103	87347
30.59915	87228
30.60727	78097
30.61540	82216
30.62352	84750
30.63165	87604
30.63977	81885
30.64788	84764
30.65602	82852
30.66413	81589
30.67227	84018
30.68038	84851
30.68850	81386
30.69663	84046
30.70475	82428
30.71287	81398
30.72100	80431
30.72912	81548
30.73725	82249
30.74537	79569
30.75348	81194
30.76162	82357
30.76973	92385
30.77787	102729
30.78598	126619
30.79410	175222
30.80223	244633
30.81035	309481
30.81848	370734
30.82660	364896
30.83472	315608
30.84285	243174
30.85097	181955
30.85908	137467
30.86722	117163
30.87533	108284
30.88347	101773
30.89158	92433
30.89970	96868
30.90783	92867
30.91595	91999
30.92408	89780
30.93220	85679
30.94032	91412
30.94845	86569
30.95657	82376
30.96468	78389
30.97282	81035
30.98093	78477
30.98907	79328
30.99718	82288
31.00530	82977
31.01343	78945
31.02155	79818
31.02968	83026
31.03780	78347
31.04592	81945
31.05405	86673
31.06217	86330
31.07030	85319
31.07842	88403
31.08653	96162
31.09467	108724
31.10278	116252
31.11090	124907
31.11903	119865
31.12715	113283
31.13528	103358
31.14340	96153
31.15152	94246
31.15965	85580
31.16777	92948
31.17590	89195
31.18402	99017
31.19213	101207
31.20027	108843
31.20838	131243
31.21652	152061
31.22463	172682
31.23275	179641
31.24088	172997
31.24900	159303
31.25712	143546
31.26525	121952
31.27337	105761
31.28150	95808
31.28962	83723
31.29773	83792
31.30587	81607
31.31398	88585
31.32212	90675
31.33023	91643
31.33835	90428
31.34648	89732
31.35460	93445
31.36272	90957
31.37085	90097
31.37897	87998
31.38710	97302
31.39522	85865
31.40333	93133
31.41147	91332
31.41958	99330
31.42772	100282
31.43583	100701
31.44395	101648
31.45208	97098
31.46020	98834
31.46833	102258
31.47645	99953
31.48457	111086
31.49270	114974
31.50082	117248
31.50893	114063
31.51707	108614
31.52518	107971
31.53332	103589
31.54143	106760
31.54955	103024
31.55768	110512
31.56580	115509
31.57393	127676
31.58205	121356
31.59017	117796
31.59830	111966
31.60642	112001
31.61453	102101
31.62267	106351
31.63078	99516
31.63892	99112
31.64703	103806
31.65515	99939
31.66328	98752
31.67140	99932
31.67953	102012
31.68765	109161
31.69577	95958
31.70390	103254
31.71202	96457
31.72015	92813
31.72827	97992
31.73638	90827
31.74452	90921
31.75263	88484
31.76075	89022
31.76888	91223
31.77700	91643
31.78513	89487
31.79325	98265
31.80137	96006
31.80950	92456
31.81762	96810
31.82575	95333
31.83387	96089
31.84198	92466
31.85012	91857
31.85823	93055
31.86637	93454
31.87448	93282
31.88260	94349
31.89073	90351
31.89885	91235
31.90697	90257
31.91510	94262
31.92322	96200
31.93135	104461
31.93947	105977
31.94758	110154
31.95572	117443
31.96383	123476
31.97197	134931
31.98008	142312
31.98820	138370
31.99633	141764
32.00445	142674
32.01257	137870
32.02070	142598
32.02882	131896
32.03695	139659
32.04507	132156
32.05318	130365
32.06132	118357
32.06943	123629
32.07757	123304
32.08568	122837
32.09380	122741
32.10193	116875
32.11005	120094
32.11818	104038
32.12630	108378
32.13442	105548
32.14255	106143
32.15067	102317
32.15878	98128
32.16692	90631
32.17503	93679
32.18317	91049
32.19128	95081
32.19940	92761
32.20753	91749
32.21565	94237
32.22378	94556
32.23190	94101
32.24002	92492
32.24815	94705
32.25627	98824
32.26440	100878
32.27252	110287
32.28063	114484
32.28877	110072
32.29688	104673
32.30500	100465
32.31313	92434
32.32125	94555
32.32938	86105
32.33750	86190
32.34562	83616
32.35375	88445
32.36187	90461
32.37000	89391
32.37812	85454
32.38623	83899
32.39437	86578
32.40248	90319
32.41060	79781
32.41873	82547
32.42685	86874
32.43498	83586
32.44310	78168
32.45122	85820
32.45935	81327
32.46747	79660
32.47560	78426
32.48372	82086
32.49183	75059
32.49997	78727
32.50808	81787
32.51622	83035
32.52433	80746
32.53245	82291
32.54058	82856
32.54870	78929
32.55682	86175
32.56495	78394
32.57307	76258
32.58120	79045
32.58932	78367
32.59743	80657
32.60557	75943
32.61368	82532
32.62182	74006
32.62993	82281
32.63805	76634
32.64618	80714
32.65430	81536
32.66242	93397
32.67055	94415
32.67867	104174
32.68680	106895
32.69492	99168
32.70303	100608
32.71117	93446
32.71928	97090
32.72742	89932
32.73553	89925
32.74365	86582
32.75178	83902
32.75990	79432
32.76803	76654
32.77615	76199
32.78427	77940
32.79240	77000
32.80052	75496
32.80863	75047
32.81677	76292
32.82488	76363
32.83302	72351
32.84113	76138
32.84925	77583
32.85738	74884
32.86550	77465
32.87363	74651
32.88175	73860
32.88987	73531
32.89800	80593
32.90612	79167
32.91425	75891
32.92237	76820
32.93048	78545
32.93862	72293
32.94673	73480
32.95485	75751
32.96298	77432
32.97110	79292
32.97923	84819
32.98735	96125
32.99547	100851
33.00360	116958
33.01172	129526
33.01985	131031
33.02797	123312
33.03608	114304
33.04422	98554
33.05233	92208
33.06045	93954
33.06858	86898
33.07670	86629
33.08483	91912
33.09295	88375
33.10107	99717
33.10920	107749
33.11732	115685
33.12545	122351
33.13357	125123
33.14168	114415
33.14982	110940
33.15793	97109
33.16607	90356
33.17418	85802
33.18230	80615
33.19043	75079
33.19855	78962
33.20667	81975
33.21480	90624
33.22292	84907
33.23105	84856
33.23917	85532
33.24728	81900
33.25542	76151
33.26353	76732
33.27167	82347
33.27978	78332
33.28790	83318
33.29603	76908
33.30415	76089
33.31228	75864
33.32040	77628
33.32852	75016
33.33665	76820
33.34477	72081
33.35288	78293
33.36102	74486
33.36913	75047
33.37727	74468
33.38538	76956
33.39350	75910
33.40163	78632
33.40975	78968
33.41788	86890
33.42600	88698
33.43412	90637
33.44225	94643
33.45037	85446
33.45848	83866
33.46662	82307
33.47473	79444
33.48287	81220
33.49098	82105
33.49910	83838
33.50723	86471
33.51535	81113
33.52348	83636
33.53160	82495
33.53972	84166
33.54785	78533
33.55597	76520
33.56410	73056
33.57222	75551
33.58033	71201
33.58847	68897
33.59658	77592
33.60470	75485
33.61283	75143
33.62095	71568
33.62908	71844
33.63720	75644
33.64532	78706
33.65345	81255
33.66157	80100
33.66970	76579
33.67782	79433
33.68593	77920
33.69407	77523
33.70218	74879
33.71032	79475
33.71843	76337
33.72655	82972
33.73468	90049
33.74280	90379
33.75092	99685
33.75905	98930
33.76717	97242
33.77530	92051
33.78342	90297
33.79153	84763
33.79967	78581
33.80778	76584
33.81592	76174
33.82403	74258
33.83215	79475
33.84028	80888
33.84840	91559
33.85652	88956
33.86465	90151
33.87277	92979
33.88090	88598
33.88902	89735
33.89713	98023
33.90527	97649
33.91338	101543
33.92152	100471
33.92963	102414
33.93775	95311
33.94588	94934
33.95400	85684
33.96213	83118
33.97025	86028
33.97837	81657
33.98650	74945
33.99462	76471
34.00273	74082
34.01087	73438
34.01898	75382
34.02712	74969
34.03523	77318
34.04335	76913
34.05148	73391
34.05960	75470
34.06773	80098
34.07585	79002
34.08397	79412
34.09210	78974
34.10022	77135
34.10833	71056
34.11647	75113
34.12458	75596
34.13272	78868
34.14083	72516
34.14895	73673
34.15708	76343
34.16520	74616
34.17333	76543
34.18145	84483
34.18957	83474
34.19770	82196
34.20582	87198
34.21395	85073
34.22207	88842
34.23018	85194
34.23832	86414
34.24643	83995
34.25455	78524
34.26268	77409
34.27080	78840
34.27893	76113
34.28705	73306
34.29517	77237
34.30330	73426
34.31142	72445
34.31955	81708
34.32767	74637
34.33578	71682
34.34392	68078
34.35203	69769
34.36017	73407
34.36828	72504
34.37640	76067
34.38453	70220
34.39265	76004
34.40077	74654
34.40890	68374
34.41702	69689
34.42515	70938
34.43327	76817
34.44138	71321
34.44952	69515
34.45763	69381
34.46577	75466
34.47388	69295
34.48200	72698
34.49013	75242
34.49825	69726
34.50637	71336
34.51450	78174
34.52262	79066
34.53075	78868
34.53887	80620
34.54698	90501
34.55512	101048
34.56323	102150
34.57137	104633
34.57948	117651
34.58760	111832
34.59573	109060
34.60385	105241
34.61198	106254
34.62010	106146
34.62822	106697
34.63635	104815
34.64447	102918
34.65258	99007
34.66072	96495
34.66883	102956
34.67697	93842
34.68508	91094
34.69320	85161
34.70133	85629
34.70945	88532
34.71758	81254
34.72570	87756
34.73382	81499
34.74195	85411
34.75007	82940
34.75820	77664
34.76632	83543
34.77443	77913
34.78257	78953
34.79068	85463
34.79880	81978
34.80693	76604
34.81505	80801
34.82318	78495
34.83130	76776
34.83942	78219
34.84755	77065
34.85567	79475
34.86380	80022
34.87192	75897
34.88003	81051
34.88817	80361
34.89628	78680
34.90440	82087
34.91253	81188
34.92065	78866
34.92878	80377
34.93690	80075
34.94502	85012
34.95315	86018
34.96127	91808
34.96940	96678
34.97752	97242
34.98563	106961
34.99377	101540
35.00188	96197
35.01002	98585
35.01813	96170
35.02625	101320
35.03438	102828
35.04250	101076
35.05062	110098
35.05875	97228
35.06687	98832
35.07500	98408
35.08312	95788
35.09123	89579
35.09937	83841
35.10748	84752
35.11562	78056
35.12373	80338
35.13185	76387
35.13998	86976
35.14810	75758
35.15622	77952
35.16435	78092
35.17247	82557
35.18060	79819
35.18872	76576
35.19683	79279
35.20497	81465
35.21308	81039
35.22122	83876
35.22933	75076
35.23745	80169
35.24558	82330
35.25370	86139
35.26183	90105
35.26995	85422
35.27807	89646
35.28620	87812
35.29432	83521
35.30243	77817
35.31057	80680
35.31868	83999
35.32682	81123
35.33493	81167
35.34305	85872
35.35118	80429
35.35930	82561
35.36743	89360
35.37555	88356
35.38367	88062
35.39180	95409
35.39992	105293
35.40805	111973
35.41617	117711
35.42428	117414
35.43242	124875
35.44053	117553
35.44865	111411
35.45678	107054
35.46490	97490
35.47303	97400
35.48115	86437
35.48927	84484
35.49740	91350
35.50552	86196
35.51365	84658
35.52177	83726
35.52988	84922
35.53802	84742
35.54613	86847
35.55427	75580
35.56238	85922
35.57050	87238
35.57863	85139
35.58675	89732
35.59487	87442
35.60300	79302
35.61112	74676
35.61925	79627
35.62737	79343
35.63548	80734
35.64362	82089
35.65173	81235
35.65987	83508
35.66798	82095
35.67610	86030
35.68423	88221
35.69235	89674
35.70047	96506
35.70860	95123
35.71672	90786
35.72485	89524
35.73297	92899
35.74108	94734
35.74922	90641
35.75733	85055
35.76547	87733
35.77358	89148
35.78170	88984
35.78983	90578
35.79795	88734
35.80608	86325
35.81420	84397
35.82232	82929
35.83045	85298
35.83857	84326
35.84668	83414
35.85482	83821
35.86293	82626
35.87107	83369
35.87918	82523
35.88730	89494
35.89543	82429
35.90355	82540
35.91168	88485
35.91980	82625
35.92792	81000
35.93605	81122
35.94417	88019
35.95228	82105
35.96042	81343
35.96853	81609
35.97667	82634
35.98478	80871
35.99290	79284
36.00103	76026
36.00915	77551
36.01728	88832
36.02540	79422
36.03352	84968
36.04165	85927
36.04977	88655
36.05790	83049
36.06602	81409
36.07413	92539
36.08227	79297
36.09038	78104
36.09850	84329
36.10663	80903
36.11475	81850
36.12288	72425
36.13100	77593
36.13912	82494
36.14725	82488
36.15537	76364
36.16350	73585
36.17162	78463
36.17973	83470
36.18787	82407
36.19598	78687
36.20410	79606
36.21223	81307
36.22035	77525
36.22848	77450
36.23660	81491
36.24472	79894
36.25285	80240
36.26097	85608
36.26910	82716
36.27722	84704
36.28533	84873
36.29347	85963
36.30158	88564
36.30972	91168
36.31783	90895
36.32595	89351
36.33408	91006
36.34220	91770
36.35032	89310
36.35845	84831
36.36657	83288
36.37470	85854
36.38282	78373
36.39093	81793
36.39907	80820
36.40718	82560
36.41532	82844
36.42343	81784
36.43155	88237
36.43968	89312
36.44780	90238
36.45593	91789
36.46405	95027
36.47217	94119
36.48030	99995
36.48842	96397
36.49653	103995
36.50467	99694
36.51278	100302
36.52092	98394
36.52903	97093
36.53715	96208
36.54528	98621
36.55340	89393
36.56153	86690
36.56965	84026
36.57777	77225
36.58590	77784
36.59402	80325
36.60215	78165
36.61027	78898
36.61838	88615
36.62652	86419
36.63463	91713
36.64275	90263
36.65088	96592
36.65900	96357
36.66713	102048
36.67525	98848
36.68337	100219
36.69150	91823
36.69962	88717
36.70775	84873
36.71587	91704
36.72398	87328
36.73212	82115
36.74023	79613
36.74835	82422
36.75648	86254
36.76460	81974
36.77273	80741
36.78085	80950
36.78897	83672
36.79710	83965
36.80522	87471
36.81335	89937
36.82147	84223
36.82958	88352
36.83772	89630
36.84583	85541
36.85397	87701
36.86208	93745
36.87020	90494
36.87833	92545
36.88645	97769
36.89457	94996
36.90270	92416
36.91082	90746
36.91895	90973
36.92707	88956
36.93518	95937
36.94332	99207
36.95143	102908
36.95957	104842
36.96768	114215
36.97580	124298
36.98393	119055
36.99205	117310
37.00017	115123
37.00830	108726
37.01642	108737
37.02455	98237
37.03267	102060
37.04078	97303
37.04892	95660
37.05703	97127
37.06517	94081
37.07328	103311
37.08140	100937
37.08953	98901
37.09765	107363
37.10578	107955
37.11390	107860
37.12202	110887
37.13015	119087
37.13827	111966
37.14638	112799
37.15452	114522
37.16263	112488
37.17077	111760
37.17888	101228
37.18700	99592
37.19513	96109
37.20325	97519
37.21138	94806
37.21950	93390
37.22762	97221
37.23575	90828
37.24387	89738
37.25200	90941
37.26012	92296
37.26823	98215
37.27637	100240
37.28448	88899
37.29260	95883
37.30073	93894
37.30885	100981
37.31698	95199
37.32510	96580
37.33322	102056
37.34135	100570
37.34947	105098
37.35760	117976
37.36572	110976
37.37383	117397
37.38197	115507
37.39008	116900
37.39820	114318
37.40633	110344
37.41445	111237
37.42258	108395
37.43070	111792
37.43882	106963
37.44695	106967
37.45507	100150
37.46320	102075
37.47132	108615
37.47943	106067
37.48757	99876
