C:\MassHunter\GCMS\1\data\JTB-E18\JTB-E18-030-10.D Wed Oct 02 15:01:56 2019
Start of data points
2.09513,123733
2.10325,114969
2.11137,120406
2.11950,112955
2.12762,112043
2.13575,108554
2.14387,110123
2.15198,102765
2.16012,102826
2.16823,99532
2.17637,95427
2.18448,90029
2.19260,96030
2.20073,92251
2.20885,92434
2.21697,87745
2.22510,90730
2.23322,88870
2.24135,87438
2.24947,88133
2.25758,138951
2.26572,672577
2.27383,1379281
2.28197,999676
2.29008,514817
2.29820,362059
2.30633,313006
2.31445,277215
2.32258,240541
2.33070,221095
2.33882,201668
2.34695,193300
2.35507,178178
2.36318,175063
2.37132,188900
2.37943,238249
2.38757,209502
2.39568,173588
2.40380,166210
2.41193,166388
2.42005,164795
2.42818,152004
2.43630,155360
2.44442,167548
2.45255,156117
2.46067,148492
2.46878,141849
2.47692,133680
2.48503,151172
2.49317,156348
2.50128,140298
2.50940,142646
2.51753,135003
2.52565,132491
2.53378,130358
2.54190,133633
2.55002,170083
2.55815,200418
2.56627,171595
2.57440,150456
2.58252,143606
2.59063,135804
2.59877,220807
2.60688,521858
2.61500,587894
2.62313,382752
2.63125,281830
2.63938,217831
2.64750,199629
2.65562,178739
2.66375,176040
2.67187,206804
2.68000,210489
2.68812,172107
2.69623,152509
2.70437,141149
2.71248,133043
2.72060,131693
2.72873,132012
2.73685,129263
2.74498,123821
2.75310,132167
2.76122,121333
2.76935,123493
2.77747,161342
2.78560,210135
2.79372,196199
2.80183,177402
2.80997,188158
2.81808,268525
2.82622,538612
2.83433,695790
2.84245,475416
2.85058,292792
2.85870,271086
2.86682,246910
2.87495,205048
2.88307,173912
2.89120,159128
2.89932,153541
2.90743,146007
2.91557,131856
2.92368,134323
2.93182,125449
2.93993,123229
2.94805,115293
2.95618,124327
2.96430,130564
2.97243,131089
2.98055,125824
2.98867,128955
2.99680,135969
3.00492,145053
3.01303,151250
3.02117,243236
3.02928,553686
3.03742,919171
3.04553,1584519
3.05365,4615533
3.06178,8397458
3.06990,7256764
3.07803,3984019
3.08615,2708373
3.09427,2813705
3.10240,3014602
3.11052,3288492
3.11863,2739356
3.12677,1929825
3.13488,1479385
3.14302,1198654
3.15113,1011721
3.15925,893328
3.16738,839220
3.17550,818295
3.18363,938603
3.19175,1391515
3.19987,1616441
3.20800,1312642
3.21612,1023832
3.22425,876583
3.23237,802396
3.24048,699236
3.24862,643965
3.25673,572386
3.26485,518848
3.27298,481729
3.28110,528241
3.28923,860525
3.29735,1900159
3.30547,3321757
3.31360,3928178
3.32172,3321846
3.32985,2386535
3.33797,1805208
3.34608,1461731
3.35422,1201558
3.36233,1073688
3.37047,1111317
3.37858,1303994
3.38670,1344405
3.39483,1200622
3.40295,1374613
3.41107,2525045
3.41920,3686262
3.42732,3173905
3.43545,1963975
3.44357,1224915
3.45168,924566
3.45982,802136
3.46793,733312
3.47607,673275
3.48418,603992
3.49230,559959
3.50043,525286
3.50855,494414
3.51667,479277
3.52480,451144
3.53292,445311
3.54105,422926
3.54917,404681
3.55728,383914
3.56542,397290
3.57353,472660
3.58167,534758
3.58978,487052
3.59790,414779
3.60603,383375
3.61415,425726
3.62228,764563
3.63040,1563000
3.63852,2318584
3.64665,2128637
3.65477,1395103
3.66288,1068008
3.67102,1779434
3.67913,3693716
3.68727,4629758
3.69538,3691409
3.70350,2490041
3.71163,1865738
3.71975,1560740
3.72788,1349226
3.73600,1179854
3.74412,1094090
3.75225,1015134
3.76037,944961
3.76848,913038
3.77662,855860
3.78473,801135
3.79287,778944
3.80098,773891
3.80910,887043
3.81723,1112812
3.82535,1192606
3.83348,1021773
3.84160,875180
3.84972,784338
3.85785,709701
3.86597,665614
3.87410,621061
3.88222,587477
3.89033,565025
3.89847,555198
3.90658,535062
3.91470,544224
3.92283,646762
3.93095,749421
3.93908,772190
3.94720,776247
3.95532,1238760
3.96345,2285298
3.97157,3073921
3.97970,2671257
3.98782,1827974
3.99593,1814666
4.00407,4005904
4.01218,8567422
4.02032,1.160684E+07
4.02843,1.003717E+07
4.03655,6048880
4.04468,3563140
4.05280,2379724
4.06092,1839849
4.06905,1511954
4.07717,1272510
4.08530,1088252
4.09342,959756
4.10153,859606
4.10967,783007
4.11778,716380
4.12592,669211
4.13403,645412
4.14215,693103
4.15028,804405
4.15840,904810
4.16653,859069
4.17465,736116
4.18277,644955
4.19090,579344
4.19902,532859
4.20713,553100
4.21527,1099815
4.22338,3616395
4.23152,8925628
4.23963,1.46741E+07
4.24775,1.731181E+07
4.25588,1.475614E+07
4.26400,9851043
4.27213,6655537
4.28025,4891434
4.28837,3714158
4.29650,2906454
4.30462,2378969
4.31273,2014565
4.32087,1727856
4.32898,1510141
4.33712,1320604
4.34523,1256997
4.35335,1176956
4.36148,1143133
4.36960,1062697
4.37773,981269
4.38585,900145
4.39397,839096
4.40210,778780
4.41022,727983
4.41835,690678
4.42647,661253
4.43458,648557
4.44272,609574
4.45083,599675
4.45895,582570
4.46708,545699
4.47520,520289
4.48333,481981
4.49145,441917
4.49957,410355
4.50770,389317
4.51582,376419
4.52395,360862
4.53207,362293
4.54018,360636
4.54832,351498
4.55643,361140
4.56455,366706
4.57268,368071
4.58080,361911
4.58893,352314
4.59705,342792
4.60517,340433
4.61330,339329
4.62142,357220
4.62955,430884
4.63767,599103
4.64578,731254
4.65392,730770
4.66203,600120
4.67017,475743
4.67828,413721
4.68640,374173
4.69453,356264
4.70265,342803
4.71077,320550
4.71890,313322
4.72702,306424
4.73515,294891
4.74327,295413
4.75138,285407
4.75952,275069
4.76763,287079
4.77577,265687
4.78388,271688
4.79200,267834
4.80013,290838
4.80825,350356
4.81638,380810
4.82450,369356
4.83262,340552
4.84075,327565
4.84887,317494
4.85698,316874
4.86512,318214
4.87323,309465
4.88137,298922
4.88948,285360
4.89760,284690
4.90573,272419
4.91385,269658
4.92198,268279
4.93010,314644
4.93822,478697
4.94635,765480
4.95447,1111448
4.96258,1305022
4.97072,1249187
4.97883,1047601
4.98697,850393
4.99508,705845
5.00320,599556
5.01133,535017
5.01945,497824
5.02758,524026
5.03570,656036
5.04382,885845
5.05195,1080619
5.06007,1064691
5.06820,913731
5.07632,787055
5.08443,705186
5.09257,625947
5.10068,581392
5.10880,569327
5.11693,590673
5.12505,588653
5.13318,580809
5.14130,529585
5.14942,489888
5.15755,476452
5.16567,491793
5.17380,554313
5.18192,579849
5.19003,613865
5.19817,612936
5.20628,603839
5.21442,567430
5.22253,520444
5.23065,469438
5.23878,456504
5.24690,434335
5.25502,416242
5.26315,402459
5.27127,388306
5.27940,331826
5.28752,326320
5.29563,325464
5.30377,327569
5.31188,312386
5.32002,307518
5.32813,304781
5.33625,301034
5.34438,307211
5.35250,305257
5.36062,294520
5.36875,286601
5.37687,271475
5.38500,265019
5.39312,265867
5.40123,263653
5.40937,275444
5.41748,273774
5.42562,255011
5.43373,245825
5.44185,258464
5.44998,260178
5.45810,255497
5.46623,255063
5.47435,252759
5.48247,242268
5.49060,244739
5.49872,232885
5.50683,235838
5.51497,232014
5.52308,239097
5.53122,224912
5.53933,225747
5.54745,221945
5.55558,229609
5.56370,240266
5.57183,251842
5.57995,277891
5.58807,281199
5.59620,269111
5.60432,254660
5.61243,248136
5.62057,228620
5.62868,238128
5.63682,241277
5.64493,244731
5.65305,246779
5.66118,241352
5.66930,226225
5.67743,223951
5.68555,231445
5.69367,245432
5.70180,265920
5.70992,273039
5.71805,279398
5.72617,278567
5.73428,305807
5.74242,288969
5.75053,283794
5.75865,271441
5.76678,267062
5.77490,277224
5.78303,281899
5.79115,270845
5.79927,261565
5.80740,274990
5.81552,360399
5.82365,569458
5.83177,864868
5.83988,1142117
5.84802,1173446
5.85613,1014630
5.86427,725418
5.87238,527540
5.88050,391607
5.88863,330744
5.89675,301763
5.90487,273632
5.91300,276825
5.92112,326665
5.92925,440823
5.93737,543999
5.94548,605670
5.95362,544407
5.96173,448166
5.96987,379295
5.97798,359316
5.98610,365142
5.99423,383816
6.00235,389416
6.01047,366148
6.01860,318776
6.02672,272542
6.03485,236534
6.04297,217520
6.05108,205788
6.05922,195915
6.06733,186106
6.07547,180009
6.08358,181671
6.09170,167232
6.09983,167610
6.10795,165336
6.11608,167074
6.12420,173630
6.13232,190702
6.14045,254026
6.14857,350953
6.15668,412232
6.16482,419705
6.17293,364299
6.18107,314542
6.18918,273660
6.19730,264969
6.20543,256923
6.21355,275003
6.22168,255863
6.22980,238673
6.23792,223437
6.24605,209717
6.25417,206441
6.26230,213142
6.27042,211775
6.27853,208567
6.28667,213093
6.29478,202945
6.30290,203684
6.31103,207501
6.31915,199961
6.32728,211720
6.33540,213920
6.34352,225926
6.35165,235652
6.35977,238564
6.36790,236073
6.37602,239344
6.38413,232026
6.39227,223993
6.40038,228970
6.40850,224156
6.41663,228665
6.42475,230891
6.43288,225617
6.44100,228108
6.44912,230420
6.45725,235864
6.46537,236904
6.47350,241943
6.48162,233247
6.48973,233314
6.49787,249579
6.50598,249028
6.51412,251212
6.52223,250334
6.53035,248531
6.53848,251441
6.54660,258548
6.55472,256789
6.56285,261676
6.57097,264802
6.57910,275749
6.58722,286165
6.59533,295546
6.60347,290895
6.61158,282503
6.61972,268993
6.62783,268403
6.63595,270835
6.64408,271011
6.65220,253738
6.66032,277362
6.66845,314875
6.67657,365243
6.68470,391972
6.69282,399197
6.70093,407391
6.70907,407953
6.71718,398767
6.72532,360669
6.73343,311710
6.74155,239152
6.74968,205043
6.75780,184388
6.76593,169040
6.77405,172722
6.78217,161238
6.79030,177914
6.79842,240880
6.80653,362170
6.81467,555108
6.82278,755818
6.83092,824000
6.83903,749193
6.84715,566116
6.85528,392813
6.86340,304656
6.87153,284467
6.87965,269446
6.88777,232580
6.89590,190539
6.90402,159625
6.91215,144463
6.92027,132589
6.92838,129613
6.93652,130032
6.94463,150806
6.95275,196495
6.96088,264344
6.96900,321430
6.97713,369650
6.98525,349663
6.99337,296654
7.00150,239368
7.00962,178910
7.01775,147627
7.02587,132613
7.03398,123458
7.04212,114549
7.05023,116099
7.05835,116741
7.06648,110459
7.07460,109550
7.08273,106974
7.09085,103541
7.09897,101377
7.10710,97701
7.11522,92310
7.12335,90461
7.13147,99409
7.13958,95738
7.14772,95998
7.15583,104306
7.16397,119315
7.17208,136174
7.18020,156438
7.18833,155136
7.19645,159754
7.20457,175032
7.21270,228332
7.22082,381896
7.22895,738386
7.23707,1219215
7.24518,1540577
7.25332,1437558
7.26143,1024786
7.26957,678026
7.27768,464866
7.28580,331820
7.29393,244236
7.30205,171402
7.31018,159281
7.31830,180622
7.32642,213357
7.33455,256036
7.34267,285830
7.35078,301918
7.35892,264436
7.36703,210266
7.37517,171190
7.38328,144290
7.39140,131240
7.39953,127742
7.40765,122723
7.41578,124581
7.42390,139909
7.43202,159939
7.44015,182953
7.44827,195462
7.45638,198277
7.46452,180289
7.47263,164004
7.48077,137057
7.48888,122300
7.49700,108607
7.50513,104653
7.51325,98404
7.52138,104218
7.52950,112521
7.53762,129283
7.54575,159517
7.55387,208090
7.56200,257068
7.57012,269517
7.57823,257656
7.58637,231156
7.59448,181404
7.60260,150371
7.61073,123530
7.61885,114834
7.62698,108082
7.63510,100302
7.64322,98399
7.65135,91615
7.65947,90198
7.66760,95161
7.67572,87283
7.68383,85395
7.69197,89193
7.70008,88736
7.70822,84460
7.71633,91483
7.72445,87785
7.73258,89689
7.74070,84976
7.74882,85396
7.75695,87094
7.76507,81290
7.77320,85777
7.78132,83151
7.78943,82768
7.79757,83935
7.80568,90358
7.81382,87293
7.82193,88122
7.83005,86011
7.83818,87939
7.84630,88315
7.85442,87233
7.86255,85623
7.87067,79037
7.87880,84366
7.88692,90759
7.89503,91316
7.90317,88863
7.91128,85809
7.91942,88204
7.92753,88956
7.93565,92409
7.94378,97559
7.95190,114578
7.96003,121746
7.96815,118392
7.97627,106152
7.98440,97937
7.99252,93158
8.00063,83864
8.00877,76597
8.01688,77241
8.02502,71595
8.03313,76373
8.04125,78661
8.04938,77626
8.05750,76062
8.06563,75683
8.07375,73389
8.08187,73092
8.09000,68722
8.09812,73358
8.10623,70465
8.11437,67843
8.12248,67627
8.13062,71227
8.13873,75638
8.14685,81311
8.15498,86232
8.16310,94780
8.17123,86735
8.17935,79648
8.18747,73708
8.19560,71866
8.20372,72212
8.21185,77344
8.21997,68534
8.22808,67342
8.23622,70120
8.24433,66397
8.25245,70604
8.26058,65403
8.26870,63145
8.27683,63964
8.28495,66017
8.29307,64929
8.30120,72142
8.30932,69703
8.31745,68784
8.32557,70817
8.33368,77287
8.34182,76340
8.34993,72893
8.35807,70568
8.36618,67741
8.37430,65166
8.38243,70644
8.39055,63248
8.39867,64396
8.40680,63839
8.41492,65978
8.42305,61476
8.43117,62166
8.43928,61751
8.44742,60915
8.45553,56700
8.46367,60173
8.47178,62071
8.47990,63144
8.48803,62860
8.49615,64467
8.50427,63108
8.51240,64818
8.52052,64615
8.52865,71510
8.53677,78484
8.54488,101612
8.55302,137781
8.56113,162929
8.56927,164232
8.57738,148774
8.58550,111355
8.59363,89806
8.60175,82053
8.60988,76723
8.61800,73932
8.62612,71307
8.63425,75520
8.64237,73509
8.65048,67852
8.65862,63896
8.66673,64548
8.67487,63995
8.68298,65801
8.69110,71620
8.69923,65646
8.70735,67920
8.71548,65676
8.72360,70010
8.73172,75480
8.73985,104138
8.74797,147431
8.75610,219167
8.76422,291629
8.77233,326197
8.78047,295951
8.78858,244096
8.79670,193631
8.80483,148779
8.81295,134060
8.82108,123324
8.82920,117959
8.83732,118250
8.84545,111462
8.85357,117278
8.86170,117639
8.86982,113465
8.87793,109521
8.88607,107884
8.89418,103688
8.90230,100886
8.91043,97409
8.91855,96174
8.92668,90706
8.93480,105738
8.94292,106611
8.95105,110249
8.95917,118757
8.96730,113936
8.97542,114260
8.98353,113941
8.99167,104191
8.99978,102760
9.00792,98250
9.01603,97109
9.02415,94804
9.03228,88675
9.04040,86321
9.04852,89216
9.05665,84211
9.06477,90521
9.07290,86398
9.08102,79529
9.08913,81704
9.09727,84681
9.10538,91022
9.11352,95175
9.12163,102956
9.12975,114047
9.13788,109177
9.14600,102298
9.15412,94808
9.16225,85741
9.17037,83711
9.17850,87466
9.18662,85737
9.19473,81268
9.20287,73973
9.21098,79381
9.21912,78469
9.22723,81281
9.23535,75221
9.24348,77229
9.25160,78984
9.25973,77084
9.26785,79715
9.27597,75634
9.28410,77896
9.29222,80137
9.30033,81130
9.30847,83286
9.31658,77885
9.32472,75630
9.33283,76657
9.34095,83271
9.34908,78033
9.35720,80809
9.36533,81195
9.37345,78791
9.38157,72051
9.38970,76911
9.39782,70506
9.40595,80127
9.41407,74566
9.42218,83852
9.43032,94185
9.43843,104986
9.44655,110146
9.45468,107591
9.46280,98314
9.47093,96903
9.47905,83086
9.48717,81394
9.49530,70374
9.50342,73561
9.51155,72843
9.51967,76306
9.52778,79275
9.53592,79571
9.54403,75164
9.55217,67721
9.56028,64524
9.56840,58862
9.57653,59013
9.58465,61217
9.59277,63642
9.60090,67522
9.60902,66774
9.61715,63233
9.62527,54792
9.63338,58143
9.64152,60637
9.64963,57656
9.65777,58781
9.66588,52018
9.67400,53929
9.68213,52948
9.69025,53400
9.69837,50815
9.70650,56412
9.71462,50740
9.72275,49950
9.73087,49944
9.73898,47704
9.74712,47567
9.75523,48566
9.76337,47198
9.77148,48368
9.77960,52552
9.78773,49927
9.79585,47970
9.80398,45969
9.81210,48437
9.82022,51216
9.82835,52827
9.83647,46491
9.84458,44866
9.85272,47926
9.86083,47000
9.86897,48311
9.87708,53088
9.88520,51684
9.89333,48589
9.90145,47674
9.90958,47687
9.91770,48658
9.92582,46717
9.93395,51742
9.94207,69225
9.95018,77931
9.95832,102776
9.96643,119872
9.97457,119632
9.98268,111565
9.99080,94274
9.99893,83982
10.00705,74246
10.01518,62658
10.02330,61758
10.03142,60282
10.03955,55594
10.04767,53352
10.05580,57205
10.06392,52260
10.07203,55009
10.08017,53260
10.08828,49717
10.09640,56034
10.10453,54132
10.11265,57523
10.12078,55521
10.12890,50784
10.13702,50699
10.14515,52228
10.15327,54013
10.16140,51038
10.16952,51634
10.17763,51565
10.18577,48125
10.19388,45145
10.20202,43428
10.21013,48469
10.21825,45716
10.22638,49326
10.23450,48739
10.24262,57755
10.25075,54687
10.25887,62325
10.26700,81056
10.27512,150152
10.28323,299561
10.29137,609562
10.29948,1085033
10.30762,1629199
10.31573,2275977
10.32385,3304832
10.33198,4779622
10.34010,6059148
10.34822,6391021
10.35635,5275959
10.36447,3595611
10.37260,2169196
10.38072,1320381
10.38883,873134
10.39697,618190
10.40508,433083
10.41322,334653
10.42133,276207
10.42945,231354
10.43758,204977
10.44570,185004
10.45383,175731
10.46195,166195
10.47007,157939
10.47820,154614
10.48632,138443
10.49443,130167
10.50257,127575
10.51068,126511
10.51882,117194
10.52693,115942
10.53505,114067
10.54318,107460
10.55130,100025
10.55943,103600
10.56755,97395
10.57567,100688
10.58380,100358
10.59192,92708
10.60005,91563
10.60817,90443
10.61628,91713
10.62442,83837
10.63253,81123
10.64065,81427
10.64878,82399
10.65690,76861
10.66503,75537
10.67315,71712
10.68127,74287
10.68940,72033
10.69752,76011
10.70565,75785
10.71377,72478
10.72188,72915
10.73002,75293
10.73813,78162
10.74625,69367
10.75438,71461
10.76250,72824
10.77063,68284
10.77875,66640
10.78687,63482
10.79500,65472
10.80312,63004
10.81125,63446
10.81937,62327
10.82748,62603
10.83562,68045
10.84373,57945
10.85187,59673
10.85998,58618
10.86810,54430
10.87623,55384
10.88435,56387
10.89247,58474
10.90060,57183
10.90872,52199
10.91685,55201
10.92497,56689
10.93308,52329
10.94122,53100
10.94933,56769
10.95747,53968
10.96558,60609
10.97370,55410
10.98183,54765
10.98995,55181
10.99807,53391
11.00620,51697
11.01432,53705
11.02245,53166
11.03057,52926
11.03868,56926
11.04682,52936
11.05493,49914
11.06307,54668
11.07118,51266
11.07930,53473
11.08743,59350
11.09555,65519
11.10368,63181
11.11180,63082
11.11992,62490
11.12805,64999
11.13617,64277
11.14428,61368
11.15242,63730
11.16053,62048
11.16867,64723
11.17678,65097
11.18490,61224
11.19303,63753
11.20115,65425
11.20928,58406
11.21740,60474
11.22552,61500
11.23365,57388
11.24177,54873
11.24990,60166
11.25802,60206
11.26613,66854
11.27427,83035
11.28238,98799
11.29050,118080
11.29863,135795
11.30675,151248
11.31488,165400
11.32300,199722
11.33112,267560
11.33925,335335
11.34737,405214
11.35550,421738
11.36362,373070
11.37173,296536
11.37987,234358
11.38798,174085
11.39610,144810
11.40423,126168
11.41235,121907
11.42048,112338
11.42860,105162
11.43672,99295
11.44485,91379
11.45297,83299
11.46110,84722
11.46922,77043
11.47733,82722
11.48547,83770
11.49358,96514
11.50172,103396
11.50983,118861
11.51795,124118
11.52608,111518
11.53420,105051
11.54232,105564
11.55045,103637
11.55857,97927
11.56670,92067
11.57482,84848
11.58293,81584
11.59107,78013
11.59918,77194
11.60732,90779
11.61543,95001
11.62355,110416
11.63168,116459
11.63980,115210
11.64793,98952
11.65605,87535
11.66417,86214
11.67230,78678
11.68042,78696
11.68853,76626
11.69667,79188
11.70478,83410
11.71292,86723
11.72103,88799
11.72915,90140
11.73728,90195
11.74540,89492
11.75353,79314
11.76165,78109
11.76977,76423
11.77790,72069
11.78602,68196
11.79413,68509
11.80227,71726
11.81038,66674
11.81852,64923
11.82663,63178
11.83475,62197
11.84288,62119
11.85100,61183
11.85913,58620
11.86725,56832
11.87537,53772
11.88350,52771
11.89162,50526
11.89975,55343
11.90787,56224
11.91598,56886
11.92412,63300
11.93223,70632
11.94035,74211
11.94848,77099
11.95660,70479
11.96473,67255
11.97285,60347
11.98097,59974
11.98910,53136
11.99722,53883
12.00535,59602
12.01347,60179
12.02158,65248
12.02972,63438
12.03783,56644
12.04595,58918
12.05408,56977
12.06220,51875
12.07033,57161
12.07845,53254
12.08657,54605
12.09470,51776
12.10282,53689
12.11095,50633
12.11907,49757
12.12718,53658
12.13532,51991
12.14343,54487
12.15157,56137
12.15968,52211
12.16780,45647
12.17593,49479
12.18405,46245
12.19217,43268
12.20030,49456
12.20842,45990
12.21655,46317
12.22467,48327
12.23278,47871
12.24092,47050
12.24903,52139
12.25717,46150
12.26528,49569
12.27340,49103
12.28153,46695
12.28965,46012
12.29778,46496
12.30590,48973
12.31402,47738
12.32215,49514
12.33027,49085
12.33838,50956
12.34652,45515
12.35463,46363
12.36277,49717
12.37088,49675
12.37900,46959
12.38713,49968
12.39525,50486
12.40338,56676
12.41150,66712
12.41962,86089
12.42775,98064
12.43587,110287
12.44398,101888
12.45212,92297
12.46023,78565
12.46837,67215
12.47648,62497
12.48460,54376
12.49273,55287
12.50085,52887
12.50898,52390
12.51710,51510
12.52522,46421
12.53335,51094
12.54147,52814
12.54960,60821
12.55772,72425
12.56583,87464
12.57397,99664
12.58208,106487
12.59020,93382
12.59833,81630
12.60645,69513
12.61458,62358
12.62270,58655
12.63082,53594
12.63895,50163
12.64707,51025
12.65520,45679
12.66332,44780
12.67143,46793
12.67957,46859
12.68768,44793
12.69582,46192
12.70393,47357
12.71205,42850
12.72018,46817
12.72830,48255
12.73642,48173
12.74455,51028
12.75267,52807
12.76080,49872
12.76892,46123
12.77703,51433
12.78517,46931
12.79328,50480
12.80142,48771
12.80953,53594
12.81765,48138
12.82578,46589
12.83390,43304
12.84202,42641
12.85015,43293
12.85827,42257
12.86640,43400
12.87452,41451
12.88263,43476
12.89077,37476
12.89888,40231
12.90702,38597
12.91513,35500
12.92325,43513
12.93138,43546
12.93950,51855
12.94763,61321
12.95575,74776
12.96387,88423
12.97200,97197
12.98012,115459
12.98823,105164
12.99637,95850
13.00448,82891
13.01262,74761
13.02073,72298
13.02885,68366
13.03698,70126
13.04510,62477
13.05323,57340
13.06135,54560
13.06947,50884
13.07760,56520
13.08572,50166
13.09385,49317
13.10197,46804
13.11008,47663
13.11822,42573
13.12633,48850
13.13445,44656
13.14258,43731
13.15070,35743
13.15883,45410
13.16695,44364
13.17507,43238
13.18320,44925
13.19132,45965
13.19945,42017
13.20757,40334
13.21568,41568
13.22382,45770
13.23193,42030
13.24005,50513
13.24818,50628
13.25630,51973
13.26443,50225
13.27255,56669
13.28067,54477
13.28880,52211
13.29692,51025
13.30505,50284
13.31317,52316
13.32128,52239
13.32942,55426
13.33753,52109
13.34567,50380
13.35378,49055
13.36190,44383
13.37003,46363
13.37815,44658
13.38627,43533
13.39440,44329
13.40252,44899
13.41065,42951
13.41877,43895
13.42688,39000
13.43502,38737
13.44313,36789
13.45127,36074
13.45938,36809
13.46750,37379
13.47563,39815
13.48375,40673
13.49187,37634
13.50000,41779
13.50812,43203
13.51625,41279
13.52437,36010
13.53248,41215
13.54062,42133
13.54873,47351
13.55687,46871
13.56498,47230
13.57310,51023
13.58123,49436
13.58935,49029
13.59748,57546
13.60560,62263
13.61372,78004
13.62185,106587
13.62997,120715
13.63808,129149
13.64622,121401
13.65433,101961
13.66247,81221
13.67058,66730
13.67870,60669
13.68683,59928
13.69495,56759
13.70308,52428
13.71120,54497
13.71932,50411
13.72745,49594
13.73557,48729
13.74370,48614
13.75182,52642
13.75993,55597
13.76807,68284
13.77618,80604
13.78430,102739
13.79243,119340
13.80055,126493
13.80868,135061
13.81680,149245
13.82492,158325
13.83305,183414
13.84117,190113
13.84930,190381
13.85742,166029
13.86553,143304
13.87367,112939
13.88178,98528
13.88990,86907
13.89803,83819
13.90615,78204
13.91428,68503
13.92240,65195
13.93052,65554
13.93865,61258
13.94677,59167
13.95490,53792
13.96302,57402
13.97113,55570
13.97927,52916
13.98738,53959
13.99552,55708
14.00363,52372
14.01175,55661
14.01988,52937
14.02800,51294
14.03612,48280
14.04425,47034
14.05237,49151
14.06050,48339
14.06862,47282
14.07673,42946
14.08487,41899
14.09298,43880
14.10112,42065
14.10923,43498
14.11735,40335
14.12548,43088
14.13360,44350
14.14173,59591
14.14985,71629
14.15797,92203
14.16610,119012
14.17422,132336
14.18233,136584
14.19047,120224
14.19858,106557
14.20672,99328
14.21483,97988
14.22295,84749
14.23108,83118
14.23920,83760
14.24733,78668
14.25545,75461
14.26357,75260
14.27170,72556
14.27982,65823
14.28793,66236
14.29607,65113
14.30418,57102
14.31232,54456
14.32043,52668
14.32855,47878
14.33668,45258
14.34480,42654
14.35293,41454
14.36105,39381
14.36917,36831
14.37730,40562
14.38542,42222
14.39355,45331
14.40167,61080
14.40978,86425
14.41792,130331
14.42603,168878
14.43415,196161
14.44228,182590
14.45040,150713
14.45853,120547
14.46665,93062
14.47477,75542
14.48290,70167
14.49102,65458
14.49915,61054
14.50727,57862
14.51538,52978
14.52352,53398
14.53163,48468
14.53975,51073
14.54788,50091
14.55600,45458
14.56413,47290
14.57225,46083
14.58037,45853
14.58850,43214
14.59662,44642
14.60475,42503
14.61287,38404
14.62098,42309
14.62912,42356
14.63723,40756
14.64537,37988
14.65348,40428
14.66160,36749
14.66973,35709
14.67785,39458
14.68597,39810
14.69410,36857
14.70222,37300
14.71035,38245
14.71847,37983
14.72658,38270
14.73472,37154
14.74283,39105
14.75097,38627
14.75908,37191
14.76720,39885
14.77533,39200
14.78345,41780
14.79158,53026
14.79970,96413
14.80782,197827
14.81595,422097
14.82407,800530
14.83218,1182407
14.84032,1349806
14.84843,1263239
14.85657,945436
14.86468,641740
14.87280,403806
14.88093,270967
14.88905,199502
14.89718,167464
14.90530,140847
14.91342,125183
14.92155,111403
14.92967,107555
14.93780,100143
14.94592,92868
14.95403,91567
14.96217,82743
14.97028,83951
14.97840,78343
14.98653,78687
14.99465,74149
15.00278,72813
15.01090,70902
15.01902,67212
15.02715,66534
15.03527,65116
15.04340,65014
15.05152,59632
15.05963,63154
15.06777,53588
15.07588,58566
15.08400,56178
15.09213,51942
15.10025,53930
15.10838,55183
15.11650,56063
15.12462,51570
15.13275,54000
15.14087,56270
15.14900,60730
15.15712,54206
15.16523,53702
15.17337,55382
15.18148,46592
15.18962,44962
15.19773,43518
15.20585,43097
15.21398,43207
15.22210,45457
15.23022,40243
15.23835,40513
15.24647,42736
15.25460,39968
15.26272,35290
15.27083,39299
15.27897,38245
15.28708,38153
15.29522,34359
15.30333,38407
15.31145,36960
15.31958,37317
15.32770,35423
15.33582,36078
15.34395,39451
15.35207,34325
15.36020,37491
15.36832,36397
15.37643,36079
15.38457,37101
15.39268,34921
15.40082,34236
15.40893,38407
15.41705,35723
15.42518,35935
15.43330,38512
15.44143,35838
15.44955,34269
15.45767,38222
15.46580,44670
15.47392,50688
15.48203,55946
15.49017,74393
15.49828,85279
15.50642,94750
15.51453,88862
15.52265,80842
15.53078,75308
15.53890,64911
15.54703,61789
15.55515,57674
15.56327,48848
15.57140,51827
15.57952,43177
15.58765,40213
15.59577,41571
15.60388,43141
15.61202,39729
15.62013,40906
15.62825,36912
15.63638,40904
15.64450,37888
15.65263,34226
15.66075,37740
15.66887,37212
15.67700,37895
15.68512,35349
15.69325,36188
15.70137,35229
15.70948,38038
15.71762,36328
15.72573,38226
15.73385,35931
15.74198,36217
15.75010,38220
15.75823,44235
15.76635,57716
15.77447,77518
15.78260,100795
15.79072,123645
15.79885,130517
15.80697,113963
15.81508,107885
15.82322,87246
15.83133,67176
15.83947,57533
15.84758,54032
15.85570,52962
15.86383,48886
15.87195,44585
15.88007,46781
15.88820,42265
15.89632,44588
15.90445,40720
15.91257,42328
15.92068,42897
15.92882,43668
15.93693,40197
15.94507,39399
15.95318,36962
15.96130,37909
15.96943,39274
15.97755,41078
15.98568,44985
15.99380,43701
16.00192,46081
16.01005,51223
16.01817,55439
16.02628,55931
16.03442,56154
16.04253,52092
16.05067,48707
16.05878,48872
16.06690,43747
16.07503,39919
16.08315,37526
16.09128,36023
16.09940,39013
16.10752,41442
16.11565,37772
16.12377,40587
16.13188,39442
16.14002,43902
16.14813,42607
16.15627,43851
16.16438,41170
16.17250,38764
16.18063,40129
16.18875,38642
16.19688,35172
16.20500,38037
16.21312,37058
16.22125,38514
16.22937,39927
16.23750,35490
16.24562,38065
16.25373,35758
16.26187,36830
16.26998,36211
16.27810,37791
16.28623,40101
16.29435,43642
16.30248,41322
16.31060,43485
16.31872,41090
16.32685,38688
16.33497,35486
16.34310,37079
16.35122,35660
16.35933,41855
16.36747,40317
16.37558,42388
16.38370,44631
16.39183,39114
16.39995,39066
16.40808,37986
16.41620,35257
16.42432,36229
16.43245,33777
16.44057,37490
16.44870,47136
16.45682,60653
16.46493,86980
16.47307,124520
16.48118,163108
16.48932,175109
16.49743,171814
16.50555,145798
16.51368,109587
16.52180,83817
16.52992,68836
16.53805,55317
16.54617,55083
16.55430,50654
16.56242,48927
16.57053,43907
16.57867,49652
16.58678,45650
16.59492,43248
16.60303,45410
16.61115,45923
16.61928,46144
16.62740,38550
16.63553,44175
16.64365,43992
16.65177,43308
16.65990,40687
16.66802,38866
16.67613,38985
16.68427,38305
16.69238,37851
16.70052,41190
16.70863,35860
16.71675,40211
16.72488,39609
16.73300,41508
16.74113,37961
16.74925,37815
16.75737,36795
16.76550,42912
16.77362,38423
16.78173,37380
16.78987,38080
16.79798,38751
16.80612,34887
16.81423,36527
16.82235,34196
16.83048,37762
16.83860,37798
16.84673,37577
16.85485,38032
16.86297,39046
16.87110,38163
16.87922,35709
16.88735,33785
16.89547,37215
16.90358,34549
16.91172,36233
16.91983,34538
16.92795,35081
16.93608,37976
16.94420,32422
16.95233,40333
16.96045,34710
16.96857,37581
16.97670,34900
16.98482,40187
16.99295,34781
17.00107,37333
17.00918,38536
17.01732,36776
17.02543,37373
17.03357,36765
17.04168,39100
17.04980,38204
17.05793,38331
17.06605,39678
17.07417,40667
17.08230,37623
17.09042,35184
17.09855,36499
17.10667,38343
17.11478,35073
17.12292,35163
17.13103,35873
17.13917,37072
17.14728,37152
17.15540,41098
17.16353,37331
17.17165,38787
17.17977,39234
17.18790,34969
17.19602,36971
17.20415,33797
17.21227,33483
17.22038,36656
17.22852,35955
17.23663,33380
17.24477,34575
17.25288,34186
17.26100,36807
17.26913,33621
17.27725,35045
17.28538,36321
17.29350,33610
17.30162,33670
17.30975,33822
17.31787,37186
17.32598,33218
17.33412,39205
17.34223,38183
17.35037,42396
17.35848,43978
17.36660,40868
17.37473,39481
17.38285,44968
17.39098,44255
17.39910,42763
17.40722,42950
17.41535,42892
17.42347,45253
17.43160,46663
17.43972,44819
17.44783,43637
17.45597,42355
17.46408,37043
17.47220,37545
17.48033,39093
17.48845,36963
17.49658,38060
17.50470,38655
17.51282,41204
17.52095,40585
17.52907,45935
17.53720,46559
17.54532,48500
17.55343,61992
17.56157,58380
17.56968,77457
17.57780,92995
17.58593,124286
17.59405,156960
17.60218,202720
17.61030,215905
17.61842,214804
17.62655,192273
17.63467,165006
17.64280,118803
17.65092,104029
17.65903,90258
17.66717,76130
17.67528,72549
17.68342,73654
17.69153,66411
17.69965,65596
17.70778,62769
17.71590,61616
17.72402,54288
17.73215,56253
17.74027,55847
17.74840,50831
17.75652,50625
17.76463,49276
17.77277,47532
17.78088,49367
17.78902,47758
17.79713,51457
17.80525,55723
17.81338,63759
17.82150,71044
17.82962,76075
17.83775,80155
17.84587,79484
17.85400,73860
17.86212,75500
17.87023,70655
17.87837,69196
17.88648,59550
17.89462,53397
17.90273,54322
17.91085,50521
17.91898,47349
17.92710,49428
17.93523,45530
17.94335,42971
17.95147,42982
17.95960,44456
17.96772,41697
17.97583,44160
17.98397,42821
17.99208,43842
18.00022,41875
18.00833,42733
18.01645,44858
18.02458,53612
18.03270,63699
18.04083,72116
18.04895,98038
18.05707,160549
18.06520,270682
18.07332,434190
18.08145,664306
18.08957,968888
18.09768,1201492
18.10582,1302620
18.11393,1225801
18.12205,1057257
18.13018,858237
18.13830,713433
18.14643,623819
18.15455,562709
18.16267,526703
18.17080,494797
18.17892,465817
18.18705,450243
18.19517,433534
18.20328,420361
18.21142,405959
18.21953,396164
18.22765,377666
18.23578,355405
18.24390,347670
18.25203,335000
18.26015,327722
18.26827,321717
18.27640,301980
18.28452,296506
18.29265,277924
18.30077,270295
18.30888,251712
18.31702,249375
18.32513,244276
18.33327,236105
18.34138,231655
18.34950,224644
18.35763,221336
18.36575,212485
18.37387,216680
18.38200,213808
18.39012,208648
18.39825,202289
18.40637,204136
18.41448,195634
18.42262,194856
18.43073,199049
18.43887,199245
18.44698,198102
18.45510,202350
18.46323,213192
18.47135,223891
18.47948,237341
18.48760,239015
18.49572,227981
18.50385,212655
18.51197,198103
18.52008,182839
18.52822,174065
18.53633,158286
18.54447,157590
18.55258,153344
18.56070,149429
18.56883,141366
18.57695,141326
18.58508,140761
18.59320,139017
18.60132,145888
18.60945,144119
18.61757,140416
18.62568,141327
18.63382,141738
18.64193,131243
18.65007,134430
18.65818,123553
18.66630,119026
18.67443,122582
18.68255,120923
18.69068,116359
18.69880,110353
18.70692,102089
18.71505,104405
18.72317,107270
18.73130,102789
18.73942,100069
18.74753,101934
18.75567,96383
18.76378,97752
18.77190,98128
18.78003,91251
18.78815,90097
18.79628,92398
18.80440,87752
18.81252,94764
18.82065,87809
18.82877,83676
18.83690,87432
18.84502,82859
18.85313,79440
18.86127,83471
18.86938,88740
18.87750,83550
18.88563,80854
18.89375,79809
18.90188,81937
18.91000,81689
18.91812,80341
18.92625,75530
18.93437,82451
18.94250,80422
18.95062,82869
18.95873,78045
18.96687,72631
18.97498,77123
18.98312,72777
18.99123,69804
18.99935,70368
19.00748,68378
19.01560,68754
19.02372,68790
19.03185,72040
19.03997,72033
19.04810,70836
19.05622,65738
19.06433,66807
19.07247,66171
19.08058,76105
19.08872,75769
19.09683,84493
19.10495,91112
19.11308,86186
19.12120,83997
19.12933,84180
19.13745,86686
19.14557,84109
19.15370,85863
19.16182,82268
19.16993,81618
19.17807,77271
19.18618,72952
19.19432,78939
19.20243,68326
19.21055,66386
19.21868,62894
19.22680,59063
19.23493,64775
19.24305,56308
19.25117,57800
19.25930,55856
19.26742,56723
19.27553,59728
19.28367,60924
19.29178,61079
19.29992,60834
19.30803,61432
19.31615,64568
19.32428,58305
19.33240,58024
19.34053,58495
19.34865,55402
19.35677,60448
19.36490,71342
19.37302,79159
19.38115,79311
19.38927,79981
19.39738,74430
19.40552,70958
19.41363,64188
19.42175,60283
19.42988,61505
19.43800,70786
19.44613,83544
19.45425,110403
19.46237,119111
19.47050,127981
19.47862,122217
19.48675,102656
19.49487,87585
19.50298,75568
19.51112,66713
19.51923,64508
19.52737,62950
19.53548,63185
19.54360,60889
19.55173,61007
19.55985,60853
19.56797,58035
19.57610,55294
19.58422,53525
19.59235,49882
19.60047,52932
19.60858,49730
19.61672,49442
19.62483,56885
19.63297,59727
19.64108,80606
19.64920,96746
19.65733,111251
19.66545,125986
19.67357,132630
19.68170,125833
19.68982,115989
19.69795,112066
19.70607,100325
19.71418,88618
19.72232,82568
19.73043,71866
19.73857,67393
19.74668,62481
19.75480,60229
19.76293,60190
19.77105,61383
19.77918,68007
19.78730,72355
19.79542,73627
19.80355,81269
19.81167,74650
19.81978,71286
19.82792,61678
19.83603,62160
19.84417,57490
19.85228,70558
19.86040,88703
19.86853,144523
19.87665,273134
19.88478,452738
19.89290,709008
19.90102,910199
19.90915,1001216
19.91727,931509
19.92540,742916
19.93352,524972
19.94163,380379
19.94977,285725
19.95788,229851
19.96600,192765
19.97413,175619
19.98225,160402
19.99038,157501
19.99850,147420
20.00662,131975
20.01475,136514
20.02287,127842
20.03100,116531
20.03912,113858
20.04723,110709
20.05537,93433
20.06348,93513
20.07160,89303
20.07973,90357
20.08785,85587
20.09598,82124
20.10410,75522
20.11222,75761
20.12035,73770
20.12847,68080
20.13660,66603
20.14472,63008
20.15283,68748
20.16097,76536
20.16908,84198
20.17722,89572
20.18533,99282
20.19345,98458
20.20158,100214
20.20970,101200
20.21782,87912
20.22595,86810
20.23407,89813
20.24220,96109
20.25032,108023
20.25843,124878
20.26657,129805
20.27468,140478
20.28282,128790
20.29093,111188
20.29905,100714
20.30718,88090
20.31530,76887
20.32343,69840
20.33155,65057
20.33967,58051
20.34780,52869
20.35592,54807
20.36403,54052
20.37217,53204
20.38028,51793
20.38842,54961
20.39653,51575
20.40465,56133
20.41278,58169
20.42090,57955
20.42903,58877
20.43715,55521
20.44527,54986
20.45340,54913
20.46152,51102
20.46963,49206
20.47777,50886
20.48588,49647
20.49402,45964
20.50213,42835
20.51025,47942
20.51838,46363
20.52650,45688
20.53463,43482
20.54275,46534
20.55087,46080
20.55900,46514
20.56712,44646
20.57525,45811
20.58337,43905
20.59148,43493
20.59962,43681
20.60773,42083
20.61585,42119
20.62398,43775
20.63210,48692
20.64023,49250
20.64835,44101
20.65647,46607
20.66460,46957
20.67272,44206
20.68085,46687
20.68897,43702
20.69708,45427
20.70522,44977
20.71333,42047
20.72145,42359
20.72958,41184
20.73770,48144
20.74583,42181
20.75395,44538
20.76207,45767
20.77020,48876
20.77832,52232
20.78645,61509
20.79457,80024
20.80268,105912
20.81082,134098
20.81893,154120
20.82707,150671
20.83518,134234
20.84330,110674
20.85143,85057
20.85955,70864
20.86767,65675
20.87580,57699
20.88392,52131
20.89205,51558
20.90017,54180
20.90828,52790
20.91642,48187
20.92453,52579
20.93267,49552
20.94078,46186
20.94890,47015
20.95703,44897
20.96515,44278
20.97328,44173
20.98140,47583
20.98952,44866
20.99765,40622
21.00577,43901
21.01388,44341
21.02202,41572
21.03013,41828
21.03827,45411
21.04638,45351
21.05450,47547
21.06263,40399
21.07075,42898
21.07888,43504
21.08700,43674
21.09512,45343
21.10325,41020
21.11137,50505
21.11948,44881
21.12762,47434
21.13573,49544
21.14387,52760
21.15198,62639
21.16010,65067
21.16823,68959
21.17635,70307
21.18448,67238
21.19260,69974
21.20072,60499
21.20885,61941
21.21697,60607
21.22510,60064
21.23322,54689
21.24133,59656
21.24947,61401
21.25758,61625
21.26570,60011
21.27383,57812
21.28195,57854
21.29008,59519
21.29820,58438
21.30632,52207
21.31445,54278
21.32257,51783
21.33070,55767
21.33882,54075
21.34693,56632
21.35507,53097
21.36318,54012
21.37132,52491
21.37943,58526
21.38755,56082
21.39568,62527
21.40380,63581
21.41192,64752
21.42005,68593
21.42817,68060
21.43630,67157
21.44442,61254
21.45253,59818
21.46067,61817
21.46878,59604
21.47692,59979
21.48503,60942
21.49315,59581
21.50128,53311
21.50940,57101
21.51752,53421
21.52565,52987
21.53377,48308
21.54190,49745
21.55002,50705
21.55813,47762
21.56627,45763
21.57438,48910
21.58252,54156
21.59063,63840
21.59875,68733
21.60688,68297
21.61500,72114
21.62313,69309
21.63125,65115
21.63937,61877
21.64750,66737
21.65562,58599
21.66373,57899
21.67187,62204
21.67998,59617
21.68812,55103
21.69623,56766
21.70435,54019
21.71248,50489
21.72060,49151
21.72873,46086
21.73685,49199
21.74497,52621
21.75310,50814
21.76122,48950
21.76933,46103
21.77747,48711
21.78558,51507
21.79372,57880
21.80183,58521
21.80995,60355
21.81808,54956
21.82620,53846
21.83433,52791
21.84245,47862
21.85057,46896
21.85870,49955
21.86682,47434
21.87495,53547
21.88307,62391
21.89118,79465
21.89932,95855
21.90743,110784
21.91555,123505
21.92368,131917
21.93180,131474
21.93993,134308
21.94805,131099
21.95617,132900
21.96430,132191
21.97242,131573
21.98055,139070
21.98867,139364
21.99678,133343
22.00492,128961
22.01303,130826
22.02117,126189
22.02928,127378
22.03740,131643
22.04553,122996
22.05365,126889
22.06177,126568
22.06990,116476
22.07802,121904
22.08615,115584
22.09427,112237
22.10238,111813
22.11052,111182
22.11863,108294
22.12677,103436
22.13488,99886
22.14300,98875
22.15113,90547
22.15925,96475
22.16737,100417
22.17550,87173
22.18362,90884
22.19175,93110
22.19987,86675
22.20798,85071
22.21612,82343
22.22423,82744
22.23237,78945
22.24048,76957
22.24860,72022
22.25673,73969
22.26485,72929
22.27298,70793
22.28110,71181
22.28922,77630
22.29735,76367
22.30547,71198
22.31358,68107
22.32172,69322
22.32983,69180
22.33797,66150
22.34608,65460
22.35420,65370
22.36233,64363
22.37045,63168
22.37858,61474
22.38670,69774
22.39482,70937
22.40295,81094
22.41107,88884
22.41920,89986
22.42732,91768
22.43543,85326
22.44357,77744
22.45168,73680
22.45980,66773
22.46793,64611
22.47605,64159
22.48418,70592
22.49230,76476
22.50042,77668
22.50855,76798
22.51667,73417
22.52480,68478
22.53292,65357
22.54103,63273
22.54917,59374
22.55728,57065
22.56540,53081
22.57353,52077
22.58165,54094
22.58978,52452
22.59790,49245
22.60602,43994
22.61415,44277
22.62227,46402
22.63040,45428
22.63852,45064
22.64663,48618
22.65477,45821
22.66288,49310
22.67102,45956
22.67913,46531
22.68725,53282
22.69538,51266
22.70350,49903
22.71162,52615
22.71975,51950
22.72787,51557
22.73600,52237
22.74412,50358
22.75223,48988
22.76037,46406
22.76848,48799
22.77662,54645
22.78473,53451
22.79285,52084
22.80098,57142
22.80910,55277
22.81723,62071
22.82535,55671
22.83347,54809
22.84160,51269
22.84972,51678
22.85783,51773
22.86597,53100
22.87408,56517
22.88222,60319
22.89033,64470
22.89845,73819
22.90658,81281
22.91470,97520
22.92283,123886
22.93095,135782
22.93907,136668
22.94720,128212
22.95532,111254
22.96343,90964
22.97157,86402
22.97968,77508
22.98782,68409
22.99593,62407
23.00405,62414
23.01218,58689
23.02030,52469
23.02843,54599
23.03655,49614
23.04467,48861
23.05280,46300
23.06092,48481
23.06905,46129
23.07717,46144
23.08528,44855
23.09342,45287
23.10153,41886
23.10965,44633
23.11778,44654
23.12590,42003
23.13403,42488
23.14215,42545
23.15027,39916
23.15840,42696
23.16652,39386
23.17465,41165
23.18277,39810
23.19088,35485
23.19902,40660
23.20713,40542
23.21525,39729
23.22338,43485
23.23150,41699
23.23963,44486
23.24775,44058
23.25587,41887
23.26400,46555
23.27212,44471
23.28025,45212
23.28837,41981
23.29648,44770
23.30462,42336
23.31273,41441
23.32087,41634
23.32898,47467
23.33710,52766
23.34523,61815
23.35335,77211
23.36147,93056
23.36960,107857
23.37772,122411
23.38585,135085
23.39397,152666
23.40208,146554
23.41022,151851
23.41833,145480
23.42647,145813
23.43458,145060
23.44270,132827
23.45083,134506
23.45895,126236
23.46708,119268
23.47520,113776
23.48332,103400
23.49145,100787
23.49957,94703
23.50768,87522
23.51582,85169
23.52393,83726
23.53207,84338
23.54018,77542
23.54830,77671
23.55643,73529
23.56455,86517
23.57268,84586
23.58080,90396
23.58892,98070
23.59705,101339
23.60517,109638
23.61328,110338
23.62142,98047
23.62953,89508
23.63767,89061
23.64578,107901
23.65390,129953
23.66203,144433
23.67015,170162
23.67828,168829
23.68640,170205
23.69452,178465
23.70265,176699
23.71077,168678
23.71890,178653
23.72702,184493
23.73513,196119
23.74327,250270
23.75138,386314
23.75950,721150
23.76763,1277194
23.77575,2079812
23.78388,2756879
23.79200,3066449
23.80012,2891997
23.80825,2376733
23.81637,1824863
23.82450,1404424
23.83262,1072156
23.84073,856352
23.84887,693485
23.85698,575756
23.86512,499692
23.87323,437864
23.88135,408838
23.88948,358200
23.89760,338144
23.90572,312878
23.91385,299103
23.92197,272122
23.93010,261821
23.93822,246616
23.94633,237126
23.95447,220735
23.96258,214332
23.97072,203481
23.97883,189957
23.98695,182956
23.99508,178196
24.00320,177189
24.01132,165771
24.01945,169873
24.02757,164012
24.03570,157941
24.04382,156622
24.05193,150389
24.06007,145135
24.06818,141101
24.07632,137985
24.08443,132002
24.09255,133777
24.10068,133240
24.10880,128678
24.11693,119636
24.12505,118710
24.13317,118120
24.14130,119089
24.14942,120831
24.15753,124517
24.16567,121957
24.17378,121875
24.18192,118010
24.19003,121260
24.19815,121495
24.20628,117700
24.21440,113511
24.22253,107352
24.23065,108940
24.23877,96671
24.24690,102112
24.25502,94856
24.26313,90469
24.27127,91840
24.27938,90090
24.28752,90188
24.29563,91367
24.30375,87072
24.31188,93645
24.32000,95030
24.32813,106970
24.33625,110957
24.34437,125881
24.35250,132313
24.36062,124019
24.36875,105519
24.37687,91419
24.38498,83822
24.39312,75881
24.40123,70826
24.40935,63137
24.41748,69260
24.42560,68169
24.43373,67454
24.44185,73245
24.44997,74345
24.45810,80757
24.46622,85676
24.47435,84456
24.48247,83366
24.49058,86997
24.49872,81841
24.50683,83412
24.51497,74828
24.52308,74375
24.53120,75634
24.53933,81883
24.54745,93800
24.55557,90916
24.56370,90684
24.57182,89305
24.57995,78097
24.58807,76082
24.59618,72980
24.60432,66626
24.61243,64742
24.62057,65328
24.62868,54210
24.63680,56603
24.64493,58366
24.65305,61687
24.66117,56557
24.66930,59652
24.67742,60939
24.68555,60850
24.69367,56421
24.70178,54743
24.70992,52886
24.71803,51695
24.72617,52147
24.73428,56376
24.74240,53126
24.75053,57990
24.75865,50860
24.76678,56487
24.77490,58367
24.78302,57801
24.79115,58501
24.79927,63365
24.80738,59777
24.81552,57508
24.82363,59069
24.83177,66906
24.83988,77772
24.84800,93441
24.85613,116799
24.86425,154985
24.87238,207162
24.88050,248739
24.88862,283333
24.89675,305869
24.90487,297676
24.91300,275812
24.92112,242334
24.92923,222870
24.93737,203294
24.94548,197041
24.95360,185685
24.96173,189256
24.96985,185589
24.97798,176380
24.98610,180532
24.99422,178043
25.00235,174960
25.01047,169961
25.01860,171542
25.02672,162899
25.03483,166908
25.04297,160351
25.05108,155958
25.05920,152891
25.06733,151838
25.07545,149703
25.08358,148930
25.09170,156204
25.09982,183114
25.10795,241785
25.11607,370399
25.12420,572481
25.13232,855767
25.14043,1073373
25.14857,1195196
25.15668,1097751
25.16482,868114
25.17293,613184
25.18105,400794
25.18918,291249
25.19730,225544
25.20542,172397
25.21355,152868
25.22167,141795
25.22980,138990
25.23792,145770
25.24603,148078
25.25417,163184
25.26228,184707
25.27042,185934
25.27853,186372
25.28665,167564
25.29478,153317
25.30290,132659
25.31102,119231
25.31915,108105
25.32727,106039
25.33540,107314
25.34352,90895
25.35163,94837
25.35977,87527
25.36788,82404
25.37602,82638
25.38413,79747
25.39225,82887
25.40038,74387
25.40850,80222
25.41663,74439
25.42475,75827
25.43287,74943
25.44100,77856
25.44912,75151
25.45723,69445
25.46537,68027
25.47348,74714
25.48162,64233
25.48973,65692
25.49785,67694
25.50598,64646
25.51410,63615
25.52223,64247
25.53035,61299
25.53847,64793
25.54660,59148
25.55472,59074
25.56285,65025
25.57097,60330
25.57908,56033
25.58722,61835
25.59533,59133
25.60345,57745
25.61158,56181
25.61970,56077
25.62783,54355
25.63595,55529
25.64407,57396
25.65220,55820
25.66032,56596
25.66845,53804
25.67657,55131
25.68468,57122
25.69282,55199
25.70093,52859
25.70907,58308
25.71718,57325
25.72530,54528
25.73343,51597
25.74155,49324
25.74967,47578
25.75780,54310
25.76592,52296
25.77405,50204
25.78217,54489
25.79028,53484
25.79842,49941
25.80653,51054
25.81467,52524
25.82278,52627
25.83090,54612
25.83903,54375
25.84715,53257
25.85527,50494
25.86340,47469
25.87152,50174
25.87965,49153
25.88777,50424
25.89588,46206
25.90402,46454
25.91213,47616
25.92027,46854
25.92838,50136
25.93650,46403
25.94463,45348
25.95275,54100
25.96088,49717
25.96900,47561
25.97712,46054
25.98525,44857
25.99337,41964
26.00148,44726
26.00962,44989
26.01773,45859
26.02587,45334
26.03398,43982
26.04210,43418
26.05023,45893
26.05835,47424
26.06648,43776
26.07460,47470
26.08272,46991
26.09085,43829
26.09897,46439
26.10708,46114
26.11522,48029
26.12333,48951
26.13147,55287
26.13958,53416
26.14770,52330
26.15583,55050
26.16395,54568
26.17208,52307
26.18020,51537
26.18832,54357
26.19645,52417
26.20457,50430
26.21270,49743
26.22082,48236
26.22893,44937
26.23707,45492
26.24518,46061
26.25330,41278
26.26143,45676
26.26955,41348
26.27768,40069
26.28580,41325
26.29392,42652
26.30205,40917
26.31017,41241
26.31830,45108
26.32642,40273
26.33453,43907
26.34267,39217
26.35078,45425
26.35892,41136
26.36703,47233
26.37515,48803
26.38328,47591
26.39140,53728
26.39952,53467
26.40765,50561
26.41577,51342
26.42390,47910
26.43202,46613
26.44013,42016
26.44827,41589
26.45638,43275
26.46452,41674
26.47263,41524
26.48075,44798
26.48888,41589
26.49700,45668
26.50512,41243
26.51325,38996
26.52137,39613
26.52950,38139
26.53762,36698
26.54573,36966
26.55387,36457
26.56198,39709
26.57012,38190
26.57823,40626
26.58635,39879
26.59448,39472
26.60260,39645
26.61073,37773
26.61885,39307
26.62697,37447
26.63510,40482
26.64322,39032
26.65133,40312
26.65947,40171
26.66758,41508
26.67572,40882
26.68383,45319
26.69195,42503
26.70008,38900
26.70820,36921
26.71633,36985
26.72445,39264
26.73257,36416
26.74070,37077
26.74882,40215
26.75695,39569
26.76507,40586
26.77318,39503
26.78132,40954
26.78943,42304
26.79755,42087
26.80568,45165
26.81380,41630
26.82193,41544
26.83005,42780
26.83817,40430
26.84630,40265
26.85442,38897
26.86255,39025
26.87067,36868
26.87878,37802
26.88692,34704
26.89503,36164
26.90315,38383
26.91128,44211
26.91940,36854
26.92753,40663
26.93565,40603
26.94377,46807
26.95190,59509
26.96002,84280
26.96815,132958
26.97627,199628
26.98438,280338
26.99252,377566
27.00063,460084
27.00877,510672
27.01688,495849
27.02500,438216
27.03313,368155
27.04125,287219
27.04937,234356
27.05750,195068
27.06562,158186
27.07375,137336
27.08187,123451
27.08998,108765
27.09812,102465
27.10623,93231
27.11437,89586
27.12248,88284
27.13060,81540
27.13873,74107
27.14685,75680
27.15497,77062
27.16310,76454
27.17122,79179
27.17935,74895
27.18747,74809
27.19558,72070
27.20372,65750
27.21183,65633
27.21997,61433
27.22808,62902
27.23620,61238
27.24433,57484
27.25245,55938
27.26058,55244
27.26870,51784
27.27682,51397
27.28495,53527
27.29307,51035
27.30118,51310
27.30932,50922
27.31743,51168
27.32557,52454
27.33368,48832
27.34180,50027
27.34993,48864
27.35805,49305
27.36618,48717
27.37430,48485
27.38242,52083
27.39055,48928
27.39867,46998
27.40680,48967
27.41492,43407
27.42303,46733
27.43117,48079
27.43928,46746
27.44740,43273
27.45553,46263
27.46365,46966
27.47178,44818
27.47990,45059
27.48802,44074
27.49615,44470
27.50427,46570
27.51240,45249
27.52052,41841
27.52863,44344
27.53677,44914
27.54488,44654
27.55300,45018
27.56113,46577
27.56925,47239
27.57738,47615
27.58550,50204
27.59362,54641
27.60175,55465
27.60987,48036
27.61800,51524
27.62612,45713
27.63423,44396
27.64237,38888
27.65048,42344
27.65862,47537
27.66673,42158
27.67485,44820
27.68298,47776
27.69110,45799
27.69922,44887
27.70735,45799
27.71547,43487
27.72360,40088
27.73172,44301
27.73983,46822
27.74797,48269
27.75608,48249
27.76422,49550
27.77233,45514
27.78045,41989
27.78858,43935
27.79670,40144
27.80483,40042
27.81295,39876
27.82107,41164
27.82920,38567
27.83732,40544
27.84543,37565
27.85357,41739
27.86168,38805
27.86982,41907
27.87793,38529
27.88605,41277
27.89418,40899
27.90230,37573
27.91043,37788
27.91855,38564
27.92667,42232
27.93480,36031
27.94292,38385
27.95103,39628
27.95917,36528
27.96728,35602
27.97542,43492
27.98353,42218
27.99165,42228
27.99978,45706
28.00790,46083
28.01603,49935
28.02415,52702
28.03227,55794
28.04040,59141
28.04852,62232
28.05665,59569
28.06477,59586
28.07288,52062
28.08102,51919
28.08913,53279
28.09725,53881
28.10538,60469
28.11350,61287
28.12163,61053
28.12975,55724
28.13787,55468
28.14600,50010
28.15412,48488
28.16225,44818
28.17037,43743
28.17848,42567
28.18662,42661
28.19473,44862
28.20287,51473
28.21098,47847
28.21910,51494
28.22723,50868
28.23535,43153
28.24347,48187
28.25160,49586
28.25972,51742
28.26785,65578
28.27597,78563
28.28408,95754
28.29222,126205
28.30033,145606
28.30847,162015
28.31658,180338
28.32470,197528
28.33283,187894
28.34095,185242
28.34907,186919
28.35720,166470
28.36532,149869
28.37345,128597
28.38157,120110
28.38968,109817
28.39782,101092
28.40593,93607
28.41407,89660
28.42218,81386
28.43030,76679
28.43843,70675
28.44655,70166
28.45468,65873
28.46280,61248
28.47092,59414
28.47905,58623
28.48717,59654
28.49528,56771
28.50342,53958
28.51153,53961
28.51967,53743
28.52778,49628
28.53590,53101
28.54403,53037
28.55215,51354
28.56028,50795
28.56840,46052
28.57652,48642
28.58465,47758
28.59277,45076
28.60088,47589
28.60902,46868
28.61713,46446
28.62527,49868
28.63338,51266
28.64150,48232
28.64963,50627
28.65775,48344
28.66588,51767
28.67400,55683
28.68212,48229
28.69025,53828
28.69837,55840
28.70650,63301
28.71462,64450
28.72273,65536
28.73087,60587
28.73898,55624
28.74710,51194
28.75523,46494
28.76335,46412
28.77148,39727
28.77960,42333
28.78772,45513
28.79585,43407
28.80397,45884
28.81210,45911
28.82022,43997
28.82833,41805
28.83647,41596
28.84458,38530
28.85272,37292
28.86083,41440
28.86895,43511
28.87708,45235
28.88520,46164
28.89332,51111
28.90145,47776
28.90957,46429
28.91770,46699
28.92582,41391
28.93393,42049
28.94207,39222
28.95018,41686
28.95832,42591
28.96643,40452
28.97455,43204
28.98268,41109
28.99080,40621
28.99892,40811
29.00705,38196
29.01517,40233
29.02330,40765
29.03142,38435
29.03953,42315
29.04767,39272
29.05578,37782
29.06392,38450
29.07203,42509
29.08015,42945
29.08828,39524
29.09640,41502
29.10453,35954
29.11265,35911
29.12077,39652
29.12890,38480
29.13702,39128
29.14513,36001
29.15327,37097
29.16138,39820
29.16952,39807
29.17763,35496
29.18575,43369
29.19388,48430
29.20200,49721
29.21013,50257
29.21825,50805
29.22637,52579
29.23450,50681
29.24262,49523
29.25075,48095
29.25887,51353
29.26698,45912
29.27512,44668
29.28323,44568
29.29135,42916
29.29948,42025
29.30760,39747
29.31573,38405
29.32385,40168
29.33197,39013
29.34010,35034
29.34822,36379
29.35635,37739
29.36447,42976
29.37258,36714
29.38072,33821
29.38883,37108
29.39695,35336
29.40508,39051
29.41320,40459
29.42133,40029
29.42945,44750
29.43757,35797
29.44570,34962
29.45382,38617
29.46195,36100
29.47007,37934
29.47818,36600
29.48632,35736
29.49443,37145
29.50257,36502
29.51068,43610
29.51880,36172
29.52693,40305
29.53505,39340
29.54317,35616
29.55130,37424
29.55942,35644
29.56755,35433
29.57567,40069
29.58378,40659
29.59192,42353
29.60003,40182
29.60817,43320
29.61628,40155
29.62440,41369
29.63253,37965
29.64065,36273
29.64877,35581
29.65690,35293
29.66502,34737
29.67315,37954
29.68127,37669
29.68938,37878
29.69752,36541
29.70563,37754
29.71377,37259
29.72188,40196
29.73000,40128
29.73813,39741
29.74625,37455
29.75438,35056
29.76250,33603
29.77062,31708
29.77875,35056
29.78687,32203
29.79498,32571
29.80312,31503
29.81123,33381
29.81937,32244
29.82748,31034
29.83560,32196
29.84373,34560
29.85185,35065
29.85998,30573
29.86810,40337
29.87622,40207
29.88435,52264
29.89247,62370
29.90060,67324
29.90872,77602
29.91683,82474
29.92497,81561
29.93308,89137
29.94120,99699
29.94933,107351
29.95745,106914
29.96558,109704
29.97370,119971
29.98182,115556
29.98995,109148
29.99807,106821
30.00620,106355
30.01432,97580
30.02243,91747
30.03057,88686
30.03868,91110
30.04682,80545
30.05493,77184
30.06305,78566
30.07118,70644
30.07930,72761
30.08742,70611
30.09555,70236
30.10367,63478
30.11180,62547
30.11992,59668
30.12803,61713
30.13617,57359
30.14428,56148
30.15242,54105
30.16053,54791
30.16865,51291
30.17678,54688
30.18490,55592
30.19302,55449
30.20115,51169
30.20927,48090
30.21740,53529
30.22552,54953
30.23363,49856
30.24177,48392
30.24988,49032
30.25802,45796
30.26613,47351
30.27425,44448
30.28238,45668
30.29050,48132
30.29863,42946
30.30675,43281
30.31487,44102
30.32300,40957
30.33112,45699
30.33923,44776
30.34737,43819
30.35548,46052
30.36362,42265
30.37173,41390
30.37985,41902
30.38798,37537
30.39610,45425
30.40423,42497
30.41235,41192
30.42047,38637
30.42860,38520
30.43672,42492
30.44483,42027
30.45297,40978
30.46108,40434
30.46922,42766
30.47733,38740
30.48545,38490
30.49358,44105
30.50170,39828
30.50983,38079
30.51795,40409
30.52607,42017
30.53420,38333
30.54232,40864
30.55045,38786
30.55857,41547
30.56668,37162
30.57482,37978
30.58293,43120
30.59105,39606
30.59918,41366
30.60730,38795
30.61543,38762
30.62355,39804
30.63167,36981
30.63980,39504
30.64792,36654
30.65605,39656
30.66417,33653
30.67228,37877
30.68042,33672
30.68853,36660
30.69667,36114
30.70478,36058
30.71290,37938
30.72103,39260
30.72915,37054
30.73727,40650
30.74540,39078
30.75352,36693
30.76165,39255
30.76977,39881
30.77788,43363
30.78602,51819
30.79413,53888
30.80227,61087
30.81038,60469
30.81850,58503
30.82663,53475
30.83475,50633
30.84287,44281
30.85100,45318
30.85912,40089
30.86725,39795
30.87537,38840
30.88348,42129
30.89162,36007
30.89973,37239
30.90787,38002
30.91598,39546
30.92410,38327
30.93223,38304
30.94035,35533
30.94848,36043
30.95660,33932
30.96472,36025
30.97285,39405
30.98097,33877
30.98908,35692
30.99722,38570
31.00533,38171
31.01347,36069
31.02158,36813
31.02970,36490
31.03783,38573
31.04595,37851
31.05408,36843
31.06220,35314
31.07032,41015
31.07845,42914
31.08657,42797
31.09470,44572
31.10282,48548
31.11093,46975
31.11907,46805
31.12718,42503
31.13530,44717
31.14343,43700
31.15155,40083
31.15968,39903
31.16780,45899
31.17592,63136
31.18405,74154
31.19217,94825
31.20030,119476
31.20842,131961
31.21653,136363
31.22467,128272
31.23278,106845
31.24090,87746
31.24903,71085
31.25715,55782
31.26528,48241
31.27340,40556
31.28152,37592
31.28965,37641
31.29777,37884
31.30590,43523
31.31402,41844
31.32213,41577
31.33027,40228
31.33838,39900
31.34652,39202
31.35463,43268
31.36275,41199
31.37088,39144
31.37900,37945
31.38712,37162
31.39525,35593
31.40337,33848
31.41150,38613
31.41962,36102
31.42773,35850
31.43587,38019
31.44398,37912
31.45212,34884
31.46023,36263
31.46835,36970
31.47648,36491
31.48460,36213
31.49272,35911
31.50085,35542
31.50897,38946
31.51710,40526
31.52522,39018
31.53333,38981
31.54147,35936
31.54958,35732
31.55772,37880
31.56583,40272
31.57395,35807
31.58208,37169
31.59020,34966
31.59833,34947
31.60645,35719
31.61457,37751
31.62270,37826
31.63082,34454
31.63893,36131
31.64707,38014
31.65518,38342
31.66332,39685
31.67143,40562
31.67955,44756
31.68768,43631
31.69580,41885
31.70393,43035
31.71205,46709
31.72017,38815
31.72830,40586
31.73642,42610
31.74455,40011
31.75267,34021
31.76078,35728
31.76892,35170
31.77703,37062
31.78515,39311
31.79328,40800
31.80140,36438
31.80953,38457
31.81765,36905
31.82577,40849
31.83390,43758
31.84202,53307
31.85015,52848
31.85827,60405
31.86638,66866
31.87452,74737
31.88263,79977
31.89075,82619
31.89888,83134
31.90700,81865
31.91513,78588
31.92325,72180
31.93137,67771
31.93950,67087
31.94762,64744
31.95575,60391
31.96387,62350
31.97198,58533
31.98012,60180
31.98823,56871
31.99637,59790
32.00448,54818
32.01260,56131
32.02073,56772
32.02885,50551
32.03697,51955
32.04510,53211
32.05322,44960
32.06135,44751
32.06947,41628
32.07758,39402
32.08572,41875
32.09383,40478
32.10197,43885
32.11008,41155
32.11820,40491
32.12633,43154
32.13445,39556
32.14258,39212
32.15070,41826
32.15882,40282
32.16695,42342
32.17507,40966
32.18318,37897
32.19132,38379
32.19943,40463
32.20757,41222
32.21568,40501
32.22380,44679
32.23193,37301
32.24005,39041
32.24818,42030
32.25630,39637
32.26442,38016
32.27255,36342
32.28067,40000
32.28878,41627
32.29692,37698
32.30503,43676
32.31317,36720
32.32128,44718
32.32940,40069
32.33753,38922
32.34565,39098
32.35378,42621
32.36190,38610
32.37002,38806
32.37815,39458
32.38627,34172
32.39440,37965
32.40252,35836
32.41063,38804
32.41877,35489
32.42688,37965
32.43500,37402
32.44313,42749
32.45125,35294
32.45938,37531
32.46750,36254
32.47562,36645
32.48375,36947
32.49187,41730
32.50000,37035
32.50812,37850
32.51623,36831
32.52437,39203
32.53248,40045
32.54062,41049
32.54873,39125
32.55685,38910
32.56498,42417
32.57310,43234
32.58122,43774
32.58935,47978
32.59747,54400
32.60560,53135
32.61372,52474
32.62183,51098
32.62997,44949
32.63808,42693
32.64622,40452
32.65433,43733
32.66245,38297
32.67058,42774
32.67870,40496
32.68682,39428
32.69495,38511
32.70307,37365
32.71120,41402
32.71932,37763
32.72743,37827
32.73557,39441
32.74368,32530
32.75182,37086
32.75993,38783
32.76805,40123
32.77618,35864
32.78430,38119
32.79243,34966
32.80055,35719
32.80867,36369
32.81680,36739
32.82492,35094
32.83303,36612
32.84117,39716
32.84928,38288
32.85742,37045
32.86553,37761
32.87365,34073
32.88178,38060
32.88990,39921
32.89803,44182
32.90615,42687
32.91427,41827
32.92240,43608
32.93052,37100
32.93863,38407
32.94677,38003
32.95488,37835
32.96302,41041
32.97113,43896
32.97925,42873
32.98738,46115
32.99550,49471
33.00363,46266
33.01175,44647
33.01987,44107
33.02800,43065
33.03612,42278
33.04425,43677
33.05237,42185
33.06048,41210
33.06862,42399
33.07673,42217
33.08485,45396
33.09298,43578
33.10110,48886
33.10923,51080
33.11735,56447
33.12547,53078
33.13360,50703
33.14172,45402
33.14985,44544
33.15797,43962
33.16608,45646
33.17422,41448
33.18233,39830
33.19047,38092
33.19858,36466
33.20670,40637
33.21483,42522
33.22295,38982
33.23107,41164
33.23920,34321
33.24732,37972
33.25545,41479
33.26357,40800
33.27168,37891
33.27982,39739
33.28793,37398
33.29607,40167
33.30418,37685
33.31230,36749
33.32043,38000
33.32855,41443
33.33667,36825
33.34480,38363
33.35292,39312
33.36105,38051
33.36917,40926
33.37728,39071
33.38542,37594
33.39353,41937
33.40167,39155
33.40978,38808
33.41790,37707
33.42603,38682
33.43415,34173
33.44228,37692
33.45040,34727
33.45852,41963
33.46665,39880
33.47477,36789
33.48288,39506
33.49102,33678
33.49913,38276
33.50727,37870
33.51538,40134
33.52350,37180
33.53163,38840
33.53975,41308
33.54788,41033
33.55600,42629
33.56412,43751
33.57225,41947
33.58037,41530
33.58850,38593
33.59662,39682
33.60473,39844
33.61287,41351
33.62098,43142
33.62910,36560
33.63723,38280
33.64535,39976
33.65348,38550
33.66160,39402
33.66972,39844
33.67785,42725
33.68597,40095
33.69410,39877
33.70222,45224
33.71033,38105
33.71847,42663
33.72658,41111
33.73470,39824
33.74283,41601
33.75095,42163
33.75908,39764
33.76720,40154
33.77532,44338
33.78345,47246
33.79157,44744
33.79970,43862
33.80782,46311
33.81593,45586
33.82407,44154
33.83218,41999
33.84032,43287
33.84843,42154
33.85655,47924
33.86468,45442
33.87280,44973
33.88092,42674
33.88905,52555
33.89717,46828
33.90530,45416
33.91342,43442
33.92153,43659
33.92967,45045
33.93778,42837
33.94592,45927
33.95403,44939
33.96215,45148
33.97028,40930
33.97840,40795
33.98652,41795
33.99465,39151
34.00277,41474
34.01090,39893
34.01902,40421
34.02713,43332
34.03527,41348
34.04338,41040
34.05152,41719
34.05963,43323
34.06775,39776
34.07588,37254
34.08400,41385
34.09213,35940
34.10025,39967
34.10837,37680
34.11650,38302
34.12462,42986
34.13273,39721
34.14087,40922
34.14898,38650
34.15712,40348
34.16523,42501
34.17335,40891
34.18148,39268
34.18960,42874
34.19773,37680
34.20585,39735
34.21397,39276
34.22210,39187
34.23022,39065
34.23835,39723
34.24647,38951
34.25458,39403
34.26272,37882
34.27083,40225
34.27895,38716
34.28708,40457
34.29520,36062
34.30333,43176
34.31145,39970
34.31957,42631
34.32770,42890
34.33582,40123
34.34395,39780
34.35207,45308
34.36018,40484
34.36832,41217
34.37643,38324
34.38455,38222
34.39268,42140
34.40080,38664
34.40893,37965
34.41705,42753
34.42517,43554
34.43330,41601
34.44142,47973
34.44955,51900
34.45767,57856
34.46578,68349
34.47392,66432
34.48203,77800
34.49017,80320
34.49828,79049
34.50640,81761
34.51453,75953
34.52265,71565
34.53077,68075
34.53890,67826
34.54702,61375
34.55515,61036
34.56327,60208
34.57138,60956
34.57952,55226
34.58763,55425
34.59577,54534
34.60388,52651
34.61200,54371
34.62013,54100
34.62825,51185
34.63638,49126
34.64450,54278
34.65262,56193
34.66075,50341
34.66887,50074
34.67698,52044
34.68512,52256
34.69323,49620
34.70137,49363
34.70948,48265
34.71760,49648
34.72573,49625
34.73385,54286
34.74198,50587
34.75010,45768
34.75822,45192
34.76635,48411
34.77447,45556
34.78258,45055
34.79072,48945
34.79883,47908
34.80697,47241
34.81508,43523
34.82320,41886
34.83133,48628
34.83945,44903
34.84758,45939
34.85570,43729
34.86382,42539
34.87195,43518
34.88007,43602
34.88820,46952
34.89632,44641
34.90443,40910
34.91257,44115
34.92068,41659
34.92880,44988
34.93693,43786
34.94505,46907
34.95318,49790
34.96130,47820
34.96942,46119
34.97755,44286
34.98567,43034
34.99380,47420
35.00192,43308
35.01003,45140
35.01817,44288
35.02628,44688
35.03440,44980
35.04253,39573
35.05065,45432
35.05878,44814
35.06690,42468
35.07502,47373
35.08315,45565
35.09127,44461
35.09940,41547
35.10752,45645
35.11563,45379
35.12377,43823
35.13188,42980
35.14002,44769
35.14813,46649
35.15625,45169
35.16438,43820
35.17250,42045
35.18062,43838
35.18875,42773
35.19687,40650
35.20500,46468
35.21312,41796
35.22123,47852
35.22937,44749
35.23748,42687
35.24562,46993
35.25373,45315
35.26185,47197
35.26998,46099
35.27810,45046
35.28623,46605
35.29435,43810
35.30247,45387
35.31060,44427
35.31872,46485
35.32683,42755
35.33497,40836
35.34308,45899
35.35122,45897
35.35933,44326
35.36745,45066
35.37558,41531
35.38370,48254
35.39183,47197
35.39995,51503
35.40807,54366
35.41620,51934
35.42432,59758
35.43245,60730
35.44057,52675
35.44868,53703
35.45682,52223
35.46493,53387
35.47305,57230
35.48118,54975
35.48930,57192
35.49743,50860
35.50555,53424
35.51367,50746
35.52180,49505
35.52992,53337
35.53805,48775
35.54617,54517
35.55428,50500
35.56242,45986
35.57053,48414
35.57865,50197
35.58678,54202
35.59490,58139
35.60303,55646
35.61115,55463
35.61927,54539
35.62740,48608
35.63552,52253
35.64365,52196
35.65177,48715
35.65988,50937
35.66802,49802
35.67613,46090
35.68427,48678
35.69238,50024
35.70050,48231
35.70863,46307
35.71675,48388
35.72487,50774
35.73300,47943
35.74112,47126
35.74925,52176
35.75737,48584
35.76548,53324
35.77362,52883
35.78173,48765
35.78987,49184
35.79798,52809
35.80610,52225
35.81423,48022
35.82235,48686
35.83047,47011
35.83860,48706
35.84672,54033
35.85485,44008
35.86297,47155
35.87108,47791
35.87922,48889
35.88733,44767
35.89547,46504
35.90358,50163
35.91170,55716
35.91983,48078
35.92795,46529
35.93608,49319
35.94420,46371
35.95232,46062
35.96045,49473
35.96857,50065
35.97668,50645
35.98482,48526
35.99293,48342
36.00107,49805
36.00918,51798
36.01730,50113
36.02543,51025
36.03355,51998
36.04168,51181
36.04980,55962
36.05792,49806
36.06605,52637
36.07417,48615
36.08230,51496
36.09042,45963
36.09853,50540
36.10667,48551
36.11478,48569
36.12290,48549
36.13103,49572
36.13915,49310
36.14728,52899
36.15540,54371
36.16352,51626
36.17165,51475
36.17977,49151
36.18790,49927
36.19602,49287
36.20413,50776
36.21227,51900
36.22038,57962
36.22850,57892
36.23663,61015
36.24475,68613
36.25288,68956
36.26100,67096
36.26912,62815
36.27725,54333
36.28537,54419
36.29350,51701
36.30162,50732
36.30973,50035
36.31787,52396
36.32598,50538
36.33412,53497
36.34223,51128
36.35035,49178
36.35848,50561
36.36660,48431
36.37472,54846
36.38285,52958
36.39097,55387
36.39910,53503
36.40722,54104
36.41533,48830
36.42347,53028
36.43158,51816
36.43972,48042
36.44783,50760
36.45595,49430
36.46408,52704
36.47220,52464
36.48033,47593
36.48845,46960
36.49657,50834
36.50470,48110
36.51282,49057
36.52093,53572
36.52907,51596
36.53718,50481
36.54532,49469
36.55343,50046
36.56155,51998
36.56968,50265
36.57780,50969
36.58593,53392
36.59405,52893
36.60217,56167
36.61030,51018
36.61842,52020
36.62653,49775
36.63467,50964
36.64278,53145
36.65092,52408
36.65903,49854
36.66715,52817
36.67528,47753
36.68340,48441
36.69153,48715
36.69965,48874
36.70777,52852
36.71590,51889
36.72402,55356
36.73215,52796
36.74027,51180
36.74838,49969
36.75652,49085
36.76463,52412
36.77275,47880
36.78088,50987
36.78900,52572
36.79713,53191
36.80525,52849
36.81337,53317
36.82150,47573
36.82962,47178
36.83775,50264
36.84587,55743
36.85398,53340
36.86212,52725
36.87023,53404
36.87835,53077
36.88648,55848
36.89460,57599
36.90273,50936
36.91085,55436
36.91897,53771
36.92710,56373
36.93522,55362
36.94335,56493
36.95147,62165
36.95958,54497
36.96772,59524
36.97583,60608
36.98397,58462
36.99208,61575
37.00020,69112
37.00833,64119
37.01645,73055
37.02457,84908
37.03270,81458
37.04082,74365
37.04895,71520
37.05707,63201
37.06518,63461
37.07332,61055
37.08143,67579
37.08957,54603
37.09768,56950
37.10580,57239
37.11393,58274
37.12205,55609
37.13018,56101
37.13830,57102
37.14642,55283
37.15455,55671
37.16267,58457
37.17078,60147
37.17892,54374
37.18703,55457
37.19517,60655
37.20328,58349
37.21140,59754
37.21953,59920
37.22765,57529
37.23578,59119
37.24390,59591
37.25202,68508
37.26015,74305
37.26827,75763
37.27638,88141
37.28452,90251
37.29263,91947
37.30077,94757
37.30888,89456
37.31700,83690
37.32513,81518
37.33325,76352
37.34138,70587
37.34950,64948
37.35762,68877
37.36575,68074
37.37387,67076
37.38200,65944
37.39012,65665
37.39823,66218
37.40637,64882
37.41448,67465
37.42260,69448
37.43073,63967
37.43885,66953
37.44698,63336
37.45510,59483
37.46322,65433
37.47135,63238
37.47947,64163
37.48760,61863
