C:\MassHunter\GCMS\1\data\20191125_ALKANES\JTB-E18-40-09.D Mon Nov 25 15:39:55 2019
Start of data points
2.09537,111142
2.10348,108534
2.11162,109345
2.11973,107601
2.12785,117638
2.13598,106048
2.14410,103524
2.15222,103208
2.16035,108500
2.16847,210120
2.17660,1236661
2.18472,903605
2.19283,972610
2.20097,2805704
2.20908,8.417669E+07
2.21722,2.961667E+07
2.22533,3.556183E+07
2.23345,3.669257E+07
2.24158,3.489128E+07
2.24970,3.480952E+07
2.25783,4.300838E+07
2.26595,5.98541E+07
2.27407,7.882793E+07
2.28220,1.026632E+08
2.29032,1.294587E+08
2.29843,1.300253E+08
2.30657,1.272066E+08
2.31468,1.265209E+08
2.32282,1.255071E+08
2.33093,1.251196E+08
2.33905,1.260441E+08
2.34718,1.263061E+08
2.35530,1.263901E+08
2.36343,1.26278E+08
2.37155,1.258102E+08
2.37967,1.243777E+08
2.38780,1.179029E+08
2.39592,1.098092E+08
2.40403,1.085761E+08
2.41217,1.175819E+08
2.42028,1.306417E+08
2.42842,1.051146E+08
2.43653,1.01102E+08
2.44465,1.032319E+08
2.45278,1.02943E+08
2.46090,1.029034E+08
2.46903,1.028594E+08
2.47715,1.030124E+08
2.48527,1.030243E+08
2.49340,1.034578E+08
2.50152,1.180367E+08
2.50965,1.332601E+08
2.51777,1.429036E+08
2.52588,1.460839E+08
2.53402,1.463684E+08
2.54213,1.464956E+08
2.55025,1.463297E+08
2.55838,1.461149E+08
2.56650,1.443285E+08
2.57463,1.432014E+08
2.58275,1.430796E+08
2.59087,1.428892E+08
2.59900,1.428712E+08
2.60712,1.423578E+08
2.61525,1.413889E+08
2.62337,1.401793E+08
2.63148,1.384995E+08
2.63962,1.376252E+08
2.64773,1.366353E+08
2.65587,1.355413E+08
2.66398,1.345695E+08
2.67210,1.332125E+08
2.68023,1.325739E+08
2.68835,1.317418E+08
2.69647,1.303437E+08
2.70460,1.29905E+08
2.71272,1.300674E+08
2.72085,1.324856E+08
2.72897,1.298284E+08
2.73708,1.059077E+08
2.74522,9.387557E+07
2.75333,8.57526E+07
2.76147,7.972222E+07
2.76958,7.878386E+07
2.77770,7.828149E+07
2.78583,7.881861E+07
2.79395,8.032693E+07
2.80207,7.753107E+07
2.81020,7.491725E+07
2.81832,7.661066E+07
2.82645,8.587506E+07
2.83457,9.807891E+07
2.84268,1.026119E+08
2.85082,1.032154E+08
2.85893,1.039344E+08
2.86707,1.03848E+08
2.87518,1.032567E+08
2.88330,1.045684E+08
2.89143,1.100682E+08
2.89955,1.16812E+08
2.90768,1.229629E+08
2.91580,1.3267E+08
2.92392,1.418065E+08
2.93205,1.460101E+08
2.94017,1.466514E+08
2.94828,1.445308E+08
2.95642,1.267953E+08
2.96453,9.201542E+07
2.97267,8.184333E+07
2.98078,8.396458E+07
2.98890,8.824529E+07
2.99703,9.067488E+07
3.00515,7.767971E+07
3.01328,6.429525E+07
3.02140,6.094359E+07
3.02952,6.047054E+07
3.03765,6.014932E+07
3.04577,5.943905E+07
3.05388,5.912418E+07
3.06202,5.843202E+07
3.07013,5.834518E+07
3.07827,5.780947E+07
3.08638,5.745882E+07
3.09450,5.721216E+07
3.10263,5.677974E+07
3.11075,5.646913E+07
3.11888,5.623373E+07
3.12700,5.56477E+07
3.13512,5.525688E+07
3.14325,5.468532E+07
3.15137,5.469888E+07
3.15950,5.382959E+07
3.16762,5.368527E+07
3.17573,5.330827E+07
3.18387,5.262381E+07
3.19198,5.237563E+07
3.20010,5.230676E+07
3.20823,5.151408E+07
3.21635,5.111344E+07
3.22448,5.078731E+07
3.23260,5.047267E+07
3.24072,4.99536E+07
3.24885,4.961516E+07
3.25697,4.932503E+07
3.26510,4.89953E+07
3.27322,4.878369E+07
3.28133,4.81798E+07
3.28947,4.805716E+07
3.29758,4.722898E+07
3.30572,4.727726E+07
3.31383,4.699309E+07
3.32195,4.667667E+07
3.33008,4.652237E+07
3.33820,4.616785E+07
3.34632,4.594626E+07
3.35445,4.600638E+07
3.36257,4.574233E+07
3.37070,4.569349E+07
3.37882,4.548988E+07
3.38693,4.528931E+07
3.39507,4.502636E+07
3.40318,4.51211E+07
3.41132,4.503542E+07
3.41943,4.471683E+07
3.42755,4.37778E+07
3.43568,4.27653E+07
3.44380,4.262301E+07
3.45192,4.201626E+07
3.46005,4.161716E+07
3.46817,4.171642E+07
3.47630,4.083022E+07
3.48442,4.101885E+07
3.49253,4.04093E+07
3.50067,4.030884E+07
3.50878,3.977848E+07
3.51692,4.011106E+07
3.52503,3.947791E+07
3.53315,3.864118E+07
3.54128,3.880936E+07
3.54940,3.83106E+07
3.55753,3.746645E+07
3.56565,3.73649E+07
3.57377,3.754259E+07
3.58190,3.699199E+07
3.59002,3.685754E+07
3.59813,3.666068E+07
3.60627,3.650117E+07
3.61438,3.62613E+07
3.62252,3.613614E+07
3.63063,3.56747E+07
3.63875,3.561028E+07
3.64688,3.556824E+07
3.65500,3.536446E+07
3.66313,3.513206E+07
3.67125,3.469098E+07
3.67937,3.466356E+07
3.68750,3.447942E+07
3.69562,3.405636E+07
3.70375,3.401673E+07
3.71187,3.338842E+07
3.71998,3.309728E+07
3.72812,3.301074E+07
3.73623,3.245682E+07
3.74435,3.239258E+07
3.75248,3.257979E+07
3.76060,3.229439E+07
3.76873,3.200418E+07
3.77685,3.195001E+07
3.78497,3.170086E+07
3.79310,3.127235E+07
3.80122,3.078595E+07
3.80935,3.065387E+07
3.81747,3.033297E+07
3.82558,3.019196E+07
3.83372,3.04591E+07
3.84183,3.030482E+07
3.84995,2.997227E+07
3.85808,2.94739E+07
3.86620,2.99027E+07
3.87433,2.954574E+07
3.88245,2.919325E+07
3.89057,2.90874E+07
3.89870,2.825701E+07
3.90682,2.820827E+07
3.91495,2.821757E+07
3.92307,2.799671E+07
3.93118,2.788689E+07
3.93932,2.76006E+07
3.94743,2.759183E+07
3.95557,2.727709E+07
3.96368,2.702331E+07
3.97180,2.69489E+07
3.97993,2.692908E+07
3.98805,2.668911E+07
3.99617,2.673256E+07
4.00430,2.632936E+07
4.01242,2.622818E+07
4.02055,2.608576E+07
4.02867,2.574203E+07
4.03678,2.578034E+07
4.04492,2.577088E+07
4.05303,2.558578E+07
4.06117,2.52859E+07
4.06928,2.537057E+07
4.07740,2.510524E+07
4.08553,2.471808E+07
4.09365,2.445148E+07
4.10178,2.42653E+07
4.10990,2.444795E+07
4.11802,2.402481E+07
4.12615,2.373022E+07
4.13427,2.36433E+07
4.14238,2.350875E+07
4.15052,2.35693E+07
4.15863,2.344156E+07
4.16677,2.327352E+07
4.17488,2.316248E+07
4.18300,2.315279E+07
4.19113,2.287059E+07
4.19925,2.260772E+07
4.20738,2.265743E+07
4.21550,2.252491E+07
4.22362,2.250793E+07
4.23175,2.213028E+07
4.23987,2.21218E+07
4.24798,2.187808E+07
4.25612,2.210747E+07
4.26423,2.15449E+07
4.27237,2.165117E+07
4.28048,2.140363E+07
4.28860,2.145981E+07
4.29673,2.103678E+07
4.30485,2.111123E+07
4.31298,2.072613E+07
4.32110,2.077935E+07
4.32922,2.047566E+07
4.33735,2.055679E+07
4.34547,2.020232E+07
4.35360,2.011538E+07
4.36172,2.017163E+07
4.36983,1.997711E+07
4.37797,2.005012E+07
4.38608,1.982944E+07
4.39420,1.968307E+07
4.40233,1.966614E+07
4.41045,1.935193E+07
4.41858,1.934584E+07
4.42670,1.935304E+07
4.43482,1.933243E+07
4.44295,1.902362E+07
4.45107,1.895792E+07
4.45920,1.887212E+07
4.46732,1.875067E+07
4.47543,1.865071E+07
4.48357,1.853903E+07
4.49168,1.823362E+07
4.49980,1.819791E+07
4.50793,1.81307E+07
4.51605,1.790035E+07
4.52418,1.789848E+07
4.53230,1.784514E+07
4.54042,1.77857E+07
4.54855,1.772912E+07
4.55667,1.763229E+07
4.56480,1.743137E+07
4.57292,1.757597E+07
4.58103,1.743034E+07
4.58917,1.720632E+07
4.59728,1.743421E+07
4.60542,1.708955E+07
4.61353,1.694013E+07
4.62165,1.674146E+07
4.62978,1.676993E+07
4.63790,1.665476E+07
4.64602,1.648111E+07
4.65415,1.64698E+07
4.66227,1.641698E+07
4.67040,1.629423E+07
4.67852,1.594147E+07
4.68663,1.595172E+07
4.69477,1.60802E+07
4.70288,1.597667E+07
4.71102,1.57805E+07
4.71913,1.577794E+07
4.72725,1.570903E+07
4.73538,1.572144E+07
4.74350,1.553713E+07
4.75163,1.550461E+07
4.75975,1.534913E+07
4.76787,1.523584E+07
4.77600,1.519409E+07
4.78412,1.5113E+07
4.79223,1.499642E+07
4.80037,1.500588E+07
4.80848,1.510991E+07
4.81662,1.51492E+07
4.82473,1.501294E+07
4.83285,1.479288E+07
4.84098,1.484164E+07
4.84910,1.473601E+07
4.85723,1.462257E+07
4.86535,1.447033E+07
4.87347,1.444696E+07
4.88160,1.443601E+07
4.88972,1.4385E+07
4.89783,1.427108E+07
4.90597,1.421325E+07
4.91408,1.421601E+07
4.92222,1.405836E+07
4.93033,1.410735E+07
4.93845,1.412745E+07
4.94658,1.395615E+07
4.95470,1.401553E+07
4.96283,1.400555E+07
4.97095,1.374476E+07
4.97907,1.360742E+07
4.98720,1.352843E+07
4.99532,1.343095E+07
5.00345,1.340474E+07
5.01157,1.315713E+07
5.01968,1.336666E+07
5.02782,1.339435E+07
5.03593,1.31503E+07
5.04405,1.312011E+07
5.05218,1.316008E+07
5.06030,1.309222E+07
5.06843,1.283953E+07
5.07655,1.300359E+07
5.08467,1.287256E+07
5.09280,1.289892E+07
5.10092,1.276899E+07
5.10905,1.277842E+07
5.11717,1.274136E+07
5.12528,1.263569E+07
5.13342,1.260551E+07
5.14153,1.268046E+07
5.14967,1.245652E+07
5.15778,1.243454E+07
5.16590,1.235386E+07
5.17403,1.232736E+07
5.18215,1.225166E+07
5.19027,1.224839E+07
5.19840,1.215487E+07
5.20652,1.207943E+07
5.21465,1.211268E+07
5.22277,1.200617E+07
5.23088,1.205684E+07
5.23902,1.187059E+07
5.24713,1.180283E+07
5.25527,1.17819E+07
5.26338,1.169479E+07
5.27150,1.169567E+07
5.27963,1.166789E+07
5.28775,1.157424E+07
5.29587,1.162212E+07
5.30400,1.125109E+07
5.31212,6340186
5.32025,3809912
5.32837,3732312
5.33648,3794970
5.34462,3708677
5.35273,3720400
5.36087,3704774
5.36898,3533185
5.37710,2523295
5.38523,2334486
5.39335,2318917
5.40148,2296048
5.40960,2283065
5.41772,2260373
5.42585,2284581
5.43397,2259534
5.44208,2246372
5.45022,2221412
5.45833,2218859
5.46647,2242992
5.47458,2191961
5.48270,2187361
5.49083,2177213
5.49895,1742116
5.50708,454660
5.51520,182488
5.52332,175964
5.53145,178247
5.53957,189123
5.54768,181977
5.55582,180185
5.56393,178848
5.57207,172238
5.58018,173925
5.58830,157481
5.59643,160290
5.60455,152884
5.61268,167044
5.62080,158531
5.62892,162253
5.63705,164527
5.64517,165254
5.65330,167675
5.66142,174274
5.66953,173149
5.67767,164914
5.68578,160405
5.69390,155394
5.70203,149846
5.71015,143493
5.71828,141444
5.72640,141134
5.73452,144711
5.74265,144324
5.75077,140052
5.75890,145686
5.76702,139535
5.77513,140478
5.78327,142203
5.79138,142020
5.79952,152664
5.80763,133539
5.81575,134932
5.82388,142417
5.83200,149925
5.84012,153499
5.84825,168118
5.85637,183309
5.86450,171043
5.87262,155679
5.88073,146573
5.88887,146812
5.89698,144436
5.90512,154253
5.91323,159968
5.92135,202254
5.92948,247891
5.93760,296524
5.94573,344486
5.95385,382317
5.96197,441551
5.97010,514166
5.97822,597865
5.98633,688450
5.99447,771657
6.00258,780619
6.01072,663259
6.01883,446779
6.02695,265672
6.03508,171938
6.04320,134737
6.05133,135234
6.05945,136984
6.06757,137657
6.07570,132417
6.08382,133752
6.09193,126386
6.10007,125595
6.10818,125073
6.11632,125832
6.12443,121080
6.13255,128034
6.14068,123569
6.14880,124370
6.15693,121112
6.16505,120216
6.17317,115653
6.18130,118714
6.18942,114800
6.19755,114023
6.20567,114445
6.21378,115054
6.22192,118014
6.23003,127869
6.23815,127292
6.24628,125960
6.25440,115867
6.26253,116083
6.27065,116791
6.27877,116091
6.28690,113438
6.29502,112263
6.30315,124145
6.31127,110661
6.31938,114320
6.32752,119268
6.33563,113388
6.34375,111267
6.35188,116743
6.36000,118185
6.36813,108005
6.37625,113361
6.38437,117254
6.39250,120344
6.40062,117437
6.40875,113714
6.41687,115600
6.42498,113943
6.43312,108725
6.44123,114267
6.44937,117767
6.45748,119853
6.46560,115035
6.47373,107932
6.48185,109428
6.48997,105371
6.49810,112074
6.50622,113011
6.51435,111891
6.52247,110450
6.53058,115660
6.53872,108509
6.54683,109670
6.55497,112376
6.56308,115858
6.57120,111442
6.57933,112027
6.58745,114638
6.59558,109066
6.60370,108465
6.61182,112575
6.61995,110591
6.62807,109301
6.63618,111467
6.64432,113535
6.65243,106274
6.66057,104199
6.66868,105494
6.67680,104369
6.68493,112661
6.69305,110758
6.70118,111908
6.70930,113001
6.71742,115315
6.72555,112028
6.73367,101831
6.74178,107283
6.74992,109325
6.75803,104066
6.76617,112682
6.77428,105859
6.78240,101630
6.79053,105718
6.79865,103642
6.80678,103561
6.81490,117287
6.82302,109409
6.83115,111539
6.83927,117960
6.84740,132913
6.85552,149711
6.86363,189717
6.87177,223619
6.87988,240181
6.88800,279723
6.89613,365346
6.90425,548203
6.91238,741145
6.92050,786385
6.92862,609392
6.93675,353646
6.94487,189112
6.95300,133328
6.96112,113226
6.96923,114191
6.97737,104518
6.98548,109326
6.99362,120574
7.00173,130103
7.00985,137058
7.01798,142767
7.02610,143696
7.03422,136075
7.04235,113067
7.05047,107532
7.05860,99394
7.06672,97433
7.07483,102090
7.08297,97836
7.09108,101856
7.09922,105289
7.10733,96806
7.11545,99615
7.12358,95337
7.13170,97241
7.13982,109929
7.14795,107108
7.15607,120150
7.16420,121320
7.17232,121648
7.18043,115571
7.18857,107900
7.19668,102831
7.20482,95389
7.21293,104976
7.22105,107153
7.22918,97316
7.23730,99194
7.24543,97422
7.25355,95002
7.26167,103824
7.26980,94114
7.27792,103040
7.28603,93724
7.29417,100284
7.30228,118675
7.31042,133533
7.31853,171366
7.32665,203531
7.33478,203722
7.34290,181787
7.35103,147908
7.35915,118138
7.36727,103813
7.37540,97639
7.38352,102395
7.39163,105643
7.39977,106474
7.40788,98043
7.41602,104566
7.42413,95845
7.43225,95963
7.44038,97790
7.44850,103921
7.45663,99517
7.46475,98850
7.47287,103047
7.48100,98844
7.48912,120889
7.49725,131384
7.50537,161549
7.51348,186778
7.52162,224715
7.52973,282513
7.53785,307715
7.54598,319037
7.55410,271173
7.56223,212480
7.57035,156514
7.57847,121194
7.58660,105118
7.59472,99369
7.60285,99323
7.61097,95187
7.61908,94624
7.62722,96103
7.63533,91472
7.64347,94666
7.65158,87691
7.65970,92059
7.66783,93702
7.67595,100308
7.68407,93614
7.69220,89250
7.70032,95249
7.70845,94622
7.71657,91972
7.72468,86758
7.73282,92875
7.74093,93881
7.74907,88359
7.75718,86081
7.76530,87660
7.77343,89532
7.78155,85192
7.78967,91521
7.79780,93517
7.80592,104084
7.81405,120466
7.82217,141564
7.83028,170431
7.83842,195727
7.84653,198870
7.85467,167231
7.86278,133543
7.87090,113865
7.87903,98091
7.88715,96548
7.89528,92616
7.90340,89167
7.91152,85518
7.91965,86038
7.92777,89458
7.93588,94140
7.94402,91392
7.95213,88380
7.96027,86130
7.96838,89196
7.97650,93574
7.98463,92072
7.99275,94472
8.00088,93156
8.00900,96781
8.01712,104248
8.02525,97917
8.03337,106684
8.04150,91525
8.04962,90570
8.05773,85308
8.06587,88191
8.07398,89018
8.08210,87161
8.09023,87589
8.09835,91383
8.10648,86975
8.11460,98442
8.12272,94520
8.13085,91426
8.13897,95514
8.14710,93998
8.15522,98865
8.16333,90965
8.17147,98715
8.17958,85237
8.18770,86441
8.19583,87082
8.20395,86099
8.21208,90758
8.22020,89351
8.22832,86880
8.23645,83990
8.24457,83611
8.25270,91190
8.26082,81657
8.26893,82410
8.27707,87568
8.28518,86253
8.29332,85255
8.30143,80742
8.30955,88184
8.31768,82196
8.32580,84086
8.33392,89716
8.34205,84656
8.35017,84770
8.35830,86030
8.36642,88119
8.37453,88302
8.38267,87161
8.39078,92422
8.39892,88755
8.40703,86521
8.41515,83650
8.42328,84947
8.43140,82465
8.43952,81907
8.44765,89266
8.45577,86477
8.46390,83746
8.47202,80353
8.48013,83085
8.48827,82001
8.49638,81839
8.50452,80101
8.51263,86588
8.52075,79659
8.52888,84700
8.53700,81222
8.54513,81047
8.55325,82146
8.56137,84299
8.56950,81963
8.57762,81317
8.58573,81242
8.59387,84110
8.60198,78825
8.61012,87339
8.61823,84736
8.62635,80514
8.63448,84351
8.64260,81359
8.65073,78055
8.65885,85149
8.66697,84683
8.67510,77378
8.68322,82482
8.69135,84842
8.69947,84660
8.70758,77955
8.71572,83656
8.72383,86369
8.73195,108770
8.74008,126243
8.74820,150519
8.75633,162582
8.76445,147059
8.77257,120788
8.78070,97730
8.78882,91608
8.79695,87855
8.80507,82177
8.81318,81941
8.82132,79217
8.82943,81475
8.83755,81757
8.84568,76168
8.85380,79635
8.86193,79423
8.87005,76753
8.87817,81597
8.88630,74571
8.89442,78315
8.90255,77261
8.91067,77131
8.91878,79619
8.92692,79406
8.93503,81630
8.94317,81967
8.95128,80229
8.95940,75677
8.96753,79264
8.97565,76798
8.98377,79196
8.99190,82457
9.00002,80721
9.00815,84284
9.01627,88692
9.02438,79665
9.03252,85306
9.04063,82046
9.04877,80153
9.05688,79728
9.06500,81964
9.07313,82369
9.08125,79332
9.08938,76829
9.09750,79805
9.10562,75065
9.11375,78402
9.12187,78452
9.12998,77713
9.13812,80167
9.14623,79893
9.15437,76622
9.16248,76856
9.17060,81946
9.17873,74472
9.18685,76648
9.19498,77779
9.20310,75284
9.21122,75114
9.21935,74347
9.22747,78568
9.23558,72245
9.24372,71344
9.25183,72759
9.25997,71441
9.26808,72586
9.27620,75230
9.28433,77041
9.29245,77842
9.30058,82936
9.30870,73466
9.31682,71935
9.32495,75716
9.33307,77369
9.34120,72698
9.34932,73347
9.35743,75721
9.36557,70897
9.37368,76542
9.38180,75370
9.38993,75573
9.39805,71987
9.40618,70505
9.41430,75534
9.42242,70147
9.43055,72852
9.43867,68645
9.44680,80613
9.45492,71205
9.46303,73096
9.47117,73145
9.47928,72980
9.48742,67404
9.49553,73852
9.50365,78461
9.51178,78162
9.51990,83467
9.52802,80507
9.53615,88185
9.54427,80981
9.55240,81880
9.56052,76521
9.56863,75315
9.57677,71052
9.58488,83780
9.59302,75767
9.60113,80772
9.60925,87203
9.61738,88832
9.62550,82787
9.63362,74749
9.64175,72907
9.64987,68696
9.65800,72030
9.66612,69225
9.67423,66137
9.68237,71477
9.69048,69666
9.69862,70588
9.70673,69005
9.71485,66942
9.72298,70394
9.73110,66326
9.73923,66684
9.74735,67777
9.75547,68413
9.76360,64360
9.77172,72062
9.77983,69596
9.78797,65449
9.79608,66513
9.80422,67571
9.81233,72000
9.82045,64943
9.82858,70371
9.83670,66962
9.84483,67583
9.85295,64522
9.86107,67923
9.86920,67038
9.87732,70617
9.88543,67273
9.89357,67500
9.90168,66868
9.90982,67497
9.91793,74470
9.92605,68453
9.93418,71007
9.94230,71136
9.95043,69332
9.95855,71358
9.96667,74701
9.97480,72075
9.98292,76173
9.99105,77988
9.99917,83687
10.00728,98095
10.01542,109325
10.02353,117964
10.03165,130455
10.03978,141993
10.04790,147077
10.05603,130209
10.06415,105372
10.07227,93298
10.08040,75401
10.08852,73135
10.09665,69009
10.10477,65162
10.11288,70251
10.12102,70958
10.12913,72816
10.13727,65828
10.14538,66381
10.15350,68533
10.16163,67885
10.16975,63533
10.17787,68649
10.18600,66668
10.19412,70260
10.20225,68862
10.21037,75851
10.21848,78162
10.22662,68292
10.23473,75555
10.24287,70168
10.25098,62936
10.25910,68155
10.26723,69054
10.27535,64528
10.28347,66219
10.29160,73708
10.29972,66396
10.30785,69170
10.31597,69868
10.32408,74751
10.33222,80569
10.34033,76706
10.34847,70970
10.35658,71519
10.36470,68859
10.37283,65448
10.38095,69436
10.38908,73740
10.39720,64041
10.40532,67990
10.41345,64518
10.42157,60385
10.42968,60406
10.43782,66837
10.44593,61670
10.45407,62431
10.46218,62100
10.47030,69852
10.47843,66899
10.48655,59121
10.49468,63497
10.50280,61785
10.51092,68541
10.51905,71320
10.52717,79468
10.53530,85161
10.54342,82846
10.55153,74280
10.55967,67137
10.56778,64927
10.57590,71030
10.58403,63045
10.59215,61684
10.60028,61378
10.60840,57948
10.61652,58936
10.62465,58131
10.63277,59611
10.64090,63745
10.64902,63051
10.65713,60048
10.66527,62766
10.67338,63220
10.68150,63885
10.68963,59398
10.69775,68264
10.70588,65698
10.71400,66879
10.72212,65934
10.73025,60282
10.73837,63310
10.74650,58838
10.75462,56075
10.76273,63411
10.77087,61575
10.77898,59604
10.78712,60275
10.79523,57816
10.80335,61671
10.81148,58069
10.81960,60046
10.82772,65490
10.83585,60910
10.84397,54906
10.85210,59791
10.86022,58254
10.86833,58146
10.87647,59607
10.88458,59963
10.89272,60260
10.90083,59491
10.90895,62067
10.91708,58482
10.92520,61067
10.93332,59339
10.94145,59992
10.94957,60291
10.95770,65063
10.96582,57519
10.97393,55885
10.98207,59129
10.99018,58963
10.99832,60013
11.00643,63854
11.01455,62641
11.02268,64623
11.03080,59342
11.03893,58664
11.04705,61204
11.05517,62892
11.06330,70147
11.07142,86722
11.07953,110760
11.08767,132703
11.09578,147265
11.10392,145047
11.11203,126633
11.12015,110624
11.12828,89562
11.13640,77770
11.14453,69515
11.15265,65183
11.16077,63771
11.16890,61371
11.17702,63158
11.18515,61528
11.19327,60821
11.20138,55445
11.20952,57089
11.21763,56433
11.22575,58805
11.23388,67169
11.24200,64507
11.25013,61966
11.25825,59195
11.26637,56846
11.27450,56476
11.28262,62846
11.29075,58874
11.29887,58960
11.30698,60572
11.31512,68081
11.32323,67405
11.33137,71182
11.33948,68388
11.34760,68356
11.35573,64942
11.36385,69108
11.37197,57655
11.38010,56918
11.38822,54664
11.39635,56946
11.40447,54219
11.41258,55987
11.42072,56216
11.42883,56693
11.43697,58349
11.44508,61374
11.45320,54369
11.46133,56933
11.46945,55093
11.47757,55370
11.48570,55049
11.49382,58078
11.50195,56413
11.51007,57828
11.51818,58313
11.52632,56986
11.53443,56280
11.54257,56287
11.55068,59790
11.55880,57742
11.56693,61958
11.57505,72667
11.58318,71841
11.59130,94015
11.59942,112031
11.60755,132069
11.61567,142507
11.62378,131576
11.63192,118977
11.64003,85394
11.64817,72372
11.65628,68860
11.66440,58619
11.67253,67723
11.68065,72040
11.68878,88548
11.69690,116876
11.70502,143955
11.71315,157964
11.72127,151587
11.72938,125032
11.73752,100028
11.74563,74194
11.75377,66935
11.76188,57149
11.77000,57519
11.77813,59545
11.78625,58143
11.79438,55040
11.80250,53721
11.81062,53622
11.81875,58277
11.82687,55903
11.83500,50826
11.84312,63250
11.85123,53261
11.85937,52993
11.86748,49969
11.87560,54584
11.88373,56893
11.89185,54039
11.89998,51264
11.90810,51996
11.91622,59924
11.92435,51897
11.93247,55532
11.94060,60781
11.94872,57973
11.95683,59041
11.96497,58615
11.97308,54170
11.98122,58710
11.98933,55655
11.99745,56240
12.00558,55003
12.01370,50254
12.02182,50738
12.02995,55713
12.03807,55402
12.04620,62124
12.05432,63822
12.06243,57084
12.07057,56820
12.07868,62305
12.08682,53574
12.09493,55155
12.10305,56371
12.11118,56990
12.11930,51887
12.12742,53020
12.13555,54395
12.14367,52114
12.15180,53248
12.15992,50363
12.16803,52693
12.17617,51185
12.18428,54351
12.19242,54323
12.20053,54118
12.20865,55213
12.21678,56058
12.22490,50488
12.23303,53098
12.24115,46512
12.24927,57203
12.25740,51308
12.26552,51943
12.27363,54251
12.28177,53196
12.28988,53242
12.29802,53331
12.30613,54640
12.31425,51494
12.32238,49642
12.33050,54098
12.33863,53622
12.34675,52723
12.35487,50022
12.36300,51632
12.37112,57090
12.37925,50978
12.38737,53445
12.39548,49922
12.40362,51126
12.41173,59706
12.41985,54393
12.42798,57928
12.43610,56886
12.44423,51224
12.45235,52185
12.46047,49234
12.46860,52090
12.47672,51456
12.48485,50231
12.49297,52835
12.50108,50360
12.50922,52199
12.51733,49259
12.52545,55108
12.53358,50349
12.54170,59187
12.54983,59658
12.55795,66261
12.56607,68595
12.57420,69671
12.58232,66995
12.59045,60623
12.59857,61842
12.60668,53039
12.61482,51583
12.62293,51053
12.63107,50568
12.63918,57684
12.64730,48824
12.65543,55379
12.66355,49970
12.67167,51509
12.67980,50190
12.68792,48985
12.69605,54295
12.70417,54456
12.71228,59926
12.72042,55727
12.72853,64749
12.73667,65755
12.74478,62350
12.75290,62294
12.76103,54689
12.76915,50263
12.77727,49063
12.78540,49928
12.79352,48832
12.80165,49644
12.80977,49411
12.81788,52528
12.82602,55149
12.83413,54413
12.84227,51598
12.85038,53007
12.85850,47602
12.86663,50792
12.87475,56552
12.88288,46495
12.89100,51072
12.89912,58649
12.90725,50781
12.91537,50683
12.92348,54300
12.93162,54927
12.93973,52066
12.94787,53708
12.95598,57627
12.96410,55369
12.97223,56370
12.98035,58304
12.98848,63288
12.99660,66199
13.00472,59786
13.01285,58138
13.02097,56726
13.02910,50347
13.03722,49203
13.04533,51091
13.05347,53899
13.06158,57176
13.06970,67261
13.07783,73278
13.08595,82537
13.09408,84342
13.10220,80853
13.11032,72263
13.11845,64741
13.12657,55527
13.13470,52299
13.14282,51657
13.15093,52961
13.15907,51629
13.16718,49807
13.17530,46737
13.18343,51415
13.19155,53283
13.19968,42430
13.20780,49434
13.21592,50684
13.22405,50038
13.23217,52215
13.24030,48349
13.24842,45881
13.25653,48087
13.26467,49078
13.27278,49753
13.28092,49578
13.28903,51579
13.29715,50015
13.30528,50620
13.31340,51502
13.32152,56252
13.32965,54130
13.33777,53538
13.34590,54533
13.35402,58916
13.36213,60654
13.37027,54140
13.37838,53628
13.38652,51451
13.39463,49065
13.40275,51798
13.41088,50502
13.41900,49027
13.42713,53719
13.43525,47957
13.44337,47982
13.45150,51736
13.45962,47268
13.46773,48548
13.47587,50256
13.48398,45490
13.49212,50644
13.50023,49737
13.50835,49296
13.51648,46544
13.52460,45247
13.53273,49610
13.54085,42305
13.54897,51556
13.55710,47592
13.56522,48227
13.57333,57121
13.58147,49649
13.58958,47602
13.59772,52139
13.60583,52058
13.61395,53116
13.62208,53186
13.63020,50900
13.63833,53343
13.64645,50142
13.65457,49509
13.66270,56203
13.67082,48721
13.67895,49538
13.68707,48702
13.69518,46099
13.70332,45226
13.71143,48198
13.71955,46622
13.72768,48738
13.73580,52313
13.74393,45641
13.75205,47969
13.76017,51116
13.76830,49578
13.77642,50308
13.78455,51584
13.79267,54615
13.80078,50249
13.80892,51340
13.81703,45276
13.82515,44755
13.83328,48681
13.84140,52484
13.84953,46103
13.85765,47165
13.86577,53130
13.87390,49045
13.88202,48158
13.89015,46769
13.89827,51929
13.90638,45540
13.91452,50108
13.92263,50021
13.93077,55473
13.93888,49022
13.94700,50978
13.95513,49802
13.96325,45673
13.97137,49040
13.97950,49090
13.98762,50829
13.99575,51394
14.00387,53025
14.01198,54872
14.02012,52358
14.02823,47917
14.03637,51525
14.04448,51161
14.05260,54739
14.06073,47748
14.06885,46767
14.07698,52478
14.08510,51717
14.09322,56519
14.10135,55039
14.10947,50417
14.11758,52096
14.12572,63354
14.13383,70280
14.14197,76191
14.15008,84802
14.15820,96132
14.16633,107360
14.17445,107210
14.18258,112744
14.19070,89056
14.19882,81593
14.20695,66878
14.21507,60093
14.22318,57841
14.23132,50864
14.23943,52490
14.24757,50969
14.25568,51604
14.26380,48477
14.27193,45720
14.28005,50242
14.28818,50083
14.29630,46697
14.30442,51965
14.31255,48392
14.32067,47571
14.32880,46520
14.33692,44499
14.34503,43386
14.35317,44328
14.36128,47848
14.36940,42242
14.37753,47441
14.38565,43275
14.39378,46324
14.40190,44467
14.41002,49684
14.41815,45666
14.42627,45932
14.43440,47422
14.44252,47393
14.45063,48478
14.45877,45138
14.46688,45042
14.47502,47563
14.48313,51666
14.49125,47800
14.49938,49916
14.50750,40387
14.51562,43237
14.52375,46268
14.53187,50217
14.54000,47368
14.54812,56076
14.55623,47860
14.56437,47431
14.57248,48528
14.58062,44723
14.58873,44633
14.59685,52456
14.60498,46187
14.61310,52261
14.62122,44178
14.62935,48319
14.63747,44130
14.64560,41886
14.65372,45028
14.66183,47406
14.66997,45555
14.67808,49418
14.68622,44128
14.69433,41293
14.70245,43629
14.71058,46611
14.71870,48156
14.72683,48335
14.73495,46007
14.74307,45874
14.75120,45645
14.75932,54172
14.76743,55878
14.77557,83540
14.78368,138351
14.79182,236676
14.79993,393615
14.80805,534428
14.81618,579650
14.82430,496288
14.83243,355202
14.84055,223260
14.84867,142785
14.85680,97034
14.86492,74601
14.87305,71343
14.88117,62749
14.88928,59382
14.89742,58970
14.90553,54896
14.91365,52360
14.92178,49283
14.92990,52127
14.93803,51374
14.94615,49117
14.95427,54476
14.96240,49552
14.97052,51017
14.97865,51002
14.98677,53618
14.99488,47248
15.00302,49091
15.01113,50060
15.01925,48213
15.02738,51930
15.03550,54768
15.04363,48446
15.05175,48618
15.05987,45992
15.06800,45975
15.07612,50414
15.08425,51429
15.09237,57223
15.10048,83677
15.10862,107478
15.11673,150392
15.12487,178393
15.13298,185182
15.14110,162543
15.14923,133535
15.15735,94182
15.16547,74822
15.17360,65683
15.18172,57906
15.18985,55920
15.19797,55958
15.20608,51452
15.21422,52736
15.22233,55100
15.23047,54573
15.23858,48572
15.24670,54556
15.25483,51925
15.26295,50608
15.27107,48862
15.27920,53828
15.28732,49771
15.29545,55343
15.30357,50368
15.31168,51294
15.31982,49440
15.32793,52029
15.33607,46480
15.34418,50080
15.35230,50255
15.36043,48444
15.36855,51291
15.37668,50829
15.38480,52846
15.39292,54044
15.40105,52711
15.40917,52340
15.41728,48906
15.42542,59294
15.43353,50842
15.44167,50686
15.44978,51294
15.45790,46975
15.46603,51899
15.47415,47350
15.48228,48273
15.49040,44435
15.49852,48929
15.50665,46838
15.51477,49145
15.52290,44419
15.53102,44467
15.53913,44534
15.54727,44367
15.55538,48196
15.56350,44712
15.57163,42680
15.57975,44042
15.58788,46046
15.59600,46955
15.60412,44951
15.61225,43323
15.62037,45638
15.62850,44714
15.63662,46883
15.64473,43089
15.65287,46074
15.66098,49860
15.66910,50921
15.67723,41981
15.68535,45582
15.69348,42151
15.70160,49625
15.70972,40740
15.71785,42926
15.72597,48399
15.73410,45972
15.74222,50114
15.75033,52805
15.75847,58624
15.76658,57830
15.77472,59623
15.78283,57787
15.79095,60033
15.79908,59076
15.80720,51090
15.81532,49935
15.82345,47878
15.83157,43974
15.83970,49691
15.84782,46754
15.85593,45998
15.86407,43703
15.87218,41783
15.88032,45511
15.88843,47331
15.89655,48194
15.90468,44726
15.91280,46138
15.92093,46365
15.92905,46459
15.93717,42490
15.94530,45534
15.95342,42656
15.96153,45484
15.96967,48732
15.97778,47211
15.98592,50500
15.99403,55531
16.00215,64871
16.01028,76102
16.01840,87011
16.02653,87904
16.03465,85800
16.04277,80767
16.05090,68068
16.05902,59071
16.06713,52006
16.07527,47503
16.08338,48992
16.09152,44566
16.09963,44282
16.10775,43592
16.11588,51209
16.12400,42179
16.13213,45238
16.14025,44959
16.14837,46612
16.15650,45936
16.16462,43639
16.17275,45945
16.18087,45199
16.18898,47875
16.19712,50872
16.20523,53912
16.21335,63248
16.22148,75470
16.22960,83535
16.23773,82620
16.24585,83762
16.25397,78716
16.26210,64720
16.27022,57381
16.27835,48188
16.28647,46241
16.29458,44053
16.30272,50877
16.31083,42196
16.31895,47187
16.32708,47279
16.33520,45401
16.34333,42419
16.35145,42923
16.35957,44376
16.36770,41866
16.37582,41038
16.38395,45417
16.39207,45415
16.40018,44200
16.40832,42778
16.41643,44069
16.42457,51367
16.43268,56614
16.44080,63165
16.44893,80885
16.45705,105341
16.46517,113112
16.47330,116969
16.48142,109402
16.48955,80342
16.49767,62141
16.50578,54311
16.51392,49326
16.52203,46801
16.53017,46395
16.53828,47117
16.54640,45003
16.55453,46791
16.56265,41509
16.57078,48598
16.57890,43579
16.58702,50600
16.59515,43970
16.60327,45047
16.61138,44909
16.61952,42140
16.62763,44693
16.63577,46507
16.64388,41726
16.65200,43589
16.66013,42189
16.66825,43034
16.67638,41110
16.68450,41656
16.69262,39620
16.70075,40692
16.70887,41654
16.71700,47241
16.72512,41408
16.73323,39895
16.74137,40800
16.74948,42805
16.75760,41550
16.76573,41823
16.77385,41618
16.78198,42859
16.79010,44037
16.79822,43488
16.80635,45539
16.81447,38692
16.82260,42212
16.83072,39663
16.83883,44192
16.84697,48751
16.85508,40325
16.86320,41172
16.87133,42719
16.87945,41461
16.88758,42661
16.89570,44410
16.90382,41587
16.91195,45792
16.92007,42810
16.92820,48152
16.93632,40423
16.94443,39612
16.95257,39566
16.96068,45091
16.96882,48386
16.97693,41216
16.98505,44380
16.99318,40489
17.00130,41396
17.00942,42099
17.01755,43061
17.02567,40854
17.03380,39100
17.04192,44197
17.05003,40367
17.05817,39064
17.06628,40821
17.07442,39826
17.08253,40313
17.09065,43961
17.09878,39873
17.10690,45811
17.11502,41710
17.12315,44284
17.13127,45748
17.13940,42361
17.14752,42001
17.15563,41492
17.16377,46348
17.17188,42274
17.18002,49494
17.18813,39685
17.19625,43249
17.20438,43424
17.21250,41350
17.22063,42930
17.22875,41821
17.23687,40867
17.24500,43758
17.25312,48701
17.26123,43567
17.26937,43062
17.27748,39924
17.28562,40096
17.29373,43485
17.30185,41986
17.30998,42898
17.31810,43767
17.32623,42978
17.33435,44376
17.34247,43917
17.35060,41768
17.35872,41387
17.36685,41646
17.37497,40530
17.38308,43283
17.39122,40701
17.39933,40836
17.40745,40541
17.41558,43526
17.42370,43212
17.43183,40827
17.43995,40240
17.44807,40131
17.45620,43891
17.46432,40343
17.47245,37963
17.48057,43390
17.48868,42258
17.49682,43677
17.50493,42930
17.51305,43413
17.52118,42909
17.52930,40552
17.53743,43175
17.54555,43373
17.55367,45506
17.56180,42870
17.56992,44347
17.57805,43430
17.58617,43549
17.59428,43880
17.60242,42218
17.61053,51082
17.61867,42040
17.62678,42567
17.63490,41528
17.64303,46562
17.65115,45090
17.65927,44619
17.66740,41117
17.67552,40796
17.68365,43323
17.69177,49050
17.69988,42156
17.70802,43023
17.71613,39126
17.72427,44248
17.73238,38124
17.74050,46370
17.74863,44707
17.75675,39910
17.76488,43945
17.77300,47010
17.78112,43964
17.78925,40032
17.79737,43046
17.80548,43343
17.81362,41470
17.82173,44309
17.82987,42452
17.83798,46213
17.84610,41822
17.85423,43549
17.86235,43691
17.87048,44071
17.87860,41613
17.88672,41672
17.89485,47397
17.90297,43138
17.91108,43754
17.91922,42254
17.92733,43353
17.93547,44679
17.94358,44025
17.95170,44949
17.95983,44541
17.96795,45451
17.97608,50082
17.98420,49417
17.99232,48111
18.00045,50906
18.00857,48844
18.01670,52878
18.02482,49237
18.03293,43197
18.04107,42850
18.04918,48377
18.05730,46121
18.06543,43925
18.07355,42005
18.08168,48900
18.08980,46316
18.09792,47427
18.10605,43467
18.11417,45136
18.12230,42323
18.13042,44612
18.13853,49923
18.14667,43622
18.15478,42563
18.16290,46037
18.17103,43432
18.17915,38799
18.18728,38315
18.19540,39914
18.20352,42725
18.21165,40560
18.21977,50107
18.22790,44895
18.23602,45575
18.24413,51043
18.25227,48232
18.26038,48225
18.26852,48437
18.27663,43628
18.28475,43151
18.29288,41558
18.30100,44489
18.30912,45817
18.31725,41075
18.32537,38075
18.33350,43792
18.34162,42967
18.34973,44140
18.35787,43671
18.36598,36127
18.37412,41278
18.38223,40474
18.39035,42212
18.39848,43348
18.40660,37124
18.41473,40362
18.42285,42766
18.43097,42703
18.43910,42164
18.44722,42765
18.45533,44705
18.46347,46284
18.47158,40036
18.47972,43119
18.48783,44270
18.49595,37944
18.50408,42123
18.51220,41871
18.52033,41312
18.52845,41585
18.53657,38485
18.54470,37026
18.55282,38619
18.56093,41332
18.56907,38991
18.57718,38215
18.58532,37904
18.59343,39123
18.60155,41537
18.60968,39350
18.61780,37113
18.62593,39304
18.63405,38094
18.64217,38603
18.65030,42615
18.65842,40079
18.66655,38399
18.67467,41679
18.68278,40877
18.69092,38935
18.69903,41553
18.70715,36986
18.71528,38692
18.72340,38743
18.73153,39053
18.73965,40657
18.74777,41308
18.75590,43441
18.76402,44033
18.77215,45593
18.78027,42470
18.78838,44430
18.79652,45176
18.80463,53419
18.81277,58978
18.82088,75150
18.82900,97773
18.83713,105617
18.84525,123846
18.85337,127894
18.86150,137395
18.86962,132009
18.87775,140604
18.88587,141419
18.89398,138862
18.90212,131550
18.91023,128862
18.91837,131754
18.92648,122148
18.93460,117847
18.94273,114330
18.95085,117974
18.95897,110459
18.96710,109596
18.97522,115097
18.98335,101883
18.99147,103792
18.99958,103194
19.00772,92903
19.01583,91969
19.02397,90316
19.03208,92031
19.04020,90229
19.04833,91065
19.05645,86050
19.06458,89016
19.07270,88521
19.08082,85314
19.08895,85771
19.09707,92379
19.10518,80544
19.11332,92138
19.12143,80368
19.12957,84617
19.13768,80279
19.14580,77775
19.15393,73878
19.16205,69903
19.17018,71247
19.17830,72833
19.18642,66318
19.19455,72716
19.20267,66009
19.21080,62901
19.21892,63513
19.22703,63113
19.23517,63139
19.24328,67155
19.25140,61306
19.25953,69100
19.26765,71052
19.27578,83251
19.28390,84558
19.29202,87243
19.30015,94376
19.30827,90230
19.31640,87553
19.32452,87988
19.33263,93720
19.34077,86602
19.34888,87382
19.35700,77957
19.36513,70217
19.37325,62200
19.38138,55699
19.38950,54854
19.39762,59997
19.40575,57522
19.41387,61637
19.42200,61559
19.43012,62829
19.43823,63674
19.44637,58167
19.45448,56594
19.46262,54214
19.47073,49384
19.47885,49937
19.48698,50574
19.49510,46015
19.50322,45737
19.51135,48405
19.51947,46059
19.52760,46807
19.53572,43972
19.54383,43591
19.55197,45399
19.56008,45141
19.56822,49536
19.57633,47341
19.58445,47223
19.59258,48889
19.60070,45473
19.60882,47909
19.61695,47114
19.62507,52088
19.63320,54257
19.64132,62442
19.64943,64408
19.65757,73285
19.66568,66835
19.67382,60908
19.68193,58848
19.69005,53710
19.69818,47034
19.70630,42676
19.71443,43673
19.72255,45502
19.73067,46895
19.73880,43930
19.74692,50428
19.75503,42590
19.76317,42017
19.77128,46779
19.77942,49714
19.78753,46429
19.79565,43446
19.80378,48766
19.81190,44263
19.82003,46920
19.82815,46866
19.83627,45337
19.84440,43950
19.85252,52938
19.86065,48927
19.86877,47754
19.87688,46562
19.88502,47005
19.89313,48945
19.90125,48082
19.90938,45790
19.91750,48499
19.92563,46841
19.93375,41697
19.94187,39262
19.95000,41094
19.95812,44660
19.96625,37937
19.97437,43048
19.98248,44505
19.99062,48412
19.99873,44121
20.00685,41183
20.01498,42173
20.02310,41155
20.03123,38622
20.03935,47199
20.04747,44974
20.05560,41308
20.06372,43508
20.07185,40012
20.07997,42763
20.08808,46820
20.09622,42877
20.10433,40270
20.11247,40921
20.12058,40067
20.12870,40735
20.13683,40562
20.14495,44223
20.15307,40283
20.16120,42615
20.16932,46582
20.17745,45070
20.18557,42339
20.19368,44435
20.20182,44367
20.20993,43300
20.21807,50013
20.22618,53083
20.23430,58173
20.24243,57578
20.25055,62202
20.25868,65993
20.26680,54804
20.27492,54764
20.28305,53206
20.29117,47697
20.29928,47613
20.30742,47002
20.31553,44083
20.32367,43775
20.33178,45571
20.33990,41977
20.34803,45136
20.35615,43305
20.36428,41278
20.37240,41391
20.38052,44812
20.38865,48324
20.39677,48749
20.40488,49937
20.41302,49931
20.42113,48607
20.42927,50478
20.43738,50150
20.44550,48705
20.45363,46094
20.46175,45262
20.46988,44995
20.47800,43234
20.48612,47125
20.49425,45844
20.50237,43284
20.51050,42483
20.51862,40291
20.52673,40177
20.53487,38583
20.54298,40495
20.55110,36631
20.55923,37993
20.56735,45309
20.57548,45735
20.58360,43972
20.59172,46382
20.59985,38666
20.60797,38958
20.61610,41815
20.62422,41314
20.63233,39348
20.64047,45510
20.64858,37176
20.65670,38988
20.66483,43961
20.67295,44948
20.68108,37297
20.68920,41662
20.69732,41036
20.70545,40989
20.71357,41664
20.72170,41843
20.72982,41260
20.73793,39746
20.74607,41353
20.75418,44563
20.76232,53330
20.77043,78265
20.77855,122520
20.78668,179627
20.79480,255504
20.80292,336235
20.81105,362480
20.81917,331576
20.82730,248680
20.83542,172458
20.84353,118936
20.85167,78618
20.85978,60191
20.86792,57589
20.87603,53350
20.88415,52727
20.89228,49288
20.90040,50070
20.90853,50810
20.91665,50357
20.92477,51174
20.93290,48519
20.94102,45273
20.94913,48292
20.95727,43740
20.96538,45781
20.97352,47948
20.98163,44158
20.98975,45355
20.99788,41966
21.00600,45275
21.01413,45873
21.02225,41835
21.03037,41189
21.03850,45249
21.04662,47184
21.05473,48961
21.06287,45838
21.07098,42436
21.07912,43328
21.08723,43149
21.09535,40972
21.10348,44298
21.11160,43953
21.11973,44609
21.12785,42883
21.13597,46547
21.14410,49114
21.15222,43342
21.16035,41169
21.16847,43520
21.17658,42248
21.18472,41458
21.19283,44694
21.20095,43927
21.20908,41566
21.21720,43678
21.22533,43968
21.23345,43569
21.24157,42829
21.24970,46279
21.25782,41769
21.26595,43240
21.27407,41546
21.28218,39203
21.29032,41362
21.29843,40019
21.30657,38734
21.31468,45955
21.32280,44256
21.33093,46053
21.33905,40454
21.34717,41369
21.35530,41425
21.36342,42045
21.37155,42646
21.37967,42910
21.38778,40110
21.39592,40433
21.40403,40992
21.41217,42073
21.42028,41312
21.42840,42288
21.43653,43100
21.44465,41576
21.45277,41622
21.46090,39997
21.46902,43042
21.47715,42699
21.48527,43215
21.49338,44377
21.50152,40709
21.50963,41567
21.51777,41182
21.52588,41112
21.53400,44063
21.54213,47180
21.55025,49886
21.55838,59587
21.56650,58348
21.57462,59989
21.58275,56436
21.59087,60720
21.59898,53507
21.60712,52138
21.61523,48437
21.62337,46762
21.63148,42408
21.63960,45157
21.64773,42480
21.65585,42471
21.66398,39673
21.67210,41071
21.68022,44461
21.68835,41778
21.69647,41170
21.70458,40973
21.71272,42597
21.72083,44742
21.72897,45996
21.73708,45775
21.74520,47608
21.75333,44880
21.76145,51622
21.76958,49852
21.77770,48379
21.78582,49585
21.79395,46497
21.80207,43866
21.81020,42254
21.81832,41923
21.82643,42014
21.83457,40460
21.84268,45002
21.85080,42157
21.85893,41605
21.86705,50358
21.87518,53746
21.88330,69906
21.89142,92307
21.89955,135713
21.90767,161754
21.91580,192529
21.92392,205857
21.93203,197703
21.94017,180748
21.94828,137014
21.95642,103286
21.96453,70913
21.97265,56162
21.98078,47323
21.98890,46508
21.99702,45845
22.00515,42740
22.01327,48690
22.02140,44064
22.02952,44299
22.03763,48945
22.04577,48515
22.05388,50781
22.06202,51365
22.07013,55199
22.07825,56001
22.08638,58952
22.09450,55555
22.10263,49331
22.11075,54259
22.11887,49379
22.12700,43918
22.13512,42859
22.14323,44955
22.15137,43454
22.15948,41685
22.16762,44064
22.17573,41707
22.18385,46293
22.19198,50956
22.20010,57110
22.20823,65074
22.21635,72466
22.22447,80198
22.23260,80905
22.24072,82075
22.24883,68954
22.25697,62067
22.26508,53114
22.27322,51690
22.28133,51883
22.28945,44233
22.29758,45756
22.30570,44282
22.31383,49970
22.32195,53499
22.33007,50652
22.33820,53711
22.34632,51197
22.35445,48067
22.36257,50570
22.37068,47911
22.37882,47198
22.38693,47245
22.39505,46437
22.40318,49290
22.41130,51969
22.41943,50678
22.42755,43423
22.43567,48445
22.44380,44215
22.45192,45250
22.46005,39574
22.46817,42554
22.47628,48132
22.48442,46671
22.49253,39872
22.50065,41399
22.50878,43665
22.51690,40325
22.52503,41028
22.53315,44035
22.54127,40568
22.54940,43220
22.55752,40136
22.56565,44103
22.57377,43919
22.58188,42298
22.59002,41462
22.59813,42416
22.60627,44049
22.61438,38275
22.62250,43274
22.63063,41711
22.63875,44052
22.64687,40861
22.65500,45506
22.66312,41298
22.67125,36929
22.67937,39641
22.68748,39721
22.69562,40176
22.70373,37897
22.71187,41000
22.71998,43664
22.72810,37534
22.73623,42061
22.74435,41432
22.75248,45307
22.76060,45542
22.76872,40535
22.77685,43335
22.78497,44454
22.79308,44826
22.80122,40052
22.80933,40647
22.81747,37620
22.82558,43576
22.83370,41556
22.84183,41967
22.84995,38463
22.85808,36867
22.86620,40023
22.87432,40084
22.88245,38646
22.89057,41665
22.89868,39523
22.90682,44048
22.91493,42064
22.92307,42241
22.93118,40525
22.93930,41775
22.94743,41522
22.95555,42208
22.96368,43723
22.97180,41449
22.97992,40331
22.98805,42713
22.99617,42767
23.00430,41445
23.01242,43519
23.02053,45622
23.02867,41916
23.03678,41072
23.04490,42613
23.05303,42190
23.06115,40115
23.06928,38227
23.07740,36817
23.08552,37526
23.09365,43640
23.10177,39256
23.10990,34092
23.11802,36789
23.12613,38229
23.13427,36857
23.14238,37531
23.15052,40714
23.15863,39099
23.16675,38125
23.17488,41720
23.18300,40878
23.19112,40238
23.19925,38678
23.20737,41657
23.21550,41157
23.22362,38930
23.23173,41453
23.23987,43055
23.24798,38781
23.25612,39438
23.26423,37067
23.27235,42788
23.28048,40663
23.28860,41313
23.29672,38473
23.30485,37265
23.31297,39273
23.32110,38341
23.32922,39429
23.33733,39537
23.34547,39730
23.35358,36825
23.36172,38162
23.36983,40231
23.37795,35445
23.38608,41431
23.39420,37700
23.40233,38027
23.41045,35017
23.41857,37635
23.42670,37109
23.43482,40212
23.44293,35922
23.45107,41646
23.45918,42871
23.46732,41067
23.47543,42422
23.48355,41344
23.49168,45574
23.49980,48185
23.50793,46960
23.51605,48845
23.52417,47479
23.53230,48730
23.54042,46260
23.54853,47275
23.55667,41630
23.56478,41549
23.57292,39967
23.58103,42363
23.58915,45834
23.59728,39373
23.60540,43764
23.61353,43695
23.62165,41387
23.62977,45873
23.63790,40809
23.64602,41236
23.65415,47932
23.66227,46445
23.67038,44428
23.67852,37541
23.68663,42235
23.69475,37734
23.70288,38578
23.71100,38874
23.71913,37691
23.72725,41472
23.73537,39971
23.74350,40223
23.75162,42609
23.75975,43871
23.76787,40962
23.77598,44037
23.78412,50062
23.79223,44884
23.80037,48336
23.80848,48285
23.81660,42264
23.82473,41616
23.83285,43996
23.84097,41478
23.84910,36396
23.85722,45480
23.86535,40053
23.87347,40310
23.88158,38645
23.88972,39279
23.89783,41637
23.90597,40976
23.91408,39113
23.92220,39685
23.93033,42801
23.93845,44461
23.94657,41331
23.95470,40423
23.96282,43597
23.97095,39595
23.97907,36444
23.98718,41543
23.99532,35492
24.00343,42021
24.01157,39324
24.01968,37042
24.02780,39908
24.03593,38803
24.04405,37121
24.05218,41587
24.06030,39379
24.06842,38245
24.07655,40163
24.08467,40260
24.09278,38395
24.10092,36628
24.10903,36740
24.11717,38755
24.12528,46993
24.13340,55790
24.14153,57449
24.14965,60362
24.15778,61857
24.16590,69015
24.17402,59882
24.18215,58403
24.19027,51790
24.19840,50423
24.20652,41620
24.21463,41136
24.22277,40446
24.23088,37144
24.23900,43351
24.24713,46281
24.25525,47744
24.26338,53120
24.27150,54764
24.27962,62743
24.28775,69783
24.29587,77932
24.30400,86937
24.31212,84970
24.32023,82437
24.32837,78911
24.33648,67679
24.34460,56539
24.35273,52025
24.36085,42866
24.36898,45713
24.37710,42726
24.38522,44892
24.39335,43221
24.40147,42590
24.40960,46567
24.41772,43019
24.42583,39488
24.43397,40004
24.44208,42719
24.45022,44379
24.45833,42469
24.46645,42340
24.47458,43916
24.48270,42605
24.49082,40904
24.49895,41819
24.50707,37890
24.51520,39980
24.52332,44359
24.53143,40038
24.53957,42834
24.54768,39320
24.55582,39994
24.56393,41421
24.57205,40161
24.58018,40526
24.58830,39615
24.59642,44636
24.60455,44013
24.61267,47676
24.62080,43976
24.62892,43448
24.63703,46531
24.64517,44996
24.65328,42475
24.66142,41974
24.66953,41171
24.67765,40879
24.68578,39946
24.69390,40391
24.70203,38714
24.71015,37994
24.71827,39432
24.72640,39163
24.73452,39842
24.74263,42227
24.75077,39759
24.75888,41910
24.76702,37135
24.77513,39208
24.78325,38749
24.79138,41255
24.79950,44770
24.80763,41148
24.81575,37061
24.82387,38234
24.83200,39154
24.84012,36493
24.84825,41943
24.85637,40070
24.86448,41568
24.87262,39641
24.88073,37395
24.88885,38994
24.89698,40225
24.90510,36655
24.91323,35928
24.92135,36899
24.92947,38048
24.93760,36991
24.94572,37731
24.95385,42864
24.96197,37158
24.97008,36617
24.97822,38897
24.98633,41878
24.99445,35588
25.00258,37517
25.01070,35351
25.01883,38998
25.02695,35590
25.03507,35905
25.04320,41301
25.05132,37268
25.05945,39638
25.06757,44342
25.07568,39987
25.08382,37075
25.09193,38926
25.10007,37587
25.10818,36790
25.11630,36505
25.12443,37517
25.13255,33130
25.14067,38572
25.14880,37281
25.15692,42556
25.16505,40395
25.17317,37467
25.18128,38381
25.18942,38348
25.19753,39594
25.20567,42206
25.21378,40044
25.22190,35402
25.23003,40074
25.23815,38436
25.24628,34524
25.25440,34315
25.26252,38665
25.27065,35425
25.27877,35575
25.28688,37818
25.29502,36439
25.30313,40046
25.31127,39279
25.31938,40437
25.32750,40714
25.33563,40948
25.34375,37772
25.35188,35625
25.36000,40932
25.36812,43203
25.37625,48575
25.38437,53773
25.39248,74530
25.40062,101117
25.40873,121323
25.41687,159512
25.42498,187037
25.43310,189199
25.44123,180988
25.44935,158657
25.45748,127565
25.46560,96139
25.47372,74800
25.48185,58347
25.48997,48923
25.49810,45473
25.50622,51100
25.51433,42636
25.52247,42130
25.53058,39964
25.53870,39855
25.54683,41931
25.55495,38713
25.56308,40752
25.57120,39603
25.57932,45145
25.58745,39783
25.59557,39334
25.60370,35155
25.61182,37547
25.61993,39222
25.62807,37039
25.63618,35080
25.64432,38013
25.65243,37434
25.66055,38174
25.66868,37077
25.67680,35769
25.68492,38905
25.69305,37975
25.70117,33977
25.70930,36747
25.71742,37675
25.72553,36827
25.73367,37447
25.74178,37004
25.74992,37552
25.75803,42152
25.76615,37458
25.77428,40435
25.78240,41430
25.79052,35790
25.79865,35642
25.80677,34471
25.81490,34008
25.82302,37002
25.83113,36064
25.83927,33982
25.84738,35751
25.85552,40361
25.86363,37402
25.87175,34741
25.87988,35229
25.88800,36013
25.89613,34153
25.90425,31799
25.91237,39191
25.92050,38173
25.92862,37852
25.93673,35488
25.94487,38828
25.95298,36543
25.96112,32255
25.96923,35960
25.97735,35213
25.98548,37310
25.99360,32649
26.00173,35749
26.00985,37207
26.01797,35354
26.02610,35958
26.03422,36565
26.04233,35412
26.05047,36270
26.05858,32268
26.06672,36601
26.07483,33621
26.08295,37030
26.09108,37567
26.09920,36530
26.10733,33844
26.11545,40940
26.12357,36032
26.13170,42770
26.13982,42676
26.14795,48426
26.15607,44487
26.16418,43822
26.17232,41441
26.18043,39691
26.18855,38416
26.19668,35028
26.20480,39980
26.21293,39318
26.22105,35938
26.22917,34082
26.23730,34508
26.24542,35300
26.25355,34674
26.26167,35170
26.26978,36775
26.27792,35060
26.28603,35913
26.29417,36243
26.30228,38544
26.31040,43148
26.31853,32357
26.32665,34684
26.33477,33770
26.34290,36068
26.35102,34871
26.35915,30794
26.36727,36859
26.37538,33778
26.38352,35561
26.39163,33511
26.39977,33665
26.40788,33870
26.41600,33321
26.42413,34810
26.43225,34774
26.44037,33727
26.44850,32299
26.45662,38884
26.46475,34443
26.47287,32771
26.48098,32809
26.48912,35771
26.49723,36099
26.50537,33075
26.51348,34566
26.52160,37528
26.52973,34973
26.53785,32847
26.54598,33412
26.55410,31615
26.56222,36291
26.57035,37203
26.57847,35600
26.58658,32069
26.59472,31345
26.60283,38279
26.61097,35354
26.61908,35897
26.62720,33813
26.63533,34560
26.64345,37972
26.65158,40157
26.65970,35305
26.66782,36822
26.67595,36824
26.68407,35805
26.69220,35488
26.70032,33562
26.70843,34437
26.71657,34979
26.72468,35422
26.73280,44618
26.74093,59160
26.74905,79540
26.75718,115218
26.76530,185307
26.77342,262898
26.78155,316394
26.78967,338020
26.79780,302489
26.80592,248897
26.81403,188248
26.82217,124157
26.83028,81780
26.83840,55746
26.84653,50775
26.85465,45118
26.86278,47761
26.87090,43971
26.87902,41479
26.88715,42562
26.89527,42059
26.90340,43182
26.91152,41220
26.91963,44986
26.92777,43813
26.93588,42657
26.94402,43168
26.95213,43114
26.96025,42946
26.96838,40027
26.97650,38860
26.98462,45016
26.99275,45460
27.00087,46904
27.00900,44654
27.01712,45814
27.02523,47253
27.03337,45664
27.04148,45493
27.04962,50880
27.05773,44522
27.06585,41136
27.07398,45156
27.08210,41204
27.09022,42097
27.09835,42823
27.10647,42696
27.11460,52206
27.12272,77838
27.13083,119614
27.13897,197674
27.14708,335238
27.15522,499485
27.16333,657832
27.17145,724129
27.17958,673019
27.18770,542822
27.19583,370873
27.20395,246048
27.21207,157304
27.22020,110609
27.22832,81446
27.23643,69533
27.24457,66724
27.25268,61559
27.26082,55622
27.26893,54187
27.27705,54380
27.28518,50530
27.29330,50391
27.30143,45379
27.30955,51284
27.31767,49087
27.32580,50892
27.33392,45774
27.34205,42551
27.35017,50323
27.35828,47629
27.36642,47808
27.37453,50577
27.38265,47846
27.39078,46823
27.39890,49782
27.40703,45550
27.41515,43862
27.42327,43649
27.43140,41508
27.43952,44191
27.44765,40372
27.45577,45211
27.46388,43938
27.47202,46605
27.48013,44024
27.48827,41011
27.49638,40574
27.50450,44169
27.51263,47847
27.52075,42535
27.52887,42310
27.53700,44714
27.54512,48058
27.55325,39226
27.56137,40830
27.56948,40547
27.57762,42826
27.58573,39868
27.59387,45713
27.60198,39368
27.61010,41950
27.61823,38916
27.62635,42189
27.63447,41875
27.64260,40595
27.65072,41521
27.65885,40550
27.66697,40613
27.67508,38960
27.68322,37841
27.69133,40926
27.69947,39820
27.70758,39494
27.71570,41861
27.72383,39813
27.73195,36303
27.74008,41244
27.74820,41780
27.75632,38668
27.76445,34905
27.77257,37313
27.78068,46525
27.78882,38912
27.79693,39595
27.80507,39125
27.81318,36316
27.82130,43963
27.82943,41279
27.83755,41593
27.84568,41139
27.85380,39198
27.86192,39037
27.87005,38257
27.87817,38383
27.88628,37681
27.89442,35817
27.90253,37577
27.91067,38051
27.91878,38538
27.92690,43233
27.93503,43550
27.94315,38413
27.95128,37495
27.95940,43183
27.96752,37433
27.97565,36866
27.98377,35966
27.99190,33416
28.00002,38465
28.00813,36783
28.01627,39077
28.02438,36676
28.03250,37501
28.04063,34041
28.04875,37581
28.05688,39575
28.06500,36445
28.07312,35652
28.08125,36375
28.08937,40031
28.09750,37046
28.10562,38409
28.11373,36629
28.12187,39852
28.12998,38744
28.13812,40452
28.14623,37105
28.15435,37656
28.16248,38174
28.17060,36881
28.17872,35095
28.18685,36178
28.19497,36820
28.20310,35292
28.21122,37200
28.21933,38567
28.22747,37527
28.23558,37526
28.24372,38339
28.25183,34787
28.25995,34073
28.26808,35091
28.27620,35886
28.28432,34850
28.29245,36004
28.30057,38981
28.30870,35191
28.31682,39804
28.32493,39148
28.33307,38193
28.34118,37275
28.34932,37496
28.35743,42698
28.36555,38366
28.37368,41552
28.38180,46797
28.38993,44247
28.39805,38703
28.40617,39735
28.41430,34666
28.42242,38047
28.43053,35400
28.43867,34939
28.44678,36379
28.45492,39859
28.46303,37258
28.47115,39986
28.47928,38448
28.48740,42473
28.49553,40795
28.50365,38335
28.51177,38543
28.51990,41851
28.52802,39385
28.53615,40584
28.54427,38863
28.55238,32533
28.56052,34904
28.56863,36353
28.57675,35723
28.58488,39200
28.59300,39311
28.60113,38898
28.60925,36742
28.61737,34270
28.62550,35647
28.63362,36202
28.64175,37488
28.64987,36645
28.65798,40140
28.66612,38396
28.67423,42011
28.68235,39780
28.69048,40401
28.69860,41395
28.70673,42731
28.71485,41244
28.72297,37616
28.73110,38129
28.73922,34850
28.74735,36931
28.75547,36146
28.76358,37426
28.77172,38463
28.77983,37918
28.78797,36725
28.79608,35521
28.80420,42006
28.81233,37731
28.82045,36611
28.82857,35649
28.83670,38255
28.84482,39966
28.85295,39982
28.86107,37957
28.86918,35209
28.87732,35123
28.88543,35143
28.89357,37139
28.90168,38190
28.90980,37854
28.91793,35459
28.92605,35487
28.93417,39111
28.94230,36301
28.95042,38373
28.95855,37433
28.96667,39817
28.97478,37407
28.98292,37013
28.99103,39799
28.99917,40053
29.00728,36838
29.01540,35457
29.02353,40689
29.03165,39016
29.03978,38853
29.04790,36427
29.05602,34787
29.06415,32891
29.07227,35459
29.08038,38431
29.08852,38089
29.09663,38581
29.10477,41468
29.11288,48359
29.12100,48976
29.12913,58508
29.13725,65782
29.14538,72862
29.15350,70825
29.16162,68682
29.16975,65945
29.17787,49030
29.18600,48907
29.19412,39899
29.20223,41679
29.21037,38698
29.21848,42601
29.22660,41469
29.23473,42002
29.24285,39560
29.25098,36396
29.25910,36351
29.26722,39272
29.27535,36707
29.28347,36500
29.29160,39732
29.29972,41002
29.30783,39904
29.31597,39883
29.32408,40819
29.33220,35720
29.34033,38761
29.34845,39237
29.35658,42424
29.36470,39354
29.37282,41032
29.38095,38159
29.38907,39354
29.39720,37292
29.40532,40604
29.41343,40655
29.42157,38098
29.42968,38353
29.43782,37316
29.44593,36098
29.45405,36875
29.46218,38197
29.47030,36827
29.47842,34454
29.48655,38513
29.49467,36263
29.50280,39943
29.51092,35803
29.51903,41671
29.52717,39707
29.53528,37946
29.54342,37550
29.55153,35725
29.55965,36749
29.56778,41764
29.57590,45122
29.58403,40410
29.59215,39784
29.60027,41888
29.60840,44347
29.61652,40588
29.62463,40499
29.63277,39703
29.64088,42807
29.64902,37175
29.65713,37121
29.66525,40462
29.67338,39711
29.68150,39234
29.68963,39333
29.69775,36481
29.70587,40790
29.71400,38376
29.72212,42024
29.73023,43723
29.73837,38366
29.74648,40517
29.75462,37716
29.76273,36644
29.77085,42553
29.77898,35714
29.78710,40340
29.79523,35791
29.80335,39772
29.81147,37923
29.81960,39513
29.82772,38259
29.83585,36779
29.84397,38128
29.85208,38003
29.86022,36764
29.86833,36267
29.87645,38049
29.88458,41499
29.89270,49029
29.90083,63411
29.90895,79598
29.91707,96227
29.92520,98085
29.93332,104399
29.94145,110664
29.94957,110080
29.95768,112693
29.96582,114700
29.97393,125034
29.98205,121773
29.99018,119497
29.99830,122982
30.00643,127461
30.01455,120890
30.02267,118022
30.03080,120348
30.03892,121972
30.04705,130317
30.05517,128890
30.06328,127739
30.07142,124460
30.07953,120292
30.08767,123057
30.09578,120015
30.10390,118471
30.11203,113373
30.12015,105918
30.12827,105103
30.13640,105403
30.14452,95026
30.15265,92658
30.16077,97482
30.16888,95254
30.17702,88739
30.18513,88581
30.19327,86634
30.20138,90218
30.20950,82007
30.21763,80537
30.22575,79162
30.23388,81503
30.24200,80503
30.25012,83487
30.25825,78444
30.26637,74166
30.27448,77411
30.28262,72134
30.29073,71983
30.29887,71958
30.30698,68216
30.31510,65058
30.32323,64098
30.33135,64605
30.33948,68633
30.34760,66290
30.35572,64814
30.36385,60634
30.37197,58870
30.38008,61899
30.38822,64558
30.39633,61504
30.40447,59127
30.41258,60034
30.42070,57613
30.42883,52211
30.43695,56602
30.44508,53957
30.45320,60964
30.46132,59720
30.46945,61677
30.47757,66491
30.48570,61637
30.49382,62942
30.50193,57510
30.51007,57350
30.51818,54658
30.52630,54600
30.53443,49776
30.54255,54908
30.55068,50211
30.55880,56734
30.56692,55187
30.57505,51379
30.58317,51159
30.59130,52769
30.59942,54358
30.60753,50807
30.61567,45087
30.62378,49008
30.63192,52558
30.64003,50861
30.64815,45401
30.65628,48012
30.66440,49374
30.67252,48101
30.68065,52206
30.68877,48229
30.69690,53037
30.70502,49320
30.71313,46453
30.72127,50259
30.72938,45815
30.73752,49303
30.74563,46751
30.75375,45658
30.76188,46538
30.77000,47195
30.77812,49085
30.78625,54851
30.79437,52470
30.80250,53388
30.81062,51846
30.81873,48053
30.82687,48149
30.83498,47992
30.84312,52800
30.85123,49824
30.85935,49001
30.86748,53800
30.87560,56661
30.88373,58435
30.89185,51042
30.89997,52497
30.90810,47325
30.91622,45633
30.92433,54302
30.93247,47075
30.94058,46685
30.94872,50888
30.95683,46735
30.96495,49250
30.97308,46865
30.98120,44875
30.98933,49459
30.99745,45057
31.00557,46520
31.01370,43945
31.02182,45688
31.02995,44714
31.03807,43370
31.04618,46968
31.05432,52791
31.06243,52788
31.07055,58250
31.07868,49791
31.08680,51892
31.09493,49363
31.10305,51251
31.11117,47484
31.11930,51795
31.12742,51932
31.13555,48108
31.14367,46644
31.15178,47619
31.15992,50249
31.16803,48716
31.17615,47060
31.18428,47014
31.19240,54432
31.20053,51479
31.20865,49374
31.21677,52423
31.22490,53671
31.23302,45767
31.24115,49885
31.24927,48366
31.25738,45783
31.26552,41776
31.27363,43939
31.28177,43864
31.28988,44259
31.29800,41237
31.30613,48657
31.31425,42996
31.32237,42814
31.33050,42173
31.33862,45571
31.34675,40595
31.35487,46596
31.36298,44571
31.37112,42696
31.37923,43765
31.38737,42672
31.39548,42835
31.40360,47453
31.41173,42117
31.41985,44672
31.42797,40786
31.43610,43985
31.44422,47904
31.45235,43949
31.46047,44035
31.46858,44718
31.47672,47628
31.48483,43557
31.49297,46047
31.50108,42183
31.50920,42815
31.51733,46957
31.52545,43984
31.53358,45491
31.54170,45555
31.54982,45551
31.55795,45163
31.56607,44070
31.57418,49059
31.58232,44893
31.59043,43938
31.59857,46106
31.60668,45656
31.61480,43960
31.62293,46001
31.63105,47578
31.63918,45572
31.64730,43656
31.65542,44941
31.66355,43702
31.67167,46965
31.67980,42372
31.68792,46278
31.69603,51006
31.70417,45600
31.71228,46846
31.72040,49231
31.72853,52568
31.73665,54956
31.74478,49650
31.75290,46314
31.76102,45696
31.76915,48465
31.77727,46911
31.78540,45890
31.79352,44069
31.80163,42914
31.80977,48155
31.81788,40168
31.82600,39408
31.83413,43666
31.84225,50281
31.85038,45879
31.85850,51673
31.86662,47205
31.87475,45278
31.88287,47018
31.89100,42101
31.89912,45561
31.90723,44255
31.91537,49351
31.92348,45310
31.93162,45097
31.93973,47794
31.94785,47470
31.95598,47979
31.96410,47678
31.97222,51791
31.98035,47152
31.98847,53028
31.99660,50330
32.00472,47753
32.01283,49909
32.02097,46728
32.02908,44867
32.03722,45879
32.04533,48391
32.05345,45090
32.06158,44003
32.06970,51579
32.07783,47320
32.08595,45985
32.09407,46399
32.10220,45139
32.11032,44711
32.11843,44557
32.12657,46871
32.13468,42730
32.14282,40860
32.15093,43193
32.15905,46207
32.16718,45845
32.17530,45992
32.18343,44030
32.19155,43749
32.19967,48122
32.20780,48670
32.21592,45875
32.22403,45937
32.23217,49705
32.24028,47052
32.24842,45052
32.25653,48350
32.26465,41739
32.27278,49864
32.28090,43446
32.28903,46669
32.29715,46061
32.30527,49426
32.31340,43922
32.32152,50432
32.32965,48567
32.33777,51719
32.34588,46671
32.35402,47821
32.36213,47559
32.37025,47038
32.37838,48465
32.38650,48567
32.39463,43551
32.40275,45523
32.41087,44996
32.41900,48119
32.42712,46057
32.43525,46767
32.44337,45833
32.45148,45159
32.45962,44033
32.46773,43252
32.47585,46650
32.48398,47186
32.49210,44494
32.50023,46608
32.50835,43914
32.51647,46803
32.52460,45285
32.53272,47170
32.54085,44065
32.54897,47030
32.55708,46838
32.56522,46891
32.57333,47527
32.58147,45509
32.58958,46039
32.59770,43660
32.60583,41534
32.61395,49788
32.62207,51862
32.63020,51426
32.63832,50029
32.64645,50843
32.65457,53922
32.66268,49986
32.67082,48171
32.67893,49513
32.68707,45903
32.69518,49186
32.70330,49934
32.71143,51436
32.71955,49542
32.72768,52925
32.73580,48499
32.74392,50700
32.75205,46299
32.76017,52589
32.76828,45709
32.77642,50645
32.78453,46792
32.79267,46391
32.80078,48228
32.80890,44007
32.81703,47317
32.82515,49545
32.83328,45731
32.84140,48602
32.84952,50532
32.85765,46180
32.86577,48844
32.87388,45079
32.88202,46171
32.89013,48857
32.89827,46465
32.90638,55471
32.91450,50097
32.92263,43684
32.93075,47954
32.93888,44543
32.94700,48607
32.95512,48401
32.96325,45887
32.97137,44587
32.97950,47204
32.98762,44886
32.99573,45379
33.00387,45610
33.01198,44480
33.02010,47945
33.02823,44061
33.03635,49036
33.04448,47456
33.05260,44199
33.06072,48897
33.06885,45729
33.07697,45169
33.08510,47600
33.09322,45490
33.10133,53938
33.10947,52196
33.11758,52587
33.12572,48443
33.13383,47501
33.14195,46826
33.15008,47154
33.15820,44677
33.16632,46521
33.17445,44474
33.18257,48708
33.19070,48107
33.19882,49066
33.20693,47831
33.21507,47913
33.22318,49680
33.23132,44378
33.23943,46521
33.24755,44442
33.25568,43717
33.26380,45483
33.27192,45653
33.28005,47719
33.28817,43780
33.29630,46257
33.30442,44488
33.31253,49036
33.32067,49002
33.32878,50470
33.33692,48799
33.34503,48967
33.35315,46150
33.36128,47894
33.36940,50182
33.37753,46679
33.38565,43880
33.39377,47045
33.40190,46515
33.41002,50068
33.41813,46673
33.42627,49442
33.43438,45954
33.44252,46837
33.45063,51891
33.45875,47242
33.46688,45442
33.47500,45426
33.48313,47118
33.49125,43598
33.49937,46623
33.50750,46323
33.51562,47683
33.52373,46811
33.53187,50181
33.53998,47064
33.54812,49638
33.55623,46156
33.56435,45830
33.57248,49569
33.58060,47786
33.58873,50672
33.59685,45579
33.60497,52098
33.61310,46068
33.62122,50801
33.62935,50737
33.63747,51348
33.64558,54432
33.65372,52201
33.66183,52625
33.66995,49919
33.67808,48616
33.68620,48316
33.69433,49866
33.70245,47743
33.71057,47895
33.71870,47756
33.72682,50614
33.73495,47040
33.74307,47842
33.75118,47099
33.75932,50905
33.76743,49314
33.77557,46842
33.78368,50200
33.79180,50099
33.79993,54355
33.80805,51081
33.81617,52320
33.82430,52137
33.83242,51273
33.84055,45643
33.84867,49400
33.85678,48616
33.86492,52179
33.87303,50208
33.88117,56319
33.88928,52882
33.89740,51968
33.90553,49771
33.91365,49840
33.92178,51864
33.92990,47793
33.93802,52857
33.94615,49449
33.95427,51160
33.96238,50539
33.97052,53724
33.97863,51833
33.98677,52333
33.99488,53979
34.00300,53905
34.01113,51823
34.01925,53365
34.02738,52920
34.03550,56729
34.04362,48083
34.05175,49494
34.05987,50562
34.06798,52199
34.07612,49007
34.08423,53371
34.09237,50846
34.10048,51784
34.10860,53144
34.11673,50335
34.12485,50993
34.13298,51949
34.14110,52222
34.14922,52100
34.15735,55071
34.16547,59045
34.17360,58995
34.18172,60521
34.18983,62112
34.19797,63497
34.20608,64469
34.21420,55484
34.22233,52580
34.23045,52692
34.23858,54800
34.24670,53714
34.25482,54937
34.26295,51362
34.27107,47094
34.27920,51504
34.28732,52311
34.29543,51632
34.30357,53958
34.31168,49654
34.31980,53593
34.32793,50480
34.33605,53702
34.34418,58237
34.35230,52132
34.36042,51842
34.36855,52814
34.37667,54464
34.38480,53267
34.39292,51935
34.40103,55472
34.40917,52665
34.41728,51512
34.42542,51640
34.43353,54102
34.44165,55634
34.44978,54999
34.45790,52637
34.46602,53456
34.47415,57702
34.48227,56002
34.49040,56893
34.49852,59582
34.50663,54277
34.51477,54580
34.52288,55378
34.53102,52598
34.53913,52434
34.54725,54295
34.55538,56805
34.56350,54297
34.57163,52567
34.57975,54332
34.58787,52319
34.59600,58567
34.60412,54794
34.61223,53955
34.62037,58724
34.62848,54597
34.63662,59091
34.64473,54127
34.65285,58713
34.66098,55098
34.66910,51525
34.67723,53637
34.68535,46940
34.69347,50846
34.70160,53992
34.70972,54438
34.71783,53445
34.72597,54698
34.73408,52623
34.74222,56843
34.75033,52892
34.75845,53562
34.76658,53833
34.77470,53380
34.78283,53696
34.79095,57091
34.79907,55529
34.80720,55354
34.81532,56943
34.82345,54878
34.83157,63063
34.83968,58912
34.84782,52861
34.85593,57152
34.86405,56960
34.87218,54401
34.88030,55990
34.88843,56636
34.89655,55675
34.90467,54195
34.91280,56173
34.92092,56263
34.92905,62017
34.93717,64040
34.94528,57334
34.95342,57606
34.96153,58153
34.96967,57638
34.97778,53958
34.98590,56349
34.99403,53812
35.00215,58838
35.01027,56625
35.01840,55948
35.02652,60208
35.03465,57389
35.04277,55828
35.05088,55433
35.05902,54040
35.06713,54529
35.07527,53571
35.08338,53712
35.09150,51686
35.09963,53459
35.10775,59171
35.11587,58714
35.12400,54316
35.13212,55895
35.14025,56517
35.14837,54486
35.15648,53298
35.16462,53670
35.17273,54945
35.18087,56142
35.18898,59926
35.19710,58518
35.20523,55445
35.21335,58073
35.22148,56057
35.22960,53964
35.23772,54954
35.24585,56713
35.25397,56439
35.26208,55773
35.27022,53922
35.27833,56619
35.28647,55085
35.29458,53522
35.30270,55953
35.31083,56226
35.31895,59398
35.32708,53577
35.33520,55081
35.34332,55419
35.35145,53640
35.35957,57401
35.36768,59188
35.37582,54639
35.38393,59497
35.39207,53691
35.40018,60451
35.40830,55279
35.41643,56212
35.42455,58119
35.43268,56950
35.44080,60766
35.44892,56511
35.45705,62295
35.46517,62435
35.47330,72269
35.48142,77579
35.48953,76958
35.49767,79120
35.50578,73115
35.51390,75677
35.52203,72365
35.53015,70936
35.53828,65943
35.54640,66648
35.55452,68220
35.56265,66054
35.57077,63775
35.57890,64755
35.58702,66239
35.59513,70693
35.60327,71251
35.61138,69143
35.61952,66835
35.62763,65355
35.63575,69225
35.64388,66021
35.65200,65902
35.66012,64876
35.66825,64601
35.67637,73462
35.68450,75715
35.69262,66412
35.70073,62892
35.70887,67629
35.71698,66940
35.72512,67964
35.73323,66589
35.74135,62571
35.74948,62471
35.75760,68193
35.76572,66835
35.77385,69054
35.78197,68190
35.79010,63031
35.79822,63473
35.80633,66529
35.81447,69362
35.82258,68831
35.83072,67215
35.83883,67481
35.84695,66157
35.85508,61898
35.86320,71976
35.87133,67807
35.87945,63451
35.88757,64300
35.89570,64979
35.90382,68232
35.91193,68826
35.92007,71081
35.92818,65997
35.93632,71001
35.94443,65393
35.95255,65209
35.96068,68111
35.96880,66809
35.97693,61661
35.98505,64019
35.99317,62646
36.00130,62264
36.00942,66661
36.01755,65410
36.02567,65286
36.03378,66140
36.04192,63732
36.05003,62298
36.05815,66027
36.06628,62872
36.07440,64552
36.08253,66058
36.09065,66116
36.09877,72262
36.10690,76894
36.11502,80433
36.12315,81443
36.13127,82095
36.13938,85805
36.14752,86281
36.15563,80069
36.16375,78152
36.17188,74846
36.18000,70389
36.18813,67351
36.19625,68470
36.20437,67229
36.21250,65504
36.22062,71190
36.22875,67266
36.23687,62353
36.24498,69792
36.25312,61399
36.26123,66643
36.26937,70736
36.27748,67967
36.28560,69149
36.29373,65747
36.30185,65036
36.30997,66208
36.31810,66805
36.32622,62128
36.33435,65531
36.34247,63245
36.35058,65715
36.35872,68496
36.36683,67444
36.37497,61501
36.38308,64167
36.39120,70267
36.39933,70903
36.40745,70971
36.41558,74026
36.42370,72271
36.43182,71259
36.43995,73189
36.44807,73653
36.45618,66543
36.46432,68761
36.47243,70977
36.48057,72057
36.48868,63018
36.49680,68307
36.50493,66086
36.51305,66902
36.52118,66295
36.52930,69189
36.53742,71295
36.54555,70308
36.55367,76282
36.56178,72677
36.56992,72975
36.57803,71332
36.58617,77044
36.59428,74139
36.60240,73863
36.61053,75612
36.61865,72486
36.62678,67883
36.63490,67931
36.64302,70193
36.65115,70702
36.65927,74402
36.66740,72971
36.67552,74903
36.68363,73214
36.69177,75348
36.69988,69641
36.70800,71643
36.71613,73219
36.72425,76188
36.73238,70768
36.74050,72186
36.74862,72652
36.75675,69689
36.76487,67835
36.77300,72964
36.78112,66733
36.78923,71717
36.79737,69063
36.80548,71353
36.81360,71283
36.82173,70202
36.82985,72584
36.83798,74435
36.84610,75896
36.85422,65888
36.86235,73552
36.87047,71195
36.87860,69720
36.88672,71909
36.89483,70297
36.90297,80706
36.91108,73327
36.91922,70009
36.92733,70634
36.93545,70620
36.94358,73541
36.95170,72698
36.95982,73345
36.96795,71237
36.97607,72946
36.98420,76461
36.99232,72766
37.00043,74894
37.00857,73149
37.01668,76498
37.02482,74578
37.03293,73954
37.04105,73976
37.04918,73600
37.05730,75488
37.06543,75454
37.07355,73499
37.08167,76335
37.08980,81712
37.09792,75027
37.10603,78308
37.11417,75527
37.12228,78030
37.13042,76460
37.13853,79653
37.14665,82393
37.15478,82248
37.16290,78389
37.17103,80484
37.17915,79770
37.18727,82816
37.19540,78187
37.20352,74887
37.21163,78262
37.21977,78582
37.22788,81512
37.23602,84325
37.24413,84594
37.25225,81202
37.26038,85101
37.26850,84458
37.27663,86216
37.28475,86063
37.29287,81602
37.30100,77850
37.30912,84712
37.31725,80950
37.32537,81572
37.33348,80444
37.34162,78279
37.34973,85525
37.35785,81158
37.36598,81073
37.37410,80202
37.38223,80766
37.39035,84185
37.39847,88955
37.40660,82035
37.41472,81487
37.42285,88647
37.43097,83000
37.43908,84496
37.44722,81596
37.45533,81448
37.46347,87659
37.47158,84580
37.47970,88188
37.48783,88655
