Z:\data\JTB-E02\BACandBLUE\JTB-E02-189-20.D Mon Dec 10 15:38:32 2018
Start of data points
2.09530	99946
2.10343	101006
2.11155	98624
2.11967	99136
2.12780	99336
2.13592	96867
2.14405	100223
2.15217	100870
2.16028	100481
2.16842	98836
2.17653	92121
2.18467	95288
2.19278	93308
2.20090	94111
2.20903	91670
2.21715	84958
2.22527	85054
2.23340	85800
2.24152	84955
2.24965	76637
2.25777	79576
2.26588	106568
2.27402	430354
2.28213	1041281
2.29027	1302753
2.29838	775202
2.30650	462950
2.31463	384547
2.32275	334234
2.33088	310584
2.33900	280631
2.34712	263927
2.35525	247166
2.36337	249795
2.37148	226832
2.37962	230120
2.38773	221633
2.39587	224683
2.40398	218049
2.41210	207822
2.42023	209111
2.42835	198834
2.43648	193082
2.44460	191531
2.45272	197649
2.46085	187430
2.46897	187655
2.47710	179155
2.48522	174114
2.49333	186105
2.50147	189880
2.50958	183895
2.51770	174349
2.52583	172210
2.53395	163743
2.54208	167125
2.55020	162544
2.55832	169850
2.56645	173325
2.57457	166693
2.58270	164363
2.59082	151249
2.59893	154633
2.60707	173272
2.61518	272434
2.62330	357768
2.63143	286058
2.63955	233906
2.64768	195925
2.65580	173675
2.66392	171742
2.67205	169698
2.68017	165241
2.68830	154760
2.69642	160347
2.70453	156173
2.71267	151106
2.72078	150722
2.72892	145786
2.73703	144307
2.74515	144393
2.75328	145518
2.76140	143759
2.76952	171885
2.77765	728845
2.78577	3791818
2.79390	7837279
2.80202	7175833
2.81013	3979841
2.81827	2406557
2.82638	1815501
2.83452	1415444
2.84263	1101789
2.85075	891589
2.85888	731208
2.86700	629649
2.87513	548208
2.88325	497805
2.89137	445939
2.89950	400933
2.90762	371366
2.91573	349085
2.92387	332262
2.93198	307673
2.94012	291583
2.94823	271583
2.95635	259989
2.96448	250072
2.97260	245862
2.98073	240389
2.98885	227865
2.99697	228540
3.00510	238373
3.01322	247108
3.02133	244441
3.02947	235186
3.03758	206987
3.04572	195722
3.05383	187358
3.06195	184344
3.07008	175189
3.07820	176804
3.08633	221574
3.09445	378473
3.10257	833892
3.11070	1979217
3.11882	3223768
3.12695	2951342
3.13507	1891685
3.14318	1244525
3.15132	934860
3.15943	757352
3.16755	676903
3.17568	765182
3.18380	1133381
3.19193	2691252
3.20005	5962859
3.20817	7174842
3.21630	5356443
3.22442	3500620
3.23255	2584415
3.24067	2013720
3.24878	1620277
3.25692	1348337
3.26503	1132500
3.27315	992071
3.28128	862160
3.28940	821522
3.29753	1022335
3.30565	1882369
3.31377	3347011
3.32190	4123462
3.33002	3650701
3.33815	2630360
3.34627	1938787
3.35438	1502238
3.36252	1221828
3.37063	1044040
3.37877	911271
3.38688	840462
3.39500	751443
3.40313	697517
3.41125	642407
3.41937	612155
3.42750	588039
3.43562	597960
3.44375	628847
3.45187	621843
3.45998	597799
3.46812	664024
3.47623	943377
3.48437	1077012
3.49248	936138
3.50060	694394
3.50873	541704
3.51685	468977
3.52498	439577
3.53310	437279
3.54122	481613
3.54935	544480
3.55747	531043
3.56558	470390
3.57372	391523
3.58183	361201
3.58997	334996
3.59808	332025
3.60620	313917
3.61433	318246
3.62245	315941
3.63058	327281
3.63870	348312
3.64682	358314
3.65495	403977
3.66307	1367214
3.67118	8850216
3.67932	2.916611E+07
3.68743	4.879687E+07
3.69557	5.478917E+07
3.70368	4.627349E+07
3.71180	3.253133E+07
3.71993	2.315413E+07
3.72805	1.83728E+07
3.73618	1.526276E+07
3.74430	1.283872E+07
3.75242	1.106426E+07
3.76055	9639564
3.76867	8416622
3.77680	7502190
3.78492	6639883
3.79303	6105734
3.80117	5630251
3.80928	5346469
3.81740	5434942
3.82553	5633012
3.83365	5446530
3.84178	4817309
3.84990	4207722
3.85802	3823908
3.86615	3497326
3.87427	3265580
3.88240	3075858
3.89052	2894849
3.89863	2757567
3.90677	2614481
3.91488	2538933
3.92302	2693453
3.93113	3164623
3.93925	3610982
3.94738	3516524
3.95550	2943968
3.96362	2510824
3.97175	2328800
3.97987	2215691
3.98800	2035322
3.99612	1853061
4.00423	1719070
4.01237	1693847
4.02048	1734902
4.02862	1739766
4.03673	1648172
4.04485	1505726
4.05298	1412561
4.06110	1345571
4.06922	1291284
4.07735	1222937
4.08547	1196131
4.09360	1200837
4.10172	1205556
4.10983	1174956
4.11797	1129522
4.12608	1089576
4.13422	1033029
4.14233	1016309
4.15045	1006018
4.15858	1015533
4.16670	1012762
4.17483	999620
4.18295	1009766
4.19107	989277
4.19920	967750
4.20732	997442
4.21543	1754849
4.22357	5125978
4.23168	1.231025E+07
4.23982	2.105917E+07
4.24793	2.768149E+07
4.25605	3.222135E+07
4.26418	3.466567E+07
4.27230	3.171492E+07
4.28043	1.896813E+07
4.28855	9935164
4.29667	7104279
4.30480	5562072
4.31292	4523173
4.32105	3742248
4.32917	3228879
4.33728	2826510
4.34542	2512349
4.35353	2251381
4.36165	2192391
4.36978	2354147
4.37790	2648536
4.38603	2689150
4.39415	2274403
4.40227	1816188
4.41040	1525979
4.41852	1349972
4.42665	1231850
4.43477	1153806
4.44288	1104273
4.45102	1025974
4.45913	980583
4.46725	958110
4.47538	911014
4.48350	865790
4.49163	844766
4.49975	836841
4.50787	802674
4.51600	771974
4.52412	786038
4.53225	772464
4.54037	764063
4.54848	796375
4.55662	851629
4.56473	883553
4.57287	841829
4.58098	749144
4.58910	706733
4.59723	657612
4.60535	652482
4.61347	652573
4.62160	660040
4.62972	856660
4.63785	1453254
4.64597	2524707
4.65408	3351940
4.66222	3217056
4.67033	2421227
4.67847	1783429
4.68658	1463030
4.69470	1294829
4.70283	1136919
4.71095	921230
4.71907	795942
4.72720	748927
4.73532	658915
4.74345	618274
4.75157	590391
4.75968	576966
4.76782	561444
4.77593	540667
4.78407	534098
4.79218	528320
4.80030	617260
4.80843	760381
4.81655	875946
4.82468	857503
4.83280	754276
4.84092	718292
4.84905	745861
4.85717	863599
4.86528	907212
4.87342	825560
4.88153	708759
4.88967	606480
4.89778	572765
4.90590	541537
4.91403	516105
4.92215	499937
4.93028	477277
4.93840	485258
4.94652	497591
4.95465	608375
4.96277	821255
4.97090	1093898
4.97902	1255899
4.98713	1232595
4.99527	1122859
5.00338	987168
5.01150	898465
5.01963	840446
5.02775	878607
5.03588	1090734
5.04400	1610409
5.05212	2101103
5.06025	2145746
5.06837	1815208
5.07650	1469519
5.08462	1229158
5.09273	1072482
5.10087	995624
5.10898	913314
5.11710	851836
5.12523	807422
5.13335	754818
5.14148	709656
5.14960	712090
5.15772	833628
5.16585	1112492
5.17397	1484319
5.18210	1662388
5.19022	1528995
5.19833	1338174
5.20647	1315247
5.21458	1468120
5.22272	1599074
5.23083	1502220
5.23895	1283372
5.24708	1045551
5.25520	893584
5.26332	764232
5.27145	636730
5.27957	569900
5.28770	535244
5.29582	498075
5.30393	472187
5.31207	457145
5.32018	454453
5.32832	447974
5.33643	453078
5.34455	466700
5.35268	494663
5.36080	491139
5.36893	471168
5.37705	433720
5.38517	438903
5.39330	473418
5.40142	568703
5.40953	673367
5.41767	713682
5.42578	644866
5.43392	566507
5.44203	490833
5.45015	501305
5.45828	613922
5.46640	746078
5.47453	816200
5.48265	711831
5.49077	586418
5.49890	475174
5.50702	407577
5.51513	386324
5.52327	377489
5.53138	369335
5.53952	363299
5.54763	367978
5.55575	460191
5.56388	801745
5.57200	1565630
5.58013	2529134
5.58825	3103208
5.59637	2891686
5.60450	2160116
5.61262	1424413
5.62075	942252
5.62887	704524
5.63698	578476
5.64512	502752
5.65323	455194
5.66135	434820
5.66948	405087
5.67760	396298
5.68573	409328
5.69385	438048
5.70197	497268
5.71010	553011
5.71822	567779
5.72635	538420
5.73447	490161
5.74258	417764
5.75072	377155
5.75883	357986
5.76695	348703
5.77508	332655
5.78320	326777
5.79133	322444
5.79945	316031
5.80757	299485
5.81570	302128
5.82382	306425
5.83195	299468
5.84007	300622
5.84818	296367
5.85632	290211
5.86443	282394
5.87257	292179
5.88068	289719
5.88880	276547
5.89693	293127
5.90505	294782
5.91317	324148
5.92130	372683
5.92942	456844
5.93755	480327
5.94567	433186
5.95378	392886
5.96192	392257
5.97003	459405
5.97817	572907
5.98628	707081
5.99440	918309
6.00253	1022474
6.01065	1029419
6.01878	914411
6.02690	733987
6.03502	558941
6.04315	430324
6.05127	362692
6.05938	327510
6.06752	308533
6.07563	298862
6.08377	296444
6.09188	290486
6.10000	282918
6.10813	274794
6.11625	257152
6.12438	283873
6.13250	423871
6.14062	829795
6.14875	1528310
6.15687	2114238
6.16500	2226963
6.17312	1775836
6.18123	1244186
6.18937	881367
6.19748	716127
6.20560	607629
6.21373	526876
6.22185	467305
6.22998	443890
6.23810	429276
6.24622	425830
6.25435	469018
6.26247	582683
6.27060	711983
6.27872	765272
6.28683	684771
6.29497	561108
6.30308	461723
6.31120	423293
6.31933	392295
6.32745	391555
6.33558	394622
6.34370	385407
6.35182	393677
6.35995	377989
6.36807	364401
6.37620	351635
6.38432	343464
6.39243	349607
6.40057	353723
6.40868	360244
6.41682	321817
6.42493	314763
6.43305	305849
6.44118	306259
6.44930	312058
6.45742	335684
6.46555	348788
6.47367	375568
6.48180	351124
6.48992	339680
6.49803	325314
6.50617	318065
6.51428	315693
6.52242	337720
6.53053	344193
6.53865	344932
6.54678	342358
6.55490	337761
6.56302	409312
6.57115	676349
6.57927	1380779
6.58740	2409222
6.59552	3149725
6.60363	2951312
6.61177	2125871
6.61988	1301439
6.62802	848381
6.63613	652694
6.64425	484297
6.65238	423893
6.66050	366982
6.66863	354526
6.67675	340120
6.68487	341287
6.69300	314159
6.70112	295690
6.70923	264143
6.71737	256524
6.72548	246293
6.73362	245625
6.74173	245620
6.74985	239910
6.75798	228764
6.76610	222078
6.77423	224894
6.78235	232343
6.79047	226339
6.79860	225345
6.80672	203558
6.81485	195288
6.82297	186942
6.83108	174954
6.83922	178635
6.84733	186595
6.85545	196327
6.86358	204559
6.87170	221458
6.87983	223944
6.88795	224418
6.89607	228346
6.90420	200094
6.91232	183574
6.92045	177115
6.92857	164311
6.93668	157887
6.94482	149023
6.95293	158089
6.96105	147215
6.96918	157977
6.97730	173768
6.98543	188636
6.99355	222674
7.00167	225362
7.00980	206372
7.01792	184463
7.02605	177380
7.03417	181682
7.04228	181532
7.05042	175896
7.05853	185472
7.06667	236685
7.07478	348013
7.08290	528403
7.09103	720172
7.09915	835566
7.10727	854419
7.11540	693113
7.12352	519033
7.13165	379056
7.13977	323298
7.14788	293736
7.15602	304741
7.16413	331215
7.17227	377067
7.18038	459123
7.18850	858797
7.19663	2088300
7.20475	4560531
7.21288	7633710
7.22100	9416963
7.22912	8639764
7.23725	5771843
7.24537	2883506
7.25348	1191717
7.26162	479262
7.26973	261668
7.27787	211781
7.28598	214885
7.29410	204477
7.30223	211202
7.31035	223564
7.31848	212222
7.32660	211109
7.33472	231314
7.34285	255351
7.35097	326697
7.35908	391074
7.36722	438276
7.37533	432458
7.38347	397674
7.39158	331060
7.39970	284686
7.40783	236355
7.41595	217774
7.42408	202215
7.43220	175659
7.44032	167190
7.44845	166700
7.45657	158948
7.46470	160814
7.47282	175272
7.48093	183816
7.48907	189216
7.49718	178360
7.50530	172681
7.51343	160926
7.52155	151554
7.52968	188756
7.53780	276588
7.54592	585532
7.55405	1370991
7.56217	3107300
7.57030	6086283
7.57842	9931059
7.58653	1.360251E+07
7.59467	1.566412E+07
7.60278	1.526597E+07
7.61090	1.257292E+07
7.61903	8872260
7.62715	5586207
7.63528	3293810
7.64340	2026563
7.65152	1337579
7.65965	944406
7.66777	713227
7.67590	537136
7.68402	403106
7.69213	310598
7.70027	251567
7.70838	231008
7.71652	255328
7.72463	348685
7.73275	486121
7.74088	611987
7.74900	715572
7.75712	718490
7.76525	682119
7.77337	622714
7.78150	531023
7.78962	473912
7.79773	420826
7.80587	414256
7.81398	436940
7.82212	482674
7.83023	520765
7.83835	501309
7.84648	431693
7.85460	369038
7.86273	326486
7.87085	333961
7.87897	375948
7.88710	444862
7.89522	565106
7.90333	716450
7.91147	828343
7.91958	821308
7.92772	714049
7.93583	520923
7.94395	420939
7.95208	384582
7.96020	383367
7.96833	396110
7.97645	365386
7.98457	325319
7.99270	263864
8.00082	220927
8.00893	201410
8.01707	182379
8.02518	164655
8.03332	165230
8.04143	153963
8.04955	152589
8.05768	147140
8.06580	148741
8.07393	155242
8.08205	152160
8.09017	162044
8.09830	150641
8.10642	140203
8.11455	139843
8.12267	129766
8.13078	132819
8.13892	157625
8.14703	230290
8.15515	330827
8.16328	427798
8.17140	471205
8.17953	438241
8.18765	340858
8.19577	266480
8.20390	216059
8.21202	184437
8.22015	168780
8.22827	155956
8.23638	144794
8.24452	136545
8.25263	126475
8.26077	128678
8.26888	118109
8.27700	119779
8.28513	110453
8.29325	120733
8.30137	117040
8.30950	114693
8.31762	127825
8.32575	144803
8.33387	188837
8.34198	230964
8.35012	247165
8.35823	242273
8.36637	207414
8.37448	162989
8.38260	132468
8.39073	116645
8.39885	111320
8.40697	99512
8.41510	98911
8.42322	98885
8.43135	99607
8.43947	97657
8.44758	97236
8.45572	103504
8.46383	101928
8.47197	101263
8.48008	96951
8.48820	98806
8.49633	99582
8.50445	94849
8.51258	94826
8.52070	117442
8.52882	159752
8.53695	230148
8.54507	303704
8.55318	303691
8.56132	258501
8.56943	190659
8.57757	135808
8.58568	113672
8.59380	99225
8.60193	100702
8.61005	108037
8.61818	116089
8.62630	131550
8.63442	156340
8.64255	157708
8.65067	155222
8.65878	161190
8.66692	133135
8.67503	117121
8.68317	106201
8.69128	94906
8.69940	96617
8.70753	95433
8.71565	95125
8.72378	91850
8.73190	92051
8.74002	90848
8.74815	91105
8.75627	87205
8.76440	96032
8.77252	94192
8.78063	114497
8.78877	160273
8.79688	231608
8.80500	316500
8.81313	382530
8.82125	363726
8.82938	326055
8.83750	286377
8.84562	255386
8.85375	238716
8.86187	228336
8.87000	207885
8.87812	209767
8.88623	194824
8.89437	183768
8.90248	184175
8.91062	172596
8.91873	184875
8.92685	217918
8.93498	295133
8.94310	381641
8.95122	442954
8.95935	412572
8.96747	342431
8.97560	292682
8.98372	301703
8.99183	346554
8.99997	424526
9.00808	456794
9.01622	432532
9.02433	349511
9.03245	284100
9.04058	224376
9.04870	194598
9.05682	174524
9.06495	175728
9.07307	163853
9.08120	158217
9.08932	161436
9.09743	183217
9.10557	234016
9.11368	347117
9.12182	527271
9.12993	698311
9.13805	767493
9.14618	717276
9.15430	579553
9.16243	414954
9.17055	298275
9.17867	256755
9.18680	226534
9.19492	215638
9.20303	208198
9.21117	198030
9.21928	183641
9.22742	176458
9.23553	184830
9.24365	195448
9.25178	196349
9.25990	201808
9.26803	202001
9.27615	196026
9.28427	190553
9.29240	169705
9.30052	163532
9.30865	161813
9.31677	154813
9.32488	151890
9.33302	153859
9.34113	153973
9.34925	143102
9.35738	143728
9.36550	142231
9.37363	145847
9.38175	140762
9.38987	159284
9.39800	217022
9.40612	323364
9.41425	497037
9.42237	708292
9.43048	906908
9.43862	1039618
9.44673	1159428
9.45485	1212977
9.46298	1217669
9.47110	1116160
9.47923	902840
9.48735	648798
9.49547	451078
9.50360	326077
9.51172	288599
9.51985	305277
9.52797	367646
9.53608	436418
9.54422	479657
9.55233	491356
9.56047	454270
9.56858	380420
9.57670	302275
9.58483	234595
9.59295	196206
9.60107	163600
9.60920	159894
9.61732	147082
9.62545	141548
9.63357	140907
9.64168	135282
9.64982	129130
9.65793	123000
9.66607	125590
9.67418	125980
9.68230	131514
9.69043	133428
9.69855	128693
9.70668	131898
9.71480	127774
9.72292	119785
9.73105	123080
9.73917	120322
9.74728	123517
9.75542	110637
9.76353	101089
9.77167	98056
9.77978	95015
9.78790	96058
9.79603	95996
9.80415	94972
9.81228	94368
9.82040	91670
9.82852	92242
9.83665	95526
9.84477	94413
9.85288	93422
9.86102	92201
9.86913	94471
9.87727	93111
9.88538	87819
9.89350	85537
9.90163	92481
9.90975	89163
9.91788	90223
9.92600	97745
9.93412	104502
9.94225	140839
9.95037	242972
9.95850	444931
9.96662	751070
9.97473	1097965
9.98287	1353253
9.99098	1308629
9.99910	1055421
10.00723	732645
10.01535	443852
10.02348	280273
10.03160	195796
10.03972	166454
10.04785	176133
10.05597	211631
10.06410	243398
10.07222	250262
10.08033	250282
10.08847	237593
10.09658	230160
10.10470	207669
10.11283	201484
10.12095	190938
10.12908	183573
10.13720	181790
10.14532	170152
10.15345	169934
10.16157	160406
10.16970	158507
10.17782	148368
10.18593	138786
10.19407	141604
10.20218	135268
10.21032	130679
10.21843	134079
10.22655	130171
10.23468	121976
10.24280	127542
10.25092	139210
10.25905	165247
10.26717	273832
10.27530	663825
10.28342	1609887
10.29153	3441055
10.29967	6074888
10.30778	9049751
10.31592	1.250477E+07
10.32403	1.637649E+07
10.33215	2.11368E+07
10.34028	2.758916E+07
10.34840	3.503161E+07
10.35653	4.287609E+07
10.36465	4.753212E+07
10.37277	4.506958E+07
10.38090	3.346118E+07
10.38902	2.208338E+07
10.39713	1.644022E+07
10.40527	1.350067E+07
10.41338	1.007067E+07
10.42152	6760261
10.42963	4187289
10.43775	2887019
10.44588	2469866
10.45400	2449549
10.46213	2524709
10.47025	2505578
10.47837	2365467
10.48650	2039935
10.49462	1660926
10.50273	1308559
10.51087	1079835
10.51898	915236
10.52712	806198
10.53523	735751
10.54335	685170
10.55148	650508
10.55960	623895
10.56773	576092
10.57585	565907
10.58397	538408
10.59210	526160
10.60022	521267
10.60835	469548
10.61647	448293
10.62458	413046
10.63272	407518
10.64083	391591
10.64895	378052
10.65708	360433
10.66520	344501
10.67333	321719
10.68145	322644
10.68957	306232
10.69770	325517
10.70582	341356
10.71395	368466
10.72207	403600
10.73018	411239
10.73832	398797
10.74643	362021
10.75457	333266
10.76268	305748
10.77080	290832
10.77893	269297
10.78705	259342
10.79517	250563
10.80330	252913
10.81142	272366
10.81955	341115
10.82767	387519
10.83578	409631
10.84392	413087
10.85203	362813
10.86017	298902
10.86828	249948
10.87640	221973
10.88453	209648
10.89265	205135
10.90077	193864
10.90890	185589
10.91702	185617
10.92515	191068
10.93327	182137
10.94138	184293
10.94952	182130
10.95763	180567
10.96577	163898
10.97388	174124
10.98200	169480
10.99013	173177
10.99825	181260
11.00638	204486
11.01450	245312
11.02262	280475
11.03075	313998
11.03887	317530
11.04698	302650
11.05512	271650
11.06323	233191
11.07137	237378
11.07948	249006
11.08760	307187
11.09573	376211
11.10385	417560
11.11198	443786
11.12010	419292
11.12822	393837
11.13635	344390
11.14447	297220
11.15258	255646
11.16072	224085
11.16883	211380
11.17697	212013
11.18508	197561
11.19320	186707
11.20133	166284
11.20945	156051
11.21758	144765
11.22570	132854
11.23382	122639
11.24195	122553
11.25007	111825
11.25820	105660
11.26632	103139
11.27443	100816
11.28257	104671
11.29068	96764
11.29880	104279
11.30693	147795
11.31505	313122
11.32318	776968
11.33130	1928236
11.33942	4041963
11.34755	7116543
11.35567	1.03715E+07
11.36380	1.250284E+07
11.37192	1.272279E+07
11.38003	1.107095E+07
11.38817	8466796
11.39628	6172073
11.40442	4420968
11.41253	3424550
11.42065	2730758
11.42878	2192273
11.43690	1754696
11.44502	1425519
11.45315	1128553
11.46127	945187
11.46940	802021
11.47752	707127
11.48563	625444
11.49377	588170
11.50188	602068
11.51002	674758
11.51813	756198
11.52625	824019
11.53438	850235
11.54250	812268
11.55063	730707
11.55875	674020
11.56687	622370
11.57500	606667
11.58312	600867
11.59123	582875
11.59937	577403
11.60748	597545
11.61562	694659
11.62373	820591
11.63185	891583
11.63998	870402
11.64810	765925
11.65623	564411
11.66435	425007
11.67247	335989
11.68060	289516
11.68872	265263
11.69683	257061
11.70497	267790
11.71308	260101
11.72122	253896
11.72933	251126
11.73745	239122
11.74558	225730
11.75370	211089
11.76183	191689
11.76995	180486
11.77807	159539
11.78620	154403
11.79432	145675
11.80245	135209
11.81057	135655
11.81868	132849
11.82682	125651
11.83493	121499
11.84305	120362
11.85118	117191
11.85930	120316
11.86743	112422
11.87555	116043
11.88367	108477
11.89180	110048
11.89992	106152
11.90805	100267
11.91617	99562
11.92428	111183
11.93242	112245
11.94053	109937
11.94865	114446
11.95678	108537
11.96490	106797
11.97303	96478
11.98115	93667
11.98927	90377
11.99740	90806
12.00552	84600
12.01365	88022
12.02177	83781
12.02988	82495
12.03802	80972
12.04613	86240
12.05427	82927
12.06238	88331
12.07050	93670
12.07863	103762
12.08675	120335
12.09487	153147
12.10300	220445
12.11112	360135
12.11925	712102
12.12737	1453493
12.13548	2712285
12.14362	4264571
12.15173	5491282
12.15987	6087275
12.16798	5524624
12.17610	4260465
12.18423	2901053
12.19235	2030926
12.20048	1574869
12.20860	1322607
12.21672	1191143
12.22485	1034998
12.23297	886286
12.24108	794613
12.24922	714376
12.25733	649051
12.26547	618124
12.27358	574543
12.28170	568285
12.28983	533477
12.29795	488549
12.30608	465713
12.31420	432505
12.32232	406580
12.33045	375160
12.33857	364161
12.34668	343119
12.35482	327267
12.36293	301634
12.37107	313747
12.37918	297462
12.38730	289389
12.39543	283317
12.40355	307014
12.41168	343734
12.41980	429118
12.42792	544838
12.43605	658299
12.44417	690859
12.45230	632470
12.46042	532430
12.46853	441661
12.47667	369549
12.48478	340934
12.49290	313715
12.50103	287636
12.50915	286257
12.51728	281623
12.52540	272426
12.53352	299679
12.54165	344232
12.54977	422633
12.55790	532653
12.56602	624844
12.57413	669844
12.58227	606853
12.59038	522468
12.59852	423990
12.60663	364904
12.61475	312805
12.62288	289438
12.63100	263580
12.63912	247587
12.64725	237079
12.65537	223369
12.66350	201153
12.67162	193041
12.67973	184086
12.68787	181231
12.69598	189760
12.70412	175285
12.71223	172131
12.72035	179900
12.72848	160868
12.73660	167911
12.74472	170152
12.75285	172719
12.76097	170524
12.76910	173705
12.77722	166993
12.78533	150343
12.79347	149008
12.80158	141179
12.80972	140299
12.81783	131009
12.82595	116160
12.83408	106660
12.84220	96183
12.85033	86635
12.85845	81431
12.86657	81421
12.87470	77879
12.88282	76389
12.89093	76348
12.89907	74416
12.90718	77077
12.91532	77219
12.92343	87188
12.93155	77259
12.93968	70848
12.94780	73962
12.95593	78491
12.96405	82071
12.97217	84563
12.98030	100659
12.98842	101692
12.99653	102532
13.00467	103338
13.01278	93879
13.02092	88079
13.02903	84291
13.03715	77876
13.04528	76203
13.05340	75010
13.06153	76088
13.06965	75899
13.07777	80932
13.08590	83240
13.09402	89901
13.10215	84441
13.11027	92444
13.11838	85450
13.12652	81427
13.13463	75800
13.14275	76952
13.15088	71020
13.15900	76916
13.16713	77559
13.17525	82514
13.18337	82129
13.19150	89613
13.19962	85766
13.20775	95365
13.21587	89186
13.22398	96866
13.23212	104223
13.24023	114292
13.24837	119946
13.25648	120784
13.26460	118878
13.27273	118767
13.28085	108459
13.28897	109935
13.29710	100673
13.30522	91354
13.31335	86376
13.32147	76101
13.32958	71018
13.33772	75283
13.34583	68951
13.35397	69742
13.36208	71861
13.37020	71378
13.37833	67708
13.38645	66912
13.39457	66963
13.40270	66340
13.41082	69317
13.41895	72623
13.42707	68200
13.43518	67161
13.44332	66852
13.45143	66501
13.45957	75495
13.46768	82120
13.47580	95568
13.48393	108743
13.49205	108848
13.50018	114787
13.50830	99381
13.51642	94603
13.52455	99805
13.53267	97319
13.54078	104679
13.54892	96002
13.55703	86451
13.56517	80722
13.57328	85795
13.58140	86092
13.58953	98008
13.59765	118345
13.60578	150670
13.61390	176657
13.62202	202494
13.63015	209307
13.63827	207977
13.64640	183512
13.65452	159917
13.66263	135635
13.67077	114873
13.67888	92831
13.68700	84419
13.69513	70357
13.70325	64472
13.71138	58294
13.71950	61860
13.72762	59115
13.73575	57841
13.74387	61297
13.75200	66395
13.76012	85133
13.76823	107552
13.77637	147838
13.78448	210224
13.79260	328288
13.80073	465439
13.80885	655976
13.81698	842308
13.82510	1086839
13.83322	1398380
13.84135	1795097
13.84947	2241174
13.85760	2468685
13.86572	2448831
13.87383	2080217
13.88197	1626307
13.89008	1192320
13.89822	823092
13.90633	580002
13.91445	396159
13.92258	309686
13.93070	249983
13.93882	203734
13.94695	173855
13.95507	156952
13.96320	136361
13.97132	125201
13.97943	123612
13.98757	112059
13.99568	103113
14.00382	109106
14.01193	109241
14.02005	108074
14.02818	112284
14.03630	109843
14.04443	97855
14.05255	93216
14.06067	85901
14.06880	90243
14.07692	86734
14.08503	86018
14.09317	85926
14.10128	82535
14.10942	85669
14.11753	83312
14.12565	76371
14.13378	80583
14.14190	80575
14.15003	88908
14.15815	125711
14.16627	156084
14.17440	179001
14.18252	213503
14.19063	227102
14.19877	223268
14.20688	213974
14.21502	220470
14.22313	239721
14.23125	265681
14.23938	282735
14.24750	320267
14.25563	358580
14.26375	402965
14.27187	448968
14.28000	438944
14.28812	402351
14.29625	335792
14.30437	274007
14.31248	210380
14.32062	189027
14.32873	170059
14.33685	152806
14.34498	157393
14.35310	144280
14.36123	138175
14.36935	137995
14.37747	127417
14.38560	115207
14.39372	111363
14.40185	115778
14.40997	116485
14.41808	146460
14.42622	191585
14.43433	237859
14.44245	265678
14.45058	261523
14.45870	214319
14.46683	190449
14.47495	173957
14.48307	168026
14.49120	185644
14.49932	191377
14.50745	206911
14.51557	199145
14.52368	183806
14.53182	162951
14.53993	144063
14.54807	140442
14.55618	132229
14.56430	125076
14.57243	117227
14.58055	108845
14.58867	100262
14.59680	96339
14.60492	84251
14.61305	82803
14.62117	79015
14.62928	70076
14.63742	72829
14.64553	67349
14.65367	69700
14.66178	68120
14.66990	71618
14.67803	62213
14.68615	63260
14.69428	66370
14.70240	65468
14.71052	65831
14.71865	62902
14.72677	65626
14.73488	66445
14.74302	82905
14.75113	83043
14.75927	88695
14.76738	96585
14.77550	103292
14.78363	105525
14.79175	129803
14.79988	210268
14.80800	464701
14.81612	1259231
14.82425	3142363
14.83237	6667856
14.84048	1.166631E+07
14.84862	1.733877E+07
14.85673	2.197942E+07
14.86487	2.385655E+07
14.87298	2.085989E+07
14.88110	1.46449E+07
14.88923	8499134
14.89735	4493955
14.90548	2640342
14.91360	1906239
14.92172	1537510
14.92985	1345496
14.93797	1192462
14.94610	1097350
14.95422	973272
14.96233	913318
14.97047	838782
14.97858	753656
14.98670	690557
14.99483	651040
15.00295	629362
15.01108	572194
15.01920	561694
15.02732	543445
15.03545	514964
15.04357	515713
15.05170	494793
15.05982	488874
15.06793	457337
15.07607	426238
15.08418	392336
15.09232	358071
15.10043	364458
15.10855	332296
15.11668	313453
15.12480	312503
15.13292	320032
15.14105	338660
15.14917	383308
15.15730	440786
15.16542	463612
15.17353	438708
15.18167	358064
15.18978	285530
15.19792	210979
15.20603	164183
15.21415	141183
15.22228	139485
15.23040	131969
15.23852	128029
15.24665	125258
15.25477	121764
15.26290	123561
15.27102	124830
15.27913	118969
15.28727	112029
15.29538	108040
15.30352	107373
15.31163	99341
15.31975	92283
15.32788	95071
15.33600	93697
15.34413	89507
15.35225	84987
15.36037	85515
15.36850	82522
15.37662	87038
15.38473	89593
15.39287	91050
15.40098	100683
15.40912	99265
15.41723	98289
15.42535	96237
15.43348	98620
15.44160	91129
15.44973	89357
15.45785	96389
15.46597	101914
15.47410	144288
15.48222	248322
15.49033	458164
15.49847	832663
15.50658	1358386
15.51472	1861128
15.52283	2220067
15.53095	2240947
15.53908	2077004
15.54720	1748065
15.55533	1350531
15.56345	958451
15.57157	688428
15.57970	487184
15.58782	381847
15.59595	299256
15.60407	253245
15.61218	219491
15.62032	203707
15.62843	189730
15.63655	169758
15.64468	162077
15.65280	154160
15.66093	142953
15.66905	139849
15.67717	131445
15.68530	123053
15.69342	115897
15.70155	103670
15.70967	101789
15.71778	94202
15.72592	92845
15.73403	95780
15.74217	89596
15.75028	92408
15.75840	114711
15.76653	172360
15.77465	293677
15.78277	589240
15.79090	1066403
15.79902	1566815
15.80715	1874241
15.81527	1820646
15.82338	1513151
15.83152	1044011
15.83963	695536
15.84777	437871
15.85588	309785
15.86400	250431
15.87213	240335
15.88025	216836
15.88837	193848
15.89650	189726
15.90462	182325
15.91275	180544
15.92087	167400
15.92898	161003
15.93712	156944
15.94523	153874
15.95337	144379
15.96148	135252
15.96960	136950
15.97773	128237
15.98585	132138
15.99398	120380
16.00210	121748
16.01022	122634
16.01835	131172
16.02647	141287
16.03458	155015
16.04272	168700
16.05083	174928
16.05897	162000
16.06708	149661
16.07520	130542
16.08333	123129
16.09145	109372
16.09958	96389
16.10770	95896
16.11582	95346
16.12395	104283
16.13207	114535
16.14020	145800
16.14832	175102
16.15643	203287
16.16457	236307
16.17268	252557
16.18080	240815
16.18893	212132
16.19705	189351
16.20518	161363
16.21330	136260
16.22142	134012
16.22955	125310
16.23767	130403
16.24580	124546
16.25392	121875
16.26203	103538
16.27017	100132
16.27828	97318
16.28640	99613
16.29453	120391
16.30265	148727
16.31078	187674
16.31890	209773
16.32702	231157
16.33515	223043
16.34327	200840
16.35140	177538
16.35952	148405
16.36763	134389
16.37577	125834
16.38388	121811
16.39202	120690
16.40013	114961
16.40825	114041
16.41638	104332
16.42450	98747
16.43262	102579
16.44075	101144
16.44887	123724
16.45700	184851
16.46512	423029
16.47323	1001971
16.48137	2161726
16.48948	3730396
16.49762	5064371
16.50573	5764293
16.51385	5259592
16.52198	3913906
16.53010	2449694
16.53822	1428385
16.54635	853145
16.55447	588313
16.56260	457267
16.57072	380460
16.57883	341800
16.58697	296951
16.59508	275554
16.60322	275754
16.61133	262540
16.61945	251649
16.62758	243866
16.63570	219732
16.64383	212625
16.65195	205436
16.66007	186036
16.66820	166641
16.67632	169388
16.68443	168030
16.69257	161981
16.70068	148140
16.70882	139429
16.71693	136413
16.72505	127281
16.73318	119816
16.74130	114881
16.74943	115125
16.75755	117100
16.76567	134309
16.77380	162182
16.78192	179298
16.79005	194222
16.79817	171710
16.80628	149383
16.81442	111392
16.82253	96783
16.83065	84038
16.83878	84644
16.84690	81647
16.85503	74126
16.86315	78252
16.87127	78090
16.87940	72474
16.88752	72987
16.89565	70150
16.90377	65118
16.91188	71864
16.92002	69029
16.92813	71431
16.93627	67434
16.94438	78656
16.95250	74134
16.96063	74646
16.96875	73112
16.97687	73806
16.98500	74183
16.99312	73774
17.00125	77942
17.00937	77835
17.01748	83391
17.02562	89030
17.03373	85920
17.04187	98448
17.04998	107627
17.05810	129374
17.06623	163010
17.07435	177431
17.08247	180537
17.09060	158801
17.09872	139780
17.10685	111729
17.11497	103264
17.12308	99543
17.13122	112569
17.13933	121052
17.14747	125785
17.15558	140831
17.16370	137936
17.17183	138379
17.17995	131650
17.18808	112508
17.19620	112615
17.20432	101265
17.21245	99463
17.22057	89889
17.22868	85290
17.23682	86569
17.24493	79534
17.25307	77986
17.26118	84763
17.26930	94599
17.27743	91103
17.28555	88452
17.29368	85259
17.30180	79059
17.30992	80070
17.31805	78429
17.32617	93893
17.33428	125577
17.34242	162647
17.35053	226147
17.35867	259984
17.36678	296149
17.37490	297146
17.38303	274740
17.39115	263401
17.39928	244231
17.40740	233924
17.41552	233816
17.42365	234665
17.43177	236794
17.43990	243811
17.44802	246826
17.45613	238752
17.46427	223527
17.47238	202173
17.48050	178720
17.48863	151483
17.49675	138494
17.50488	129446
17.51300	118209
17.52112	123352
17.52925	115442
17.53737	114014
17.54550	113537
17.55362	113913
17.56173	115834
17.56987	157854
17.57798	235463
17.58612	500026
17.59423	1069125
17.60235	2080396
17.61048	3396019
17.61860	4565909
17.62672	5265277
17.63485	5115284
17.64297	4244382
17.65110	3031684
17.65922	1985940
17.66733	1198996
17.67547	760944
17.68358	518477
17.69172	383926
17.69983	319647
17.70795	276348
17.71608	260890
17.72420	250251
17.73232	252200
17.74045	248273
17.74857	246233
17.75670	253216
17.76482	238585
17.77293	228290
17.78107	213567
17.78918	185804
17.79732	167036
17.80543	143911
17.81355	131223
17.82168	127884
17.82980	129165
17.83793	134422
17.84605	155605
17.85417	186354
17.86230	250999
17.87042	315362
17.87853	403941
17.88667	450022
17.89478	434961
17.90292	371866
17.91103	274370
17.91915	188872
17.92728	146695
17.93540	124706
17.94353	109288
17.95165	102075
17.95977	100864
17.96790	94027
17.97602	93971
17.98415	86738
17.99227	88220
18.00038	86454
18.00852	89372
18.01663	96550
18.02475	127684
18.03288	190515
18.04100	298906
18.04913	425916
18.05725	541820
18.06537	669007
18.07350	937140
18.08162	1627406
18.08975	3032162
18.09787	5208062
18.10598	7411796
18.11412	8824053
18.12223	8559623
18.13035	7419058
18.13848	5516528
18.14660	4043292
18.15473	2883588
18.16285	2304963
18.17097	1948386
18.17910	1653032
18.18722	1409893
18.19535	1241853
18.20347	1079189
18.21158	979911
18.21972	871435
18.22783	797364
18.23597	731823
18.24408	669283
18.25220	630132
18.26033	589447
18.26845	541138
18.27657	501874
18.28470	450539
18.29282	384016
18.30095	323569
18.30907	256347
18.31718	196755
18.32532	170331
18.33343	151240
18.34157	132580
18.34968	128873
18.35780	116867
18.36593	118897
18.37405	112236
18.38217	112009
18.39030	114290
18.39842	112234
18.40655	112715
18.41467	127374
18.42278	159870
18.43092	215008
18.43903	324504
18.44717	467743
18.45528	594417
18.46340	765928
18.47153	978453
18.47965	1250437
18.48778	1602147
18.49590	1902343
18.50402	2019559
18.51215	1937252
18.52027	1536819
18.52838	1066520
18.53652	717449
18.54463	471895
18.55277	321521
18.56088	232022
18.56900	189052
18.57713	162415
18.58525	149193
18.59338	145040
18.60150	137470
18.60962	160599
18.61775	178642
18.62587	211425
18.63400	243671
18.64212	276409
18.65023	280853
18.65837	266632
18.66648	232995
18.67460	197657
18.68273	163325
18.69085	139237
18.69898	124132
18.70710	118422
18.71522	120153
18.72335	129244
18.73147	134146
18.73960	130308
18.74772	127072
18.75583	124038
18.76397	118068
18.77208	108049
18.78020	103261
18.78833	99564
18.79645	103677
18.80458	92885
18.81270	98097
18.82082	99738
18.82895	99393
18.83707	101217
18.84520	101777
18.85332	101895
18.86143	102139
18.86957	120783
18.87768	139873
18.88582	169583
18.89393	207292
18.90205	219751
18.91018	224509
18.91830	207194
18.92642	176697
18.93455	173424
18.94267	171774
18.95080	164390
18.95892	178987
18.96703	192729
18.97517	199995
18.98328	199213
18.99142	182254
18.99953	173127
19.00765	156252
19.01578	133401
19.02390	132082
19.03203	120638
19.04015	122275
19.04827	111401
19.05640	106018
19.06452	101384
19.07263	97953
19.08077	90182
19.08888	101989
19.09702	122941
19.10513	158967
19.11325	214966
19.12138	248147
19.12950	273192
19.13763	261226
19.14575	215191
19.15387	170674
19.16200	136101
19.17012	117194
19.17823	99686
19.18637	97597
19.19448	81454
19.20262	81236
19.21073	76885
19.21885	73551
19.22698	80725
19.23510	81876
19.24323	78292
19.25135	77527
19.25947	83056
19.26760	84183
19.27572	82825
19.28385	101427
19.29197	110245
19.30008	145045
19.30822	181494
19.31633	198984
19.32445	209064
19.33258	192848
19.34070	180929
19.34883	139643
19.35695	133471
19.36507	149474
19.37320	205443
19.38132	284584
19.38945	369601
19.39757	423595
19.40568	414314
19.41382	348492
19.42193	282739
19.43007	224416
19.43818	190457
19.44630	158472
19.45443	150200
19.46255	130027
19.47067	132159
19.47880	127756
19.48692	125814
19.49505	121855
19.50317	136104
19.51128	148697
19.51942	186330
19.52753	227987
19.53567	279636
19.54378	313610
19.55190	357207
19.56003	337328
19.56815	325555
19.57627	290981
19.58440	246610
19.59252	204347
19.60065	163382
19.60877	137765
19.61688	114695
19.62502	95911
19.63313	92798
19.64127	93572
19.64938	96807
19.65750	116595
19.66563	152608
19.67375	223659
19.68188	324398
19.69000	417636
19.69812	521510
19.70625	581044
19.71437	610090
19.72248	579048
19.73062	529202
19.73873	459712
19.74687	392255
19.75498	332672
19.76310	288679
19.77123	251357
19.77935	254259
19.78748	293713
19.79560	375192
19.80372	524015
19.81185	697688
19.81997	844735
19.82808	883546
19.83622	829554
19.84433	679236
19.85247	513780
19.86058	370103
19.86870	281969
19.87683	241923
19.88495	236032
19.89308	283739
19.90120	384756
19.90932	519613
19.91745	607013
19.92557	628739
19.93370	579498
19.94182	486215
19.94993	394604
19.95807	328147
19.96618	281181
19.97430	242319
19.98243	221251
19.99055	202633
19.99868	189924
20.00680	182840
20.01492	195199
20.02305	229400
20.03117	254267
20.03930	270336
20.04742	291027
20.05553	290323
20.06367	331931
20.07178	425301
20.07992	600020
20.08803	858298
20.09615	1103779
20.10428	1286351
20.11240	1319728
20.12052	1254400
20.12865	1041350
20.13677	835906
20.14490	657807
20.15302	614750
20.16113	819778
20.16927	1352412
20.17738	2416055
20.18552	3956494
20.19363	6006564
20.20175	8017042
20.20988	9309351
20.21800	9859918
20.22612	9089546
20.23425	7559826
20.24237	5842229
20.25050	4546675
20.25862	3930365
20.26673	4006265
20.27487	4713858
20.28298	5687294
20.29112	6399930
20.29923	6501419
20.30735	5938285
20.31548	4962827
20.32360	3775326
20.33173	2729732
20.33985	1878453
20.34797	1283119
20.35610	906266
20.36422	680567
20.37233	534830
20.38047	440521
20.38858	370537
20.39672	324114
20.40483	289898
20.41295	262995
20.42108	245087
20.42920	232370
20.43733	217918
20.44545	220057
20.45357	233678
20.46170	252944
20.46982	266426
20.47795	266633
20.48607	261724
20.49418	256526
20.50232	242815
20.51043	210408
20.51855	198656
20.52668	176676
20.53480	178456
20.54293	175244
20.55105	183992
20.55917	180930
20.56730	185165
20.57542	190402
20.58355	185845
20.59167	178822
20.59978	165438
20.60792	162980
20.61603	163194
20.62415	158668
20.63228	157839
20.64040	168123
20.64853	185586
20.65665	212277
20.66477	233307
20.67290	262019
20.68102	250598
20.68915	234506
20.69727	216276
20.70538	181599
20.71352	176179
20.72163	155703
20.72977	149779
20.73788	152647
20.74600	146224
20.75413	150716
20.76225	166157
20.77037	198384
20.77850	233402
20.78662	274180
20.79475	367184
20.80287	610899
20.81098	1082058
20.81912	1851668
20.82723	2973969
20.83537	3715427
20.84348	3981418
20.85160	3446836
20.85973	2602226
20.86785	1726473
20.87597	1023909
20.88410	575673
20.89222	387833
20.90035	307175
20.90847	272619
20.91658	285007
20.92472	305678
20.93283	357464
20.94097	420164
20.94908	473425
20.95720	496573
20.96533	471358
20.97345	438152
20.98158	367684
20.98970	311411
20.99782	252211
21.00595	218382
21.01407	191086
21.02218	184209
21.03032	176202
21.03843	189650
21.04657	197641
21.05468	197120
21.06280	203267
21.07093	196866
21.07905	179302
21.08718	171057
21.09530	160066
21.10342	150218
21.11155	142890
21.11967	139456
21.12780	142109
21.13592	154141
21.14403	208520
21.15217	320296
21.16028	530796
21.16840	802924
21.17653	1085686
21.18465	1250164
21.19278	1197147
21.20090	1007081
21.20902	745802
21.21715	545545
21.22527	389082
21.23340	301731
21.24152	255340
21.24963	218688
21.25777	203015
21.26588	185056
21.27400	167794
21.28213	144281
21.29025	146502
21.29838	145152
21.30650	134679
21.31462	133425
21.32275	126955
21.33087	136389
21.33900	126385
21.34712	132126
21.35523	123918
21.36337	132959
21.37148	136493
21.37962	134286
21.38773	147526
21.39585	159817
21.40398	188935
21.41210	232415
21.42022	289895
21.42835	337653
21.43647	387100
21.44460	367078
21.45272	349878
21.46083	305185
21.46897	268498
21.47708	240336
21.48522	207948
21.49333	205732
21.50145	179265
21.50958	171029
21.51770	157194
21.52583	145701
21.53395	137737
21.54207	130722
21.55020	138196
21.55832	126586
21.56643	129993
21.57457	135101
21.58268	134068
21.59082	154110
21.59893	176975
21.60705	208651
21.61518	216524
21.62330	212257
21.63143	199622
21.63955	200159
21.64767	190832
21.65580	210610
21.66392	235020
21.67203	268715
21.68017	309514
21.68828	354526
21.69642	385656
21.70453	394006
21.71265	386339
21.72078	338249
21.72890	264762
21.73703	229083
21.74515	173783
21.75327	151025
21.76140	137411
21.76952	135846
21.77765	134195
21.78577	125377
21.79388	137770
21.80202	141598
21.81013	150371
21.81825	148156
21.82638	157420
21.83450	158526
21.84263	168883
21.85075	166205
21.85887	176073
21.86700	194803
21.87512	209549
21.88325	209977
21.89137	207715
21.89948	190208
21.90762	181514
21.91573	173000
21.92385	168799
21.93198	160114
21.94010	149996
21.94823	146189
21.95635	130830
21.96447	124901
21.97260	109067
21.98072	102625
21.98885	102687
21.99697	93723
22.00508	95926
22.01322	96974
22.02133	106172
22.02947	106200
22.03758	129875
22.04570	137836
22.05383	150024
22.06195	158225
22.07007	164045
22.07820	158450
22.08632	153538
22.09445	146585
22.10257	138005
22.11068	133367
22.11882	116693
22.12693	114367
22.13507	109525
22.14318	98536
22.15130	96877
22.15943	96054
22.16755	88052
22.17568	90222
22.18380	93961
22.19192	101401
22.20005	106685
22.20817	98570
22.21628	98064
22.22442	106121
22.23253	102924
22.24067	108831
22.24878	117298
22.25690	122283
22.26503	132445
22.27315	138259
22.28128	141244
22.28940	173259
22.29752	185839
22.30565	213677
22.31377	226121
22.32190	222579
22.33002	205392
22.33813	192923
22.34627	174308
22.35438	155547
22.36250	136388
22.37063	126490
22.37875	124259
22.38688	129030
22.39500	152630
22.40312	194285
22.41125	307929
22.41937	477446
22.42750	667687
22.43562	884792
22.44373	999486
22.45187	942529
22.45998	780512
22.46810	599766
22.47623	416263
22.48435	308891
22.49248	258471
22.50060	266277
22.50872	316664
22.51685	394440
22.52497	468671
22.53310	547516
22.54122	585338
22.54933	553959
22.55747	498830
22.56558	412971
22.57372	328057
22.58183	265037
22.58995	216219
22.59808	196115
22.60620	175995
22.61432	165940
22.62245	143302
22.63057	132205
22.63870	122854
22.64682	116318
22.65493	126422
22.66307	129559
22.67118	139929
22.67932	150789
22.68743	163089
22.69555	165610
22.70368	197184
22.71180	252162
22.71992	344959
22.72805	438510
22.73617	494974
22.74430	503024
22.75242	462409
22.76053	387052
22.76867	313450
22.77678	257521
22.78492	231204
22.79303	234437
22.80115	283850
22.80928	352379
22.81740	434160
22.82553	510649
22.83365	553108
22.84177	544015
22.84990	486513
22.85802	395033
22.86613	353248
22.87427	334502
22.88238	368092
22.89052	452917
22.89863	574702
22.90675	682994
22.91488	734069
22.92300	751376
22.93113	716237
22.93925	669287
22.94737	609477
22.95550	533398
22.96362	484936
22.97175	383157
22.97987	296241
22.98798	238393
22.99612	182954
23.00423	157472
23.01235	136899
23.02048	125124
23.02860	113407
23.03673	110482
23.04485	104094
23.05297	113417
23.06110	111226
23.06922	125028
23.07735	156386
23.08547	163598
23.09358	174139
23.10172	174020
23.10983	174329
23.11795	154048
23.12608	152023
23.13420	131593
23.14233	122207
23.15045	108977
23.15857	117712
23.16670	109359
23.17482	108222
23.18295	110765
23.19107	91201
23.19918	90720
23.20732	89477
23.21543	87612
23.22357	86498
23.23168	85920
23.23980	86749
23.24793	90627
23.25605	106782
23.26417	134901
23.27230	168152
23.28042	209708
23.28855	241471
23.29667	241505
23.30478	214884
23.31292	178775
23.32103	154407
23.32917	145038
23.33728	137810
23.34540	166181
23.35353	219273
23.36165	309351
23.36978	437373
23.37790	552729
23.38602	647991
23.39415	665878
23.40227	599019
23.41038	468000
23.41852	357204
23.42663	259241
23.43477	194094
23.44288	150148
23.45100	120476
23.45913	104798
23.46725	99216
23.47538	92126
23.48350	90272
23.49162	91258
23.49975	87117
23.50787	87165
23.51598	85291
23.52412	84914
23.53223	85965
23.54037	91905
23.54848	99281
23.55660	111458
23.56473	139581
23.57285	176855
23.58098	254943
23.58910	383340
23.59722	579120
23.60535	824409
23.61347	1108897
23.62160	1236587
23.62972	1237402
23.63783	1046517
23.64597	771523
23.65408	562076
23.66220	366945
23.67033	264804
23.67845	209838
23.68658	186865
23.69470	162523
23.70282	151525
23.71095	143077
23.71907	130792
23.72720	135736
23.73532	132767
23.74343	133140
23.75157	126382
23.75968	114419
23.76780	129924
23.77593	179817
23.78405	332559
23.79218	621047
23.80030	1013782
23.80842	1482479
23.81655	1766378
23.82467	1798315
23.83280	1534985
23.84092	1254694
23.84903	948123
23.85717	703802
23.86528	537728
23.87342	429034
23.88153	361685
23.88965	331998
23.89778	311944
23.90590	326263
23.91402	378574
23.92215	462114
23.93027	563675
23.93840	620718
23.94652	639558
23.95463	555013
23.96277	447198
23.97088	340496
23.97902	271980
23.98713	229195
23.99525	207384
24.00338	179186
24.01150	178144
24.01963	175557
24.02775	175419
24.03587	180002
24.04400	188414
24.05212	185283
24.06023	185509
24.06837	171073
24.07648	171141
24.08462	152642
24.09273	135857
24.10085	129029
24.10898	120924
24.11710	119519
24.12523	124019
24.13335	129090
24.14147	159637
24.14960	204955
24.15772	266384
24.16583	362115
24.17397	432565
24.18208	470960
24.19022	456666
24.19833	449958
24.20645	423702
24.21458	415935
24.22270	395750
24.23083	358088
24.23895	314015
24.24707	260465
24.25520	214833
24.26332	203649
24.27145	181014
24.27957	154893
24.28768	145854
24.29582	132267
24.30393	134643
24.31205	144503
24.32018	141608
24.32830	155265
24.33643	164297
24.34455	170263
24.35267	177825
24.36080	170123
24.36892	157219
24.37705	135945
24.38517	125669
24.39328	123741
24.40142	118178
24.40953	120835
24.41767	144535
24.42578	148780
24.43390	168246
24.44203	171537
24.45015	169207
24.45827	144752
24.46640	135382
24.47452	129727
24.48265	128365
24.49077	131214
24.49888	134749
24.50702	145450
24.51513	142363
24.52327	148448
24.53138	160381
24.53950	175180
24.54763	214721
24.55575	290122
24.56387	357949
24.57200	419375
24.58012	486225
24.58825	487343
24.59637	456089
24.60448	403334
24.61262	341490
24.62073	301571
24.62887	261589
24.63698	230134
24.64510	185648
24.65323	176410
24.66135	153407
24.66948	142457
24.67760	145670
24.68572	141025
24.69385	140430
24.70197	143071
24.71008	129569
24.71822	132169
24.72633	128238
24.73447	128261
24.74258	132755
24.75070	131641
24.75883	133729
24.76695	126664
24.77508	135956
24.78320	146296
24.79132	165177
24.79945	188303
24.80757	208587
24.81570	214282
24.82382	213919
24.83193	220394
24.84007	240039
24.84818	287116
24.85630	386383
24.86443	544029
24.87255	792613
24.88068	1124673
24.88880	1613650
24.89692	2215162
24.90505	2815409
24.91317	3235680
24.92130	3135466
24.92942	2647025
24.93753	1930341
24.94567	1279542
24.95378	767797
24.96190	471157
24.97003	294137
24.97815	205485
24.98628	175678
24.99440	150921
25.00252	132214
25.01065	123195
25.01877	124075
25.02690	118421
25.03502	117110
25.04313	112563
25.05127	111816
25.05938	121586
25.06752	115890
25.07563	115059
25.08375	116680
25.09188	124232
25.10000	139155
25.10812	192302
25.11625	367779
25.12437	893218
25.13250	2149241
25.14062	4731630
25.14873	8391767
25.15687	1.265721E+07
25.16498	1.620158E+07
25.17312	1.797879E+07
25.18123	1.654511E+07
25.18935	1.320832E+07
25.19748	8774289
25.20560	5045600
25.21372	2756534
25.22185	1449060
25.22997	769867
25.23810	481759
25.24622	366086
25.25433	365642
25.26247	459264
25.27058	635703
25.27872	837860
25.28683	1024167
25.29495	1127813
25.30308	1021559
25.31120	879271
25.31933	649940
25.32745	466607
25.33557	319957
25.34370	229806
25.35182	191370
25.35993	163695
25.36807	143809
25.37618	142659
25.38432	132651
25.39243	122101
25.40055	114296
25.40868	112573
25.41680	108599
25.42493	104454
25.43305	101528
25.44117	100832
25.44930	99653
25.45742	104749
25.46555	112222
25.47367	108792
25.48178	118074
25.48992	138287
25.49803	149241
25.50615	168678
25.51428	192021
25.52240	188500
25.53053	174264
25.53865	168844
25.54677	147202
25.55490	132806
25.56302	121108
25.57115	110474
25.57927	116371
25.58738	114198
25.59552	120443
25.60363	124312
25.61175	113074
25.61988	112729
25.62800	109810
25.63613	102326
25.64425	104273
25.65237	96308
25.66050	100300
25.66862	101586
25.67675	111365
25.68487	123771
25.69298	144416
25.70112	163117
25.70923	194049
25.71737	201301
25.72548	207202
25.73360	193655
25.74173	167703
25.74985	146686
25.75797	132903
25.76610	120166
25.77422	113195
25.78235	98531
25.79047	95090
25.79858	96197
25.80672	93412
25.81483	98076
25.82297	90892
25.83108	93006
25.83920	105588
25.84733	96597
25.85545	104958
25.86358	110223
25.87170	106456
25.87982	103440
25.88795	107788
25.89607	108704
25.90418	119759
25.91232	110904
25.92043	109322
25.92857	116561
25.93668	105066
25.94480	106523
25.95293	108696
25.96105	114659
25.96918	118195
25.97730	117648
25.98542	120296
25.99355	118720
26.00167	112153
26.00978	108085
26.01792	103646
26.02603	96535
26.03417	93646
26.04228	83616
26.05040	86788
26.05853	82912
26.06665	90891
26.07478	98876
26.08290	106655
26.09102	116521
26.09915	138353
26.10727	144815
26.11540	154546
26.12352	159107
26.13163	161436
26.13977	144830
26.14788	152809
26.15600	149403
26.16413	165537
26.17225	165905
26.18038	172497
26.18850	177012
26.19662	185550
26.20475	172022
26.21287	164556
26.22100	153384
26.22912	139199
26.23723	123487
26.24537	127748
26.25348	118494
26.26160	110145
26.26973	108179
26.27785	98690
26.28598	91309
26.29410	90860
26.30222	88952
26.31035	93286
26.31847	89417
26.32660	88134
26.33472	95033
26.34283	89309
26.35097	99056
26.35908	147805
26.36722	258651
26.37533	514389
26.38345	944858
26.39158	1702431
26.39970	2653175
26.40782	3656155
26.41595	4200971
26.42407	4313547
26.43220	3833269
26.44032	3018996
26.44843	2126625
26.45657	1377091
26.46468	868327
26.47282	549043
26.48093	352699
26.48905	244519
26.49718	204006
26.50530	175189
26.51343	159058
26.52155	135168
26.52967	125524
26.53780	107140
26.54592	94427
26.55403	91522
26.56217	86333
26.57028	80526
26.57842	79181
26.58653	84151
26.59465	89118
26.60278	86596
26.61090	79859
26.61903	81491
26.62715	84713
26.63527	89605
26.64340	87475
26.65152	89543
26.65965	87594
26.66777	86786
26.67588	82239
26.68402	81972
26.69213	79627
26.70025	80359
26.70838	84112
26.71650	82373
26.72463	82230
26.73275	85975
26.74087	86420
26.74900	94818
26.75712	87231
26.76525	93992
26.77337	92740
26.78148	92475
26.78962	103289
26.79773	99526
26.80585	103790
26.81398	115922
26.82210	146258
26.83023	170153
26.83835	195993
26.84647	211323
26.85460	221687
26.86272	210506
26.87085	224208
26.87897	215728
26.88708	219548
26.89522	219125
26.90333	220511
26.91147	228528
26.91958	234710
26.92770	221741
26.93583	218416
26.94395	210882
26.95207	210889
26.96020	218058
26.96832	212263
26.97645	221205
26.98457	255745
26.99268	281604
27.00082	357620
27.00893	487327
27.01707	625963
27.02518	799750
27.03330	924909
27.04143	999539
27.04955	992633
27.05767	903316
27.06580	768564
27.07392	627418
27.08205	518122
27.09017	453562
27.09828	391524
27.10642	353441
27.11453	340708
27.12267	323675
27.13078	325539
27.13890	304630
27.14703	309747
27.15515	297629
27.16328	299781
27.17140	306005
27.17952	334559
27.18765	390762
27.19577	467595
27.20388	577725
27.21202	677791
27.22013	678009
27.22827	650373
27.23638	568313
27.24450	484820
27.25263	412935
27.26075	341540
27.26888	297604
27.27700	262938
27.28512	248594
27.29325	231964
27.30137	222016
27.30948	224625
27.31762	222002
27.32573	224904
27.33387	235267
27.34198	241346
27.35010	242954
27.35823	248387
27.36635	260011
27.37448	260536
27.38260	256208
27.39072	260680
27.39885	239441
27.40697	235522
27.41510	228770
27.42322	225673
27.43133	216326
27.43947	216654
27.44758	223761
27.45570	225373
27.46383	215756
27.47195	212021
27.48008	205241
27.48820	192621
27.49632	186953
27.50445	177864
27.51257	176504
27.52070	171704
27.52882	167283
27.53693	173926
27.54507	171485
27.55318	178632
27.56132	182283
27.56943	173436
27.57755	185748
27.58568	211304
27.59380	242228
27.60192	280749
27.61005	342925
27.61817	378656
27.62630	380727
27.63442	360456
27.64253	323197
27.65067	290417
27.65878	267160
27.66692	235000
27.67503	228280
27.68315	234429
27.69128	245557
27.69940	256919
27.70753	263051
27.71565	277272
27.72377	274377
27.73190	247786
27.74002	213779
27.74813	204348
27.75627	168713
27.76438	161634
27.77252	167029
27.78063	161902
27.78875	163907
27.79688	186463
27.80500	195474
27.81313	203875
27.82125	197239
27.82937	190795
27.83750	184949
27.84562	166875
27.85373	166804
27.86187	150635
27.86998	148493
27.87812	148124
27.88623	140064
27.89435	133612
27.90248	135790
27.91060	140997
27.91873	139176
27.92685	142809
27.93497	144757
27.94310	141705
27.95122	136122
27.95935	133472
27.96747	140703
27.97558	130375
27.98372	137362
27.99183	128628
27.99995	133815
28.00808	146784
28.01620	157857
28.02433	175916
28.03245	211706
28.04057	278524
28.04870	356087
28.05682	469839
28.06495	564461
28.07307	627275
28.08118	583097
28.08932	497334
28.09743	390242
28.10555	290667
28.11368	217870
28.12180	173116
28.12993	155602
28.13805	135306
28.14617	124694
28.15430	127089
28.16242	127323
28.17055	119738
28.17867	123352
28.18678	124071
28.19492	133422
28.20303	154421
28.21117	176516
28.21928	219627
28.22740	275836
28.23553	329058
28.24365	350718
28.25177	349817
28.25990	323064
28.26802	276295
28.27615	231671
28.28427	182246
28.29238	153216
28.30052	149179
28.30863	146022
28.31677	183616
28.32488	215212
28.33300	272918
28.34113	319977
28.34925	332648
28.35738	317444
28.36550	291046
28.37362	268012
28.38175	253789
28.38987	222977
28.39798	232672
28.40612	234626
28.41423	230717
28.42237	238905
28.43048	230651
28.43860	226594
28.44673	207889
28.45485	193507
28.46298	180317
28.47110	168578
28.47922	168934
28.48735	177382
28.49547	190274
28.50358	227629
28.51172	260836
28.51983	306363
28.52797	332247
28.53608	332646
28.54420	304624
28.55233	274187
28.56045	218471
28.56858	171640
28.57670	143194
28.58482	119209
28.59295	116644
28.60107	112243
28.60920	111873
28.61732	120323
28.62543	124558
28.63357	146068
28.64168	169655
28.64980	181829
28.65793	200092
28.66605	195563
28.67418	199026
28.68230	171958
28.69042	164902
28.69855	144083
28.70667	131595
28.71480	118610
28.72292	115823
28.73103	107641
28.73917	99484
28.74728	95639
28.75542	104383
28.76353	104834
28.77165	103575
28.77978	112977
28.78790	128100
28.79602	133685
28.80415	153603
28.81227	164092
28.82040	180889
28.82852	191842
28.83663	195672
28.84477	183763
28.85288	167677
28.86102	158659
28.86913	146996
28.87725	141265
28.88538	149450
28.89350	158890
28.90162	186791
28.90975	217267
28.91787	251289
28.92600	266190
28.93412	252278
28.94223	216494
28.95037	199397
28.95848	170615
28.96662	162762
28.97473	143175
28.98285	129606
28.99098	119139
28.99910	114853
29.00723	106538
29.01535	103853
29.02347	100428
29.03160	101448
29.03972	105099
29.04783	105814
29.05597	104714
29.06408	101452
29.07222	99816
29.08033	99815
29.08845	111028
29.09658	118040
29.10470	120421
29.11283	119141
29.12095	124356
29.12907	113767
29.13720	109749
29.14532	100216
29.15343	96986
29.16157	95349
29.16968	87263
29.17782	93974
29.18593	94514
29.19405	101075
29.20218	129251
29.21030	168229
29.21843	232546
29.22655	313560
29.23467	369406
29.24280	396078
29.25092	399747
29.25905	359085
29.26717	330805
29.27528	302489
29.28342	272716
29.29153	249736
29.29965	220796
29.30778	176924
29.31590	152602
29.32403	126925
29.33215	101806
29.34027	102296
29.34840	93775
29.35652	89412
29.36465	89445
29.37277	91119
29.38088	88040
29.38902	90056
29.39713	91474
29.40527	100184
29.41338	99012
29.42150	95479
29.42963	104366
29.43775	115749
29.44587	114184
29.45400	115795
29.46212	106960
29.47025	104432
29.47837	99225
29.48648	92429
29.49462	92271
29.50273	97482
29.51087	97929
29.51898	104611
29.52710	104909
29.53523	106350
29.54335	108047
29.55147	100910
29.55960	95751
29.56772	96911
29.57585	94944
29.58397	93907
29.59208	91470
29.60022	89107
29.60833	84963
29.61647	87515
29.62458	85170
29.63270	87773
29.64083	88903
29.64895	88054
29.65708	83064
29.66520	87052
29.67332	89359
29.68145	90303
29.68957	97066
29.69768	107322
29.70582	122828
29.71393	133215
29.72207	146363
29.73018	151814
29.73830	131199
29.74643	113706
29.75455	106930
29.76268	99396
29.77080	91874
29.77892	90183
29.78705	86416
29.79517	85138
29.80330	82996
29.81142	76440
29.81953	80790
29.82767	80877
29.83578	79277
29.84390	80932
29.85203	82839
29.86015	79811
29.86828	82668
29.87640	84684
29.88452	91363
29.89265	108604
29.90077	141207
29.90890	184657
29.91702	224100
29.92513	241620
29.93327	241190
29.94138	198622
29.94950	157071
29.95763	135261
29.96575	111627
29.97388	102258
29.98200	90161
29.99012	101851
29.99825	98940
30.00637	111757
30.01450	118780
30.02262	129519
30.03073	128760
30.03887	139036
30.04698	135485
30.05512	132634
30.06323	136778
30.07135	133092
30.07948	135211
30.08760	131918
30.09572	134289
30.10385	138712
30.11197	132105
30.12010	135853
30.12822	131035
30.13633	127934
30.14447	123037
30.15258	122366
30.16072	121509
30.16883	118111
30.17695	118471
30.18508	118425
30.19320	132304
30.20133	145904
30.20945	162180
30.21757	178832
30.22570	189242
30.23382	190325
30.24193	181756
30.25007	153222
30.25818	127837
30.26632	110289
30.27443	99799
30.28255	95660
30.29068	99110
30.29880	97469
30.30693	96288
30.31505	95209
30.32317	96497
30.33130	101358
30.33942	95851
30.34753	92402
30.35567	99707
30.36378	96955
30.37192	96085
30.38003	99754
30.38815	98803
30.39628	88952
30.40440	84976
30.41253	81828
30.42065	81470
30.42877	77807
30.43690	86105
30.44502	85008
30.45315	83016
30.46127	85187
30.46938	82929
30.47752	84504
30.48563	82266
30.49375	77814
30.50188	91968
30.51000	89266
30.51813	98848
30.52625	94143
30.53437	98761
30.54250	94206
30.55062	90611
30.55875	96793
30.56687	89696
30.57498	98764
30.58312	95430
30.59123	96374
30.59935	103804
30.60748	98211
30.61560	101190
30.62373	99244
30.63185	94376
30.63997	98071
30.64810	99549
30.65622	96710
30.66435	93590
30.67247	89401
30.68058	81044
30.68872	81121
30.69683	79414
30.70497	83854
30.71308	77243
30.72120	79913
30.72933	79370
30.73745	80226
30.74557	83111
30.75370	86184
30.76182	85313
30.76995	82406
30.77807	87057
30.78618	94570
30.79432	101914
30.80243	130994
30.81057	182036
30.81868	254677
30.82680	308056
30.83493	333820
30.84305	315640
30.85118	287693
30.85930	236442
30.86742	171697
30.87555	150024
30.88367	143715
30.89178	148745
30.89992	154378
30.90803	156578
30.91617	151168
30.92428	147954
30.93240	129578
30.94053	119625
30.94865	105711
30.95678	104774
30.96490	106816
30.97302	106569
30.98115	107261
30.98927	108835
30.99738	116441
31.00552	101014
31.01363	102979
31.02177	98717
31.02988	93003
31.03800	95354
31.04613	94597
31.05425	97480
31.06238	99905
31.07050	95733
31.07862	97122
31.08675	96304
31.09487	99148
31.10300	113364
31.11112	121122
31.11923	141541
31.12737	161547
31.13548	161392
31.14360	157723
31.15173	152938
31.15985	143167
31.16798	146885
31.17610	164735
31.18422	176548
31.19235	187672
31.20047	223506
31.20860	290013
31.21672	405019
31.22483	593237
31.23297	782861
31.24108	910809
31.24922	935372
31.25733	848944
31.26545	668984
31.27358	479349
31.28170	323474
31.28982	221181
31.29795	150020
31.30607	119807
31.31420	106775
31.32232	109230
31.33043	108327
31.33857	118261
31.34668	128884
31.35482	129216
31.36293	138372
31.37105	134054
31.37918	124592
31.38730	117179
31.39542	111439
31.40355	105892
31.41167	94763
31.41980	95787
31.42792	97341
31.43603	94576
31.44417	101535
31.45228	97776
31.46042	99094
31.46853	95936
31.47665	97283
31.48478	98168
31.49290	100765
31.50103	108526
31.50915	122597
31.51727	124049
31.52540	151711
31.53352	174275
31.54163	193296
31.54977	206794
31.55788	208067
31.56602	189068
31.57413	180383
31.58225	167779
31.59038	145016
31.59850	127056
31.60663	121981
31.61475	113185
31.62287	109137
31.63100	96016
31.63912	104959
31.64723	101695
31.65537	105106
31.66348	111013
31.67162	117680
31.67973	129262
31.68785	139314
31.69598	153565
31.70410	161974
31.71223	153851
31.72035	141949
31.72847	121605
31.73660	112149
31.74472	100571
31.75285	91120
31.76097	88954
31.76908	86877
31.77722	88241
31.78533	91409
31.79345	90585
31.80158	92802
31.80970	85968
31.81783	94796
31.82595	91774
31.83407	88211
31.84220	95728
31.85032	92526
31.85845	88684
31.86657	99635
31.87468	101514
31.88282	104082
31.89093	104211
31.89907	102207
31.90718	97726
31.91530	94081
31.92343	92599
31.93155	91989
31.93967	100784
31.94780	104092
31.95592	102407
31.96405	102970
31.97217	112508
31.98028	116441
31.98842	129154
31.99653	142528
32.00467	156647
32.01278	171929
32.02090	195607
32.02903	215452
32.03715	238318
32.04528	238903
32.05340	222532
32.06152	207432
32.06965	194666
32.07777	175947
32.08588	167979
32.09402	147341
32.10213	141823
32.11027	128032
32.11838	128285
32.12650	121437
32.13463	114268
32.14275	110483
32.15088	108094
32.15900	108014
32.16712	95746
32.17525	96723
32.18337	99374
32.19148	97674
32.19962	99873
32.20773	96639
32.21587	102927
32.22398	100616
32.23210	100385
32.24023	97355
32.24835	92833
32.25648	90844
32.26460	92994
32.27272	92871
32.28085	93983
32.28897	102603
32.29710	105673
32.30522	104362
32.31333	100728
32.32147	100862
32.32958	99219
32.33770	105448
32.34583	114993
32.35395	143716
32.36208	176222
32.37020	242333
32.37832	297674
32.38645	331438
32.39457	316985
32.40270	282446
32.41082	219276
32.41893	173998
32.42707	146819
32.43518	123659
32.44330	112912
32.45143	114432
32.45955	106010
32.46768	100129
32.47580	103263
32.48392	96483
32.49205	100227
32.50017	90734
32.50830	94694
32.51642	92441
32.52453	93892
32.53267	94334
32.54078	98582
32.54892	92540
32.55703	93790
32.56515	98728
32.57328	96855
32.58140	98755
32.58952	98524
32.59765	98026
32.60577	101263
32.61390	98456
32.62202	102332
32.63013	105415
32.63827	104845
32.64638	100785
32.65452	102530
32.66263	109071
32.67075	104843
32.67888	114192
32.68700	111933
32.69513	127822
32.70325	129652
32.71137	126107
32.71950	135254
32.72762	125277
32.73573	119538
32.74387	117851
32.75198	111241
32.76012	105102
32.76823	104729
32.77635	101386
32.78448	104991
32.79260	101099
32.80073	96397
32.80885	101451
32.81697	97293
32.82510	97904
32.83322	101609
32.84133	109191
32.84947	115810
32.85758	111930
32.86572	114421
32.87383	108933
32.88195	105481
32.89008	106721
32.89820	115030
32.90633	116369
32.91445	128206
32.92257	128725
32.93070	143150
32.93882	128272
32.94695	124113
32.95507	110798
32.96318	112199
32.97132	101682
32.97943	110773
32.98755	119099
32.99568	155394
33.00380	203930
33.01193	268888
33.02005	351295
33.02817	376569
33.03630	359298
33.04442	314683
33.05255	261318
33.06067	213680
33.06878	201230
33.07692	213059
33.08503	230337
33.09317	283538
33.10128	351623
33.10940	450186
33.11753	518350
33.12565	586095
33.13377	557636
33.14190	487556
33.15002	404932
33.15815	336474
33.16627	277842
33.17438	235975
33.18252	215330
33.19063	187807
33.19877	167770
33.20688	148805
33.21500	128928
33.22313	125547
33.23125	130391
33.23937	132404
33.24750	136972
33.25562	138676
33.26375	137922
33.27187	138356
33.27998	124184
33.28812	127387
33.29623	121686
33.30437	127389
33.31248	123444
33.32060	119124
33.32873	125906
33.33685	130337
33.34498	128180
33.35310	143689
33.36122	153504
33.36935	162972
33.37747	178013
33.38558	186559
33.39372	182001
33.40183	168712
33.40997	145749
33.41808	131108
33.42620	112624
33.43433	99402
33.44245	96621
33.45058	98080
33.45870	95432
33.46682	91324
33.47495	95279
33.48307	98260
33.49118	97291
33.49932	100370
33.50743	104091
33.51557	105516
33.52368	112515
33.53180	119725
33.53993	117931
33.54805	121892
33.55618	132250
33.56430	153907
33.57242	168451
33.58055	172590
33.58867	166072
33.59680	150957
33.60492	129243
33.61303	119264
33.62117	101329
33.62928	102719
33.63740	105906
33.64553	104454
33.65365	119384
33.66178	130180
33.66990	129515
33.67802	133328
33.68615	133780
33.69427	131727
33.70240	116935
33.71052	111026
33.71863	103023
33.72677	98918
33.73488	92975
33.74302	90703
33.75113	87951
33.75925	96242
33.76738	95228
33.77550	95581
33.78362	101951
33.79175	103657
33.79987	109657
33.80800	129966
33.81612	130360
33.82423	125839
33.83237	127712
33.84048	112490
33.84862	105127
33.85673	106431
33.86485	99373
33.87298	108110
33.88110	102110
33.88922	101814
33.89735	110693
33.90547	110386
33.91360	111035
33.92172	108173
33.92983	104237
33.93797	104342
33.94608	101858
33.95422	94788
33.96233	97274
33.97045	97871
33.97858	93783
33.98670	89538
33.99483	91900
34.00295	92910
34.01107	89099
34.01920	92659
34.02732	89138
34.03543	90033
34.04357	94858
34.05168	90705
34.05982	87509
34.06793	95910
34.07605	88414
34.08418	95909
34.09230	100311
34.10043	95608
34.10855	95990
34.11667	94486
34.12480	95517
34.13292	97564
34.14105	95472
34.14917	97591
34.15728	94650
34.16542	97646
34.17353	97051
34.18165	94151
34.18978	97108
34.19790	97509
34.20603	96110
34.21415	95121
34.22227	96993
34.23040	98049
34.23852	97042
34.24665	95902
34.25477	94141
34.26288	92618
34.27102	90402
34.27913	94317
34.28725	89296
34.29538	87162
34.30350	86252
34.31163	91023
34.31975	89271
34.32787	94142
34.33600	84961
34.34412	92389
34.35225	94960
34.36037	85457
34.36848	89371
34.37662	91152
34.38473	97017
34.39287	94252
34.40098	87745
34.40910	89674
34.41723	92265
34.42535	94052
34.43347	84864
34.44160	87958
34.44972	89129
34.45785	96069
34.46597	94060
34.47408	98648
34.48222	93376
34.49033	92913
34.49847	95420
34.50658	95072
34.51470	92308
34.52283	89703
34.53095	94608
34.53907	101642
34.54720	106669
34.55532	123805
34.56345	131027
34.57157	152273
34.57968	166661
34.58782	178246
34.59593	173233
34.60407	163981
34.61218	152367
34.62030	137090
34.62843	131011
34.63655	117735
34.64468	116649
34.65280	116707
34.66092	114654
34.66905	105859
34.67717	111853
34.68528	108884
34.69342	101017
34.70153	100104
34.70967	98926
34.71778	98923
34.72590	98196
34.73403	98666
34.74215	97971
34.75028	99451
34.75840	98759
34.76652	106123
34.77465	106387
34.78277	110474
34.79090	121158
34.79902	120623
34.80713	125307
34.81527	119883
34.82338	117072
34.83150	109461
34.83963	106386
34.84775	113758
34.85588	106970
34.86400	103357
34.87212	105279
34.88025	106668
34.88837	110518
34.89650	103674
34.90462	108062
34.91273	96083
34.92087	95035
34.92898	94063
34.93710	94249
34.94523	103032
34.95335	110752
34.96148	113589
34.96960	116941
34.97772	122155
34.98585	132279
34.99397	134226
35.00210	131167
35.01022	125291
35.01833	120364
35.02647	111646
35.03458	113931
35.04272	98412
35.05083	109119
35.05895	103326
35.06708	103676
35.07520	99475
35.08332	93372
35.09145	97128
35.09957	98231
35.10770	102551
35.11582	106510
35.12393	99888
35.13207	103469
35.14018	96706
35.14832	102696
35.15643	102099
35.16455	107709
35.17268	112621
35.18080	116122
35.18893	113291
35.19705	113175
35.20517	112011
35.21330	108954
35.22142	99163
35.22953	102804
35.23767	105517
35.24578	102682
35.25392	98943
35.26203	101505
35.27015	103056
35.27828	101531
35.28640	107184
35.29453	109382
35.30265	107029
35.31077	107410
35.31890	108012
35.32702	102372
35.33513	102505
35.34327	99328
35.35138	107999
35.35952	105770
35.36763	101314
35.37575	95361
35.38388	102854
35.39200	103246
35.40013	110617
35.40825	108881
35.41637	119268
35.42450	141108
35.43262	156907
35.44075	187376
35.44887	193444
35.45698	202844
35.46512	187449
35.47323	177322
35.48135	158334
35.48948	143416
35.49760	137459
35.50573	121474
35.51385	125220
35.52197	118484
35.53010	122637
35.53822	111013
35.54635	124104
35.55447	119540
35.56258	110401
35.57072	107627
35.57883	113259
35.58697	108298
35.59508	104126
35.60320	104752
35.61133	106358
35.61945	105999
35.62757	104518
35.63570	106669
35.64382	101522
35.65195	99533
35.66007	97505
35.66818	101698
35.67632	105407
35.68443	96117
35.69257	106195
35.70068	100282
35.70880	115306
35.71693	112373
35.72505	120859
35.73317	112913
35.74130	120408
35.74942	126600
35.75755	137450
35.76567	157242
35.77378	188467
35.78192	229157
35.79003	247967
35.79817	249818
35.80628	230196
35.81440	202164
35.82253	175177
35.83065	144988
35.83878	126946
35.84690	116722
35.85502	113571
35.86315	105712
35.87127	109599
35.87938	111015
35.88752	107098
35.89563	106806
35.90377	105985
35.91188	109146
35.92000	105196
35.92813	115533
35.93625	111310
35.94438	107428
35.95250	108421
35.96062	103903
35.96875	105009
35.97687	109236
35.98498	108072
35.99312	107754
36.00123	102859
36.00937	103315
36.01748	114300
36.02560	109718
36.03373	109285
36.04185	116320
36.04998	116262
36.05810	111602
36.06622	115433
36.07435	111629
36.08247	118005
36.09060	114623
36.09872	111867
36.10683	109530
36.11497	106265
36.12308	115342
36.13120	123482
36.13933	122666
36.14745	135935
36.15558	154496
36.16370	168806
36.17182	179683
36.17995	167465
36.18807	156289
36.19620	150395
36.20432	140457
36.21243	120303
36.22057	130133
36.22868	113562
36.23682	121593
36.24493	115742
36.25305	111537
36.26118	115436
36.26930	111018
36.27742	122100
36.28555	112920
36.29367	110986
36.30180	110795
36.30992	116558
36.31803	121759
36.32617	123900
36.33428	133228
36.34242	131933
36.35053	147134
36.35865	141783
36.36678	146048
36.37490	141748
36.38302	133552
36.39115	135308
36.39927	132902
36.40740	136761
36.41552	135049
36.42363	128221
36.43177	139873
36.43988	137171
36.44802	129589
36.45613	130698
36.46425	126341
36.47238	125646
36.48050	122624
36.48863	123996
36.49675	115045
36.50487	114699
36.51300	120788
36.52112	104241
36.52923	110124
36.53737	112464
36.54548	121980
36.55362	120582
36.56173	119446
36.56985	117253
36.57798	119457
36.58610	118244
36.59423	115211
36.60235	109515
36.61047	113030
36.61860	119452
36.62672	112622
36.63485	120131
36.64297	124407
36.65108	121667
36.65922	121312
36.66733	119217
36.67545	122158
36.68358	121306
36.69170	119448
36.69983	117405
36.70795	119867
36.71607	120929
36.72420	124746
36.73232	117520
36.74045	128701
36.74857	134933
36.75668	140688
36.76482	137144
36.77293	138097
36.78105	131157
36.78918	131535
36.79730	127670
36.80543	126984
36.81355	125067
36.82167	123837
36.82980	121414
36.83792	124331
36.84605	125573
36.85417	114262
36.86228	120726
36.87042	116478
36.87853	119624
36.88667	114645
36.89478	120771
36.90290	107020
36.91103	120118
36.91915	114300
36.92727	115285
36.93540	119644
36.94352	123561
36.95165	131592
36.95977	164593
36.96788	209707
36.97602	262986
36.98413	311677
36.99227	344909
37.00038	355231
37.00850	321118
37.01663	260710
37.02475	215313
37.03287	171598
37.04100	147085
37.04912	133406
37.05725	132499
37.06537	137968
37.07348	138193
37.08162	145424
37.08973	148317
37.09787	159649
37.10598	160088
37.11410	160938
37.12223	173562
37.13035	160716
37.13848	152140
37.14660	154028
37.15472	138785
37.16285	136007
37.17097	126153
37.17908	126446
37.18722	128712
37.19533	128365
37.20347	126793
37.21158	138866
37.21970	140650
37.22783	170861
37.23595	216430
37.24408	275563
37.25220	340038
37.26032	415320
37.26845	470822
37.27657	487016
37.28470	459677
37.29282	412091
37.30093	341787
37.30907	279428
37.31718	224080
37.32530	192188
37.33343	169591
37.34155	167215
37.34968	158654
37.35780	154072
37.36592	155727
37.37405	152518
37.38217	152239
37.39030	166864
37.39842	169138
37.40653	169249
37.41467	171886
37.42278	172966
37.43092	172767
37.43903	179715
37.44715	177699
37.45528	179256
37.46340	187808
37.47152	184263
37.47965	173791
37.48777	170125
