C:\MassHunter\GCMS\1\data\JTB-E18\JTB-E18-035-07.D Wed Oct 16 13:54:20 2019
Start of data points
2.09528,215316
2.10340,199112
2.11153,192733
2.11965,181598
2.12777,181799
2.13590,178040
2.14402,172409
2.15215,164796
2.16027,163763
2.16838,158786
2.17652,152788
2.18463,151362
2.19275,144990
2.20088,143230
2.20900,133810
2.21713,133292
2.22525,126393
2.23337,130729
2.24150,129786
2.24962,124682
2.25775,130400
2.26587,275009
2.27398,1742067
2.28212,2878281
2.29023,1452502
2.29835,725073
2.30648,563723
2.31460,480707
2.32273,408637
2.33085,373702
2.33897,329806
2.34710,310310
2.35522,283653
2.36335,271827
2.37147,250761
2.37958,260368
2.38772,286367
2.39583,254006
2.40397,225404
2.41208,219986
2.42020,331636
2.42833,389500
2.43645,290518
2.44457,260728
2.45270,237120
2.46082,217133
2.46895,208833
2.47707,200087
2.48518,193360
2.49332,212919
2.50143,199844
2.50957,181260
2.51768,178864
2.52580,176186
2.53393,169675
2.54205,167873
2.55017,174200
2.55830,203496
2.56642,205638
2.57455,176769
2.58267,169453
2.59078,164229
2.59892,156681
2.60703,167396
2.61517,201253
2.62328,199352
2.63140,180783
2.63953,165721
2.64765,161296
2.65578,152705
2.66390,154438
2.67202,155457
2.68015,176500
2.68827,173048
2.69638,152141
2.70452,146495
2.71263,138075
2.72077,137546
2.72888,132984
2.73700,132213
2.74513,131164
2.75325,133578
2.76138,129859
2.76950,129291
2.77762,135913
2.78575,160362
2.79387,154526
2.80200,155649
2.81012,159283
2.81823,193740
2.82637,304492
2.83448,451052
2.84260,387278
2.85073,280088
2.85885,242070
2.86698,236640
2.87510,207898
2.88322,175069
2.89135,171042
2.89947,159186
2.90760,147787
2.91572,150380
2.92383,147525
2.93197,137246
2.94008,135653
2.94820,128928
2.95633,132954
2.96445,133566
2.97258,126556
2.98070,123863
2.98882,127603
2.99695,132368
3.00507,135063
3.01320,135731
3.02132,179138
3.02943,352944
3.03757,607657
3.04568,998348
3.05382,3085027
3.06193,6572097
3.07005,6231164
3.07818,3723561
3.08630,2268704
3.09442,1828030
3.10255,2716668
3.11067,4592838
3.11880,4275629
3.12692,2735399
3.13503,1855193
3.14317,1472883
3.15128,1157419
3.15942,979203
3.16753,888368
3.17565,884994
3.18378,1006583
3.19190,1623683
3.20003,1950712
3.20815,1517595
3.21627,1087633
3.22440,884705
3.23252,761194
3.24063,661223
3.24877,560628
3.25688,503168
3.26502,455401
3.27313,428830
3.28125,470504
3.28938,889838
3.29750,1958273
3.30563,3297907
3.31375,3700121
3.32187,3020794
3.33000,2248293
3.33812,1742310
3.34623,1456677
3.35437,1223248
3.36248,1096392
3.37062,1121531
3.37873,1247470
3.38685,1284653
3.39498,1155100
3.40310,1351821
3.41123,2384147
3.41935,3224812
3.42747,2626640
3.43560,1708919
3.44372,1242157
3.45185,1002703
3.45997,900350
3.46808,824672
3.47622,781756
3.48433,713897
3.49245,641950
3.50058,601548
3.50870,585636
3.51683,541301
3.52495,526396
3.53307,517779
3.54120,490682
3.54932,487338
3.55745,444985
3.56557,422198
3.57368,421315
3.58182,406050
3.58993,398888
3.59805,377138
3.60618,381118
3.61430,439664
3.62243,742381
3.63055,1382592
3.63867,1930699
3.64680,1684694
3.65492,1198672
3.66305,1106736
3.67117,2202223
3.67928,4272117
3.68742,4802720
3.69553,3589934
3.70367,2529921
3.71178,1968028
3.71990,1617874
3.72803,1386541
3.73615,1187895
3.74427,1080158
3.75240,963831
3.76052,913956
3.76865,896858
3.77677,865611
3.78488,827739
3.79302,774199
3.80113,787148
3.80927,1071552
3.81738,1500942
3.82550,1516519
3.83363,1207639
3.84175,983626
3.84988,831459
3.85800,736289
3.86612,660885
3.87425,581778
3.88237,564833
3.89048,516036
3.89862,501099
3.90673,472714
3.91487,503885
3.92298,575857
3.93110,661409
3.93923,634820
3.94735,551970
3.95548,493909
3.96360,480333
3.97172,456561
3.97985,431670
3.98797,390569
3.99608,415286
4.00422,532310
4.01233,742347
4.02047,841984
4.02858,721467
4.03670,558975
4.04483,465695
4.05295,417356
4.06108,371910
4.06920,353511
4.07732,330218
4.08545,316471
4.09357,305901
4.10170,296563
4.10982,276859
4.11793,274641
4.12607,271495
4.13418,312325
4.14230,441909
4.15043,619836
4.15855,655447
4.16668,542246
4.17480,418804
4.18292,353721
4.19105,315631
4.19917,304596
4.20730,531803
4.21542,2187705
4.22353,7106862
4.23167,1.404536E+07
4.23978,1.87705E+07
4.24792,1.784411E+07
4.25603,1.146187E+07
4.26415,6294131
4.27228,4035730
4.28040,2885719
4.28852,2158454
4.29665,1700743
4.30477,1364269
4.31290,1169810
4.32102,990421
4.32913,883450
4.33727,785094
4.34538,728692
4.35352,713556
4.36163,682447
4.36975,626264
4.37788,586868
4.38600,540021
4.39412,507204
4.40225,479979
4.41037,458930
4.41850,450219
4.42662,420250
4.43473,412454
4.44287,404619
4.45098,407222
4.45912,399869
4.46723,386095
4.47535,359277
4.48348,341148
4.49160,340544
4.49973,327840
4.50785,315558
4.51597,304406
4.52410,308312
4.53222,303292
4.54033,298408
4.54847,292272
4.55658,288385
4.56472,275540
4.57283,277297
4.58095,266239
4.58908,262790
4.59720,251552
4.60533,253714
4.61345,254638
4.62157,274175
4.62970,338512
4.63782,439283
4.64593,485862
4.65407,461412
4.66218,396798
4.67032,336996
4.67843,312660
4.68655,284355
4.69468,278190
4.70280,256655
4.71093,248817
4.71905,244845
4.72717,230848
4.73530,225182
4.74342,228509
4.75155,223765
4.75967,215896
4.76778,216473
4.77592,205613
4.78403,215796
4.79215,261270
4.80028,350744
4.80840,439000
4.81653,443892
4.82465,398342
4.83277,341537
4.84090,331264
4.84902,308604
4.85715,288369
4.86527,263835
4.87338,261967
4.88152,239376
4.88963,232854
4.89777,229289
4.90588,226260
4.91400,241626
4.92213,339085
4.93025,546139
4.93837,877383
4.94650,1149710
4.95462,1203978
4.96275,1051851
4.97087,853831
4.97898,684559
4.98712,585334
4.99523,517537
5.00337,487374
5.01148,449066
5.01960,459247
5.02773,594199
5.03585,849826
5.04398,1105730
5.05210,1149682
5.06022,987781
5.06835,828561
5.07647,734622
5.08458,650008
5.09272,599628
5.10083,581297
5.10897,586685
5.11708,582694
5.12520,563414
5.13333,523769
5.14145,470673
5.14958,439465
5.15770,431667
5.16582,438922
5.17395,475914
5.18207,514017
5.19018,509110
5.19832,495100
5.20643,464791
5.21457,430813
5.22268,410676
5.23080,402855
5.23893,402366
5.24705,390433
5.25518,368567
5.26330,329150
5.27142,304111
5.27955,293545
5.28767,286883
5.29580,278310
5.30392,265977
5.31203,257109
5.32017,253158
5.32828,256897
5.33640,253224
5.34453,259348
5.35265,256721
5.36078,245979
5.36890,243028
5.37702,241661
5.38515,238455
5.39327,240861
5.40140,235364
5.40952,218737
5.41763,220154
5.42577,216537
5.43388,210999
5.44200,214839
5.45013,213211
5.45825,207203
5.46638,200644
5.47450,205497
5.48262,195002
5.49075,195741
5.49887,189183
5.50700,195511
5.51512,199141
5.52323,191447
5.53137,189624
5.53948,200721
5.54762,189517
5.55573,185312
5.56385,193078
5.57198,207262
5.58010,197974
5.58822,208428
5.59635,200185
5.60447,197595
5.61260,189563
5.62072,194379
5.62883,198471
5.63697,198493
5.64508,196387
5.65322,190088
5.66133,191456
5.66945,188377
5.67758,196960
5.68570,216671
5.69383,242657
5.70195,256156
5.71007,249570
5.71820,243134
5.72632,253067
5.73443,251075
5.74257,232086
5.75068,226351
5.75882,228134
5.76693,237629
5.77505,245932
5.78318,233690
5.79130,222745
5.79943,233059
5.80755,308696
5.81567,472105
5.82380,735260
5.83192,977661
5.84003,1051653
5.84817,886918
5.85628,658080
5.86442,468943
5.87253,365283
5.88065,311605
5.88878,284322
5.89690,267142
5.90503,270937
5.91315,295753
5.92127,373371
5.92940,468822
5.93752,501552
5.94565,468668
5.95377,391452
5.96188,349672
5.97002,334120
5.97813,311800
5.98625,335706
5.99438,331443
6.00250,309652
6.01063,275807
6.01875,237441
6.02687,215866
6.03500,217039
6.04312,188988
6.05125,181257
6.05937,167179
6.06748,168578
6.07562,162003
6.08373,161207
6.09187,159989
6.09998,148109
6.10810,142775
6.11623,148155
6.12435,164751
6.13247,208309
6.14060,288170
6.14872,350041
6.15685,347290
6.16497,311459
6.17308,271800
6.18122,249223
6.18933,235666
6.19747,236773
6.20558,240551
6.21370,234076
6.22183,217637
6.22995,208863
6.23807,207910
6.24620,203118
6.25432,193091
6.26245,207423
6.27057,198570
6.27868,197941
6.28682,196719
6.29493,202173
6.30307,203933
6.31118,197492
6.31930,213104
6.32743,223346
6.33555,241207
6.34368,249237
6.35180,263290
6.35992,247738
6.36805,243023
6.37617,231735
6.38428,228533
6.39242,225785
6.40053,216305
6.40867,217880
6.41678,224096
6.42490,222864
6.43303,222505
6.44115,226250
6.44928,228610
6.45740,237642
6.46552,234805
6.47365,232022
6.48177,237851
6.48988,242856
6.49802,241032
6.50613,243233
6.51427,239835
6.52238,244973
6.53050,245032
6.53863,243261
6.54675,254592
6.55488,251325
6.56300,255678
6.57112,268203
6.57925,259541
6.58737,260463
6.59550,265737
6.60362,254616
6.61173,254789
6.61987,249055
6.62798,255568
6.63610,248824
6.64423,253839
6.65235,297258
6.66048,376721
6.66860,478459
6.67672,529118
6.68485,532836
6.69297,504513
6.70110,479702
6.70922,428404
6.71733,377001
6.72547,324527
6.73358,304800
6.74172,291155
6.74983,284181
6.75795,275030
6.76608,278839
6.77420,233052
6.78232,265666
6.79045,376820
6.79857,516408
6.80670,653964
6.81482,656021
6.82293,531970
6.83107,374161
6.83918,265135
6.84732,194702
6.85543,164101
6.86355,147352
6.87168,131902
6.87980,124453
6.88792,114433
6.89605,105749
6.90417,102503
6.91230,104813
6.92042,115997
6.92853,151699
6.93667,189999
6.94478,226999
6.95292,240055
6.96103,233330
6.96915,204739
6.97728,172832
6.98540,158193
6.99353,139254
7.00165,116822
7.00977,102715
7.01790,97348
7.02602,98309
7.03413,93922
7.04227,94092
7.05038,88294
7.05852,91822
7.06663,83697
7.07475,81641
7.08288,77778
7.09100,80664
7.09913,77894
7.10725,78155
7.11537,75756
7.12350,78459
7.13162,78534
7.13975,79999
7.14787,87805
7.15598,98587
7.16412,113070
7.17223,124640
7.18035,129801
7.18848,128752
7.19660,120678
7.20473,124943
7.21285,153298
7.22097,258420
7.22910,581504
7.23722,1054248
7.24535,1411797
7.25347,1363892
7.26158,979569
7.26972,591661
7.27783,375716
7.28595,279537
7.29408,247150
7.30220,237863
7.31033,244713
7.31845,242821
7.32657,225261
7.33470,207208
7.34282,173538
7.35095,141270
7.35907,125153
7.36718,108341
7.37532,110151
7.38343,102795
7.39157,104415
7.39968,116252
7.40780,132916
7.41593,139787
7.42405,153223
7.43217,148643
7.44030,141928
7.44842,131652
7.45655,115094
7.46467,100506
7.47278,91008
7.48092,86046
7.48903,87499
7.49717,82289
7.50528,84870
7.51340,83849
7.52153,94087
7.52965,101799
7.53778,114104
7.54590,122679
7.55402,127930
7.56215,126258
7.57027,117973
7.57838,101222
7.58652,97421
7.59463,82319
7.60277,84207
7.61088,82975
7.61900,77315
7.62713,79171
7.63525,78831
7.64338,77630
7.65150,73014
7.65962,75622
7.66775,70316
7.67587,73847
7.68398,70273
7.69212,70517
7.70023,68925
7.70837,72459
7.71648,65846
7.72460,67643
7.73273,66589
7.74085,67652
7.74898,67342
7.75710,63169
7.76522,65238
7.77335,67363
7.78147,68901
7.78960,67050
7.79772,67203
7.80583,70153
7.81397,71892
7.82208,65498
7.83020,66103
7.83833,65848
7.84645,63935
7.85458,62334
7.86270,65508
7.87082,60149
7.87895,67899
7.88707,62795
7.89520,65732
7.90332,64021
7.91143,59808
7.91957,67985
7.92768,71531
7.93580,80889
7.94393,92277
7.95205,94570
7.96018,89969
7.96830,79880
7.97642,72510
7.98455,65099
7.99267,63092
8.00080,64838
8.00892,60438
8.01703,62929
8.02517,59369
8.03328,61384
8.04142,56674
8.04953,57811
8.05765,56858
8.06578,57907
8.07390,52862
8.08202,57521
8.09015,53988
8.09827,50211
8.10640,54220
8.11452,57053
8.12263,56668
8.13077,56785
8.13888,60537
8.14702,64092
8.15513,60896
8.16325,60637
8.17138,62874
8.17950,56060
8.18763,56202
8.19575,53388
8.20387,54419
8.21200,56872
8.22012,54694
8.22823,56073
8.23637,53793
8.24448,51383
8.25262,49717
8.26073,50649
8.26885,55022
8.27698,47541
8.28510,52016
8.29323,51915
8.30135,53569
8.30947,55804
8.31760,55146
8.32572,55563
8.33383,52804
8.34197,56131
8.35008,54265
8.35822,49059
8.36633,49958
8.37445,50806
8.38258,49070
8.39070,48248
8.39883,44386
8.40695,44424
8.41507,45084
8.42320,45796
8.43132,46451
8.43945,47748
8.44757,45632
8.45568,44939
8.46382,45773
8.47193,43664
8.48005,49956
8.48818,47263
8.49630,49992
8.50443,47346
8.51255,49423
8.52067,54491
8.52880,66436
8.53692,110588
8.54505,172673
8.55317,241352
8.56128,271301
8.56942,238438
8.57753,170598
8.58567,121696
8.59378,91117
8.60190,77272
8.61003,72920
8.61815,62969
8.62627,60255
8.63440,58194
8.64252,56323
8.65065,53644
8.65877,56107
8.66688,55333
8.67502,51531
8.68313,51112
8.69127,53851
8.69938,49143
8.70750,55534
8.71563,76435
8.72375,102377
8.73187,157236
8.74000,217279
8.74812,247949
8.75625,229526
8.76437,197098
8.77248,148095
8.78062,122282
8.78873,104054
8.79687,89199
8.80498,84836
8.81310,88152
8.82123,86029
8.82935,98152
8.83748,87057
8.84560,96000
8.85372,85983
8.86185,86513
8.86997,87048
8.87808,81171
8.88622,79341
8.89433,79085
8.90247,81725
8.91058,74514
8.91870,77854
8.92683,71639
8.93495,75149
8.94308,86020
8.95120,84668
8.95932,84220
8.96745,78618
8.97557,80499
8.98368,74809
8.99182,71951
8.99993,70965
9.00807,70774
9.01618,71256
9.02430,65496
9.03243,64207
9.04055,64076
9.04868,59457
9.05680,62768
9.06492,64618
9.07305,59818
9.08117,60657
9.08930,62061
9.09742,63983
9.10553,70893
9.11367,64426
9.12178,67165
9.12990,66000
9.13803,63351
9.14615,63933
9.15428,60738
9.16240,59540
9.17052,59358
9.17865,55083
9.18677,54858
9.19490,54878
9.20302,56572
9.21113,51537
9.21927,56867
9.22738,51954
9.23552,57580
9.24363,55525
9.25175,55091
9.25988,56720
9.26800,55781
9.27612,55509
9.28425,54932
9.29237,55480
9.30050,54209
9.30862,55476
9.31673,52385
9.32487,55151
9.33298,57333
9.34112,55151
9.34923,59250
9.35735,57355
9.36548,51355
9.37360,49892
9.38172,48734
9.38985,53503
9.39797,53459
9.40610,51102
9.41422,54344
9.42233,63419
9.43047,62453
9.43858,62736
9.44672,60120
9.45483,56638
9.46295,53702
9.47108,51254
9.47920,50483
9.48733,50253
9.49545,47879
9.50357,52571
9.51170,55679
9.51982,58691
9.52793,54400
9.53607,53252
9.54418,46548
9.55232,41468
9.56043,44258
9.56855,40705
9.57668,39436
9.58480,43723
9.59293,39864
9.60105,35603
9.60917,32945
9.61730,42645
9.62542,39102
9.63355,39668
9.64167,38002
9.64978,37526
9.65792,36161
9.66603,36084
9.67415,38661
9.68228,38055
9.69040,32132
9.69853,35826
9.70665,31928
9.71477,31846
9.72290,34593
9.73102,32768
9.73915,32157
9.74727,34855
9.75538,35243
9.76352,33523
9.77163,31029
9.77975,31353
9.78788,32872
9.79600,32850
9.80413,30912
9.81225,33110
9.82037,32175
9.82850,31023
9.83662,34383
9.84475,34130
9.85287,31263
9.86098,34511
9.86912,35366
9.87723,39254
9.88537,35601
9.89348,32954
9.90160,33628
9.90973,33263
9.91785,36054
9.92597,36999
9.93410,40747
9.94222,47712
9.95035,53054
9.95847,56439
9.96658,56868
9.97472,54959
9.98283,52954
9.99097,45908
9.99908,43486
10.00720,44488
10.01533,38869
10.02345,39135
10.03157,38039
10.03970,38561
10.04782,33575
10.05595,34176
10.06407,38801
10.07218,35546
10.08032,35343
10.08843,32759
10.09657,34396
10.10468,35455
10.11280,35427
10.12093,33414
10.12905,34942
10.13718,33310
10.14530,31944
10.15342,27572
10.16155,30750
10.16967,34305
10.17778,32454
10.18592,28979
10.19403,31478
10.20217,32788
10.21028,32709
10.21840,32542
10.22653,34385
10.23465,36818
10.24278,39385
10.25090,40879
10.25902,52270
10.26715,90468
10.27527,197700
10.28340,389672
10.29152,763986
10.29963,1272563
10.30777,1966636
10.31588,3048389
10.32400,4645205
10.33213,6205343
10.34025,6486889
10.34838,5440669
10.35650,3714724
10.36462,2082915
10.37275,1139590
10.38087,683345
10.38900,466404
10.39712,334588
10.40523,262470
10.41337,221947
10.42148,185704
10.42962,172201
10.43773,155611
10.44585,141495
10.45398,136941
10.46210,126117
10.47022,115116
10.47835,112450
10.48647,109157
10.49460,97461
10.50272,98186
10.51083,88283
10.51897,84752
10.52708,83206
10.53522,84563
10.54333,86002
10.55145,74010
10.55958,76371
10.56770,72982
10.57582,75871
10.58395,68718
10.59207,70730
10.60020,65708
10.60832,70950
10.61643,64383
10.62457,63703
10.63268,59885
10.64082,56623
10.64893,55755
10.65705,62461
10.66518,57846
10.67330,54370
10.68143,56178
10.68955,61653
10.69767,51707
10.70580,54943
10.71392,53330
10.72203,55036
10.73017,58412
10.73828,48497
10.74642,50835
10.75453,51215
10.76265,49128
10.77078,51669
10.77890,45811
10.78703,48269
10.79515,46848
10.80327,46780
10.81140,49484
10.81952,45359
10.82763,47534
10.83577,45890
10.84388,43115
10.85202,41639
10.86013,38935
10.86825,41845
10.87638,39666
10.88450,39334
10.89263,42425
10.90075,40556
10.90887,39743
10.91700,42803
10.92512,39658
10.93325,40902
10.94137,43035
10.94948,42153
10.95762,40882
10.96573,37937
10.97385,43952
10.98198,40765
10.99010,39004
10.99823,39009
11.00635,37164
11.01447,38518
11.02260,36886
11.03072,37627
11.03885,33661
11.04697,34868
11.05508,35012
11.06322,36998
11.07133,37948
11.07947,37487
11.08758,38269
11.09570,38870
11.10383,42500
11.11195,39393
11.12007,40798
11.12820,37096
11.13632,36798
11.14445,35821
11.15257,35198
11.16068,36775
11.16882,35768
11.17693,36466
11.18507,36169
11.19318,37037
11.20130,36294
11.20943,35221
11.21755,32476
11.22567,32959
11.23380,32112
11.24192,33314
11.25005,39807
11.25817,46213
11.26628,57788
11.27442,62228
11.28253,66579
11.29067,69655
11.29878,66902
11.30690,75548
11.31503,82228
11.32315,106962
11.33128,119363
11.33940,128534
11.34752,123406
11.35565,107866
11.36377,95611
11.37188,84414
11.38002,67376
11.38813,61235
11.39627,59122
11.40438,53351
11.41250,55347
11.42063,56862
11.42875,53069
11.43688,53597
11.44500,54375
11.45312,46501
11.46125,46211
11.46937,50507
11.47750,49311
11.48562,54876
11.49373,57711
11.50187,63378
11.50998,70396
11.51810,66803
11.52623,63690
11.53435,60188
11.54248,58427
11.55060,56259
11.55872,55015
11.56685,47271
11.57497,47237
11.58310,46407
11.59122,51128
11.59933,52604
11.60747,58542
11.61558,64571
11.62370,66020
11.63183,67106
11.63995,64629
11.64808,55678
11.65620,49065
11.66432,46297
11.67245,50018
11.68057,51514
11.68870,48999
11.69682,58268
11.70493,58687
11.71307,57208
11.72118,56020
11.72932,56024
11.73743,51331
11.74555,46954
11.75368,45835
11.76180,49278
11.76992,43646
11.77805,41131
11.78617,38625
11.79430,41205
11.80242,36980
11.81053,38317
11.81867,38165
11.82678,37605
11.83492,40147
11.84303,38370
11.85115,34864
11.85928,35629
11.86740,36428
11.87552,34200
11.88365,35746
11.89177,34973
11.89990,38106
11.90802,41486
11.91613,41033
11.92427,42686
11.93238,46867
11.94052,50708
11.94863,40213
11.95675,41272
11.96488,36421
11.97300,33862
11.98113,38070
11.98925,36425
11.99737,38695
12.00550,48212
12.01362,44214
12.02173,47764
12.02987,40521
12.03798,42919
12.04612,39558
12.05423,36719
12.06235,34085
12.07048,33953
12.07860,35251
12.08673,35458
12.09485,34333
12.10297,36841
12.11110,35556
12.11922,36148
12.12735,35300
12.13547,33719
12.14358,33460
12.15172,33076
12.15983,32077
12.16795,33035
12.17608,32549
12.18420,32811
12.19233,31684
12.20045,31383
12.20857,31689
12.21670,30236
12.22482,31429
12.23295,33536
12.24107,32542
12.24918,30582
12.25732,30571
12.26543,33174
12.27355,32324
12.28168,28392
12.28980,31968
12.29793,29708
12.30605,31899
12.31417,30421
12.32230,30858
12.33042,26979
12.33855,29178
12.34667,29412
12.35478,30213
12.36292,31687
12.37103,29744
12.37917,30019
12.38728,30512
12.39540,37865
12.40353,51399
12.41165,71698
12.41977,80390
12.42790,82746
12.43602,74191
12.44415,62619
12.45227,52227
12.46038,46152
12.46852,37060
12.47663,38097
12.48477,34861
12.49288,34348
12.50100,36092
12.50913,34065
12.51725,32858
12.52538,32675
12.53350,37188
12.54162,39002
12.54975,50283
12.55787,63023
12.56598,75686
12.57412,80699
12.58223,74874
12.59037,59992
12.59848,50905
12.60660,47679
12.61473,40203
12.62285,38766
12.63098,36620
12.63910,34987
12.64722,37092
12.65535,33602
12.66347,30901
12.67158,31182
12.67972,32326
12.68783,32771
12.69597,30604
12.70408,31515
12.71220,31442
12.72033,32130
12.72845,26790
12.73658,31809
12.74470,30485
12.75282,29549
12.76095,31453
12.76907,32781
12.77720,32354
12.78532,32714
12.79343,33888
12.80157,31673
12.80968,30956
12.81780,28650
12.82593,30398
12.83405,28875
12.84218,27519
12.85030,29392
12.85842,32559
12.86655,28599
12.87467,27921
12.88280,28192
12.89092,29643
12.89903,27616
12.90717,27148
12.91528,30416
12.92342,32899
12.93153,36754
12.93965,40081
12.94778,48093
12.95590,55300
12.96402,67492
12.97215,60733
12.98027,64631
12.98840,65586
12.99652,58868
13.00463,49293
13.01277,43933
13.02088,49807
13.02902,38350
13.03713,35351
13.04525,36941
13.05338,36122
13.06150,32974
13.06962,34918
13.07775,32394
13.08587,29626
13.09400,34033
13.10212,32138
13.11023,31207
13.11837,32726
13.12648,31806
13.13462,31485
13.14273,33772
13.15085,32048
13.15898,32255
13.16710,32047
13.17523,33418
13.18335,30288
13.19147,31042
13.19960,29515
13.20772,32430
13.21583,30571
13.22397,32681
13.23208,33490
13.24022,33838
13.24833,37201
13.25645,35032
13.26458,40689
13.27270,36979
13.28083,32405
13.28895,35184
13.29707,31833
13.30520,33918
13.31332,34549
13.32143,34327
13.32957,32318
13.33768,33813
13.34582,31283
13.35393,30250
13.36205,29848
13.37018,27647
13.37830,30426
13.38643,28716
13.39455,31812
13.40267,31244
13.41080,26905
13.41892,28430
13.42705,29109
13.43517,29508
13.44328,26695
13.45142,27153
13.45953,27986
13.46765,28560
13.47578,30116
13.48390,27969
13.49203,27617
13.50015,29367
13.50827,26928
13.51640,31186
13.52452,31667
13.53265,33056
13.54077,33370
13.54888,34345
13.55702,35673
13.56513,34084
13.57327,32448
13.58138,34293
13.58950,35570
13.59763,41655
13.60575,57019
13.61387,69212
13.62200,83519
13.63012,90288
13.63825,74402
13.64637,68299
13.65448,54228
13.66262,49704
13.67073,37324
13.67887,39760
13.68698,36085
13.69510,33299
13.70323,35056
13.71135,34408
13.71947,38878
13.72760,30356
13.73572,37001
13.74385,41163
13.75197,52106
13.76008,74061
13.76822,101716
13.77633,123899
13.78447,148690
13.79258,143301
13.80070,152213
13.80883,131942
13.81695,126372
13.82508,124455
13.83320,124096
13.84132,111842
13.84945,101019
13.85757,89937
13.86568,80050
13.87382,70034
13.88193,66113
13.89007,63318
13.89818,62629
13.90630,60668
13.91443,56751
13.92255,50170
13.93068,50329
13.93880,46190
13.94692,43567
13.95505,45745
13.96317,44243
13.97130,44544
13.97942,44914
13.98753,42480
13.99567,45444
14.00378,47282
14.01190,45641
14.02003,41660
14.02815,40537
14.03628,41061
14.04440,37929
14.05252,37437
14.06065,42607
14.06877,37181
14.07690,34532
14.08502,36827
14.09313,35435
14.10127,35928
14.10938,35884
14.11750,40476
14.12563,43382
14.13375,60459
14.14188,76407
14.15000,90065
14.15812,97531
14.16625,94301
14.17437,87312
14.18250,81337
14.19062,81738
14.19873,67917
14.20687,65403
14.21498,66024
14.22312,59488
14.23123,59348
14.23935,56511
14.24748,54912
14.25560,55311
14.26372,50552
14.27185,48477
14.27997,46644
14.28810,46624
14.29622,42596
14.30433,37105
14.31247,40445
14.32058,34708
14.32872,32892
14.33683,32698
14.34495,36935
14.35308,34926
14.36120,33453
14.36932,36014
14.37745,35238
14.38557,36512
14.39370,44649
14.40182,64570
14.40993,85377
14.41807,102344
14.42618,120220
14.43432,117036
14.44243,98796
14.45055,76422
14.45868,63232
14.46680,53805
14.47493,50273
14.48305,46420
14.49117,44694
14.49930,40507
14.50742,41079
14.51553,39278
14.52367,39622
14.53178,36049
14.53992,36015
14.54803,38252
14.55615,33031
14.56428,36217
14.57240,33850
14.58053,33501
14.58865,33186
14.59677,29682
14.60490,30585
14.61302,29292
14.62115,32224
14.62927,29020
14.63738,29729
14.64552,31033
14.65363,26912
14.66175,31741
14.66988,27243
14.67800,29264
14.68613,31141
14.69425,31731
14.70237,28014
14.71050,30107
14.71862,30737
14.72675,30499
14.73487,31406
14.74298,29610
14.75112,29846
14.75923,27991
14.76735,27562
14.77548,29440
14.78360,39637
14.79173,62159
14.79985,117018
14.80797,238875
14.81610,452879
14.82422,793436
14.83235,1017956
14.84047,987679
14.84858,811156
14.85672,554069
14.86483,368203
14.87297,270839
14.88108,195763
14.88920,159900
14.89733,137760
14.90545,123052
14.91357,111076
14.92170,97315
14.92982,92036
14.93795,77466
14.94607,77029
14.95418,72714
14.96232,69728
14.97043,69960
14.97857,62955
14.98668,64781
14.99480,56438
15.00293,55520
15.01105,56040
15.01918,55313
15.02730,52570
15.03542,49442
15.04355,51530
15.05167,48588
15.05978,48225
15.06792,45152
15.07603,45075
15.08417,41323
15.09228,43039
15.10040,44358
15.10853,42816
15.11665,39456
15.12478,42572
15.13290,43592
15.14102,44194
15.14915,42819
15.15727,48511
15.16538,39576
15.17352,38312
15.18163,38112
15.18977,35346
15.19788,37106
15.20600,35768
15.21413,34866
15.22225,39364
15.23038,31833
15.23850,33297
15.24662,31503
15.25475,36009
15.26287,30613
15.27100,33836
15.27912,31650
15.28723,29258
15.29537,29841
15.30348,33196
15.31160,28307
15.31973,33126
15.32785,34158
15.33598,26423
15.34410,31686
15.35222,27103
15.36035,29162
15.36847,30592
15.37660,29847
15.38472,29726
15.39283,31163
15.40097,26784
15.40908,27029
15.41720,27637
15.42533,30043
15.43345,28493
15.44158,28849
15.44970,30189
15.45782,31940
15.46595,31849
15.47407,38553
15.48220,42526
15.49032,47371
15.49843,48394
15.50657,50271
15.51468,50551
15.52282,46931
15.53093,50272
15.53905,46240
15.54718,43175
15.55530,44341
15.56342,41588
15.57155,36744
15.57967,37523
15.58780,31632
15.59592,35307
15.60403,35585
15.61217,30990
15.62028,28412
15.62842,30639
15.63653,29785
15.64465,32603
15.65278,32874
15.66090,28357
15.66903,31434
15.67715,31459
15.68527,27857
15.69340,31547
15.70152,28192
15.70963,28615
15.71777,28904
15.72588,29804
15.73402,29803
15.74213,30836
15.75025,34467
15.75838,44298
15.76650,57496
15.77463,70024
15.78275,87236
15.79087,93698
15.79900,94237
15.80712,78476
15.81525,66528
15.82337,53867
15.83148,48413
15.83962,48517
15.84773,40964
15.85585,39210
15.86398,43685
15.87210,40571
15.88023,44467
15.88835,44373
15.89647,41433
15.90460,36574
15.91272,38336
15.92085,36702
15.92897,34909
15.93708,37303
15.94522,33848
15.95333,31599
15.96145,33698
15.96958,36286
15.97770,38272
15.98583,39374
15.99395,37310
16.00207,39418
16.01020,36431
16.01832,36443
16.02645,34906
16.03457,34696
16.04268,32123
16.05082,31472
16.05893,29918
16.06707,32623
16.07518,31066
16.08330,31222
16.09143,34014
16.09955,31077
16.10767,32113
16.11580,30747
16.12392,30642
16.13205,31415
16.14017,31541
16.14828,28024
16.15642,29815
16.16453,28959
16.17267,30691
16.18078,34363
16.18890,29776
16.19703,29310
16.20515,29222
16.21327,33132
16.22140,31015
16.22952,30995
16.23765,32755
16.24577,31507
16.25388,32300
16.26202,29100
16.27013,30277
16.27827,29612
16.28638,29897
16.29450,29455
16.30263,31073
16.31075,28943
16.31888,28970
16.32700,31604
16.33512,31977
16.34325,31456
16.35137,26883
16.35948,33194
16.36762,29935
16.37573,32852
16.38387,31206
16.39198,29996
16.40010,28495
16.40823,31448
16.41635,32667
16.42448,32818
16.43260,30660
16.44072,36154
16.44885,39065
16.45697,56167
16.46510,72887
16.47322,88220
16.48133,107699
16.48947,104209
16.49758,88442
16.50570,75750
16.51383,61376
16.52195,51989
16.53008,48665
16.53820,46837
16.54632,40720
16.55445,45083
16.56257,36666
16.57070,36958
16.57882,36507
16.58693,34480
16.59507,35252
16.60318,36736
16.61130,35789
16.61943,34789
16.62755,35457
16.63568,36046
16.64380,33637
16.65192,34328
16.66005,36459
16.66817,30391
16.67630,30765
16.68442,30572
16.69253,30314
16.70067,32102
16.70878,29248
16.71692,34154
16.72503,29052
16.73315,32370
16.74128,30724
16.74940,29512
16.75752,32753
16.76565,34078
16.77377,29166
16.78190,33607
16.79002,30206
16.79813,31143
16.80627,30509
16.81438,27874
16.82252,28713
16.83063,28363
16.83875,31232
16.84688,32702
16.85500,26693
16.86313,29717
16.87125,31067
16.87937,27961
16.88750,28418
16.89562,27493
16.90373,26416
16.91187,29008
16.91998,30043
16.92812,27164
16.93623,30848
16.94435,28979
16.95248,29371
16.96060,29749
16.96873,30205
16.97685,29792
16.98497,30602
16.99310,29908
17.00122,25542
17.00933,27707
17.01747,27234
17.02558,30525
17.03372,27359
17.04183,34566
17.04995,29396
17.05808,33384
17.06620,30300
17.07433,31869
17.08245,30465
17.09057,32097
17.09870,32706
17.10682,33221
17.11495,33505
17.12307,32265
17.13118,31287
17.13932,31109
17.14743,31313
17.15555,28798
17.16368,30967
17.17180,30142
17.17993,29311
17.18805,29264
17.19617,28097
17.20430,29782
17.21242,27849
17.22055,27254
17.22867,28621
17.23678,26991
17.24492,29337
17.25303,28014
17.26115,26938
17.26928,25928
17.27740,28224
17.28553,27410
17.29365,27898
17.30177,28253
17.30990,29613
17.31802,30691
17.32615,31010
17.33427,32779
17.34238,32939
17.35052,31829
17.35863,31492
17.36677,33450
17.37488,31979
17.38300,32315
17.39113,30273
17.39925,32007
17.40737,28541
17.41550,30183
17.42362,29104
17.43175,31978
17.43987,37247
17.44798,32781
17.45612,27260
17.46423,30445
17.47237,29380
17.48048,28509
17.48860,25582
17.49673,30754
17.50485,33741
17.51298,30260
17.52110,36189
17.52922,34554
17.53735,35469
17.54547,36610
17.55358,40133
17.56172,43665
17.56983,58612
17.57797,76084
17.58608,97786
17.59420,113095
17.60233,125252
17.61045,123676
17.61858,109929
17.62670,88676
17.63482,71408
17.64295,66423
17.65107,58119
17.65918,50815
17.66732,50269
17.67543,48174
17.68357,44158
17.69168,44223
17.69980,42800
17.70793,43056
17.71605,38339
17.72418,40138
17.73230,43235
17.74042,39266
17.74855,36612
17.75667,35758
17.76480,37293
17.77292,38030
17.78103,38175
17.78917,34481
17.79728,33971
17.80540,31614
17.81353,35161
17.82165,34392
17.82978,40537
17.83790,39762
17.84602,40440
17.85415,37964
17.86227,39140
17.87040,40583
17.87852,39273
17.88663,31516
17.89477,39301
17.90288,34995
17.91102,30287
17.91913,33400
17.92725,30260
17.93538,31363
17.94350,28533
17.95162,29698
17.95975,33266
17.96787,31628
17.97600,33498
17.98412,30407
17.99223,32586
18.00037,36537
18.00848,38427
18.01662,37432
18.02473,41150
18.03285,38079
18.04098,43523
18.04910,43115
18.05722,45783
18.06535,55648
18.07347,97334
18.08160,156460
18.08972,216367
18.09783,269858
18.10597,299574
18.11408,311255
18.12222,313686
18.13033,324152
18.13845,329745
18.14658,316503
18.15470,316028
18.16283,322292
18.17095,315948
18.17907,306010
18.18720,304477
18.19532,297615
18.20343,294134
18.21157,284249
18.21968,279628
18.22782,282756
18.23593,270324
18.24405,267660
18.25218,269140
18.26030,264568
18.26843,257914
18.27655,252842
18.28467,244441
18.29280,241283
18.30092,235631
18.30905,228157
18.31717,217901
18.32528,223486
18.33342,220865
18.34153,211762
18.34965,206688
18.35778,202025
18.36590,203079
18.37403,195870
18.38215,201818
18.39027,186451
18.39840,174022
18.40652,177035
18.41465,178322
18.42277,176629
18.43088,174757
18.43902,178330
18.44713,178740
18.45525,182296
18.46338,196595
18.47150,191961
18.47963,203077
18.48775,198603
18.49587,179294
18.50400,167909
18.51212,164415
18.52025,154268
18.52837,152452
18.53648,143150
18.54462,136664
18.55273,135045
18.56087,132899
18.56898,138658
18.57710,130414
18.58523,133589
18.59335,125609
18.60147,131190
18.60960,129855
18.61772,127112
18.62585,124050
18.63397,115783
18.64208,116980
18.65022,111112
18.65833,108098
18.66647,106280
18.67458,103405
18.68270,101382
18.69083,103876
18.69895,100943
18.70707,95960
18.71520,95080
18.72332,92142
18.73145,95021
18.73957,98101
18.74768,92040
18.75582,90577
18.76393,90918
18.77207,79791
18.78018,86791
18.78830,81064
18.79643,81544
18.80455,84590
18.81268,80054
18.82080,77332
18.82892,70931
18.83705,76480
18.84517,80167
18.85328,75536
18.86142,75239
18.86953,70062
18.87767,74431
18.88578,71830
18.89390,71062
18.90203,72195
18.91015,69140
18.91828,68903
18.92640,72187
18.93452,69251
18.94265,72615
18.95077,71126
18.95890,69928
18.96702,69264
18.97513,68675
18.98327,65208
18.99138,65480
18.99950,64329
19.00763,60146
19.01575,60273
19.02388,60649
19.03200,57841
19.04012,63626
19.04825,59929
19.05637,59531
19.06450,63425
19.07262,62228
19.08073,69582
19.08887,69916
19.09698,72446
19.10510,78450
19.11323,76924
19.12135,75398
19.12948,79250
19.13760,70630
19.14572,66079
19.15385,62552
19.16197,61322
19.17010,65618
19.17822,60141
19.18633,56421
19.19447,59388
19.20258,52808
19.21072,56581
19.21883,55205
19.22695,54957
19.23508,52367
19.24320,47015
19.25132,45036
19.25945,48867
19.26757,48820
19.27570,52448
19.28382,47007
19.29193,48408
19.30007,48739
19.30818,47863
19.31632,45887
19.32443,43502
19.33255,48478
19.34068,50331
19.34880,50705
19.35693,48484
19.36505,53498
19.37317,54795
19.38130,53376
19.38942,54417
19.39753,53051
19.40567,48833
19.41378,47564
19.42192,54357
19.43003,65037
19.43815,80144
19.44628,86900
19.45440,92385
19.46253,88362
19.47065,74654
19.47877,64825
19.48690,54087
19.49502,48840
19.50313,49762
19.51127,48834
19.51938,45936
19.52752,44338
19.53563,46780
19.54375,45580
19.55188,45861
19.56000,42354
19.56813,46743
19.57625,39966
19.58437,42665
19.59250,39847
19.60062,38736
19.60875,49100
19.61687,51842
19.62498,81823
19.63312,116354
19.64123,158255
19.64935,211670
19.65748,226599
19.66560,237714
19.67373,227457
19.68185,183315
19.68997,149450
19.69810,125935
19.70622,105880
19.71435,97507
19.72247,77607
19.73058,72833
19.73872,65132
19.74683,60893
19.75495,57176
19.76308,56265
19.77120,55069
19.77933,56534
19.78745,52940
19.79557,54424
19.80370,57058
19.81182,49858
19.81995,48025
19.82807,48941
19.83618,53000
19.84432,49360
19.85243,58175
19.86057,71344
19.86868,87569
19.87680,129379
19.88493,181331
19.89305,234543
19.90117,267618
19.90930,256389
19.91742,222085
19.92555,179238
19.93367,150369
19.94178,131892
19.94992,114431
19.95803,98397
19.96617,99225
19.97428,90683
19.98240,82953
19.99053,85647
19.99865,86172
20.00678,82885
20.01490,76031
20.02302,75015
20.03115,70726
20.03927,68648
20.04738,61670
20.05552,60813
20.06363,57049
20.07177,62092
20.07988,55148
20.08800,53082
20.09613,57844
20.10425,49419
20.11238,49796
20.12050,52191
20.12862,48948
20.13675,50618
20.14487,55154
20.15298,47114
20.16112,57540
20.16923,51471
20.17737,58797
20.18548,54512
20.19360,53781
20.20173,53186
20.20985,58588
20.21798,60903
20.22610,80469
20.23422,102945
20.24235,118245
20.25047,142017
20.25860,151152
20.26672,141997
20.27483,129467
20.28297,110318
20.29108,98871
20.29920,79831
20.30733,67364
20.31545,60653
20.32358,53668
20.33170,51821
20.33982,45331
20.34795,45450
20.35607,45833
20.36420,44042
20.37232,43465
20.38043,47715
20.38857,50860
20.39668,54449
20.40482,59147
20.41293,63672
20.42105,68764
20.42918,64560
20.43730,56787
20.44542,58677
20.45355,54037
20.46167,50945
20.46980,41729
20.47792,46991
20.48603,43673
20.49417,35813
20.50228,38236
20.51042,42309
20.51853,37995
20.52665,39462
20.53478,38911
20.54290,36562
20.55102,38535
20.55915,38468
20.56727,36668
20.57540,36818
20.58352,37293
20.59163,35284
20.59977,37412
20.60788,37400
20.61602,36121
20.62413,36521
20.63225,35854
20.64038,35782
20.64850,37316
20.65663,39022
20.66475,35690
20.67287,35608
20.68100,32914
20.68912,31882
20.69723,33142
20.70537,34623
20.71348,36192
20.72162,35198
20.72973,37142
20.73785,36863
20.74598,34500
20.75410,35743
20.76223,37299
20.77035,39466
20.77847,44394
20.78660,51806
20.79472,61408
20.80285,72812
20.81097,82545
20.81908,85626
20.82722,77294
20.83533,74770
20.84345,55731
20.85158,54553
20.85970,46583
20.86783,44151
20.87595,37725
20.88407,40326
20.89220,40909
20.90032,36778
20.90845,40417
20.91657,39620
20.92468,37819
20.93282,41295
20.94093,39233
20.94905,35421
20.95718,34484
20.96530,37984
20.97343,34374
20.98155,32123
20.98967,31675
20.99780,30307
21.00592,35908
21.01405,36541
21.02217,34472
21.03028,36212
21.03842,35361
21.04653,33102
21.05467,30798
21.06278,35916
21.07090,33059
21.07903,33306
21.08715,38861
21.09527,33138
21.10340,36890
21.11152,35520
21.11965,37045
21.12777,39265
21.13588,47255
21.14402,52429
21.15213,54094
21.16027,63047
21.16838,53194
21.17650,49073
21.18463,44327
21.19275,42900
21.20088,39227
21.20900,40001
21.21712,36509
21.22525,39088
21.23337,37945
21.24148,43236
21.24962,42641
21.25773,41577
21.26587,42356
21.27398,45757
21.28210,48238
21.29023,52601
21.29835,45854
21.30648,42976
21.31460,43295
21.32272,44692
21.33085,44420
21.33897,44907
21.34708,47436
21.35522,45019
21.36333,46969
21.37147,43687
21.37958,44855
21.38770,46438
21.39583,50418
21.40395,48642
21.41208,50670
21.42020,52870
21.42832,49672
21.43645,50926
21.44457,43950
21.45270,45896
21.46082,44881
21.46893,44753
21.47707,47583
21.48518,45262
21.49330,45041
21.50143,44920
21.50955,47997
21.51768,45187
21.52580,45137
21.53392,44428
21.54205,44505
21.55017,49385
21.55830,54817
21.56642,53795
21.57453,59490
21.58267,74895
21.59078,84543
21.59890,85429
21.60703,78107
21.61515,73375
21.62328,62957
21.63140,55725
21.63952,54490
21.64765,49342
21.65577,48239
21.66390,43992
21.67202,48231
21.68013,47317
21.68827,51185
21.69638,49604
21.70452,39518
21.71263,41553
21.72075,40865
21.72888,42939
21.73700,38380
21.74512,36932
21.75325,43096
21.76137,44722
21.76950,53717
21.77762,57782
21.78573,59125
21.79387,64325
21.80198,66279
21.81012,64432
21.81823,52489
21.82635,45792
21.83448,42460
21.84260,40913
21.85073,36764
21.85885,37177
21.86697,39770
21.87510,35471
21.88322,38487
21.89133,36258
21.89947,33845
21.90758,33079
21.91572,37968
21.92383,31261
21.93195,35555
21.94008,38588
21.94820,48156
21.95633,68033
21.96445,80915
21.97257,91884
21.98070,97475
21.98882,100933
21.99693,104027
22.00507,103766
22.01318,99860
22.02132,107133
22.02943,104562
22.03755,108691
22.04568,108085
22.05380,112440
22.06193,104826
22.07005,104471
22.07817,98619
22.08630,99256
22.09442,103657
22.10255,102944
22.11067,94936
22.11878,99575
22.12692,95535
22.13503,96670
22.14315,95764
22.15128,91935
22.15940,93146
22.16753,94459
22.17565,94474
22.18377,93750
22.19190,91808
22.20002,92168
22.20815,79033
22.21627,80519
22.22438,76514
22.23252,71297
22.24063,75850
22.24877,69114
22.25688,73584
22.26500,71130
22.27313,70202
22.28125,67101
22.28937,69917
22.29750,70383
22.30562,66859
22.31375,70168
22.32187,65140
22.32998,60580
22.33812,61214
22.34623,61484
22.35437,58353
22.36248,57707
22.37060,56451
22.37873,58329
22.38685,61350
22.39497,60161
22.40310,62044
22.41122,65662
22.41935,63991
22.42747,63120
22.43558,61150
22.44372,59239
22.45183,60815
22.45997,52646
22.46808,55736
22.47620,52239
22.48433,55834
22.49245,53327
22.50058,54631
22.50870,52622
22.51682,52113
22.52495,47763
22.53307,52543
22.54118,47757
22.54932,45391
22.55743,41780
22.56557,44418
22.57368,45363
22.58180,42014
22.58993,40712
22.59805,41931
22.60618,41017
22.61430,39926
22.62242,44687
22.63055,43734
22.63867,38424
22.64678,37871
22.65492,38229
22.66303,40472
22.67117,41283
22.67928,41417
22.68740,46944
22.69553,50087
22.70365,50020
22.71178,47190
22.71990,50716
22.72802,46296
22.73615,47710
22.74427,45715
22.75240,44138
22.76052,38622
22.76863,44955
22.77677,40276
22.78488,43644
22.79300,40795
22.80113,49104
22.80925,44778
22.81738,42814
22.82550,43307
22.83362,44104
22.84175,41481
22.84987,42459
22.85800,42118
22.86612,46164
22.87423,44622
22.88237,48319
22.89048,52767
22.89862,62181
22.90673,81614
22.91485,108601
22.92298,134331
22.93110,156819
22.93922,157117
22.94735,151224
22.95547,133319
22.96360,122150
22.97172,111061
22.97983,99206
22.98797,102230
22.99608,81862
23.00422,77021
23.01233,75527
23.02045,68306
23.02858,57727
23.03670,53816
23.04482,50197
23.05295,46142
23.06107,45681
23.06920,42265
23.07732,44112
23.08543,43249
23.09357,38608
23.10168,40862
23.10982,41704
23.11793,42465
23.12605,38569
23.13418,38215
23.14230,39054
23.15043,40910
23.15855,38236
23.16667,37610
23.17480,39616
23.18292,37073
23.19103,34929
23.19917,35230
23.20728,34612
23.21542,37032
23.22353,38310
23.23165,36702
23.23978,35062
23.24790,39981
23.25603,40126
23.26415,40980
23.27227,35796
23.28040,37702
23.28852,33082
23.29665,36949
23.30477,33139
23.31288,39173
23.32102,36961
23.32913,33759
23.33725,37925
23.34538,47972
23.35350,41836
23.36163,45715
23.36975,46713
23.37787,44683
23.38600,45213
23.39412,39767
23.40225,38655
23.41037,37246
23.41848,41612
23.42662,37324
23.43473,36906
23.44285,36634
23.45098,35820
23.45910,33814
23.46723,34409
23.47535,31290
23.48347,31081
23.49160,31941
23.49972,33445
23.50785,32443
23.51597,31979
23.52408,32697
23.53222,36750
23.54033,31201
23.54847,34907
23.55658,34638
23.56470,38481
23.57283,39867
23.58095,45698
23.58907,53124
23.59720,56442
23.60532,57849
23.61345,58279
23.62157,56854
23.62968,51954
23.63782,53314
23.64593,52899
23.65407,49188
23.66218,45042
23.67030,47203
23.67843,47874
23.68655,46537
23.69468,48076
23.70280,48937
23.71092,56718
23.71905,83651
23.72717,112144
23.73528,189172
23.74342,396856
23.75153,889629
23.75967,1966773
23.76778,3580105
23.77590,5253757
23.78403,6147845
23.79215,5853655
23.80028,5049304
23.80840,3854408
23.81652,2754084
23.82465,1979577
23.83277,1431075
23.84088,1110887
23.84902,898511
23.85713,764803
23.86527,654152
23.87338,564487
23.88150,499080
23.88963,450403
23.89775,418968
23.90588,388335
23.91400,353226
23.92212,332523
23.93025,316138
23.93837,282876
23.94650,283035
23.95462,267954
23.96273,259443
23.97087,240527
23.97898,237104
23.98710,216334
23.99523,207101
24.00335,202307
24.01148,204724
24.01960,205926
24.02772,198413
24.03585,201588
24.04397,194181
24.05210,182536
24.06022,179157
24.06833,175165
24.07647,170065
24.08458,167503
24.09270,162456
24.10083,151910
24.10895,150494
24.11708,146207
24.12520,143650
24.13332,151024
24.14145,148513
24.14957,146043
24.15770,154941
24.16582,140175
24.17393,139069
24.18207,140665
24.19018,116914
24.19832,124687
24.20643,113201
24.21455,110008
24.22268,108845
24.23080,103404
24.23892,104934
24.24705,95409
24.25517,94874
24.26330,92578
24.27142,92773
24.27953,92845
24.28767,89688
24.29578,86364
24.30392,92893
24.31203,95975
24.32015,105195
24.32828,112553
24.33640,112689
24.34453,106915
24.35265,95228
24.36077,86410
24.36890,82448
24.37702,75718
24.38513,75139
24.39327,75004
24.40138,69716
24.40952,73784
24.41763,78964
24.42575,79317
24.43388,86907
24.44200,93244
24.45013,100419
24.45825,89768
24.46637,87213
24.47450,76475
24.48262,81736
24.49073,71578
24.49887,71147
24.50698,65286
24.51512,66235
24.52323,65400
24.53135,69711
24.53948,70736
24.54760,72114
24.55573,74012
24.56385,70843
24.57197,68938
24.58010,64106
24.58822,62374
24.59635,60810
24.60447,60410
24.61258,59915
24.62072,58004
24.62883,60555
24.63695,55213
24.64508,57619
24.65320,57023
24.66133,59128
24.66945,57125
24.67757,57204
24.68570,55361
24.69382,57382
24.70195,55337
24.71007,51475
24.71818,51726
24.72632,46819
24.73443,48222
24.74257,47963
24.75068,48242
24.75880,53183
24.76693,52157
24.77505,51262
24.78317,51952
24.79130,52660
24.79942,51513
24.80755,50337
24.81567,53153
24.82378,57272
24.83192,58227
24.84003,61386
24.84817,67468
24.85628,75416
24.86440,88486
24.87253,97392
24.88065,109730
24.88877,111470
24.89690,104788
24.90502,96276
24.91315,86811
24.92127,78474
24.92938,80941
24.93752,94483
24.94563,109670
24.95377,115021
24.96188,123531
24.97000,122712
24.97813,123856
24.98625,129414
24.99438,125004
25.00250,131712
25.01062,125864
25.01875,126422
25.02687,130227
25.03498,128350
25.04312,130918
25.05123,127696
25.05937,130162
25.06748,120720
25.07560,129858
25.08373,128305
25.09185,130396
25.09998,157094
25.10810,202794
25.11622,271845
25.12435,375772
25.13247,499228
25.14058,598021
25.14872,623076
25.15683,559227
25.16497,459019
25.17308,344619
25.18120,276634
25.18933,212243
25.19745,180455
25.20558,156024
25.21370,145721
25.22182,137169
25.22995,145071
25.23807,166749
25.24620,199034
25.25432,230258
25.26243,265305
25.27057,289807
25.27868,275809
25.28680,230170
25.29493,191322
25.30305,159814
25.31118,135755
25.31930,119504
25.32742,108998
25.33555,105709
25.34367,100929
25.35180,94551
25.35992,87060
25.36803,87933
25.37617,85530
25.38428,81968
25.39242,83377
25.40053,83471
25.40865,81235
25.41678,78986
25.42490,75431
25.43302,71618
25.44115,72083
25.44927,70811
25.45740,68878
25.46552,67069
25.47363,69571
25.48177,63926
25.48988,63719
25.49802,62383
25.50613,65088
25.51425,61894
25.52238,59428
25.53050,59525
25.53863,58278
25.54675,55819
25.55487,58821
25.56300,57538
25.57112,55022
25.57923,55538
25.58737,53754
25.59548,56965
25.60362,49995
25.61173,52331
25.61985,53403
25.62798,48629
25.63610,50637
25.64423,49798
25.65235,49880
25.66047,51359
25.66860,50453
25.67672,54293
25.68483,49860
25.69297,50404
25.70108,53159
25.70922,48655
25.71733,47978
25.72545,43929
25.73358,46552
25.74170,48340
25.74983,47438
25.75795,46414
25.76607,45032
25.77420,42074
25.78232,43796
25.79045,46801
25.79857,48282
25.80668,51541
25.81482,48756
25.82293,49446
25.83105,45579
25.83918,45324
25.84730,45067
25.85543,43078
25.86355,43699
25.87167,49684
25.87980,41728
25.88792,43948
25.89605,39385
25.90417,46264
25.91228,40155
25.92042,41044
25.92853,41259
25.93665,42852
25.94478,44753
25.95290,46969
25.96103,42696
25.96915,44362
25.97727,43970
25.98540,46458
25.99352,41034
26.00165,38703
26.00977,43872
26.01788,40697
26.02602,38713
26.03413,36338
26.04227,41144
26.05038,44650
26.05850,39920
26.06663,41992
26.07475,42802
26.08287,42432
26.09100,46294
26.09912,42513
26.10725,41585
26.11537,46004
26.12348,47888
26.13162,43943
26.13973,43385
26.14787,47751
26.15598,45848
26.16410,42423
26.17223,44935
26.18035,45688
26.18848,43800
26.19660,42345
26.20472,41290
26.21285,37142
26.22097,40205
26.22908,39148
26.23722,41723
26.24533,41098
26.25347,41159
26.26158,40646
26.26970,39737
26.27783,38807
26.28595,40388
26.29408,37849
26.30220,37737
26.31032,40198
26.31845,38983
26.32657,38281
26.33468,43108
26.34282,44492
26.35093,38384
26.35907,42889
26.36718,41108
26.37530,40541
26.38343,44347
26.39155,42984
26.39968,46068
26.40780,43190
26.41592,42724
26.42405,42114
26.43217,40116
26.44030,38823
26.44842,36991
26.45653,39665
26.46467,41237
26.47278,40192
26.48090,44998
26.48903,39450
26.49715,35919
26.50528,35988
26.51340,38036
26.52152,37251
26.52965,38243
26.53777,35484
26.54590,39254
26.55402,38877
26.56213,38436
26.57027,38573
26.57838,38170
26.58652,39823
26.59463,40779
26.60275,38191
26.61088,37414
26.61900,37849
26.62712,40854
26.63525,37927
26.64337,41351
26.65150,39063
26.65962,40789
26.66773,39764
26.67587,41858
26.68398,43830
26.69212,40433
26.70023,41814
26.70835,37784
26.71648,39271
26.72460,42303
26.73272,43581
26.74085,36522
26.74897,37264
26.75710,38692
26.76522,40055
26.77333,40887
26.78147,42261
26.78958,39634
26.79772,42510
26.80583,41791
26.81395,43615
26.82208,39248
26.83020,39593
26.83833,38125
26.84645,37527
26.85457,37503
26.86270,36486
26.87082,36565
26.87893,40437
26.88707,39694
26.89518,38678
26.90332,37972
26.91143,42508
26.91955,43743
26.92768,44476
26.93580,54960
26.94393,77210
26.95205,123064
26.96017,204538
26.96830,340844
26.97642,560358
26.98453,837762
26.99267,1137204
27.00078,1356324
27.00892,1374927
27.01703,1225184
27.02515,1009466
27.03328,784985
27.04140,600434
27.04953,445650
27.05765,335320
27.06577,269674
27.07390,218485
27.08202,186856
27.09015,164632
27.09827,140198
27.10638,134758
27.11452,128102
27.12263,110875
27.13075,102161
27.13888,98269
27.14700,103309
27.15513,103383
27.16325,99012
27.17137,88945
27.17950,90971
27.18762,86242
27.19575,78239
27.20387,78839
27.21198,72069
27.22012,68694
27.22823,64288
27.23637,64752
27.24448,65184
27.25260,62615
27.26073,59370
27.26885,59545
27.27697,53724
27.28510,55803
27.29322,56923
27.30135,53436
27.30947,53073
27.31758,57329
27.32572,53509
27.33383,55393
27.34197,52537
27.35008,49776
27.35820,49732
27.36633,48476
27.37445,49634
27.38257,57024
27.39070,54018
27.39882,52562
27.40695,48517
27.41507,49550
27.42318,45713
27.43132,45319
27.43943,50364
27.44757,50221
27.45568,50676
27.46380,55921
27.47193,47814
27.48005,45187
27.48818,46061
27.49630,44611
27.50442,44191
27.51255,45518
27.52067,45327
27.52878,45348
27.53692,44685
27.54503,44526
27.55317,45604
27.56128,40387
27.56940,44050
27.57753,47714
27.58565,42716
27.59378,45031
27.60190,47330
27.61002,43273
27.61815,40844
27.62627,41480
27.63440,39596
27.64252,40019
27.65063,38575
27.65877,42430
27.66688,39370
27.67500,41791
27.68313,41601
27.69125,43627
27.69938,37154
27.70750,41783
27.71562,39471
27.72375,38935
27.73187,40418
27.74000,41531
27.74812,43534
27.75623,45823
27.76437,44931
27.77248,48999
27.78060,45565
27.78873,43479
27.79685,46801
27.80498,43854
27.81310,40478
27.82122,39971
27.82935,38662
27.83747,37985
27.84560,39112
27.85372,37357
27.86183,35790
27.86997,36165
27.87808,38048
27.88622,35957
27.89433,34517
27.90245,35921
27.91058,34839
27.91870,37405
27.92682,38870
27.93495,35734
27.94307,29966
27.95120,37786
27.95932,38028
27.96743,35634
27.97557,40027
27.98368,39036
27.99182,40365
27.99993,41239
28.00805,40464
28.01618,37542
28.02430,42381
28.03243,43796
28.04055,43389
28.04867,42381
28.05680,40354
28.06492,37939
28.07303,39670
28.08117,43166
28.08928,42116
28.09742,39958
28.10553,41127
28.11365,47256
28.12178,48028
28.12990,47665
28.13803,47259
28.14615,40681
28.15427,38472
28.16240,36510
28.17052,37826
28.17863,38440
28.18677,34325
28.19488,38278
28.20302,42391
28.21113,38346
28.21925,39205
28.22738,42844
28.23550,39928
28.24363,42424
28.25175,50306
28.25987,58901
28.26800,75903
28.27612,96473
28.28425,124703
28.29237,149478
28.30048,172789
28.30862,195854
28.31673,202198
28.32485,208824
28.33298,202271
28.34110,185409
28.34923,183434
28.35735,160908
28.36547,145576
28.37360,133772
28.38172,111990
28.38985,101457
28.39797,91310
28.40608,86451
28.41422,78935
28.42233,72336
28.43045,70781
28.43858,67605
28.44670,61059
28.45483,60753
28.46295,57985
28.47107,56526
28.47920,50525
28.48732,51406
28.49545,49774
28.50357,51512
28.51168,48027
28.51982,49273
28.52793,50180
28.53607,45965
28.54418,42698
28.55230,45699
28.56043,43200
28.56855,42011
28.57667,39428
28.58480,40306
28.59292,41198
28.60105,43143
28.60917,41007
28.61728,40934
28.62542,42158
28.63353,42484
28.64167,45212
28.64978,48269
28.65790,50387
28.66603,48734
28.67415,48409
28.68228,53558
28.69040,56552
28.69852,57637
28.70665,56722
28.71477,49019
28.72288,44078
28.73102,47096
28.73913,39737
28.74727,36607
28.75538,38578
28.76350,40199
28.77163,37446
28.77975,39215
28.78788,36269
28.79600,40097
28.80412,38732
28.81225,38517
28.82037,39207
28.82848,37009
28.83662,36994
28.84473,35484
28.85287,36735
28.86098,35012
28.86910,36632
28.87723,35968
28.88535,39114
28.89348,38895
28.90160,37537
28.90972,39803
28.91785,37617
28.92597,35231
28.93410,37335
28.94222,36722
28.95033,39784
28.95847,40285
28.96658,39364
28.97470,39398
28.98283,35442
28.99095,34410
28.99908,40592
29.00720,36336
29.01532,36249
29.02345,30027
29.03157,35314
29.03970,40040
29.04782,34497
29.05593,37815
29.06407,39099
29.07218,37433
29.08032,37732
29.08843,38199
29.09655,37459
29.10468,33285
29.11280,31584
29.12092,33431
29.12905,34142
29.13717,32354
29.14530,33450
29.15342,30909
29.16153,35770
29.16967,33709
29.17778,32240
29.18592,34164
29.19403,37204
29.20215,40765
29.21028,39086
29.21840,41475
29.22652,39174
29.23465,39716
29.24277,40733
29.25090,38612
29.25902,40225
29.26713,37730
29.27527,37853
29.28338,34275
29.29152,36499
29.29963,33472
29.30775,33385
29.31588,31413
29.32400,33514
29.33213,33110
29.34025,35738
29.34837,34455
29.35650,33344
29.36462,33204
29.37273,34684
29.38087,33386
29.38898,35320
29.39712,35890
29.40523,36364
29.41335,37951
29.42148,35416
29.42960,38006
29.43773,35466
29.44585,33705
29.45397,32174
29.46210,30520
29.47022,31496
29.47833,31772
29.48647,36022
29.49458,34134
29.50272,35976
29.51083,34023
29.51895,34486
29.52708,33284
29.53520,34443
29.54333,32474
29.55145,33090
29.55957,34618
29.56770,32482
29.57582,32882
29.58395,34145
29.59207,32954
29.60018,34885
29.60832,33210
29.61643,32528
29.62455,33908
29.63268,30134
29.64080,29751
29.64893,32693
29.65705,28622
29.66517,32742
29.67330,29354
29.68142,30586
29.68955,28108
29.69767,31138
29.70578,29321
29.71392,29116
29.72203,28510
29.73017,29997
29.73828,31640
29.74640,31896
29.75453,30687
29.76265,29653
29.77077,29484
29.77890,25685
29.78702,29226
29.79515,33056
29.80327,33414
29.81138,28064
29.81952,29312
29.82763,30813
29.83577,28558
29.84388,31268
29.85200,33046
29.86013,36853
29.86825,38701
29.87637,49171
29.88450,56904
29.89262,68068
29.90075,71788
29.90887,79393
29.91698,85028
29.92512,91123
29.93323,92108
29.94137,94846
29.94948,94469
29.95760,100386
29.96573,97651
29.97385,89547
29.98198,88706
29.99010,83829
29.99822,80490
30.00635,80704
30.01447,73097
30.02258,69569
30.03072,64694
30.03883,64213
30.04697,63222
30.05508,63959
30.06320,65932
30.07133,61812
30.07945,62732
30.08758,60200
30.09570,64352
30.10382,58468
30.11195,58248
30.12007,59046
30.12820,51070
30.13632,53334
30.14443,52495
30.15257,46435
30.16068,45742
30.16880,52172
30.17693,50837
30.18505,47481
30.19318,48667
30.20130,49043
30.20942,43913
30.21755,44110
30.22567,43713
30.23380,41665
30.24192,44215
30.25003,40689
30.25817,39570
30.26628,42532
30.27440,42782
30.28253,39574
30.29065,41937
30.29878,39373
30.30690,37100
30.31502,36245
30.32315,41459
30.33127,37801
30.33940,35389
30.34752,37607
30.35563,38468
30.36377,41718
30.37188,38507
30.38002,41310
30.38813,36538
30.39625,34152
30.40438,33307
30.41250,35187
30.42062,32400
30.42875,32465
30.43687,34652
30.44500,35017
30.45312,32383
30.46123,33628
30.46937,36965
30.47748,32175
30.48562,36767
30.49373,37621
30.50185,33871
30.50998,32811
30.51810,33011
30.52622,33686
30.53435,32960
30.54247,34675
30.55060,33662
30.55872,29937
30.56683,32387
30.57497,35741
30.58308,31638
30.59122,36023
30.59933,29705
30.60745,33767
30.61558,33095
30.62370,35173
30.63183,32735
30.63995,31213
30.64807,30257
30.65620,33229
30.66432,35548
30.67243,33173
30.68057,31134
30.68868,28326
30.69682,30529
30.70493,34728
30.71305,33486
30.72118,31615
30.72930,30432
30.73743,31795
30.74555,30198
30.75367,31402
30.76180,33134
30.76992,37864
30.77805,40819
30.78617,43614
30.79428,50148
30.80242,53368
30.81053,51686
30.81865,50081
30.82678,41799
30.83490,40015
30.84303,36421
30.85115,34897
30.85927,32335
30.86740,31963
30.87552,37258
30.88365,33254
30.89177,36291
30.89988,31242
30.90802,31686
30.91613,26858
30.92427,30732
30.93238,32258
30.94050,31593
30.94863,28753
30.95675,27883
30.96487,29424
30.97300,30835
30.98112,31565
30.98925,30365
30.99737,29786
31.00548,28817
31.01362,28668
31.02173,32134
31.02987,31282
31.03798,32645
31.04610,28430
31.05423,31337
31.06235,30764
31.07047,38937
31.07860,39364
31.08672,42267
31.09485,43409
31.10297,41554
31.11108,41758
31.11922,36739
31.12733,35295
31.13547,35501
31.14358,37558
31.15170,35877
31.15983,34510
31.16795,38944
31.17608,45873
31.18420,51786
31.19232,55185
31.20045,62047
31.20857,64774
31.21668,66156
31.22482,56919
31.23293,46544
31.24107,44355
31.24918,39121
31.25730,37590
31.26543,34622
31.27355,34466
31.28168,34622
31.28980,33827
31.29792,34161
31.30605,31969
31.31417,32540
31.32228,34706
31.33042,38902
31.33853,33336
31.34667,38551
31.35478,31311
31.36290,29225
31.37103,31056
31.37915,33519
31.38728,31231
31.39540,33041
31.40352,32694
31.41165,30701
31.41977,31514
31.42790,30824
31.43602,34215
31.44413,31221
31.45227,31072
31.46038,34873
31.46850,35963
31.47663,38890
31.48475,38992
31.49288,36661
31.50100,38668
31.50912,36257
31.51725,34826
31.52537,40234
31.53350,37141
31.54162,36217
31.54973,36524
31.55787,38762
31.56598,36622
31.57412,35335
31.58223,31865
31.59035,34634
31.59848,33973
31.60660,31740
31.61472,31496
31.62285,30394
31.63097,35797
31.63910,33878
31.64722,32579
31.65533,34883
31.66347,30708
31.67158,30935
31.67972,31257
31.68783,34096
31.69595,33020
31.70408,34126
31.71220,35601
31.72032,31612
31.72845,28361
31.73657,37196
31.74470,30137
31.75282,30941
31.76093,28191
31.76907,31983
31.77718,33004
31.78532,33428
31.79343,34258
31.80155,36848
31.80968,34026
31.81780,38244
31.82593,37805
31.83405,41530
31.84217,50522
31.85030,56417
31.85842,61315
31.86653,68314
31.87467,72919
31.88278,72860
31.89092,72356
31.89903,76727
31.90715,75030
31.91528,70024
31.92340,66898
31.93153,63216
31.93965,60271
31.94777,54265
31.95590,55397
31.96402,55025
31.97215,53552
31.98027,49857
31.98838,54591
31.99652,52714
32.00463,52201
32.01275,48126
32.02088,45913
32.02900,40422
32.03713,40017
32.04525,40858
32.05337,36597
32.06150,41803
32.06962,36300
32.07775,37519
32.08587,35428
32.09398,38466
32.10212,36386
32.11023,33875
32.11835,34097
32.12648,32260
32.13460,31132
32.14273,32319
32.15085,34254
32.15897,32718
32.16710,30368
32.17522,29843
32.18335,35271
32.19147,33097
32.19958,32522
32.20772,35524
32.21583,28686
32.22397,34781
32.23208,32548
32.24020,31906
32.24833,33409
32.25645,32963
32.26457,34939
32.27270,36147
32.28082,32351
32.28895,31512
32.29707,32745
32.30518,33030
32.31332,34698
32.32143,33747
32.32957,32365
32.33768,32310
32.34580,33391
32.35393,34691
32.36205,32746
32.37017,32181
32.37830,32014
32.38642,32118
32.39455,33240
32.40267,33374
32.41078,33942
32.41892,31049
32.42703,30237
32.43517,31411
32.44328,30308
32.45140,31898
32.45953,31889
32.46765,33052
32.47578,30666
32.48390,28235
32.49202,32264
32.50015,29420
32.50827,32815
32.51638,29719
32.52452,35047
32.53263,31204
32.54077,31605
32.54888,32154
32.55700,35092
32.56513,33329
32.57325,36469
32.58138,39279
32.58950,43700
32.59762,41299
32.60575,41486
32.61387,34008
32.62200,32561
32.63012,31036
32.63823,31170
32.64637,27803
32.65448,32010
32.66260,30245
32.67073,31352
32.67885,30529
32.68698,30879
32.69510,32424
32.70322,32508
32.71135,33684
32.71947,31975
32.72760,31659
32.73572,33929
32.74383,31669
32.75197,30200
32.76008,28324
32.76820,31701
32.77633,32165
32.78445,32161
32.79258,31484
32.80070,31228
32.80882,31688
32.81695,28655
32.82507,29497
32.83320,30245
32.84132,28602
32.84943,31167
32.85757,28747
32.86568,30617
32.87382,31312
32.88193,31181
32.89005,32327
32.89818,33812
32.90630,31081
32.91442,32863
32.92255,29642
32.93067,29947
32.93880,31799
32.94692,30796
32.95503,34896
32.96317,33660
32.97128,41119
32.97942,43494
32.98753,45941
32.99565,50521
33.00378,49366
33.01190,48059
33.02003,43735
33.02815,42958
33.03627,35086
33.04440,35157
33.05252,34079
33.06063,37249
33.06877,30374
33.07688,37131
33.08502,38778
33.09313,41194
33.10125,42389
33.10938,45218
33.11750,42399
33.12563,41129
33.13375,40661
33.14187,41107
33.15000,36119
33.15812,33544
33.16623,34080
33.17437,33845
33.18248,36785
33.19062,30773
33.19873,31201
33.20685,37381
33.21498,34459
33.22310,32864
33.23123,35992
33.23935,30863
33.24747,30948
33.25560,30726
33.26372,34839
33.27185,30226
33.27997,32893
33.28808,31598
33.29622,34263
33.30433,34997
33.31245,31170
33.32058,35479
33.32870,32201
33.33683,33196
33.34495,29686
33.35307,31180
33.36120,32506
33.36932,31866
33.37745,33062
33.38557,34174
33.39368,36513
33.40182,31866
33.40993,32866
33.41807,31759
33.42618,30426
33.43430,30481
33.44243,30228
33.45055,30474
33.45867,29154
33.46680,32655
33.47492,32948
33.48305,32966
33.49117,31564
33.49928,30677
33.50742,33778
33.51553,33054
33.52367,33907
33.53178,31790
33.53990,35175
33.54803,31962
33.55615,31629
33.56427,31052
33.57240,30854
33.58052,33436
33.58865,33206
33.59677,33380
33.60488,34650
33.61302,36579
33.62113,32311
33.62927,32860
33.63738,30454
33.64550,31549
33.65363,34794
33.66175,32847
33.66988,33584
33.67800,28474
33.68612,32554
33.69425,32712
33.70237,34108
33.71048,31811
33.71862,34666
33.72673,31075
33.73487,31613
33.74298,36662
33.75110,38026
33.75923,36999
33.76735,34177
33.77548,33503
33.78360,37061
33.79172,34559
33.79985,34599
33.80797,35412
33.81608,36695
33.82422,33804
33.83233,33492
33.84047,37714
33.84858,33429
33.85670,32838
33.86483,35164
33.87295,36356
33.88108,35094
33.88920,35477
33.89732,34149
33.90545,33279
33.91357,35871
33.92170,31903
33.92982,35823
33.93793,31832
33.94607,33887
33.95418,33274
33.96230,29326
33.97043,32512
33.97855,34145
33.98668,34759
33.99480,34436
34.00292,34406
34.01105,34392
34.01917,31901
34.02730,31196
34.03542,31696
34.04353,33792
34.05167,30126
34.05978,32395
34.06792,31818
34.07603,30849
34.08415,33349
34.09228,36698
34.10040,32333
34.10852,33530
34.11665,29307
34.12477,34881
34.13290,29698
34.14102,32643
34.14913,31342
34.15727,32043
34.16538,32924
34.17352,31700
34.18163,33229
34.18975,32698
34.19788,32696
34.20600,32669
34.21412,31759
34.22225,31883
34.23037,31358
34.23850,31503
34.24662,30800
34.25473,32794
34.26287,31673
34.27098,31945
34.27912,34685
34.28723,33094
34.29535,33738
34.30348,35305
34.31160,33403
34.31973,37083
34.32785,33978
34.33597,36164
34.34410,35378
34.35222,34972
34.36033,32997
34.36847,31936
34.37658,35122
34.38472,34589
34.39283,31160
34.40095,30999
34.40908,33110
34.41720,32985
34.42533,34857
34.43345,42156
34.44157,48668
34.44970,52946
34.45782,60315
34.46595,67963
34.47407,74000
34.48218,71974
34.49032,78744
34.49843,72262
34.50655,63799
34.51468,62389
34.52280,54740
34.53093,49451
34.53905,47379
34.54717,46086
34.55530,43382
34.56342,46662
34.57155,44520
34.57967,45730
34.58778,40341
34.59592,42953
34.60403,46131
34.61215,41999
34.62028,42720
34.62840,42034
34.63653,40601
34.64465,41469
34.65277,37173
34.66090,36444
34.66902,37728
34.67715,36516
34.68527,37264
34.69338,36490
34.70152,36954
34.70963,33406
34.71777,35624
34.72588,33367
34.73400,33753
34.74213,33718
34.75025,31567
34.75837,34288
34.76650,34106
34.77462,37153
34.78275,35310
34.79087,32730
34.79898,34075
34.80712,36947
34.81523,35333
34.82337,36164
34.83148,40004
34.83960,34371
34.84773,31086
34.85585,33758
34.86397,36080
34.87210,36288
34.88022,35540
34.88835,37457
34.89647,34319
34.90458,34464
34.91272,35178
34.92083,34193
34.92897,34645
34.93708,36371
34.94520,38560
34.95333,35853
34.96145,34097
34.96958,37674
34.97770,36509
34.98582,38904
34.99395,37518
35.00207,34917
35.01018,36465
35.01832,34301
35.02643,35029
35.03457,34561
35.04268,36956
35.05080,35097
35.05893,37388
35.06705,37725
35.07518,38814
35.08330,39653
35.09142,37054
35.09955,35886
35.10767,39437
35.11580,35742
35.12392,38007
35.13203,35393
35.14017,35369
35.14828,34990
35.15640,38348
35.16453,37672
35.17265,38360
35.18078,34908
35.18890,36738
35.19702,33169
35.20515,36492
35.21327,35289
35.22140,34751
35.22952,35666
35.23763,33353
35.24577,33818
35.25388,36556
35.26200,38596
35.27013,38174
35.27825,34748
35.28638,36896
35.29450,36883
35.30262,32133
35.31075,34768
35.31887,35126
35.32700,35052
35.33512,35660
35.34323,33564
35.35137,37327
35.35948,35409
35.36762,37996
35.37573,36751
35.38385,35830
35.39198,35001
35.40010,39264
35.40822,39864
35.41635,39579
35.42447,38399
35.43260,42416
35.44072,38644
35.44883,38263
35.45697,36539
35.46508,41296
35.47322,41164
35.48133,41645
35.48945,40524
35.49758,38893
35.50570,41719
35.51383,39606
35.52195,36875
35.53007,35651
35.53820,34323
35.54632,36979
35.55443,40459
35.56257,47288
35.57068,48739
35.57882,48624
35.58693,46948
35.59505,54740
35.60318,46400
35.61130,46360
35.61943,43285
35.62755,38225
35.63567,39919
35.64380,40070
35.65192,37213
35.66003,39949
35.66817,41749
35.67628,37322
35.68442,39199
35.69253,41768
35.70065,39776
35.70878,34740
35.71690,38988
35.72503,38621
35.73315,39383
35.74127,38869
35.74940,39880
35.75752,39124
35.76565,42079
35.77377,36964
35.78188,38972
35.79002,39202
35.79813,39912
35.80625,40239
35.81438,38296
35.82250,46515
35.83063,41499
35.83875,38923
35.84687,41020
35.85500,39127
35.86312,40470
35.87125,34386
35.87937,38009
35.88748,40927
35.89562,41650
35.90373,42960
35.91185,41493
35.91998,41011
35.92810,38602
35.93623,37760
35.94435,41268
35.95247,39527
35.96060,41173
35.96872,36793
35.97685,41662
35.98497,41424
35.99308,42548
36.00122,43221
36.00933,48124
36.01747,41525
36.02558,47872
36.03370,43285
36.04183,41562
36.04995,43529
36.05807,42432
36.06620,45544
36.07432,41691
36.08245,39544
36.09057,36121
36.09868,42002
36.10682,40275
36.11493,36752
36.12307,41110
36.13118,40602
36.13930,42057
36.14743,46047
36.15555,40723
36.16368,37968
36.17180,38927
36.17992,39900
36.18805,41960
36.19617,41024
36.20428,41912
36.21242,43503
36.22053,46336
36.22867,50948
36.23678,52951
36.24490,50663
36.25303,50069
36.26115,43854
36.26928,38813
36.27740,43168
36.28552,43153
36.29365,42295
36.30177,41499
36.30990,38998
36.31802,42425
36.32613,37796
36.33427,39667
36.34238,41202
36.35050,42477
36.35863,39836
36.36675,40285
36.37488,44841
36.38300,42950
36.39112,39543
36.39925,39833
36.40737,39513
36.41550,39194
36.42362,39662
36.43173,41338
36.43987,38131
36.44798,43670
36.45610,42202
36.46423,41559
36.47235,42963
36.48048,42761
36.48860,39514
36.49672,41120
36.50485,43707
36.51297,43344
36.52110,38791
36.52922,44373
36.53733,44943
36.54547,47595
36.55358,43730
36.56172,43269
36.56983,42393
36.57795,47110
36.58608,45965
36.59420,41599
36.60232,39779
36.61045,42659
36.61857,41837
36.62670,41496
36.63482,40979
36.64293,41528
36.65107,42918
36.65918,40232
36.66732,41329
36.67543,41943
36.68355,42359
36.69168,41694
36.69980,48610
36.70792,43884
36.71605,40248
36.72417,43605
36.73230,41544
36.74042,43517
36.74853,47084
36.75667,38484
36.76478,41607
36.77292,39701
36.78103,45485
36.78915,40943
36.79728,47234
36.80540,47918
36.81353,47845
36.82165,40525
36.82977,40786
36.83790,41136
36.84602,44376
36.85413,44570
36.86227,45215
36.87038,43377
36.87852,41972
36.88663,42647
36.89475,41949
36.90288,42006
36.91100,45407
36.91913,43960
36.92725,46692
36.93537,46069
36.94350,46431
36.95162,51060
36.95975,47116
36.96787,53551
36.97598,46089
36.98412,50575
36.99223,47416
37.00035,46619
37.00848,49735
37.01660,54535
37.02473,49616
37.03285,49778
37.04097,51455
37.04910,47003
37.05722,47541
37.06535,49040
37.07347,48837
37.08158,46732
37.08972,48298
37.09783,48089
37.10595,50258
37.11408,47084
37.12220,47084
37.13033,49064
37.13845,48068
37.14657,48468
37.15470,46792
37.16282,45848
37.17095,45989
37.17907,44145
37.18718,47666
37.19532,44326
37.20343,48061
37.21157,49418
37.21968,47590
37.22780,50326
37.23593,55906
37.24405,56802
37.25217,64840
37.26030,75780
37.26842,76420
37.27655,82197
37.28467,77777
37.29278,77213
37.30092,73249
37.30903,67714
37.31717,62166
37.32528,58534
37.33340,57853
37.34153,56226
37.34965,53772
37.35778,51798
37.36590,54730
37.37402,55890
37.38215,54303
37.39027,52797
37.39838,55049
37.40652,52391
37.41463,53811
37.42277,48950
37.43088,52690
37.43900,49117
37.44713,51666
37.45525,51001
37.46338,48131
37.47150,47920
37.47962,50855
37.48775,51790
