C:\MassHunter\GCMS\1\data\20191125_ALKANES\Burnoff 11262020 part 3.D Tue Nov 26 13:30:29 2019
Start of data points
2.09512	283629
2.10325	295625
2.11137	309934
2.11950	304688
2.12762	328710
2.13573	355405
2.14387	414777
2.15198	499180
2.16012	578433
2.16823	668873
2.17635	739684
2.18448	800890
2.19260	830939
2.20072	817792
2.20885	802317
2.21697	771510
2.22510	717091
2.23322	678626
2.24133	620186
2.24947	562393
2.25758	518761
2.26572	471936
2.27383	422930
2.28195	392378
2.29008	363241
2.29820	325458
2.30633	305872
2.31445	276690
2.32257	261287
2.33070	242955
2.33882	220068
2.34693	209952
2.35507	198145
2.36318	184789
2.37132	166214
2.37943	168315
2.38755	155586
2.39568	151462
2.40380	142039
2.41193	138502
2.42005	131386
2.42817	124512
2.43630	123021
2.44442	122122
2.45253	107955
2.46067	117680
2.46878	113256
2.47692	107663
2.48503	107067
2.49315	103759
2.50128	97767
2.50940	98932
2.51753	98566
2.52565	98536
2.53377	103239
2.54190	96910
2.55002	96682
2.55815	98634
2.56627	93811
2.57438	83775
2.58252	86477
2.59063	87397
2.59875	87362
2.60688	82750
2.61500	85915
2.62313	91455
2.63125	90284
2.63937	88486
2.64750	86704
2.65562	85346
2.66375	84929
2.67187	82976
2.67998	80302
2.68812	79911
2.69623	87174
2.70437	82885
2.71248	76841
2.72060	77580
2.72873	78342
2.73685	74457
2.74497	76785
2.75310	78095
2.76122	80872
2.76935	77262
2.77747	76483
2.78558	82050
2.79372	74670
2.80183	75864
2.80997	76530
2.81808	73329
2.82620	72602
2.83433	71275
2.84245	75968
2.85058	72478
2.85870	76980
2.86682	74090
2.87495	73725
2.88307	69891
2.89118	70331
2.89932	71023
2.90743	68978
2.91557	71707
2.92368	73565
2.93180	71601
2.93993	72514
2.94805	68992
2.95618	70544
2.96430	76087
2.97242	73173
2.98055	77906
2.98867	81667
2.99678	79566
3.00492	80953
3.01303	74317
3.02117	80975
3.02928	70218
3.03740	77490
3.04553	79395
3.05365	72832
3.06178	76865
3.06990	72526
3.07802	74284
3.08615	74682
3.09427	75398
3.10240	74739
3.11052	73383
3.11863	79326
3.12677	72973
3.13488	75219
3.14300	75400
3.15113	75057
3.15925	73628
3.16738	73616
3.17550	73207
3.18362	69973
3.19175	72881
3.19987	70403
3.20800	72031
3.21612	71798
3.22423	69004
3.23237	73772
3.24048	73526
3.24860	71329
3.25673	70949
3.26485	74296
3.27298	72543
3.28110	69946
3.28922	74235
3.29735	74003
3.30547	67629
3.31360	72498
3.32172	71579
3.32983	73182
3.33797	69088
3.34608	64408
3.35422	68445
3.36233	71161
3.37045	70109
3.37858	68007
3.38670	67767
3.39482	72063
3.40295	73731
3.41107	70780
3.41920	71405
3.42732	64621
3.43543	73350
3.44357	71562
3.45168	71849
3.45982	68850
3.46793	69881
3.47605	76665
3.48418	68059
3.49230	65401
3.50043	68595
3.50855	70907
3.51667	67208
3.52480	67368
3.53292	70238
3.54103	68033
3.54917	61778
3.55728	65498
3.56542	68758
3.57353	66417
3.58165	66976
3.58978	66279
3.59790	70454
3.60603	69773
3.61415	65820
3.62227	68699
3.63040	68921
3.63852	66564
3.64663	68523
3.65477	69093
3.66288	69228
3.67102	64420
3.67913	69541
3.68725	72597
3.69538	69919
3.70350	66208
3.71163	66388
3.71975	68430
3.72787	64902
3.73600	67282
3.74412	64794
3.75225	66351
3.76037	66262
3.76848	65856
3.77662	66600
3.78473	67384
3.79285	68176
3.80098	65935
3.80910	65418
3.81723	64148
3.82535	73189
3.83347	64699
3.84160	64704
3.84972	67957
3.85785	66714
3.86597	63795
3.87408	63371
3.88222	67444
3.89033	66262
3.89847	62954
3.90658	61422
3.91470	73154
3.92283	65781
3.93095	62453
3.93907	62732
3.94720	68348
3.95532	66024
3.96345	63640
3.97157	65694
3.97968	68995
3.98782	61608
3.99593	62311
4.00407	63287
4.01218	64191
4.02030	62709
4.02843	67097
4.03655	63113
4.04467	64752
4.05280	62753
4.06092	61634
4.06905	61343
4.07717	63400
4.08528	63527
4.09342	61583
4.10153	63139
4.10967	62240
4.11778	65048
4.12590	64540
4.13403	66447
4.14215	63971
4.15028	62914
4.15840	63660
4.16652	63028
4.17465	58116
4.18277	57773
4.19088	60225
4.19902	62784
4.20713	61257
4.21527	64659
4.22338	62715
4.23150	60471
4.23963	60140
4.24775	66263
4.25588	61986
4.26400	67567
4.27212	60969
4.28025	64595
4.28837	58151
4.29648	64037
4.30462	64742
4.31273	62398
4.32087	59659
4.32898	61657
4.33710	60213
4.34523	64630
4.35335	62824
4.36148	60303
4.36960	61644
4.37772	63295
4.38585	63659
4.39397	61431
4.40210	60627
4.41022	60813
4.41833	63400
4.42647	60846
4.43458	61250
4.44270	61869
4.45083	60718
4.45895	61125
4.46708	61173
4.47520	60146
4.48332	59760
4.49145	53300
4.49957	60763
4.50770	58522
4.51582	57951
4.52393	62020
4.53207	59559
4.54018	60754
4.54832	57078
4.55643	61463
4.56455	57081
4.57268	57235
4.58080	62293
4.58892	61780
4.59705	60773
4.60517	61438
4.61330	61856
4.62142	59503
4.62953	57319
4.63767	57809
4.64578	56281
4.65392	60844
4.66203	60592
4.67015	58708
4.67828	60351
4.68640	56535
4.69452	64683
4.70265	63447
4.71077	61049
4.71890	61091
4.72702	64877
4.73513	57154
4.74327	58851
4.75138	63359
4.75952	61057
4.76763	59545
4.77575	61204
4.78388	59670
4.79200	63200
4.80013	62980
4.80825	65220
4.81637	62852
4.82450	61915
4.83262	60876
4.84073	61550
4.84887	64165
4.85698	58414
4.86512	61585
4.87323	56867
4.88135	60426
4.88948	63601
4.89760	61758
4.90573	61795
4.91385	62178
4.92197	62593
4.93010	62474
4.93822	60466
4.94635	61880
4.95447	58157
4.96258	59874
4.97072	59615
4.97883	61519
4.98695	62653
4.99508	60840
5.00320	59850
5.01133	60439
5.01945	61899
5.02757	60656
5.03570	62167
5.04382	58594
5.05195	59539
5.06007	63099
5.06818	61767
5.07632	54796
5.08443	59779
5.09255	58245
5.10068	62903
5.10880	55104
5.11693	59689
5.12505	70642
5.13317	62850
5.14130	59271
5.14942	58606
5.15755	57706
5.16567	61000
5.17378	56792
5.18192	60141
5.19003	57270
5.19817	56183
5.20628	61127
5.21440	63949
5.22253	60147
5.23065	60749
5.23877	54366
5.24690	62885
5.25502	65505
5.26315	56545
5.27127	58701
5.27938	54867
5.28752	57178
5.29563	56272
5.30377	55373
5.31188	54400
5.32000	53891
5.32813	58017
5.33625	55075
5.34438	53967
5.35250	51269
5.36062	59007
5.36875	54300
5.37687	55383
5.38498	56881
5.39312	56889
5.40123	53406
5.40937	55798
5.41748	52225
5.42560	50550
5.43373	56260
5.44185	53667
5.44998	53139
5.45810	56352
5.46622	53683
5.47435	54390
5.48247	50451
5.49058	49291
5.49872	57874
5.50683	51542
5.51497	53434
5.52308	54009
5.53120	52177
5.53933	55284
5.54745	52777
5.55558	52482
5.56370	52970
5.57182	50252
5.57995	49417
5.58807	53830
5.59620	51691
5.60432	52356
5.61243	45509
5.62057	51297
5.62868	55238
5.63680	50583
5.64493	48563
5.65305	56901
5.66118	52021
5.66930	50454
5.67742	53565
5.68555	52132
5.69367	54500
5.70180	51843
5.70992	52601
5.71803	52383
5.72617	56284
5.73428	48481
5.74240	53716
5.75053	48848
5.75865	52079
5.76678	52435
5.77490	51225
5.78302	50179
5.79115	46792
5.79927	53235
5.80740	50260
5.81552	50281
5.82363	51398
5.83177	52067
5.83988	54017
5.84802	48819
5.85613	49457
5.86425	49287
5.87238	54391
5.88050	52189
5.88862	49004
5.89675	50684
5.90487	53041
5.91300	46593
5.92112	38923
5.92923	46165
5.93737	39450
5.94548	42725
5.95362	45845
5.96173	45800
5.96985	43524
5.97798	43884
5.98610	47240
5.99423	41947
6.00235	41016
6.01047	43903
6.01860	39121
6.02672	44453
6.03483	47518
6.04297	41896
6.05108	41059
6.05922	42234
6.06733	42154
6.07545	46272
6.08358	40803
6.09170	43521
6.09983	43514
6.10795	42378
6.11607	42060
6.12420	42464
6.13232	41247
6.14043	44106
6.14857	37801
6.15668	42623
6.16482	41522
6.17293	43742
6.18105	42817
6.18918	39634
6.19730	42164
6.20543	45711
6.21355	42617
6.22167	41374
6.22980	40428
6.23792	44208
6.24605	42627
6.25417	44702
6.26228	40805
6.27042	44639
6.27853	40455
6.28665	39807
6.29478	41284
6.30290	42213
6.31103	41787
6.31915	38810
6.32727	44174
6.33540	42441
6.34352	40411
6.35165	42270
6.35977	41192
6.36788	38638
6.37602	46088
6.38413	41372
6.39227	39313
6.40038	42899
6.40850	39535
6.41663	40024
6.42475	43962
6.43287	42585
6.44100	37940
6.44912	37886
6.45725	46475
6.46537	41779
6.47348	42642
6.48162	40566
6.48973	38966
6.49787	37613
6.50598	37328
6.51410	42227
6.52223	41085
6.53035	39209
6.53847	40650
6.54660	41025
6.55472	40323
6.56285	39747
6.57097	40332
6.57908	41634
6.58722	39278
6.59533	40043
6.60347	41693
6.61158	45321
6.61970	38210
6.62783	40467
6.63595	37873
6.64408	41739
6.65220	36375
6.66032	39880
6.66845	44157
6.67657	43048
6.68468	39551
6.69282	38415
6.70093	41557
6.70907	39107
6.71718	44295
6.72530	36470
6.73343	39143
6.74155	41266
6.74968	37506
6.75780	40484
6.76592	40779
6.77405	38631
6.78217	39485
6.79028	40729
6.79842	44074
6.80653	39689
6.81467	40356
6.82278	39413
6.83090	40342
6.83903	38266
6.84715	38718
6.85528	35164
6.86340	35957
6.87152	35285
6.87965	36433
6.88777	36751
6.89590	40213
6.90402	35038
6.91213	33674
6.92027	36108
6.92838	36660
6.93650	36614
6.94463	41860
6.95275	37031
6.96088	34322
6.96900	38325
6.97712	37049
6.98525	38784
6.99337	42326
7.00150	31995
7.00962	36173
7.01773	35551
7.02587	36127
7.03398	35910
7.04212	36705
7.05023	35166
7.05835	35407
7.06648	38957
7.07460	33349
7.08272	36306
7.09085	36969
7.09897	38798
7.10710	36188
7.11522	35666
7.12333	37675
7.13147	37675
7.13958	35788
7.14772	34107
7.15583	36814
7.16395	37056
7.17208	35206
7.18020	36556
7.18833	33801
7.19645	36615
7.20457	33262
7.21270	40367
7.22082	36523
7.22893	33853
7.23707	35923
7.24518	37432
7.25332	36333
7.26143	34082
7.26955	34249
7.27768	34739
7.28580	38642
7.29393	34538
7.30205	34433
7.31017	35444
7.31830	40534
7.32642	40143
7.33453	35084
7.34267	35991
7.35078	37142
7.35892	35895
7.36703	35664
7.37515	32905
7.38328	33914
7.39140	36424
7.39953	38140
7.40765	33501
7.41577	33241
7.42390	37146
7.43202	38560
7.44015	33687
7.44827	35154
7.45638	34180
7.46452	39854
7.47263	32075
7.48075	36226
7.48888	36560
7.49700	36527
7.50513	35409
7.51325	36464
7.52137	34005
7.52950	36550
7.53762	33879
7.54575	34407
7.55387	33452
7.56198	33727
7.57012	36810
7.57823	36068
7.58635	34478
7.59448	33361
7.60260	32970
7.61073	35355
7.61885	35312
7.62697	33792
7.63510	33407
7.64322	35188
7.65135	35815
7.65947	33369
7.66758	39917
7.67572	33794
7.68383	37248
7.69197	38714
7.70008	32807
7.70820	34360
7.71633	36562
7.72445	33470
7.73257	33183
7.74070	34498
7.74882	33763
7.75695	34659
7.76507	35105
7.77318	33164
7.78132	37979
7.78943	33459
7.79757	32047
7.80568	38762
7.81380	33659
7.82193	34339
7.83005	33773
7.83817	38613
7.84630	33158
7.85442	37466
7.86255	32431
7.87067	33662
7.87878	32509
7.88692	35840
7.89503	34284
7.90317	33584
7.91128	37678
7.91940	35647
7.92753	32735
7.93565	34009
7.94378	35803
7.95190	31525
7.96002	34162
7.96815	34961
7.97627	32834
7.98438	29831
7.99252	33090
8.00063	35286
8.00877	37734
8.01688	35182
8.02500	35543
8.03313	35144
8.04125	34299
8.04938	33015
8.05750	31471
8.06562	30640
8.07375	34857
8.08187	31255
8.09000	31686
8.09812	30872
8.10623	31401
8.11437	32266
8.12248	37928
8.13060	32309
8.13873	32551
8.14685	42935
8.15498	35256
8.16310	34191
8.17122	33110
8.17935	35268
8.18747	34535
8.19560	31271
8.20372	36732
8.21183	33810
8.21997	33719
8.22808	33490
8.23622	31715
8.24433	31740
8.25245	32031
8.26058	37841
8.26870	31019
8.27682	32471
8.28495	31453
8.29307	33894
8.30120	32120
8.30932	34118
8.31743	38403
8.32557	33277
8.33368	34764
8.34182	32121
8.34993	32436
8.35805	31661
8.36618	30728
8.37430	36378
8.38242	31603
8.39055	31134
8.39867	31225
8.40680	33582
8.41492	35558
8.42303	32313
8.43117	32550
8.43928	32930
8.44742	31569
8.45553	31799
8.46365	32284
8.47178	34616
8.47990	36177
8.48803	32870
8.49615	34722
8.50427	31555
8.51240	31675
8.52052	32846
8.52863	32340
8.53677	33473
8.54488	30567
8.55302	31496
8.56113	32752
8.56925	37900
8.57738	35656
8.58550	31836
8.59363	35895
8.60175	32677
8.60987	36668
8.61800	33487
8.62612	33640
8.63423	29123
8.64237	32551
8.65048	32649
8.65862	29680
8.66673	32156
8.67485	31461
8.68298	32949
8.69110	32561
8.69923	31458
8.70735	31845
8.71547	32355
8.72360	31272
8.73172	33097
8.73985	32156
8.74797	31884
8.75608	37218
8.76422	37828
8.77233	35545
8.78045	32729
8.78858	31609
8.79670	32671
8.80483	29243
8.81295	31772
8.82107	33519
8.82920	31760
8.83732	31957
8.84545	31150
8.85357	34626
8.86168	28536
8.86982	33737
8.87793	36350
8.88607	36257
8.89418	31013
8.90230	33936
8.91043	29493
8.91855	32885
8.92667	32866
8.93480	34494
8.94292	32629
8.95105	31794
8.95917	31200
8.96728	30379
8.97542	33139
8.98353	31073
8.99167	29868
8.99978	32597
9.00790	29677
9.01603	30046
9.02415	31788
9.03227	33423
9.04040	35338
9.04852	31485
9.05665	30842
9.06477	31804
9.07288	34877
9.08102	35129
9.08913	32618
9.09727	30101
9.10538	32387
9.11350	30399
9.12163	30607
9.12975	33306
9.13788	36087
9.14600	34494
9.15412	32880
9.16225	30863
9.17037	31549
9.17848	32892
9.18662	32389
9.19473	34173
9.20287	35043
9.21098	32900
9.21910	32053
9.22723	33271
9.23535	32812
9.24348	31049
9.25160	31832
9.25972	31143
9.26785	30255
9.27597	35096
9.28410	31341
9.29222	32551
9.30033	31911
9.30847	35716
9.31658	27015
9.32470	30851
9.33283	30404
9.34095	32390
9.34908	29535
9.35720	31943
9.36532	30437
9.37345	31550
9.38157	29891
9.38970	30562
9.39782	32547
9.40593	31689
9.41407	33131
9.42218	30685
9.43030	28746
9.43843	28307
9.44655	31782
9.45468	31842
9.46280	31076
9.47092	31973
9.47905	35221
9.48717	33112
9.49530	33404
9.50342	33044
9.51153	29042
9.51967	30466
9.52778	30810
9.53592	31870
9.54403	28531
9.55215	36882
9.56028	31856
9.56840	32269
9.57652	33047
9.58465	31540
9.59277	28388
9.60090	27269
9.60902	30234
9.61713	30687
9.62527	29611
9.63338	33141
9.64152	29886
9.64963	26338
9.65775	29895
9.66588	26786
9.67400	28081
9.68212	31437
9.69025	30771
9.69837	26695
9.70650	30617
9.71462	33850
9.72273	29360
9.73087	29231
9.73898	30809
9.74712	29350
9.75523	31259
9.76335	29264
9.77148	29424
9.77960	28630
9.78773	27532
9.79585	28129
9.80397	28658
9.81210	30383
9.82022	30711
9.82833	34399
9.83647	36765
9.84458	29543
9.85272	26979
9.86083	31999
9.86895	31575
9.87708	31330
9.88520	32804
9.89333	29051
9.90145	31755
9.90957	30974
9.91770	31269
9.92582	29195
9.93395	32121
9.94207	29716
9.95018	29003
9.95832	29368
9.96643	29771
9.97455	31064
9.98268	29059
9.99080	28688
9.99893	30033
10.00705	29771
10.01517	31803
10.02330	29277
10.03142	29099
10.03955	32276
10.04767	27916
10.05578	28928
10.06392	28668
10.07203	34963
10.08015	30819
10.08828	27199
10.09640	34015
10.10453	30821
10.11265	29712
10.12077	28365
10.12890	29950
10.13702	34277
10.14515	32601
10.15327	30124
10.16138	30784
10.16952	30266
10.17763	28554
10.18577	30294
10.19388	29388
10.20200	30369
10.21013	32849
10.21825	28333
10.22637	26050
10.23450	27935
10.24262	27734
10.25075	29026
10.25887	28800
10.26698	28700
10.27512	32406
10.28323	33694
10.29137	29374
10.29948	29166
10.30760	33778
10.31573	32615
10.32385	29796
10.33198	29587
10.34010	30613
10.34822	29961
10.35635	30339
10.36447	27030
10.37258	30528
10.38072	32308
10.38883	27739
10.39697	29211
10.40508	32165
10.41320	29678
10.42133	26284
10.42945	31993
10.43758	28335
10.44570	27976
10.45382	28846
10.46195	30822
10.47007	29192
10.47818	30791
10.48632	29269
10.49443	28650
10.50257	29168
10.51068	33490
10.51880	29701
10.52693	28129
10.53505	29576
10.54318	28906
10.55130	33040
10.55942	28785
10.56755	27626
10.57567	28509
10.58380	29090
10.59192	26936
10.60003	28841
10.60817	30630
10.61628	27830
10.62440	33774
10.63253	33105
10.64065	30958
10.64878	28911
10.65690	27722
10.66502	27724
10.67315	30696
10.68127	28171
10.68940	28454
10.69752	30437
10.70563	28180
10.71377	27665
10.72188	29342
10.73000	30302
10.73813	26176
10.74625	26293
10.75438	29244
10.76250	28222
10.77062	30753
10.77875	27198
10.78687	30573
10.79500	29917
10.80312	30132
10.81123	29183
10.81937	30326
10.82748	26033
10.83562	29603
10.84373	32776
10.85185	25359
10.85998	29244
10.86810	30256
10.87622	31211
10.88435	27878
10.89247	29207
10.90060	28997
10.90872	28926
10.91683	28045
10.92497	28543
10.93308	31898
10.94122	33066
10.94933	26716
10.95745	29698
10.96558	29636
10.97370	28663
10.98183	29197
10.98995	28711
10.99807	30805
11.00620	28847
11.01432	27631
11.02243	30604
11.03057	28496
11.03868	28852
11.04682	26429
11.05493	30259
11.06305	28751
11.07118	29936
11.07930	30845
11.08743	29095
11.09555	25963
11.10367	30326
11.11180	29799
11.11992	30823
11.12803	27749
11.13617	26681
11.14428	28712
11.15242	29370
11.16053	28892
11.16865	35953
11.17678	26953
11.18490	28371
11.19303	26082
11.20115	28586
11.20927	28689
11.21740	27780
11.22552	29685
11.23365	28603
11.24177	26361
11.24988	30605
11.25802	35067
11.26613	30782
11.27425	29301
11.28238	27951
11.29050	30736
11.29863	29279
11.30675	28059
11.31487	31307
11.32300	25842
11.33112	29742
11.33925	29164
11.34737	27753
11.35548	26550
11.36362	31165
11.37173	25957
11.37987	30693
11.38798	28948
11.39610	29081
11.40423	28561
11.41235	27501
11.42047	25263
11.42860	27017
11.43672	33144
11.44485	28796
11.45297	30313
11.46108	27555
11.46922	31608
11.47733	28742
11.48547	26104
11.49358	29097
11.50170	24038
11.50983	26654
11.51795	30876
11.52607	27898
11.53420	28540
11.54232	29874
11.55045	26645
11.55857	27571
11.56668	30897
11.57482	28445
11.58293	31610
11.59107	27182
11.59918	25829
11.60730	27193
11.61543	32853
11.62355	29529
11.63168	29779
11.63980	28719
11.64792	28770
11.65605	29376
11.66417	32313
11.67228	27670
11.68042	29469
11.68853	26146
11.69667	28582
11.70478	25555
11.71290	29156
11.72103	31527
11.72915	30448
11.73728	27868
11.74540	27734
11.75352	26217
11.76165	27851
11.76977	28120
11.77790	29705
11.78602	28623
11.79413	24435
11.80227	27829
11.81038	24181
11.81850	29411
11.82663	29531
11.83475	30145
11.84288	29456
11.85100	31176
11.85912	29284
11.86725	31475
11.87537	25049
11.88350	31884
11.89162	25859
11.89973	26880
11.90787	27012
11.91598	27077
11.92410	30699
11.93223	27885
11.94035	30195
11.94848	29352
11.95660	27797
11.96472	25865
11.97285	26109
11.98097	33223
11.98910	26785
11.99722	27986
12.00533	26285
12.01347	29267
12.02158	28463
12.02972	26728
12.03783	27739
12.04595	26342
12.05408	28129
12.06220	29796
12.07032	28054
12.07845	26610
12.08657	26979
12.09470	26787
12.10282	29376
12.11093	31987
12.11907	27476
12.12718	25540
12.13532	32806
12.14343	28999
12.15155	26616
12.15968	32967
12.16780	27575
12.17592	31403
12.18405	33632
12.19217	27790
12.20030	28915
12.20842	28881
12.21653	30372
12.22467	25921
12.23278	31762
12.24092	25774
12.24903	27606
12.25715	28453
12.26528	27412
12.27340	27217
12.28153	32928
12.28965	27542
12.29777	24507
12.30590	27190
12.31402	27333
12.32213	26284
12.33027	27996
12.33838	25356
12.34652	27455
12.35463	26217
12.36275	22148
12.37088	27355
12.37900	28554
12.38713	29368
12.39525	25593
12.40337	27489
12.41150	26346
12.41962	29202
12.42775	25632
12.43587	27521
12.44398	28406
12.45212	24664
12.46023	25190
12.46835	28375
12.47648	28277
12.48460	28695
12.49273	30250
12.50085	28109
12.50897	27352
12.51710	28397
12.52522	26774
12.53335	26947
12.54147	32445
12.54958	27720
12.55772	27600
12.56583	26709
12.57395	24485
12.58208	27024
12.59020	25695
12.59833	30434
12.60645	26525
12.61457	29160
12.62270	27570
12.63082	26771
12.63895	28507
12.64707	25731
12.65518	29045
12.66332	29717
12.67143	26960
12.67957	32185
12.68768	27008
12.69580	26233
12.70393	24007
12.71205	31133
12.72017	27659
12.72830	28033
12.73642	28653
12.74455	29593
12.75267	27593
12.76078	26785
12.76892	29879
12.77703	27093
12.78517	34385
12.79328	24462
12.80140	26683
12.80953	29114
12.81765	27214
12.82578	29147
12.83390	26551
12.84202	30823
12.85015	28104
12.85827	28315
12.86638	28707
12.87452	25536
12.88263	26667
12.89077	26427
12.89888	29329
12.90700	25755
12.91513	30076
12.92325	28256
12.93138	25485
12.93950	25066
12.94762	27292
12.95575	26066
12.96387	27766
12.97198	27921
12.98012	29191
12.98823	29145
12.99637	25645
13.00448	25452
13.01260	26288
13.02073	24142
13.02885	24953
13.03698	29279
13.04510	27823
13.05322	28114
13.06135	26928
13.06947	24031
13.07760	26378
13.08572	29041
13.09383	26720
13.10197	26126
13.11008	26217
13.11820	28685
13.12633	27996
13.13445	23558
13.14258	27913
13.15070	25737
13.15882	28730
13.16695	27942
13.17507	26468
13.18320	24889
13.19132	29577
13.19943	26706
13.20757	25347
13.21568	26643
13.22380	26850
13.23193	28815
13.24005	31724
13.24818	27439
13.25630	26591
13.26442	27184
13.27255	24981
13.28067	23787
13.28880	28889
13.29692	27766
13.30503	33603
13.31317	27066
13.32128	27721
13.32942	25589
13.33753	32526
13.34565	26828
13.35378	25248
13.36190	26820
13.37002	27538
13.37815	28859
13.38627	27308
13.39440	25478
13.40252	28531
13.41063	25141
13.41877	29251
13.42688	25561
13.43502	27567
13.44313	25459
13.45125	27871
13.45938	24177
13.46750	28808
13.47563	29852
13.48375	26040
13.49187	24717
13.50000	28779
13.50812	27448
13.51623	26039
13.52437	27628
13.53248	26576
13.54062	26476
13.54873	28386
13.55685	25737
13.56498	26529
13.57310	27865
13.58123	25794
13.58935	26383
13.59747	26527
13.60560	29621
13.61372	24988
13.62185	26473
13.62997	26229
13.63808	26848
13.64622	25571
13.65433	25977
13.66245	27262
13.67058	24808
13.67870	27164
13.68683	26869
13.69495	28293
13.70307	27894
13.71120	26835
13.71932	31897
13.72745	23863
13.73557	27908
13.74368	26100
13.75182	27631
13.75993	27949
13.76805	26221
13.77618	28822
13.78430	27212
13.79243	27768
13.80055	26974
13.80867	28677
13.81680	29051
13.82492	26907
13.83305	27872
13.84117	26301
13.84928	26128
13.85742	27243
13.86553	24670
13.87367	27055
13.88178	25988
13.88990	25117
13.89803	25549
13.90615	26336
13.91427	25343
13.92240	26070
13.93052	28036
13.93865	27361
13.94677	27230
13.95488	27447
13.96302	28342
13.97113	26235
13.97927	27471
13.98738	27528
13.99550	27276
14.00363	29765
14.01175	27752
14.01987	30112
14.02800	26197
14.03612	24728
14.04425	24068
14.05237	27576
14.06048	26647
14.06862	25991
14.07673	25153
14.08487	30456
14.09298	28177
14.10110	28749
14.10923	28035
14.11735	28037
14.12548	27969
14.13360	23992
14.14172	32522
14.14985	26851
14.15797	28769
14.16608	29134
14.17422	27938
14.18233	27689
14.19047	28884
14.19858	27832
14.20670	29213
14.21483	28750
14.22295	26249
14.23108	27407
14.23920	27630
14.24732	29197
14.25545	25753
14.26357	25652
14.27170	25683
14.27982	26867
14.28793	29956
14.29607	28432
14.30418	31462
14.31230	30539
14.32043	28790
14.32855	29585
14.33668	25898
14.34480	30628
14.35292	28935
14.36105	25161
14.36917	29554
14.37730	26832
14.38542	23078
14.39353	31731
14.40167	26075
14.40978	26290
14.41790	26112
14.42603	25565
14.43415	28820
14.44228	28205
14.45040	26804
14.45852	29716
14.46665	24357
14.47477	24791
14.48290	27107
14.49102	28195
14.49913	27498
14.50727	30540
14.51538	29004
14.52352	26598
14.53163	27304
14.53975	25979
14.54788	25184
14.55600	30108
14.56412	24442
14.57225	26461
14.58037	25734
14.58850	31609
14.59662	27189
14.60473	28974
14.61287	29170
14.62098	26575
14.62912	29239
14.63723	27967
14.64535	24744
14.65348	26925
14.66160	29044
14.66973	27220
14.67785	27493
14.68597	28065
14.69410	27982
14.70222	28493
14.71033	27146
14.71847	24541
14.72658	29736
14.73472	24816
14.74283	30555
14.75095	24784
14.75908	26396
14.76720	29094
14.77533	27751
14.78345	29797
14.79157	27585
14.79970	23277
14.80782	26278
14.81593	26401
14.82407	26166
14.83218	25581
14.84032	28958
14.84843	28002
14.85655	28062
14.86468	27712
14.87280	26350
14.88093	25854
14.88905	26826
14.89717	28940
14.90530	23560
14.91342	25827
14.92155	28882
14.92967	24811
14.93778	30535
14.94592	24356
14.95403	24513
14.96215	28881
14.97028	28293
14.97840	29515
14.98653	27656
14.99465	24855
15.00277	25172
15.01090	26149
15.01902	26692
15.02715	27301
15.03527	26547
15.04338	25402
15.05152	26628
15.05963	26618
15.06775	24509
15.07588	26748
15.08400	27664
15.09213	24679
15.10025	27630
15.10837	25401
15.11650	27285
15.12462	28515
15.13275	26319
15.14087	26261
15.14898	25202
15.15712	33698
15.16523	28025
15.17337	25651
15.18148	25634
15.18960	26866
15.19773	25530
15.20585	24191
15.21397	25944
15.22210	26964
15.23022	26728
15.23835	26312
15.24647	25098
15.25458	23053
15.26272	27122
15.27083	28029
15.27897	23185
15.28708	25771
15.29520	26880
15.30333	27534
15.31145	26710
15.31958	30642
15.32770	24299
15.33582	27018
15.34395	23850
15.35207	24220
15.36018	23806
15.36832	21693
15.37643	25170
15.38457	29882
15.39268	28135
15.40080	27047
15.40893	24410
15.41705	25980
15.42518	24181
15.43330	29052
15.44142	28123
15.44955	25338
15.45767	26428
15.46578	26055
15.47392	28700
15.48203	25078
15.49017	27137
15.49828	25311
15.50640	26835
15.51453	26866
15.52265	26278
15.53078	29612
15.53890	27610
15.54702	23585
15.55515	27584
15.56327	27245
15.57140	25204
15.57952	28928
15.58763	30866
15.59577	24971
15.60388	24399
15.61200	26675
15.62013	25532
15.62825	27910
15.63638	25439
15.64450	24340
15.65262	26895
15.66075	25854
15.66887	25252
15.67700	28232
15.68512	24655
15.69323	23772
15.70137	23471
15.70948	23268
15.71762	25340
15.72573	25978
15.73385	27836
15.74198	27005
15.75010	25616
15.75822	25397
15.76635	24888
15.77447	28858
15.78260	28700
15.79072	25516
15.79883	26682
15.80697	25213
15.81508	26019
15.82322	27114
15.83133	28645
15.83945	27168
15.84758	27843
15.85570	26253
15.86382	25330
15.87195	26130
15.88007	27088
15.88820	23379
15.89632	25898
15.90443	24653
15.91257	31329
15.92068	27211
15.92882	25623
15.93693	24789
15.94505	25169
15.95318	24518
15.96130	25555
15.96943	23529
15.97755	27259
15.98567	26709
15.99380	26171
16.00192	26938
16.01003	34321
16.01817	25888
16.02628	25509
16.03442	29502
16.04253	24294
16.05065	28297
16.05878	26539
16.06690	27791
16.07503	24509
16.08315	27296
16.09127	28245
16.09940	26116
16.10752	28014
16.11565	28362
16.12377	24515
16.13188	24114
16.14002	25876
16.14813	28662
16.15625	27294
16.16438	25348
16.17250	26811
16.18063	29130
16.18875	28136
16.19687	25066
16.20500	25751
16.21312	28280
16.22125	29068
16.22937	25788
16.23748	26650
16.24562	24985
16.25373	25540
16.26185	29306
16.26998	26787
16.27810	28430
16.28623	29115
16.29435	27892
16.30247	27553
16.31060	26921
16.31872	25305
16.32685	24380
16.33497	28507
16.34308	33269
16.35122	27190
16.35933	29006
16.36747	28074
16.37558	25990
16.38370	25458
16.39183	29456
16.39995	25924
16.40807	26494
16.41620	27289
16.42432	26707
16.43245	26147
16.44057	27849
16.44868	26539
16.45682	27758
16.46493	23961
16.47307	25373
16.48118	27252
16.48930	26655
16.49743	23864
16.50555	25569
16.51367	25753
16.52180	29736
16.52992	24594
16.53805	24066
16.54617	26057
16.55428	26643
16.56242	25407
16.57053	26444
16.57867	23916
16.58678	24650
16.59490	27114
16.60303	27168
16.61115	27581
16.61928	28396
16.62740	24543
16.63552	29380
16.64365	26678
16.65177	25917
16.65988	25947
16.66802	27734
16.67613	28247
16.68427	26479
16.69238	25055
16.70050	25652
16.70863	25959
16.71675	27787
16.72488	26079
16.73300	25268
16.74112	25389
16.74925	25628
16.75737	28203
16.76550	22906
16.77362	24103
16.78173	25869
16.78987	27075
16.79798	27721
16.80610	25369
16.81423	24987
16.82235	27034
16.83048	25899
16.83860	28192
16.84672	24840
16.85485	25938
16.86297	22418
16.87110	26818
16.87922	24854
16.88733	25477
16.89547	25927
16.90358	27090
16.91170	27150
16.91983	26280
16.92795	26044
16.93608	26742
16.94420	23005
16.95232	24892
16.96045	26796
16.96857	26654
16.97670	25503
16.98482	26833
16.99293	27801
17.00107	27320
17.00918	24654
17.01732	30873
17.02543	28582
17.03355	26160
17.04168	25531
17.04980	25735
17.05792	26235
17.06605	22992
17.07417	24874
17.08230	24362
17.09042	27758
17.09853	29932
17.10667	27038
17.11478	25596
17.12292	28099
17.13103	27236
17.13915	31119
17.14728	27189
17.15540	25508
17.16353	23901
17.17165	27953
17.17977	25374
17.18790	25614
17.19602	28613
17.20413	28822
17.21227	29147
17.22038	25202
17.22852	25660
17.23663	25938
17.24475	25116
17.25288	23264
17.26100	27615
17.26913	25408
17.27725	23838
17.28537	26449
17.29350	25866
17.30162	27942
17.30973	27477
17.31787	26185
17.32598	27134
17.33412	26423
17.34223	25873
17.35035	23741
17.35848	27313
17.36660	26104
17.37473	25016
17.38285	27278
17.39097	30651
17.39910	26723
17.40722	25866
17.41535	25776
17.42347	29208
17.43158	28130
17.43972	26518
17.44783	26430
17.45595	24862
17.46408	31114
17.47220	30208
17.48033	28886
17.48845	25620
17.49657	25922
17.50470	29515
17.51282	29481
17.52095	25312
17.52907	25688
17.53718	26133
17.54532	26219
17.55343	32946
17.56155	25908
17.56968	23240
17.57780	25717
17.58593	27774
17.59405	29472
17.60217	27142
17.61030	27450
17.61842	24888
17.62655	24978
17.63467	27169
17.64278	26206
17.65092	26040
17.65903	30113
17.66717	29526
17.67528	26658
17.68340	25186
17.69153	27446
17.69965	27510
17.70777	29535
17.71590	26383
17.72402	25584
17.73215	25655
17.74027	27362
17.74838	27882
17.75652	31141
17.76463	27253
17.77277	27262
17.78088	27898
17.78900	23186
17.79713	25127
17.80525	26212
17.81338	27017
17.82150	27035
17.82962	24967
17.83775	26961
17.84587	26227
17.85398	22393
17.86212	32893
17.87023	27195
17.87837	30041
17.88648	27338
17.89460	26465
17.90273	31673
17.91085	29260
17.91898	28997
17.92710	24801
17.93522	26303
17.94335	24977
17.95147	27298
17.95960	24899
17.96772	24208
17.97583	23449
17.98397	25985
17.99208	26734
18.00020	28538
18.00833	24499
18.01645	28692
18.02458	28225
18.03270	27610
18.04082	25096
18.04895	28447
18.05707	25505
18.06520	29339
18.07332	28361
18.08143	26279
18.08957	26751
18.09768	25973
18.10580	26529
18.11393	25858
18.12205	23959
18.13018	25006
18.13830	28772
18.14642	25409
18.15455	29912
18.16267	25939
18.17080	25872
18.17892	26623
18.18703	27815
18.19517	25870
18.20328	24647
18.21142	32039
18.21953	27944
18.22765	29427
18.23578	26790
18.24390	25847
18.25202	25717
18.26015	28806
18.26827	29053
18.27640	27889
18.28452	25222
18.29263	26702
18.30077	26101
18.30888	28147
18.31702	28411
18.32513	24809
18.33325	23102
18.34138	25596
18.34950	27910
18.35762	25769
18.36575	24669
18.37387	26892
18.38200	27142
18.39012	30950
18.39823	26288
18.40637	26029
18.41448	25439
18.42262	26406
18.43073	26418
18.43885	27647
18.44698	25603
18.45510	26925
18.46323	26068
18.47135	25508
18.47947	25679
18.48760	26838
18.49572	25194
18.50383	24304
18.51197	28034
18.52008	26156
18.52822	24873
18.53633	24975
18.54445	24260
18.55258	27077
18.56070	25856
18.56883	27310
18.57695	25383
18.58507	25762
18.59320	25558
18.60132	27576
18.60945	27178
18.61757	31350
18.62568	26344
18.63382	24894
18.64193	24836
18.65005	26074
18.65818	29222
18.66630	28074
18.67443	26348
18.68255	27874
18.69067	23594
18.69880	27552
18.70692	30771
18.71505	25267
18.72317	24345
18.73128	26076
18.73942	25394
18.74753	29002
18.75565	25620
18.76378	32647
18.77190	25801
18.78003	25973
18.78815	27627
18.79627	27169
18.80440	25809
18.81252	27980
18.82065	29436
18.82877	29307
18.83688	29650
18.84502	25669
18.85313	23739
18.86127	27314
18.86938	27738
18.87750	24077
18.88563	25582
18.89375	25905
18.90187	25372
18.91000	27579
18.91812	25856
18.92625	27786
18.93437	28257
18.94248	23413
18.95062	30555
18.95873	26268
18.96687	27260
18.97498	25685
18.98310	26799
18.99123	27594
18.99935	30126
19.00748	27439
19.01560	25466
19.02372	25920
19.03185	25320
19.03997	26354
19.04808	25948
19.05622	26687
19.06433	27563
19.07247	28678
19.08058	26500
19.08870	29503
19.09683	25948
19.10495	25208
19.11308	30542
19.12120	28125
19.12932	30572
19.13745	30131
19.14557	25915
19.15368	29553
19.16182	28399
19.16993	26409
19.17807	28070
19.18618	26756
19.19430	32452
19.20243	28149
19.21055	27281
19.21868	29900
19.22680	27844
19.23492	25394
19.24305	27081
19.25117	26062
19.25930	25676
19.26742	28491
19.27553	31409
19.28367	24552
19.29178	27762
19.29990	22587
19.30803	25340
19.31615	30194
19.32428	32472
19.33240	24713
19.34052	27906
19.34865	27261
19.35677	28530
19.36490	33301
19.37302	29701
19.38113	31592
19.38927	26075
19.39738	27069
19.40550	28780
19.41363	28194
19.42175	27156
19.42988	26648
19.43800	28775
19.44612	28975
19.45425	27196
19.46237	27908
19.47050	25760
19.47862	26826
19.48673	27458
19.49487	27648
19.50298	26827
19.51112	30205
19.51923	27095
19.52735	26566
19.53548	27331
19.54360	27349
19.55172	24466
19.55985	24602
19.56797	25820
19.57610	32490
19.58422	26355
19.59233	27600
19.60047	24610
19.60858	27958
19.61672	26317
19.62483	27637
19.63295	27834
19.64108	28071
19.64920	28674
19.65733	28607
19.66545	29976
19.67357	29435
19.68170	25435
19.68982	29361
19.69793	28985
19.70607	29892
19.71418	30040
19.72232	27590
19.73043	24946
19.73855	22799
19.74668	26603
19.75480	25456
19.76293	29185
19.77105	30158
19.77917	25787
19.78730	30053
19.79542	26415
19.80353	26738
19.81167	27514
19.81978	25810
19.82792	27620
19.83603	26707
19.84415	28173
19.85228	28055
19.86040	26270
19.86853	28890
19.87665	25052
19.88477	27222
19.89290	29289
19.90102	28559
19.90915	27704
19.91727	27047
19.92538	27539
19.93352	28328
19.94163	24377
19.94975	26288
19.95788	26791
19.96600	25952
19.97413	28873
19.98225	27446
19.99037	24960
19.99850	24715
20.00662	26635
20.01475	27950
20.02287	31027
20.03098	26634
20.03912	26278
20.04723	30150
20.05537	27362
20.06348	23800
20.07160	28074
20.07973	26639
20.08785	23220
20.09597	25686
20.10410	27099
20.11222	28361
20.12035	26042
20.12847	26823
20.13658	26771
20.14472	27430
20.15283	24317
20.16097	25760
20.16908	24410
20.17720	26377
20.18533	27785
20.19345	26266
20.20157	24996
20.20970	24347
20.21782	27711
20.22595	25049
20.23407	26011
20.24218	25990
20.25032	27002
20.25843	26657
20.26657	28713
20.27468	30296
20.28280	27767
20.29093	27988
20.29905	27261
20.30718	27535
20.31530	25280
20.32342	25688
20.33155	27053
20.33967	24470
20.34778	25673
20.35592	24103
20.36403	26176
20.37217	26561
20.38028	26619
20.38840	22138
20.39653	24445
20.40465	29324
20.41278	24755
20.42090	26941
20.42902	29666
20.43715	27351
20.44527	26429
20.45340	28731
20.46152	26393
20.46963	23596
20.47777	26227
20.48588	25979
20.49400	26330
20.50213	28344
20.51025	30045
20.51838	28002
20.52650	28925
20.53462	27094
20.54275	26471
20.55087	29285
20.55900	27591
20.56712	28842
20.57523	30882
20.58337	24216
20.59148	27921
20.59960	29877
20.60773	28620
20.61585	27276
20.62398	27265
20.63210	25578
20.64022	28683
20.64835	26700
20.65647	27280
20.66460	23864
20.67272	24832
20.68083	26504
20.68897	25175
20.69708	25888
20.70522	28689
20.71333	23264
20.72145	24568
20.72958	25606
20.73770	23964
20.74582	26388
20.75395	29413
20.76207	29167
20.77020	27338
20.77832	27097
20.78643	25866
20.79457	29396
20.80268	26429
20.81082	27393
20.81893	27933
20.82705	27219
20.83518	29638
20.84330	27336
20.85142	26827
20.85955	29279
20.86767	27225
20.87580	26822
20.88392	26876
20.89203	25309
20.90017	25371
20.90828	25257
20.91642	28518
20.92453	26382
20.93265	26113
20.94078	28865
20.94890	25451
20.95703	30402
20.96515	27244
20.97327	27517
20.98140	27599
20.98952	30650
20.99763	26295
21.00577	24974
21.01388	27703
21.02202	27982
21.03013	30796
21.03825	24541
21.04638	23158
21.05450	27207
21.06263	27750
21.07075	30930
21.07887	27676
21.08700	29643
21.09512	30410
21.10325	27533
21.11137	28813
21.11948	25828
21.12762	27173
21.13573	28769
21.14385	27139
21.15198	26855
21.16010	25010
21.16823	25741
21.17635	28749
21.18447	26984
21.19260	28025
21.20072	31416
21.20885	26138
21.21697	24273
21.22508	29503
21.23322	25195
21.24133	24884
21.24945	26011
21.25758	30091
21.26570	27605
21.27383	28999
21.28195	29138
21.29007	24435
21.29820	25463
21.30632	27604
21.31445	28529
21.32257	23599
21.33068	30551
21.33882	23973
21.34693	28911
21.35507	28604
21.36318	28959
21.37130	27744
21.37943	27861
21.38755	28707
21.39567	29806
21.40380	28405
21.41192	27036
21.42005	23178
21.42817	25870
21.43628	27654
21.44442	26532
21.45253	26838
21.46067	28363
21.46878	26497
21.47690	27398
21.48503	28069
21.49315	27723
21.50128	27359
21.50940	26554
21.51752	26344
21.52565	26586
21.53377	26172
21.54188	28962
21.55002	27813
21.55813	27106
21.56627	25650
21.57438	27301
21.58250	24862
21.59063	25757
21.59875	29996
21.60688	27479
21.61500	24919
21.62312	26533
21.63125	26798
21.63937	27609
21.64748	25405
21.65562	25852
21.66373	26530
21.67187	31884
21.67998	28993
21.68810	25594
21.69623	26151
21.70435	26787
21.71248	27914
21.72060	24798
21.72872	27644
21.73685	26874
21.74497	25983
21.75310	26304
21.76122	28448
21.76933	27584
21.77747	29694
21.78558	26397
21.79370	29305
21.80183	25854
21.80995	25573
21.81808	25791
21.82620	27110
21.83432	28346
21.84245	25877
21.85057	25385
21.85870	30374
21.86682	24002
21.87493	28134
21.88307	25711
21.89118	27434
21.89930	25663
21.90743	25343
21.91555	24228
21.92368	25501
21.93180	27916
21.93992	24799
21.94805	26076
21.95617	26235
21.96430	24490
21.97242	24286
21.98053	26610
21.98867	24310
21.99678	28637
22.00492	28824
22.01303	25687
22.02115	25091
22.02928	27748
22.03740	27099
22.04552	25136
22.05365	27781
22.06177	25939
22.06990	26321
22.07802	25450
22.08613	26694
22.09427	24900
22.10238	24790
22.11052	25910
22.11863	26783
22.12675	34440
22.13488	26325
22.14300	31047
22.15113	31418
22.15925	31212
22.16737	30304
22.17550	26500
22.18362	30610
22.19173	25916
22.19987	25019
22.20798	27481
22.21612	28631
22.22423	26196
22.23235	27891
22.24048	31449
22.24860	25878
22.25673	23955
22.26485	29147
22.27297	25239
22.28110	24870
22.28922	32552
22.29733	26674
22.30547	28313
22.31358	29668
22.32172	28085
22.32983	25923
22.33795	27190
22.34608	27069
22.35420	27578
22.36233	26781
22.37045	28736
22.37857	27621
22.38670	30464
22.39482	26347
22.40295	26799
22.41107	26531
22.41918	25382
22.42732	25760
22.43543	24938
22.44355	28320
22.45168	26884
22.45980	25937
22.46793	29715
22.47605	24758
22.48417	25485
22.49230	26397
22.50042	26875
22.50855	29865
22.51667	24045
22.52478	27991
22.53292	25930
22.54103	26994
22.54917	27715
22.55728	28306
22.56540	26862
22.57353	27250
22.58165	26984
22.58977	30896
22.59790	26953
22.60602	25311
22.61415	28713
22.62227	25764
22.63038	29382
22.63852	27292
22.64663	27257
22.65477	28579
22.66288	26085
22.67100	29878
22.67913	24773
22.68725	26728
22.69537	27975
22.70350	27498
22.71162	24877
22.71975	25980
22.72787	29932
22.73598	27251
22.74412	28586
22.75223	28642
22.76037	24689
22.76848	26741
22.77660	25968
22.78473	27156
22.79285	25457
22.80098	26188
22.80910	26859
22.81722	28580
22.82535	28232
22.83347	26144
22.84158	24311
22.84972	24365
22.85783	29550
22.86597	25045
22.87408	25813
22.88220	25846
22.89033	28534
22.89845	29756
22.90658	28954
22.91470	27787
22.92282	29925
22.93095	30447
22.93907	28908
22.94718	27895
22.95532	24467
22.96343	29165
22.97157	26357
22.97968	25673
22.98780	27472
22.99593	24608
23.00405	26472
23.01218	28562
23.02030	28630
23.02842	26292
23.03655	26716
23.04467	28434
23.05280	25616
23.06092	28048
23.06903	24284
23.07717	25959
23.08528	27399
23.09340	27097
23.10153	29430
23.10965	26345
23.11778	26592
23.12590	28759
23.13402	28424
23.14215	31298
23.15027	29555
23.15840	30166
23.16652	28526
23.17463	28432
23.18277	28043
23.19088	28498
23.19902	25108
23.20713	26980
23.21525	25014
23.22338	25190
23.23150	26731
23.23962	22822
23.24775	27217
23.25587	25085
23.26400	26280
23.27212	27268
23.28023	27407
23.28837	26961
23.29648	27943
23.30462	27412
23.31273	24874
23.32085	26090
23.32898	31427
23.33710	27751
23.34523	26461
23.35335	26933
23.36147	28874
23.36960	25624
23.37772	26500
23.38583	26838
23.39397	27208
23.40208	26686
23.41022	25734
23.41833	25343
23.42645	25904
23.43458	26384
23.44270	26268
23.45083	27719
23.45895	26282
23.46707	28866
23.47520	27733
23.48332	29885
23.49143	28700
23.49957	27459
23.50768	26339
23.51582	28897
23.52393	25168
23.53205	24976
23.54018	24795
23.54830	25988
23.55643	28365
23.56455	25855
23.57267	25031
23.58080	27772
23.58892	31213
23.59705	28887
23.60517	24741
23.61328	26117
23.62142	23324
23.62953	26646
23.63765	27232
23.64578	26571
23.65390	26587
23.66203	26306
23.67015	26371
23.67827	23858
23.68640	28352
23.69452	27173
23.70265	29493
23.71077	25544
23.71888	27166
23.72702	25435
23.73513	26908
23.74325	24379
23.75138	26807
23.75950	30904
23.76763	26105
23.77575	26405
23.78387	27513
23.79200	23614
23.80012	26830
23.80825	25657
23.81637	24131
23.82448	26967
23.83262	28030
23.84073	26111
23.84887	26392
23.85698	26150
23.86510	25915
23.87323	29112
23.88135	30149
23.88947	25271
23.89760	25845
23.90572	27422
23.91385	31907
23.92197	23146
23.93008	26998
23.93822	26503
23.94633	25733
23.95447	24246
23.96258	30920
23.97070	29690
23.97883	24817
23.98695	25942
23.99508	25650
24.00320	26305
24.01132	26561
24.01945	29398
24.02757	24281
24.03568	27289
24.04382	26576
24.05193	24956
24.06007	26775
24.06818	27544
24.07630	25280
24.08443	23244
24.09255	27295
24.10068	29605
24.10880	27493
24.11692	25502
24.12505	27682
24.13317	25120
24.14128	25192
24.14942	25046
24.15753	21340
24.16567	26758
24.17378	26581
24.18190	26042
24.19003	26380
24.19815	23872
24.20628	26283
24.21440	24965
24.22252	27412
24.23065	24987
24.23877	26893
24.24690	27708
24.25502	24249
24.26313	23420
24.27127	26838
24.27938	29721
24.28750	26410
24.29563	24499
24.30375	25344
24.31188	27711
24.32000	24941
24.32812	26623
24.33625	24426
24.34437	26273
24.35250	26348
24.36062	25934
24.36873	24065
24.37687	25143
24.38498	26979
24.39312	25040
24.40123	26831
24.40935	26425
24.41748	25719
24.42560	27298
24.43372	25993
24.44185	27298
24.44997	25035
24.45810	22065
24.46622	23904
24.47433	25714
24.48247	21646
24.49058	23817
24.49872	28184
24.50683	28037
24.51495	26170
24.52308	23920
24.53120	28911
24.53932	26825
24.54745	26145
24.55557	25008
24.56370	23628
24.57182	24829
24.57993	25192
24.58807	23972
24.59618	22569
24.60432	24498
24.61243	24939
24.62055	24044
24.62868	25386
24.63680	26364
24.64493	28080
24.65305	26048
24.66117	23021
24.66930	25695
24.67742	24674
24.68553	28970
24.69367	28928
24.70178	27313
24.70992	24739
24.71803	24415
24.72615	24168
24.73428	21918
24.74240	24337
24.75053	25677
24.75865	24553
24.76677	24015
24.77490	26371
24.78302	24501
24.79113	24316
24.79927	27461
24.80738	28072
24.81552	22416
24.82363	22058
24.83175	23768
24.83988	25866
24.84800	23310
24.85613	27599
24.86425	24543
24.87237	24142
24.88050	23987
24.88862	26660
24.89675	24003
24.90487	28869
24.91298	24787
24.92112	24818
24.92923	27859
24.93735	27067
24.94548	25180
24.95360	25103
24.96173	25253
24.96985	24082
24.97797	26536
24.98610	26731
24.99422	26125
25.00235	26094
25.01047	23467
25.01858	26824
25.02672	28400
25.03483	22704
25.04297	20982
25.05108	25568
25.05920	27418
25.06733	27930
25.07545	23745
25.08357	25341
25.09170	26023
25.09982	24092
25.10795	24773
25.11607	25005
25.12418	22484
25.13232	25050
25.14043	23655
25.14857	25753
25.15668	23965
25.16480	24531
25.17293	24641
25.18105	24843
25.18917	23375
25.19730	23434
25.20542	24226
25.21355	25690
25.22167	25941
25.22978	25051
25.23792	25100
25.24603	25521
25.25417	26683
25.26228	25358
25.27040	26507
25.27853	26068
25.28665	25309
25.29478	24707
25.30290	25698
25.31102	24479
25.31915	23387
25.32727	25199
25.33538	26953
25.34352	24068
25.35163	23173
25.35977	24832
25.36788	24978
25.37600	23737
25.38413	28004
25.39225	23454
25.40038	25074
25.40850	22472
25.41662	22738
25.42475	23717
25.43287	21166
25.44100	21978
25.44912	23655
25.45723	22710
25.46537	23681
25.47348	22766
25.48160	25156
25.48973	24071
25.49785	23672
25.50598	22354
25.51410	21921
25.52222	24098
25.53035	24320
25.53847	23172
25.54660	25500
25.55472	25345
25.56283	27139
25.57097	22925
25.57908	25811
25.58720	23837
25.59533	22420
25.60345	21336
25.61158	23945
25.61970	24388
25.62782	24552
25.63595	23636
25.64407	22754
25.65220	20469
25.66032	23805
25.66843	27695
25.67657	23471
25.68468	22172
25.69282	21999
25.70093	26644
25.70905	23246
25.71718	23810
25.72530	21950
25.73342	24494
25.74155	21855
25.74967	23458
25.75780	25257
25.76592	30008
25.77403	27167
25.78217	23131
25.79028	22430
25.79842	24889
25.80653	25245
25.81465	24338
25.82278	23975
25.83090	24739
25.83902	22147
25.84715	28496
25.85527	24977
25.86340	25479
25.87152	20584
25.87963	21628
25.88777	24624
25.89588	21990
25.90402	24354
25.91213	23084
25.92025	28334
25.92838	21194
25.93650	26095
25.94463	23527
25.95275	21749
25.96087	25617
25.96900	24147
25.97712	22964
25.98523	20620
25.99337	21636
26.00148	23297
26.00962	23053
26.01773	25582
26.02585	21486
26.03398	21206
26.04210	24939
26.05023	20777
26.05835	25046
26.06647	24647
26.07460	23940
26.08272	22133
26.09085	23518
26.09897	24973
26.10708	25177
26.11522	23272
26.12333	21800
26.13145	23836
26.13958	24430
26.14770	25898
26.15583	27840
26.16395	24497
26.17207	25037
26.18020	23064
26.18832	24915
26.19645	23689
26.20457	24209
26.21268	23336
26.22082	24003
26.22893	26478
26.23705	28946
26.24518	26010
26.25330	23370
26.26143	23834
26.26955	25377
26.27767	20412
26.28580	21250
26.29392	25123
26.30205	25859
26.31017	23981
26.31828	20727
26.32642	23222
26.33453	23120
26.34267	23276
26.35078	24965
26.35890	21813
26.36703	21242
26.37515	24956
26.38327	24484
26.39140	23482
26.39952	23004
26.40765	22842
26.41577	26287
26.42388	28576
26.43202	22599
26.44013	23410
26.44827	24001
26.45638	24222
26.46450	26204
26.47263	24974
26.48075	23915
26.48888	22426
26.49700	26644
26.50512	24761
26.51325	24401
26.52137	30080
26.52948	25782
26.53762	22886
26.54573	25483
26.55387	21209
26.56198	25082
26.57010	24861
26.57823	20958
26.58635	26589
26.59448	23226
26.60260	21339
26.61072	22653
26.61885	22372
26.62697	22910
26.63508	25889
26.64322	25705
26.65133	26071
26.65947	25266
26.66758	28516
26.67570	22500
26.68383	25859
26.69195	21408
26.70008	23799
26.70820	20578
26.71632	24789
26.72445	24138
26.73257	23285
26.74070	24972
26.74882	23262
26.75693	24018
26.76507	20825
26.77318	23418
26.78130	21608
26.78943	24223
26.79755	26786
26.80568	26288
26.81380	21354
26.82192	23323
26.83005	22764
26.83817	23375
26.84630	22005
26.85442	24423
26.86253	21761
26.87067	24389
26.87878	25663
26.88692	25186
26.89503	22908
26.90315	23532
26.91128	24829
26.91940	25072
26.92752	25385
26.93565	24808
26.94377	24731
26.95190	22683
26.96002	24961
26.96813	24255
26.97627	25610
26.98438	24698
26.99252	26764
27.00063	25996
27.00875	28027
27.01688	25371
27.02500	25746
27.03312	26222
27.04125	23209
27.04937	27557
27.05750	26928
27.06562	25330
27.07373	26289
27.08187	25571
27.08998	26690
27.09812	23177
27.10623	21850
27.11435	22106
27.12248	26223
27.13060	25136
27.13873	25746
27.14685	24088
27.15497	21592
27.16310	24222
27.17122	24709
27.17933	25490
27.18747	24348
27.19558	26224
27.20372	20457
27.21183	25777
27.21995	24407
27.22808	21769
27.23620	26192
27.24433	24906
27.25245	28297
27.26057	24759
27.26870	22739
27.27682	25594
27.28493	23128
27.29307	21863
27.30118	24747
27.30932	25253
27.31743	25696
27.32555	22700
27.33368	24385
27.34180	23951
27.34993	27102
27.35805	25822
27.36617	24378
27.37430	24502
27.38242	22815
27.39055	25876
27.39867	23654
27.40678	24568
27.41492	24362
27.42303	24294
27.43115	24484
27.43928	25697
27.44740	22757
27.45553	25015
27.46365	22266
27.47177	25217
27.47990	25521
27.48802	24464
27.49615	25584
27.50427	28486
27.51238	23672
27.52052	22306
27.52863	23550
27.53677	21830
27.54488	22193
27.55300	23121
27.56113	25184
27.56925	23262
27.57737	23982
27.58550	23998
27.59362	26151
27.60175	22832
27.60987	22197
27.61798	22400
27.62612	25537
27.63423	27245
27.64237	22427
27.65048	26625
27.65860	22852
27.66673	23662
27.67485	27494
27.68297	23977
27.69110	26346
27.69922	26374
27.70735	26540
27.71547	22070
27.72358	23726
27.73172	28731
27.73983	27471
27.74797	22752
27.75608	23658
27.76420	25311
27.77233	23780
27.78045	27212
27.78858	19915
27.79670	24381
27.80482	25362
27.81295	25093
27.82107	22596
27.82918	24113
27.83732	24423
27.84543	25220
27.85357	25093
27.86168	21887
27.86980	25997
27.87793	24135
27.88605	24602
27.89418	27194
27.90230	24752
27.91042	23059
27.91855	23909
27.92667	24664
27.93480	28160
27.94292	23975
27.95103	24000
27.95917	21174
27.96728	20955
27.97540	23887
27.98353	23686
27.99165	24523
27.99978	27028
28.00790	30202
28.01602	22298
28.02415	23402
28.03227	23657
28.04040	23649
28.04852	27370
28.05663	23456
28.06477	27715
28.07288	24359
28.08100	25258
28.08913	24880
28.09725	25293
28.10538	26344
28.11350	23997
28.12162	24696
28.12975	25868
28.13787	27459
28.14600	27864
28.15412	24228
28.16223	27569
28.17037	24471
28.17848	26119
28.18662	23635
28.19473	22743
28.20285	26564
28.21098	25831
28.21910	23531
28.22722	24592
28.23535	26319
28.24347	23535
28.25160	22848
28.25972	23622
28.26783	24206
28.27597	24965
28.28408	22088
28.29222	22610
28.30033	25454
28.30845	24859
28.31658	23434
28.32470	24911
28.33282	24987
28.34095	25544
28.34907	25239
28.35720	27640
28.36532	29112
28.37343	26242
28.38157	26287
28.38968	25848
28.39782	24551
28.40593	21653
28.41405	23498
28.42218	22369
28.43030	26334
28.43843	26281
28.44655	26562
28.45467	25426
28.46280	31172
28.47092	23848
28.47903	27762
28.48717	27061
28.49528	27372
28.50342	26598
28.51153	25290
28.51965	25198
28.52778	26702
28.53590	25316
28.54403	23653
28.55215	29689
28.56027	24399
28.56840	26273
28.57652	28372
28.58465	27713
28.59277	31646
28.60088	24592
28.60902	27709
28.61713	24846
28.62525	25582
28.63338	24856
28.64150	25070
28.64963	26269
28.65775	23596
28.66587	29661
28.67400	28023
28.68212	25859
28.69025	24387
28.69837	26326
28.70648	25921
28.71462	24806
28.72273	26321
28.73087	27152
28.73898	25981
28.74710	27937
28.75523	24765
28.76335	26351
28.77147	30087
28.77960	26028
28.78772	24746
28.79585	24576
28.80397	22708
28.81208	24145
28.82022	25650
28.82833	24640
28.83647	24444
28.84458	23793
28.85270	27487
28.86083	24362
28.86895	26985
28.87707	26092
28.88520	24000
28.89332	26030
28.90145	25970
28.90957	24705
28.91768	26305
28.92582	25017
28.93393	24551
28.94207	24601
28.95018	27228
28.95830	24193
28.96643	24048
28.97455	27599
28.98268	25698
28.99080	22686
28.99892	25644
29.00705	24181
29.01517	26822
29.02328	25465
29.03142	23904
29.03953	26323
29.04767	23850
29.05578	27391
29.06390	23277
29.07203	21698
29.08015	24533
29.08828	26813
29.09640	27922
29.10452	26466
29.11265	25422
29.12077	25014
29.12888	29111
29.13702	25458
29.14513	25337
29.15327	24803
29.16138	29032
29.16950	26229
29.17763	26834
29.18575	26810
29.19388	25170
29.20200	25600
29.21012	25715
29.21825	29029
29.22637	26412
29.23450	26185
29.24262	26226
29.25073	24917
29.25887	27407
29.26698	26843
29.27510	24063
29.28323	26558
29.29135	24749
29.29948	26538
29.30760	27218
29.31572	25481
29.32385	28159
29.33197	29891
29.34010	25354
29.34822	26582
29.35633	26459
29.36447	26803
29.37258	25709
29.38072	25840
29.38883	25931
29.39695	25759
29.40508	27454
29.41320	25104
29.42132	22391
29.42945	28780
29.43757	25922
29.44570	26730
29.45382	25208
29.46193	26702
29.47007	27371
29.47818	26680
29.48632	27705
29.49443	26160
29.50255	28710
29.51068	30397
29.51880	30443
29.52692	25656
29.53505	28144
29.54317	25120
29.55130	30615
29.55942	28751
29.56753	26242
29.57567	26626
29.58378	28661
29.59192	27187
29.60003	27494
29.60815	23509
29.61628	22929
29.62440	26321
29.63253	27750
29.64065	27106
29.64877	29332
29.65690	26601
29.66502	27450
29.67313	26522
29.68127	27938
29.68938	27333
29.69752	31556
29.70563	26249
29.71375	25175
29.72188	26465
29.73000	26909
29.73813	23471
29.74625	25341
29.75437	27277
29.76250	31506
29.77062	30070
29.77875	27523
29.78687	31527
29.79498	28167
29.80312	27213
29.81123	23241
29.81935	28641
29.82748	25918
29.83560	26681
29.84373	30754
29.85185	26953
29.85997	26187
29.86810	26517
29.87622	28223
29.88435	29154
29.89247	33380
29.90058	29103
29.90872	27695
29.91683	28502
29.92495	30163
29.93308	25689
29.94120	26820
29.94933	25585
29.95745	26777
29.96557	27713
29.97370	26883
29.98182	29087
29.98995	28446
29.99807	25681
30.00618	25776
30.01432	25135
30.02243	30997
30.03057	27036
30.03868	25967
30.04680	26109
30.05493	26464
30.06305	27245
30.07117	27928
30.07930	27996
30.08742	26665
30.09555	27920
30.10367	27013
30.11178	25156
30.11992	27278
30.12803	25657
30.13617	26502
30.14428	27507
30.15240	27668
30.16053	27406
30.16865	28768
30.17677	26060
30.18490	32370
30.19302	26751
30.20115	27850
30.20927	26231
30.21738	30202
30.22552	27987
30.23363	30345
30.24177	29738
30.24988	27483
30.25800	26829
30.26613	26666
30.27425	26136
30.28238	29420
30.29050	29761
30.29862	26451
30.30675	25874
30.31487	27000
30.32298	27048
30.33112	27629
30.33923	27763
30.34737	28056
30.35548	26300
30.36360	27998
30.37173	31002
30.37985	27171
30.38798	29989
30.39610	27738
30.40422	29242
30.41235	26946
30.42047	24466
30.42860	29645
30.43672	26443
30.44483	28109
30.45297	27045
30.46108	27900
30.46920	28281
30.47733	28520
30.48545	32568
30.49358	29219
30.50170	29488
30.50982	27601
30.51795	29391
30.52607	27870
30.53420	28256
30.54232	29345
30.55043	31770
30.55857	28369
30.56668	29391
30.57480	28646
30.58293	27375
30.59105	29164
30.59918	29519
30.60730	32148
30.61542	29160
30.62355	26706
30.63167	28232
30.63980	28820
30.64792	28658
30.65603	33703
30.66417	26765
30.67228	28432
30.68042	26385
30.68853	26689
30.69665	27213
30.70478	29485
30.71290	28499
30.72102	26736
30.72915	27521
30.73727	26373
30.74540	28541
30.75352	28593
30.76163	28413
30.76977	27092
30.77788	26734
30.78602	27358
30.79413	25418
30.80225	28318
30.81038	32448
30.81850	26471
30.82663	26631
30.83475	29215
30.84287	28761
30.85100	25532
30.85912	31619
30.86723	30029
30.87537	28414
30.88348	31074
30.89162	28090
30.89973	30563
30.90785	28570
30.91598	28507
30.92410	29040
30.93223	30394
30.94035	28174
30.94847	27693
30.95660	29110
30.96472	28888
30.97283	29062
30.98097	29841
30.98908	30352
30.99722	34146
31.00533	27537
31.01345	29131
31.02158	26383
31.02970	28765
31.03783	30980
31.04595	28962
31.05407	31461
31.06220	27521
31.07032	27960
31.07845	29588
31.08657	29616
31.09468	31197
31.10282	30214
31.11093	30517
31.11905	28859
31.12718	29068
31.13530	32130
31.14343	29453
31.15155	28454
31.15967	28495
31.16780	35510
31.17592	33349
31.18405	32959
31.19217	30301
31.20028	28977
31.20842	32158
31.21653	28225
31.22465	27551
31.23278	34127
31.24090	27959
31.24903	30210
31.25715	28788
31.26527	26400
31.27340	30271
31.28152	29353
31.28965	28069
31.29777	27192
31.30588	29679
31.31402	31221
31.32213	28721
31.33027	30625
31.33838	27724
31.34650	28529
31.35463	28490
31.36275	28896
31.37087	28685
31.37900	30696
31.38712	30103
31.39525	29535
31.40337	30055
31.41148	30290
31.41962	34247
31.42773	26218
31.43587	30149
31.44398	31545
31.45210	30838
31.46023	35353
31.46835	29731
31.47648	29233
31.48460	30963
31.49272	29328
31.50085	29073
31.50897	33914
31.51708	32547
31.52522	27643
31.53333	32058
31.54147	28465
31.54958	27369
31.55770	30422
31.56583	28202
31.57395	31379
31.58208	33242
31.59020	29277
31.59832	31640
31.60645	30826
31.61457	28357
31.62268	31922
31.63082	31932
31.63893	31286
31.64707	26011
31.65518	31063
31.66330	34639
31.67143	30139
31.67955	30365
31.68768	27604
31.69580	32016
31.70392	32043
31.71205	33664
31.72017	32046
31.72830	30174
31.73642	31055
31.74453	31963
31.75267	32775
31.76078	31077
31.76890	31687
31.77703	30246
31.78515	35598
31.79328	29125
31.80140	28101
31.80952	31104
31.81765	27887
31.82577	30942
31.83390	31279
31.84202	30788
31.85013	33092
31.85827	32738
31.86638	31415
31.87452	34048
31.88263	33130
31.89075	31109
31.89888	33576
31.90700	32336
31.91512	29147
31.92325	33606
31.93137	30756
31.93950	32385
31.94762	30947
31.95573	29935
31.96387	32662
31.97198	33055
31.98012	33106
31.98823	32770
31.99635	30969
32.00448	32067
32.01260	28544
32.02072	32243
32.02885	33539
32.03697	32185
32.04510	30504
32.05322	30440
32.06133	32656
32.06947	34684
32.07758	30350
32.08572	29174
32.09383	33091
32.10195	32101
32.11008	31835
32.11820	36257
32.12633	37807
32.13445	34125
32.14257	31153
32.15070	29124
32.15882	31841
32.16693	32918
32.17507	30322
32.18318	31730
32.19132	32980
32.19943	32634
32.20755	31506
32.21568	31623
32.22380	32607
32.23193	30365
32.24005	35631
32.24817	32631
32.25630	32688
32.26442	34921
32.27255	30574
32.28067	31357
32.28878	29167
32.29692	30662
32.30503	32991
32.31315	33728
32.32128	28563
32.32940	30247
32.33753	33505
32.34565	32140
32.35377	32877
32.36190	31883
32.37002	32890
32.37815	33190
32.38627	31696
32.39438	32690
32.40252	32634
32.41063	33506
32.41875	31496
32.42688	33937
32.43500	34101
32.44313	32590
32.45125	33150
32.45937	35105
32.46750	35128
32.47562	34957
32.48375	32281
32.49187	31983
32.49998	33356
32.50812	34524
32.51623	36259
32.52437	33409
32.53248	34872
32.54060	33555
32.54873	40031
32.55685	35098
32.56497	36749
32.57310	38416
32.58122	33746
32.58935	35592
32.59747	35311
32.60558	32864
32.61372	33809
32.62183	38856
32.62997	34123
32.63808	34659
32.64620	31310
32.65433	33756
32.66245	36877
32.67057	31830
32.67870	34508
32.68682	36083
32.69495	35801
32.70307	39821
32.71118	37067
32.71932	35322
32.72743	33997
32.73557	33124
32.74368	36539
32.75180	37371
32.75993	33690
32.76805	35004
32.77618	35732
32.78430	34025
32.79242	36281
32.80055	38288
32.80867	37343
32.81678	35951
32.82492	37086
32.83303	36501
32.84117	37777
32.84928	37713
32.85740	38931
32.86553	31203
32.87365	34389
32.88178	36907
32.88990	36954
32.89802	38402
32.90615	36081
32.91427	37554
32.92240	35425
32.93052	43145
32.93863	35252
32.94677	37420
32.95488	35170
32.96300	36380
32.97113	36753
32.97925	36833
32.98738	34021
32.99550	34749
33.00362	37379
33.01175	37191
33.01987	37133
33.02800	36778
33.03612	37217
33.04423	38510
33.05237	38223
33.06048	43127
33.06860	38202
33.07673	40814
33.08485	39214
33.09298	43431
33.10110	40640
33.10922	41318
33.11735	41170
33.12547	40726
33.13360	44565
33.14172	38801
33.14983	39543
33.15797	45659
33.16608	39563
33.17422	40034
33.18233	35727
33.19045	43179
33.19858	38103
33.20670	43205
33.21482	40727
33.22295	39004
33.23107	41268
33.23920	42426
33.24732	42556
33.25543	38406
33.26357	40057
33.27168	40836
33.27982	40920
33.28793	40201
33.29605	37412
33.30418	40345
33.31230	47474
33.32043	42741
33.32855	39871
33.33667	39999
33.34480	39753
33.35292	38464
33.36103	38124
33.36917	42032
33.37728	39006
33.38542	39487
33.39353	45964
33.40165	36782
33.40978	38093
33.41790	36574
33.42603	38575
33.43415	40007
33.44227	38712
33.45040	36683
33.45852	41182
33.46663	38451
33.47477	40828
33.48288	37393
33.49102	39664
33.49913	41466
33.50725	39769
33.51538	39424
33.52350	39266
33.53163	42077
33.53975	42422
33.54787	40531
33.55600	40584
33.56412	40885
33.57225	40991
33.58037	40536
33.58848	42633
33.59662	38458
33.60473	41113
33.61285	39654
33.62098	41373
33.62910	39983
33.63723	44235
33.64535	41480
33.65347	43120
33.66160	41412
33.66972	44274
33.67785	40469
33.68597	41805
33.69408	40801
33.70222	40326
33.71033	48955
33.71845	42597
33.72658	42562
33.73470	43971
33.74283	44891
33.75095	44238
33.75907	48362
33.76720	43406
33.77532	44243
33.78345	48530
33.79157	43669
33.79968	49165
33.80782	46172
33.81593	46835
33.82407	47706
33.83218	48972
33.84030	45278
33.84843	46349
33.85655	50102
33.86467	50025
33.87280	49550
33.88092	53717
33.88905	50434
33.89717	48766
33.90528	54267
33.91342	50967
33.92153	56731
33.92967	53161
33.93778	57201
33.94590	56285
33.95403	57961
33.96215	57731
33.97028	55574
33.97840	53888
33.98652	62918
33.99465	60963
34.00277	59753
34.01088	62502
34.01902	61871
34.02713	64789
34.03527	63668
34.04338	62792
34.05150	64583
34.05963	63706
34.06775	63692
34.07588	62914
34.08400	70965
34.09212	71242
34.10025	75367
34.10837	69757
34.11650	75847
34.12462	78373
34.13273	81230
34.14087	78222
34.14898	83024
34.15710	86694
34.16523	87106
34.17335	92834
34.18148	95692
34.18960	91921
34.19772	100114
34.20585	99852
34.21397	105179
34.22210	108367
34.23022	124703
34.23833	121712
34.24647	124519
34.25458	133243
34.26270	135430
34.27083	143303
34.27895	148616
34.28708	161098
34.29520	174024
34.30332	174455
34.31145	190616
34.31957	192431
34.32770	211338
34.33582	228789
34.34393	243454
34.35207	251488
34.36018	265087
34.36832	276944
34.37643	296404
34.38455	318157
34.39268	324616
34.40080	355305
34.40892	392242
34.41705	399854
34.42517	442910
34.43330	468325
34.44142	498426
34.44953	539454
34.45767	572642
34.46578	632665
34.47392	660815
34.48203	722577
34.49015	786815
34.49828	822818
34.50640	904543
34.51452	961439
34.52265	1049683
34.53077	1137119
34.53890	1236545
34.54702	1318449
34.55513	1415656
34.56327	1516244
34.57138	1601050
34.57952	1707710
34.58763	1813012
34.59575	1885226
34.60388	2020326
34.61200	2123543
34.62013	2218321
34.62825	2348086
34.63637	2404721
34.64450	2514097
34.65262	2615055
34.66073	2654493
34.66887	2784994
34.67698	2927828
34.68512	3030697
34.69323	3133166
34.70135	3202163
34.70948	3350317
34.71760	3451212
34.72573	3573787
34.73385	3667713
34.74197	3776672
34.75010	3849268
34.75822	3948584
34.76635	4061377
34.77447	4161633
34.78258	4249861
34.79072	4316817
34.79883	4386729
34.80695	4458748
34.81508	4516653
34.82320	4571283
34.83133	4597660
34.83945	4652224
34.84757	4739873
34.85570	4805129
34.86382	4874224
34.87195	4976218
34.88007	5079288
34.88818	5211729
34.89632	5354118
34.90443	5448161
34.91255	5607682
34.92068	5752604
34.92880	5876389
34.93693	6062833
34.94505	6303740
34.95317	6504973
34.96130	6639264
34.96942	6752401
34.97755	6868661
34.98567	7037748
34.99378	7211321
35.00192	7439608
35.01003	7579888
35.01817	7702792
35.02628	7802811
35.03440	7853849
35.04253	7923869
35.05065	7986299
35.05877	8094452
35.06690	8190954
35.07502	8214186
35.08315	8491143
35.09127	8618022
35.09938	8824783
35.10752	9017476
35.11563	8917922
35.12377	8968385
35.13188	8979941
35.14000	9100228
35.14813	9403084
35.15625	9568372
35.16438	9613469
35.17250	9767592
35.18062	9843208
35.18875	9809184
35.19687	9816792
35.20498	9655852
35.21312	9644191
35.22123	9677996
35.22937	9690418
35.23748	9900204
35.24560	1.002728E+07
35.25373	1.0056E+07
35.26185	1.014576E+07
35.26998	1.022835E+07
35.27810	1.040016E+07
35.28622	1.059889E+07
35.29435	1.088982E+07
35.30247	1.126649E+07
35.31058	1.158773E+07
35.31872	1.171612E+07
35.32683	1.186178E+07
35.33497	1.19037E+07
35.34308	1.220561E+07
35.35120	1.253436E+07
35.35933	1.271067E+07
35.36745	1.302467E+07
35.37558	1.316034E+07
35.38370	1.339255E+07
35.39182	1.361447E+07
35.39995	1.379909E+07
35.40807	1.398014E+07
35.41620	1.420265E+07
35.42432	1.445694E+07
35.43243	1.477679E+07
35.44057	1.493378E+07
35.44868	1.499432E+07
35.45680	1.50452E+07
35.46493	1.497351E+07
35.47305	1.510927E+07
35.48118	1.518792E+07
35.48930	1.528306E+07
35.49742	1.566891E+07
35.50555	1.603885E+07
35.51367	1.642759E+07
35.52180	1.686836E+07
35.52992	1.678375E+07
35.53803	1.683036E+07
35.54617	1.698761E+07
35.55428	1.722184E+07
35.56240	1.734462E+07
35.57053	1.739612E+07
35.57865	1.730707E+07
35.58678	1.734743E+07
35.59490	1.734883E+07
35.60302	1.756365E+07
35.61115	1.740309E+07
35.61927	1.752002E+07
35.62740	1.765724E+07
35.63552	1.764395E+07
35.64363	1.76428E+07
35.65177	1.763473E+07
35.65988	1.784376E+07
35.66802	1.782387E+07
35.67613	1.816899E+07
35.68425	1.848752E+07
35.69238	1.878417E+07
35.70050	1.891917E+07
35.70862	1.89541E+07
35.71675	1.90438E+07
35.72487	1.903893E+07
35.73300	1.869115E+07
35.74112	1.861208E+07
35.74923	1.854327E+07
35.75737	1.890911E+07
35.76548	1.911577E+07
35.77362	1.873691E+07
35.78173	1.817131E+07
35.78985	1.77689E+07
35.79798	1.74261E+07
35.80610	1.705466E+07
35.81423	1.662773E+07
35.82235	1.607751E+07
35.83047	1.55098E+07
35.83860	1.490466E+07
35.84672	1.437922E+07
35.85483	1.352252E+07
35.86297	1.273984E+07
35.87108	1.198663E+07
35.87922	1.13365E+07
35.88733	1.067497E+07
35.89545	1.009287E+07
35.90358	9452420
35.91170	8941339
35.91983	8538796
35.92795	8237694
35.93607	7999213
35.94420	7641432
35.95232	7466728
35.96043	7182775
35.96857	6929010
35.97668	6665721
35.98482	6533082
35.99293	6531628
36.00105	6401552
36.00918	6355635
36.01730	6281527
36.02543	6258662
36.03355	6245373
36.04167	6316031
36.04980	6385442
36.05792	6487836
36.06605	6531474
36.07417	6715569
36.08228	6855208
36.09042	7036590
36.09853	7211293
36.10665	7292350
36.11478	7247988
36.12290	7303749
36.13103	7391827
36.13915	7566819
36.14727	7729977
36.15540	7746074
36.16352	7838619
36.17165	7856222
36.17977	7821468
36.18788	7845047
36.19602	7896651
36.20413	8010583
36.21227	8207605
36.22038	8229639
36.22850	8345471
36.23663	8635029
36.24475	8996864
36.25287	9342060
36.26100	9716547
36.26912	9811148
36.27725	1.001921E+07
36.28537	1.021504E+07
36.29348	1.04663E+07
36.30162	1.068304E+07
36.30973	1.089931E+07
36.31787	1.116388E+07
36.32598	1.127078E+07
36.33410	1.143925E+07
36.34223	1.185679E+07
36.35035	1.208491E+07
36.35847	1.217342E+07
36.36660	1.217814E+07
36.37472	1.236117E+07
36.38285	1.243766E+07
36.39097	1.250448E+07
36.39908	1.251786E+07
36.40722	1.253134E+07
36.41533	1.252771E+07
36.42347	1.256194E+07
36.43158	1.256639E+07
36.43970	1.263126E+07
36.44783	1.271615E+07
36.45595	1.270565E+07
36.46408	1.283633E+07
36.47220	1.267504E+07
36.48032	1.265881E+07
36.48845	1.245841E+07
36.49657	1.24998E+07
36.50468	1.243749E+07
36.51282	1.240419E+07
36.52093	1.235168E+07
36.52907	1.224818E+07
36.53718	1.190778E+07
36.54530	1.171676E+07
36.55343	1.126325E+07
36.56155	1.137012E+07
36.56968	1.121287E+07
36.57780	1.094398E+07
36.58592	1.089168E+07
36.59405	1.084992E+07
36.60217	1.070897E+07
36.61030	1.061869E+07
36.61842	1.071949E+07
36.62653	1.094847E+07
36.63467	1.116707E+07
36.64278	1.136163E+07
36.65090	1.155111E+07
36.65903	1.164038E+07
36.66715	1.172619E+07
36.67528	1.19214E+07
36.68340	1.205534E+07
36.69152	1.230937E+07
36.69965	1.242638E+07
36.70777	1.262075E+07
36.71590	1.272612E+07
36.72402	1.275538E+07
36.73213	1.28603E+07
36.74027	1.304782E+07
36.74838	1.332371E+07
36.75650	1.349881E+07
36.76463	1.374072E+07
36.77275	1.343055E+07
36.78088	1.34998E+07
36.78900	1.36438E+07
36.79712	1.384564E+07
36.80525	1.411189E+07
36.81337	1.439265E+07
36.82150	1.458608E+07
36.82962	1.47052E+07
36.83773	1.511657E+07
36.84587	1.562687E+07
36.85398	1.594583E+07
36.86212	1.59123E+07
36.87023	1.59906E+07
36.87835	1.636252E+07
36.88648	1.652158E+07
36.89460	1.690685E+07
36.90272	1.689258E+07
36.91085	1.698147E+07
36.91897	1.714877E+07
36.92710	1.696267E+07
36.93522	1.682535E+07
36.94333	1.678097E+07
36.95147	1.661136E+07
36.95958	1.659836E+07
36.96772	1.66064E+07
36.97583	1.679958E+07
36.98395	1.678485E+07
36.99208	1.710143E+07
37.00020	1.728363E+07
37.00832	1.774602E+07
37.01645	1.797513E+07
37.02457	1.855769E+07
37.03270	1.882084E+07
37.04082	1.925277E+07
37.04893	1.990896E+07
37.05707	2.018668E+07
37.06518	2.070789E+07
37.07332	2.143029E+07
37.08143	2.199517E+07
37.08955	2.243041E+07
37.09768	2.292294E+07
37.10580	2.308508E+07
37.11393	2.331097E+07
37.12205	2.321837E+07
37.13017	2.355161E+07
37.13830	2.375559E+07
37.14642	2.412497E+07
37.15453	2.451971E+07
37.16267	2.500206E+07
37.17078	2.50436E+07
37.17892	2.49849E+07
37.18703	2.510102E+07
37.19515	2.519781E+07
37.20328	2.590612E+07
37.21140	2.588037E+07
37.21953	2.594072E+07
37.22765	2.580422E+07
37.23577	2.584636E+07
37.24390	2.623015E+07
37.25202	2.62039E+07
37.26015	2.690144E+07
37.26827	2.728124E+07
37.27638	2.727135E+07
37.28452	2.736862E+07
37.29263	2.762927E+07
37.30075	2.726807E+07
37.30888	2.660797E+07
37.31700	2.594578E+07
37.32513	2.548173E+07
37.33325	2.500732E+07
37.34137	2.470275E+07
37.34950	2.455709E+07
37.35762	2.452594E+07
37.36575	2.475908E+07
37.37387	2.533808E+07
37.38198	2.551391E+07
37.39012	2.531389E+07
37.39823	2.522086E+07
37.40635	2.617589E+07
37.41448	2.651723E+07
37.42260	2.702487E+07
37.43073	2.764196E+07
37.43885	2.784027E+07
37.44697	2.861443E+07
37.45510	2.918326E+07
37.46322	2.91185E+07
37.47135	2.830886E+07
37.47947	2.821793E+07
37.48758	2.886497E+07
