Z:\data\JTB-E02\BACandBLUE\JTB-E02-194-07.D Thu Dec 20 08:47:02 2018
Start of data points
2.09528	79300
2.10342	81773
2.11153	74798
2.11967	82658
2.12778	82174
2.13590	81051
2.14403	77142
2.15215	78384
2.16028	79819
2.16840	71188
2.17652	76516
2.18465	74271
2.19277	65110
2.20088	70129
2.20902	68498
2.21713	68525
2.22527	68999
2.23338	67770
2.24150	68668
2.24963	69303
2.25775	68503
2.26588	76896
2.27400	336689
2.28212	1797371
2.29025	2728532
2.29837	1821854
2.30648	932865
2.31462	637931
2.32273	517902
2.33087	455276
2.33898	390662
2.34710	354258
2.35523	307350
2.36335	275192
2.37148	249499
2.37960	228649
2.38772	222824
2.39585	213655
2.40397	203647
2.41210	228086
2.42022	233031
2.42833	324044
2.43647	299952
2.44458	238881
2.45270	220013
2.46083	206365
2.46895	190455
2.47708	179521
2.48520	169797
2.49332	161246
2.50145	162884
2.50957	157618
2.51770	159721
2.52582	153560
2.53393	155448
2.54207	149238
2.55018	147421
2.55832	163639
2.56643	175984
2.57455	171675
2.58268	154667
2.59080	138445
2.59892	130914
2.60705	130916
2.61517	137997
2.62330	147741
2.63142	157758
2.63953	142369
2.64767	137648
2.65578	136845
2.66392	129402
2.67203	127452
2.68015	125772
2.68828	124004
2.69640	122665
2.70452	119022
2.71265	122076
2.72077	119433
2.72890	121135
2.73702	116782
2.74513	115080
2.75327	112724
2.76138	114154
2.76952	107517
2.77763	110192
2.78575	115235
2.79388	105936
2.80200	111313
2.81013	120761
2.81825	114560
2.82637	112594
2.83450	110970
2.84262	105668
2.85073	112471
2.85887	107291
2.86698	103292
2.87512	115361
2.88323	108407
2.89135	108743
2.89948	108526
2.90760	109862
2.91573	106660
2.92385	107105
2.93197	102714
2.94010	101656
2.94822	97582
2.95635	99825
2.96447	103966
2.97258	106574
2.98072	106325
2.98883	99804
2.99695	100847
3.00508	98314
3.01320	99307
3.02133	102599
3.02945	97392
3.03757	101884
3.04570	96647
3.05382	94495
3.06195	95224
3.07007	95055
3.07818	95921
3.08632	100550
3.09443	92813
3.10255	98714
3.11068	100869
3.11880	113403
3.12693	125776
3.13505	116819
3.14317	107180
3.15130	107125
3.15942	101982
3.16755	99719
3.17567	99747
3.18378	94540
3.19192	93201
3.20003	93191
3.20817	95243
3.21628	91329
3.22440	94591
3.23253	89028
3.24065	95699
3.24877	88619
3.25690	87527
3.26502	93797
3.27315	83727
3.28127	92555
3.28938	99937
3.29752	213847
3.30563	963881
3.31377	3419939
3.32188	7232803
3.33000	9313465
3.33813	8260279
3.34625	6129957
3.35437	4387336
3.36250	3248785
3.37062	2572126
3.37875	2046570
3.38687	1717612
3.39498	1437626
3.40312	1272331
3.41123	1123898
3.41937	1016023
3.42748	948974
3.43560	886997
3.44373	855476
3.45185	822749
3.45998	792068
3.46810	767920
3.47622	738172
3.48435	737454
3.49247	707158
3.50058	678034
3.50872	638685
3.51683	623427
3.52497	577284
3.53308	543186
3.54120	523677
3.54933	490780
3.55745	472748
3.56558	454339
3.57370	420825
3.58182	429690
3.58995	407364
3.59807	394930
3.60620	404178
3.61432	392475
3.62243	383909
3.63057	381645
3.63868	376786
3.64680	372635
3.65493	379969
3.66305	346452
3.67118	342664
3.67930	344307
3.68742	343701
3.69555	335998
3.70367	357634
3.71180	350196
3.71992	357409
3.72803	332300
3.73617	327475
3.74428	326998
3.75242	321851
3.76053	314502
3.76865	305186
3.77678	300311
3.78490	298882
3.79302	297609
3.80115	291418
3.80927	290561
3.81740	297012
3.82552	299420
3.83363	294522
3.84177	294562
3.84988	277576
3.85802	278055
3.86613	270673
3.87425	262723
3.88238	259564
3.89050	259895
3.89862	254061
3.90675	255109
3.91487	243490
3.92300	249314
3.93112	235648
3.93923	241599
3.94737	239499
3.95548	233654
3.96362	245522
3.97173	246712
3.97985	247629
3.98798	237492
3.99610	243088
4.00423	229521
4.01235	231110
4.02047	231606
4.02860	227791
4.03672	234665
4.04483	225395
4.05297	220757
4.06108	227844
4.06922	215668
4.07733	211220
4.08545	217472
4.09358	206017
4.10170	214403
4.10983	215825
4.11795	221042
4.12607	211095
4.13420	205148
4.14232	223540
4.15043	265393
4.15857	322545
4.16668	371635
4.17482	340690
4.18293	268877
4.19105	232285
4.19918	221136
4.20730	212328
4.21543	202146
4.22355	204039
4.23167	206901
4.23980	244772
4.24792	295094
4.25605	324703
4.26417	307419
4.27228	280963
4.28042	250532
4.28853	237258
4.29665	225536
4.30478	214457
4.31290	212357
4.32103	205753
4.32915	209425
4.33727	214628
4.34540	219113
4.35352	210699
4.36165	210483
4.36977	204737
4.37788	209683
4.38602	206595
4.39413	201739
4.40227	204532
4.41038	204423
4.41850	199006
4.42663	194576
4.43475	191624
4.44287	190193
4.45100	185679
4.45912	186486
4.46725	180260
4.47537	185240
4.48348	183291
4.49162	179049
4.49973	180200
4.50787	175553
4.51598	186167
4.52410	182302
4.53223	178613
4.54035	174153
4.54847	177016
4.55660	182795
4.56472	170266
4.57285	174696
4.58097	169162
4.58908	169372
4.59722	171017
4.60533	173495
4.61347	172510
4.62158	165307
4.62970	170075
4.63783	166766
4.64595	169705
4.65408	159857
4.66220	168812
4.67032	164111
4.67845	160979
4.68657	165397
4.69468	171172
4.70282	158262
4.71093	171005
4.71907	164140
4.72718	166926
4.73530	160820
4.74343	165450
4.75155	158985
4.75968	155390
4.76780	166369
4.77592	160187
4.78405	158497
4.79217	157862
4.80030	155379
4.80842	160026
4.81653	156379
4.82467	159254
4.83278	168072
4.84090	155593
4.84903	159514
4.85715	162680
4.86528	158198
4.87340	159551
4.88152	160171
4.88965	161530
4.89777	162370
4.90590	157665
4.91402	160983
4.92213	155356
4.93027	150896
4.93838	152759
4.94650	164009
4.95463	248847
4.96275	569608
4.97088	1353900
4.97900	2557929
4.98712	3604445
4.99525	3767155
5.00337	3244262
5.01150	2404400
5.01962	1741687
5.02773	1328505
5.03587	1098903
5.04398	948714
5.05212	871080
5.06023	821605
5.06835	780471
5.07648	761068
5.08460	709772
5.09272	664483
5.10085	639600
5.10897	605014
5.11710	557298
5.12522	531346
5.13333	500453
5.14147	489812
5.14958	469919
5.15772	460637
5.16583	455337
5.17395	447245
5.18208	439305
5.19020	436189
5.19832	423807
5.20645	423739
5.21457	403895
5.22270	397110
5.23082	394306
5.23893	383542
5.24707	385543
5.25518	380532
5.26332	385108
5.27143	386790
5.27955	355440
5.28768	356912
5.29580	324638
5.30393	319075
5.31205	318730
5.32017	313763
5.32830	311250
5.33642	315491
5.34453	293499
5.35267	296723
5.36078	290912
5.36892	296064
5.37703	289752
5.38515	280850
5.39328	287865
5.40140	269816
5.40953	286661
5.41765	274634
5.42577	258970
5.43390	270069
5.44202	267066
5.45015	256611
5.45827	258883
5.46638	250288
5.47452	254154
5.48263	252893
5.49075	249215
5.49888	247050
5.50700	251798
5.51513	240719
5.52325	240161
5.53137	238293
5.53950	230949
5.54762	239703
5.55575	227918
5.56387	222718
5.57198	221814
5.58012	227642
5.58823	229966
5.59635	229809
5.60448	233651
5.61260	228646
5.62073	228463
5.62885	226352
5.63697	235210
5.64510	234214
5.65322	234718
5.66135	229917
5.66947	233556
5.67758	223355
5.68572	226290
5.69383	243571
5.70197	258679
5.71008	288048
5.71820	292718
5.72633	269127
5.73445	249674
5.74257	232923
5.75070	219564
5.75882	216386
5.76695	207375
5.77507	213846
5.78318	200527
5.79132	203434
5.79943	196317
5.80757	206441
5.81568	213630
5.82380	199803
5.83193	197456
5.84005	203358
5.84818	193808
5.85630	197179
5.86442	199081
5.87255	192480
5.88067	200000
5.88878	189307
5.89692	183703
5.90503	186458
5.91317	174390
5.92128	171401
5.92940	147406
5.93753	151949
5.94565	141881
5.95378	142979
5.96190	147227
5.97002	147541
5.97815	143987
5.98627	148574
5.99438	161896
6.00252	165780
6.01063	172724
6.01877	162210
6.02688	151723
6.03500	145053
6.04313	152364
6.05125	145131
6.05938	143639
6.06750	142958
6.07562	142676
6.08375	143876
6.09187	146110
6.10000	145601
6.10812	133953
6.11623	137078
6.12437	138788
6.13248	138636
6.14060	140102
6.14873	141718
6.15685	137429
6.16498	135597
6.17310	147767
6.18122	152317
6.18935	145367
6.19747	151501
6.20560	149542
6.21372	155539
6.22183	142161
6.22997	147611
6.23808	146182
6.24622	142265
6.25433	150538
6.26245	155205
6.27058	160144
6.27870	155627
6.28682	156677
6.29495	168636
6.30307	160097
6.31120	163349
6.31932	172616
6.32743	168457
6.33557	176191
6.34368	175923
6.35182	177301
6.35993	175305
6.36805	178588
6.37618	187992
6.38430	183608
6.39242	186748
6.40055	182774
6.40867	184152
6.41680	189426
6.42492	189878
6.43303	183196
6.44117	188690
6.44928	201488
6.45742	199796
6.46553	197893
6.47365	202968
6.48178	205257
6.48990	214804
6.49803	207070
6.50615	210146
6.51427	209648
6.52240	206803
6.53052	209451
6.53863	210588
6.54677	204437
6.55488	209020
6.56302	177894
6.57113	166943
6.57925	162984
6.58738	157416
6.59550	156145
6.60363	147032
6.61175	147620
6.61987	141760
6.62800	141015
6.63612	142563
6.64423	141476
6.65237	141707
6.66048	142326
6.66862	134762
6.67673	135984
6.68485	134316
6.69298	138787
6.70110	137432
6.70923	138258
6.71735	136482
6.72547	138206
6.73360	130296
6.74172	132436
6.74985	126229
6.75797	128157
6.76608	124750
6.77422	124016
6.78233	124460
6.79045	125841
6.79858	124252
6.80670	122589
6.81483	124985
6.82295	127310
6.83107	123060
6.83920	126876
6.84732	118889
6.85545	122329
6.86357	120377
6.87168	99697
6.87982	93768
6.88793	88134
6.89607	95857
6.90418	96098
6.91230	95210
6.92043	89814
6.92855	86497
6.93667	87952
6.94480	79446
6.95292	83707
6.96105	79988
6.96917	79888
6.97728	78247
6.98542	71898
6.99353	80866
7.00167	76030
7.00978	76016
7.01790	81773
7.02603	74734
7.03415	75280
7.04227	74061
7.05040	73953
7.05852	73601
7.06665	81186
7.07477	78322
7.08288	76738
7.09102	76679
7.09913	74419
7.10727	75253
7.11538	75871
7.12350	70188
7.13163	77659
7.13975	77129
7.14788	81091
7.15600	73472
7.16412	78326
7.17225	75778
7.18037	75756
7.18848	78706
7.19662	81710
7.20473	87196
7.21287	85401
7.22098	90600
7.22910	83368
7.23723	77838
7.24535	80250
7.25348	72873
7.26160	73236
7.26972	81492
7.27785	74436
7.28597	71688
7.29410	71605
7.30222	73380
7.31033	72670
7.31847	68967
7.32658	69320
7.33470	70397
7.34283	69993
7.35095	75166
7.35908	70885
7.36720	70506
7.37532	70405
7.38345	72031
7.39157	71016
7.39970	72231
7.40782	73024
7.41593	73079
7.42407	77911
7.43218	72639
7.44030	80527
7.44843	78874
7.45655	78895
7.46468	77108
7.47280	76437
7.48092	76623
7.48905	74262
7.49717	74718
7.50530	73850
7.51342	72859
7.52153	74589
7.52967	70578
7.53778	69626
7.54592	73985
7.55403	76842
7.56215	70448
7.57028	73056
7.57840	76725
7.58652	70681
7.59465	71432
7.60277	71944
7.61090	67553
7.61902	71590
7.62713	70847
7.63527	68874
7.64338	65519
7.65152	73644
7.65963	70774
7.66775	73300
7.67588	68849
7.68400	68219
7.69212	71146
7.70025	71909
7.70837	74075
7.71650	69813
7.72462	66837
7.73273	69684
7.74087	69161
7.74898	67050
7.75712	69310
7.76523	62806
7.77335	64938
7.78148	67453
7.78960	58710
7.79773	65536
7.80585	62245
7.81397	62797
7.82210	62894
7.83022	60779
7.83833	61961
7.84647	56080
7.85458	58929
7.86272	58349
7.87083	57224
7.87895	58962
7.88708	55663
7.89520	59107
7.90333	58337
7.91145	60586
7.91957	61952
7.92770	58828
7.93582	59988
7.94395	57625
7.95207	57390
7.96018	55048
7.96832	55141
7.97643	61014
7.98455	60978
7.99268	60287
8.00080	62155
8.00893	66390
8.01705	61796
8.02517	62019
8.03330	60229
8.04142	60358
8.04955	54382
8.05767	57067
8.06578	58751
8.07392	55953
8.08203	54301
8.09015	57345
8.09828	62791
8.10640	66077
8.11453	63481
8.12265	60183
8.13077	62345
8.13890	59307
8.14702	64687
8.15515	61895
8.16327	62994
8.17138	62114
8.17952	62556
8.18763	71523
8.19577	65665
8.20388	66110
8.21200	69004
8.22013	69395
8.22825	64560
8.23637	64909
8.24450	63432
8.25262	64492
8.26075	62237
8.26887	61122
8.27698	62063
8.28512	67152
8.29323	58772
8.30137	61111
8.30948	62961
8.31760	61731
8.32573	55795
8.33385	60933
8.34198	63076
8.35010	68294
8.35822	63050
8.36635	72954
8.37447	70295
8.38258	67786
8.39072	67006
8.39883	65554
8.40697	55833
8.41508	58755
8.42320	54468
8.43133	58698
8.43945	57104
8.44758	56007
8.45570	53412
8.46382	56828
8.47195	59399
8.48007	57059
8.48818	57508
8.49632	57809
8.50443	53263
8.51257	59526
8.52068	57269
8.52880	59076
8.53693	63391
8.54505	63551
8.55318	65061
8.56130	69378
8.56942	62902
8.57755	61576
8.58567	58162
8.59380	59690
8.60192	57471
8.61003	58765
8.61817	59236
8.62628	57175
8.63440	55013
8.64253	55130
8.65065	56556
8.65878	56491
8.66690	53447
8.67502	55171
8.68315	53997
8.69127	55124
8.69940	56882
8.70752	57671
8.71563	55084
8.72377	57687
8.73188	54309
8.74000	60722
8.74813	55782
8.75625	56999
8.76438	61942
8.77250	54661
8.78062	59445
8.78875	74916
8.79687	125175
8.80500	253240
8.81312	456933
8.82123	712233
8.82937	878198
8.83748	877075
8.84562	757627
8.85373	617297
8.86185	532540
8.86998	444637
8.87810	408151
8.88622	369389
8.89435	329218
8.90247	303280
8.91060	281639
8.91872	277829
8.92683	256745
8.93497	247565
8.94308	230582
8.95122	218486
8.95933	206638
8.96745	203863
8.97558	197938
8.98370	189917
8.99183	187765
8.99995	187431
9.00807	186153
9.01620	172171
9.02432	179733
9.03243	160526
9.04057	166272
9.04868	157797
9.05682	163818
9.06493	154946
9.07305	155415
9.08118	150676
9.08930	143249
9.09743	142626
9.10555	140700
9.11367	134921
9.12180	136901
9.12992	137910
9.13805	130749
9.14617	135515
9.15428	138316
9.16242	136482
9.17053	125841
9.17865	130840
9.18678	134639
9.19490	131072
9.20303	131585
9.21115	135833
9.21927	132938
9.22740	128017
9.23552	128713
9.24365	128479
9.25177	123364
9.25988	116240
9.26802	124024
9.27613	114639
9.28425	110400
9.29238	117857
9.30050	119761
9.30863	118281
9.31675	108383
9.32487	107824
9.33300	110455
9.34112	106310
9.34925	99395
9.35737	114198
9.36548	104256
9.37362	107299
9.38173	105295
9.38987	102651
9.39798	103115
9.40610	105773
9.41423	102209
9.42235	93778
9.43047	97372
9.43860	98422
9.44672	91232
9.45485	94838
9.46297	95406
9.47108	97412
9.47922	103293
9.48733	96974
9.49547	95325
9.50358	93167
9.51170	95435
9.51983	96379
9.52795	94417
9.53607	95343
9.54420	92017
9.55232	89939
9.56045	101347
9.56857	96013
9.57668	93069
9.58482	83375
9.59293	77863
9.60107	69817
9.60918	70133
9.61730	71384
9.62543	72128
9.63355	69341
9.64168	66861
9.64980	68171
9.65792	67772
9.66605	60971
9.67417	62546
9.68228	60525
9.69042	63831
9.69853	58147
9.70667	59155
9.71478	57346
9.72290	63030
9.73103	57556
9.73915	61218
9.74728	59054
9.75540	60827
9.76352	60317
9.77165	60149
9.77977	63753
9.78790	60616
9.79602	59985
9.80413	59060
9.81227	55759
9.82038	59319
9.82850	54437
9.83663	58313
9.84475	56483
9.85288	59914
9.86100	63707
9.86912	67625
9.87725	62913
9.88537	60943
9.89350	60181
9.90162	62292
9.90973	54319
9.91787	57413
9.92598	56626
9.93410	58242
9.94223	56387
9.95035	57004
9.95848	55274
9.96660	55135
9.97472	53641
9.98285	55830
9.99097	61566
9.99910	64666
10.00722	66821
10.01533	71708
10.02347	70194
10.03158	75152
10.03972	89062
10.04783	101653
10.05595	113542
10.06408	116963
10.07220	109534
10.08032	109214
10.08845	101162
10.09657	96546
10.10470	90840
10.11282	87823
10.12093	81253
10.12907	80634
10.13718	78055
10.14532	70629
10.15343	75576
10.16155	75679
10.16968	73990
10.17780	72116
10.18593	67922
10.19405	66922
10.20217	69839
10.21030	67139
10.21842	67205
10.22653	67860
10.23467	68161
10.24278	73362
10.25092	72497
10.25903	79763
10.26715	75948
10.27528	83006
10.28340	78709
10.29153	80207
10.29965	79784
10.30777	85866
10.31590	88260
10.32402	96883
10.33213	106814
10.34027	128489
10.34838	142087
10.35652	135534
10.36463	124509
10.37275	109724
10.38088	100965
10.38900	98184
10.39713	92047
10.40525	88535
10.41337	86393
10.42150	81381
10.42962	82779
10.43775	79052
10.44587	80257
10.45398	80425
10.46212	79295
10.47023	81952
10.47835	77996
10.48648	73812
10.49460	77458
10.50273	79896
10.51085	83649
10.51897	76979
10.52710	76518
10.53522	74873
10.54335	79125
10.55147	79740
10.55958	79090
10.56772	83012
10.57583	79665
10.58395	85250
10.59208	81195
10.60020	83440
10.60833	86371
10.61645	86445
10.62457	88397
10.63270	82610
10.64082	76005
10.64895	79000
10.65707	74733
10.66518	74976
10.67332	74294
10.68143	73716
10.68957	78072
10.69768	75529
10.70580	76593
10.71393	78111
10.72205	81931
10.73017	76048
10.73830	78082
10.74642	77359
10.75455	72632
10.76267	77289
10.77078	76566
10.77892	80212
10.78703	79448
10.79517	80248
10.80328	73431
10.81140	72522
10.81953	78133
10.82765	78739
10.83578	75700
10.84390	67381
10.85202	70436
10.86015	74426
10.86827	74586
10.87638	67308
10.88452	70188
10.89263	69266
10.90077	67802
10.90888	67942
10.91700	68791
10.92513	75059
10.93325	72139
10.94138	71919
10.94950	66699
10.95762	68319
10.96575	73136
10.97387	70972
10.98198	73814
10.99012	72019
10.99823	69946
11.00637	77755
11.01448	66950
11.02260	68980
11.03073	71378
11.03885	68240
11.04698	68216
11.05510	64398
11.06322	69684
11.07135	73757
11.07947	62370
11.08760	64202
11.09572	62117
11.10383	56704
11.11197	59969
11.12008	65099
11.12820	61374
11.13633	57846
11.14445	61654
11.15258	57445
11.16070	58886
11.16882	57481
11.17695	59376
11.18507	54427
11.19320	60375
11.20132	68586
11.20943	80149
11.21757	89357
11.22568	94082
11.23382	99226
11.24193	93317
11.25005	90771
11.25818	79556
11.26630	72810
11.27442	69788
11.28255	65939
11.29067	64842
11.29880	59486
11.30692	61068
11.31503	57924
11.32317	57135
11.33128	58625
11.33942	57288
11.34753	59995
11.35565	58334
11.36378	57030
11.37190	62089
11.38002	57138
11.38815	58413
11.39627	54049
11.40440	60336
11.41252	52213
11.42063	60073
11.42877	59602
11.43688	59237
11.44502	54336
11.45313	55502
11.46125	51422
11.46938	53604
11.47750	52965
11.48563	60842
11.49375	50535
11.50187	55241
11.51000	59803
11.51812	55421
11.52623	54079
11.53437	56048
11.54248	53115
11.55062	55647
11.55873	52852
11.56685	51164
11.57498	48967
11.58310	53670
11.59123	55675
11.59935	53818
11.60747	53945
11.61560	53898
11.62372	50844
11.63183	56937
11.63997	59520
11.64808	60502
11.65622	55463
11.66433	52100
11.67245	55508
11.68058	53322
11.68870	53849
11.69683	51483
11.70495	53923
11.71307	54974
11.72120	55544
11.72932	58459
11.73745	56338
11.74557	55498
11.75368	58646
11.76182	63838
11.76993	62409
11.77805	59268
11.78618	59560
11.79430	66236
11.80243	64365
11.81055	67037
11.81867	58026
11.82680	61517
11.83492	59417
11.84305	57474
11.85117	59135
11.85928	56285
11.86742	55127
11.87553	57791
11.88367	58634
11.89178	58630
11.89990	57604
11.90803	55842
11.91615	52637
11.92427	54585
11.93240	52683
11.94052	49645
11.94865	53069
11.95677	55103
11.96488	52783
11.97302	53513
11.98113	53360
11.98927	49677
11.99738	56338
12.00550	53556
12.01363	53177
12.02175	50582
12.02987	52543
12.03800	49254
12.04612	56018
12.05425	51774
12.06237	53347
12.07048	49394
12.07862	54064
12.08673	49973
12.09487	51050
12.10298	49476
12.11110	54458
12.11923	51617
12.12735	54271
12.13548	50616
12.14360	49249
12.15172	56934
12.15985	57952
12.16797	61929
12.17608	60384
12.18422	59992
12.19233	66457
12.20047	73184
12.20858	70976
12.21670	69594
12.22483	72758
12.23295	71686
12.24108	77220
12.24920	72513
12.25732	71438
12.26545	70398
12.27357	65423
12.28170	69607
12.28982	70990
12.29793	72960
12.30607	72003
12.31418	65454
12.32230	64685
12.33043	68992
12.33855	64770
12.34668	70187
12.35480	66636
12.36292	68540
12.37105	64280
12.37917	62592
12.38730	66615
12.39542	65853
12.40353	66668
12.41167	62769
12.41978	64356
12.42790	69373
12.43603	68514
12.44415	68419
12.45228	67203
12.46040	63322
12.46852	68870
12.47665	66876
12.48477	70704
12.49290	68743
12.50102	68508
12.50913	66599
12.51727	63008
12.52538	65669
12.53352	62066
12.54163	65474
12.54975	64299
12.55788	61866
12.56600	63094
12.57412	57964
12.58225	59336
12.59037	60604
12.59850	56141
12.60662	57089
12.61473	62565
12.62287	57027
12.63098	55868
12.63912	55954
12.64723	58769
12.65535	57650
12.66348	62108
12.67160	61167
12.67973	57691
12.68785	57118
12.69597	57028
12.70410	60648
12.71222	53835
12.72033	61905
12.72847	57356
12.73658	59970
12.74472	64532
12.75283	59223
12.76095	70043
12.76908	72540
12.77720	70787
12.78533	69025
12.79345	62174
12.80157	61271
12.80970	61078
12.81782	60601
12.82593	56354
12.83407	57287
12.84218	59596
12.85032	47785
12.85843	54121
12.86655	52862
12.87468	46645
12.88280	52236
12.89093	47007
12.89905	50836
12.90717	50966
12.91530	48887
12.92342	51217
12.93155	50575
12.93967	46100
12.94778	49705
12.95592	48380
12.96403	44960
12.97215	44917
12.98028	45093
12.98840	49073
12.99653	47584
13.00465	50264
13.01277	49809
13.02090	51475
13.02902	47690
13.03715	54169
13.04527	47766
13.05338	53133
13.06152	48975
13.06963	44088
13.07775	46604
13.08588	45196
13.09400	49793
13.10213	48534
13.11025	51951
13.11837	48911
13.12650	47800
13.13462	49398
13.14275	45126
13.15087	53663
13.15898	46237
13.16712	49939
13.17523	50052
13.18337	54021
13.19148	48301
13.19960	52779
13.20773	58905
13.21585	57505
13.22397	60860
13.23210	65419
13.24022	65900
13.24835	63256
13.25647	64715
13.26458	57284
13.27272	62737
13.28083	55631
13.28897	55765
13.29708	53997
13.30520	51052
13.31333	48977
13.32145	51248
13.32958	49288
13.33770	47367
13.34582	48078
13.35395	48537
13.36207	50291
13.37018	51130
13.37832	50012
13.38643	48497
13.39457	46150
13.40268	48335
13.41080	49839
13.41893	47648
13.42705	46218
13.43518	51216
13.44330	46694
13.45142	48538
13.45955	46514
13.46767	50027
13.47578	49231
13.48392	51167
13.49203	46095
13.50017	50512
13.50828	48743
13.51640	44822
13.52453	46304
13.53265	50011
13.54078	45565
13.54890	48037
13.55702	44442
13.56515	49190
13.57327	50689
13.58140	47459
13.58952	48501
13.59763	48072
13.60577	45690
13.61388	49012
13.62200	48401
13.63013	50406
13.63825	48280
13.64638	48602
13.65450	46549
13.66262	50214
13.67075	49523
13.67887	45849
13.68700	49040
13.69512	45301
13.70323	47371
13.71137	45391
13.71948	43908
13.72762	45666
13.73573	48092
13.74385	51664
13.75198	43137
13.76010	48671
13.76822	45718
13.77635	44154
13.78447	44574
13.79260	46284
13.80072	46580
13.80883	47377
13.81697	48304
13.82508	50082
13.83322	49933
13.84133	49305
13.84945	52066
13.85758	50457
13.86570	51522
13.87382	47928
13.88195	46836
13.89007	45646
13.89820	50463
13.90632	49918
13.91443	53147
13.92257	47428
13.93068	51759
13.93882	51961
13.94693	54690
13.95505	54627
13.96318	58963
13.97130	63609
13.97943	56763
13.98755	56177
13.99567	52778
14.00380	52102
14.01192	54154
14.02003	53839
14.02817	52378
14.03628	50439
14.04442	49032
14.05253	47853
14.06065	50232
14.06878	47389
14.07690	48521
14.08503	53316
14.09315	55984
14.10127	64035
14.10940	57893
14.11752	60966
14.12563	56157
14.13377	56156
14.14188	59431
14.15002	51228
14.15813	53124
14.16625	53902
14.17438	49558
14.18250	48832
14.19063	53638
14.19875	58301
14.20687	67542
14.21500	91186
14.22312	139748
14.23125	212934
14.23937	291517
14.24748	343810
14.25562	336804
14.26373	304695
14.27185	260341
14.27998	231848
14.28810	200663
14.29623	171253
14.30435	165252
14.31247	150340
14.32060	144538
14.32872	125183
14.33685	120613
14.34497	117494
14.35308	117255
14.36122	106769
14.36933	102629
14.37747	95811
14.38558	85692
14.39370	78283
14.40183	71926
14.40995	65890
14.41807	60534
14.42620	61295
14.43432	60070
14.44245	61813
14.45057	58194
14.45868	56453
14.46682	56575
14.47493	57090
14.48307	56036
14.49118	55928
14.49930	55024
14.50743	54097
14.51555	57569
14.52368	59406
14.53180	55879
14.53992	57715
14.54805	62835
14.55617	57867
14.56428	57819
14.57242	58241
14.58053	58453
14.58867	55952
14.59678	57512
14.60490	57971
14.61303	59641
14.62115	52752
14.62928	54082
14.63740	52755
14.64552	52194
14.65365	50347
14.66177	47761
14.66988	51554
14.67802	48539
14.68613	48349
14.69427	53790
14.70238	49948
14.71050	47484
14.71863	46850
14.72675	57130
14.73488	50385
14.74300	50228
14.75112	51904
14.75925	52219
14.76737	49273
14.77550	49481
14.78362	50554
14.79173	49075
14.79987	50418
14.80798	50829
14.81610	55418
14.82423	56827
14.83235	75472
14.84048	101962
14.84860	132753
14.85672	174221
14.86485	208614
14.87297	227504
14.88110	234948
14.88922	228408
14.89733	218617
14.90547	205185
14.91358	198651
14.92170	187556
14.92983	179596
14.93795	173207
14.94608	166578
14.95420	167170
14.96232	163230
14.97045	149082
14.97857	145619
14.98670	150604
14.99482	142439
15.00293	134410
15.01107	132526
15.01918	133518
15.02732	137362
15.03543	131021
15.04355	124326
15.05168	116831
15.05980	115477
15.06792	121094
15.07605	117918
15.08417	113888
15.09230	115858
15.10042	109695
15.10853	106429
15.11667	109585
15.12478	107923
15.13292	101401
15.14103	105682
15.14915	98959
15.15728	94756
15.16540	90588
15.17353	87465
15.18165	78664
15.18977	77109
15.19790	68405
15.20602	71927
15.21413	66734
15.22227	64654
15.23038	62870
15.23852	65625
15.24663	58453
15.25475	61336
15.26288	65843
15.27100	59126
15.27913	61839
15.28725	60155
15.29537	59447
15.30350	59733
15.31162	60449
15.31973	58622
15.32787	60978
15.33598	52305
15.34412	56008
15.35223	55976
15.36035	56555
15.36848	56661
15.37660	56166
15.38473	60540
15.39285	51730
15.40097	59392
15.40910	56846
15.41722	57213
15.42535	55433
15.43347	54777
15.44158	63213
15.44972	56727
15.45783	61926
15.46595	55926
15.47408	53084
15.48220	55792
15.49033	57846
15.49845	51029
15.50657	56531
15.51470	49086
15.52282	58690
15.53095	57873
15.53907	55774
15.54718	58941
15.55532	55340
15.56343	56919
15.57157	52880
15.57968	52729
15.58780	51829
15.59593	53340
15.60405	54278
15.61217	47222
15.62030	52754
15.62842	54239
15.63655	48170
15.64467	47756
15.65278	56418
15.66092	51213
15.66903	52625
15.67717	49707
15.68528	51284
15.69340	49423
15.70153	55361
15.70965	50501
15.71777	54554
15.72590	51713
15.73402	48312
15.74215	51727
15.75027	46630
15.75838	51470
15.76652	49772
15.77463	54648
15.78277	50943
15.79088	55085
15.79900	55948
15.80713	58152
15.81525	62607
15.82338	63101
15.83150	69415
15.83962	66682
15.84775	67301
15.85587	65138
15.86398	63143
15.87212	60762
15.88023	59581
15.88837	60106
15.89648	62144
15.90460	60489
15.91273	60517
15.92085	59159
15.92898	64073
15.93710	59354
15.94522	60738
15.95335	58668
15.96147	59974
15.96958	61919
15.97772	57951
15.98583	51568
15.99397	57383
16.00208	59560
16.01020	57631
16.01833	67325
16.02645	72131
16.03458	80601
16.04270	96159
16.05082	105570
16.05895	109909
16.06707	107433
16.07520	93956
16.08332	85871
16.09143	76524
16.09957	65057
16.10768	64645
16.11580	55952
16.12393	61912
16.13205	60799
16.14018	55798
16.14830	55333
16.15642	55226
16.16455	58220
16.17267	57884
16.18080	53511
16.18892	51863
16.19703	56161
16.20517	53718
16.21328	55613
16.22142	57716
16.22953	56100
16.23765	55116
16.24578	57295
16.25390	56935
16.26202	55304
16.27015	57834
16.27827	57623
16.28640	56153
16.29452	51052
16.30263	51327
16.31077	56015
16.31888	57240
16.32702	54873
16.33513	54104
16.34325	57101
16.35138	56762
16.35950	52747
16.36762	58371
16.37575	58269
16.38387	58110
16.39200	58725
16.40012	56544
16.40823	57888
16.41637	60476
16.42448	56923
16.43262	55736
16.44073	51328
16.44885	51430
16.45698	56949
16.46510	48153
16.47323	55733
16.48135	55653
16.48947	60168
16.49760	68753
16.50572	71818
16.51383	78090
16.52197	87171
16.53008	86585
16.53822	84180
16.54633	85547
16.55445	80872
16.56258	76136
16.57070	72948
16.57883	74421
16.58695	69636
16.59507	67531
16.60320	71617
16.61132	71292
16.61945	66752
16.62757	69168
16.63568	64260
16.64382	64408
16.65193	67780
16.66005	68197
16.66818	66425
16.67630	62363
16.68443	62717
16.69255	61309
16.70067	63139
16.70880	59932
16.71692	59180
16.72505	58151
16.73317	53164
16.74128	59177
16.74942	53668
16.75753	52401
16.76565	49808
16.77378	48991
16.78190	51797
16.79003	51501
16.79815	53248
16.80627	49509
16.81440	48584
16.82252	49308
16.83065	52705
16.83877	53496
16.84688	51613
16.85502	52470
16.86313	50090
16.87127	50661
16.87938	49113
16.88750	49242
16.89563	52172
16.90375	51570
16.91187	52728
16.92000	49734
16.92812	46068
16.93625	52846
16.94437	46458
16.95248	49298
16.96062	49637
16.96873	49565
16.97687	49712
16.98498	51512
16.99310	44578
17.00123	46420
17.00935	48058
17.01747	45077
17.02560	47049
17.03372	50303
17.04185	53080
17.04997	44619
17.05808	48619
17.06622	48404
17.07433	53535
17.08247	48354
17.09058	50935
17.09870	51876
17.10683	52103
17.11495	52241
17.12308	53969
17.13120	50776
17.13932	51229
17.14745	47037
17.15557	49693
17.16368	49705
17.17182	48397
17.17993	49592
17.18807	50687
17.19618	50036
17.20430	49350
17.21243	52863
17.22055	48665
17.22868	48565
17.23680	51200
17.24492	49954
17.25305	46225
17.26117	48747
17.26930	50897
17.27742	52286
17.28553	53775
17.29367	46336
17.30178	49726
17.30990	45248
17.31803	51517
17.32615	49461
17.33428	50543
17.34240	50766
17.35052	50444
17.35865	56595
17.36677	62576
17.37490	66034
17.38302	74598
17.39113	82104
17.39927	89672
17.40738	87138
17.41550	82980
17.42363	77795
17.43175	83009
17.43988	76283
17.44800	78689
17.45612	74172
17.46425	72891
17.47237	72954
17.48050	71528
17.48862	67792
17.49673	65708
17.50487	67549
17.51298	66664
17.52112	66673
17.52923	67031
17.53735	67455
17.54548	68185
17.55360	69647
17.56172	68404
17.56985	69931
17.57797	66432
17.58610	59970
17.59422	61701
17.60233	58650
17.61047	58822
17.61858	59311
17.62672	53422
17.63483	60695
17.64295	60217
17.65108	59916
17.65920	58072
17.66733	59630
17.67545	56465
17.68357	61820
17.69170	58586
17.69982	57200
17.70793	62395
17.71607	61866
17.72418	65077
17.73232	57037
17.74043	61481
17.74855	61570
17.75668	61806
17.76480	59050
17.77293	53698
17.78105	55383
17.78917	55750
17.79730	55764
17.80542	55257
17.81353	58090
17.82167	51141
17.82978	52104
17.83792	56544
17.84603	60042
17.85415	55273
17.86228	55056
17.87040	58184
17.87853	52663
17.88665	55359
17.89477	58394
17.90290	53033
17.91102	53109
17.91915	54019
17.92727	52878
17.93538	48099
17.94352	50925
17.95163	53290
17.95975	49170
17.96788	45507
17.97600	48769
17.98413	46136
17.99225	51042
18.00037	46241
18.00850	46730
18.01662	47765
18.02475	47502
18.03287	51294
18.04098	47897
18.04912	51317
18.05723	49315
18.06537	56556
18.07348	56751
18.08160	60354
18.08973	79919
18.09785	104346
18.10597	151652
18.11410	216483
18.12222	288837
18.13035	324328
18.13847	361965
18.14658	347710
18.15472	331337
18.16283	317375
18.17097	308183
18.17908	308688
18.18720	275275
18.19533	263529
18.20345	253416
18.21157	237626
18.21970	233968
18.22782	220464
18.23595	218920
18.24407	207966
18.25218	191490
18.26032	190937
18.26843	180726
18.27657	180943
18.28468	169287
18.29280	152238
18.30093	130635
18.30905	115482
18.31718	91894
18.32530	88352
18.33342	78768
18.34155	73749
18.34967	72491
18.35778	70159
18.36592	68242
18.37403	71927
18.38217	71733
18.39028	66018
18.39840	69939
18.40653	63317
18.41465	66543
18.42278	65591
18.43090	59525
18.43902	66586
18.44715	61845
18.45527	60693
18.46338	62150
18.47152	61131
18.47963	64913
18.48777	66451
18.49588	65647
18.50400	60295
18.51213	66058
18.52025	57116
18.52838	56196
18.53650	58902
18.54462	59482
18.55275	58767
18.56087	57983
18.56900	56100
18.57712	51644
18.58523	54534
18.59337	56778
18.60148	56531
18.60960	56243
18.61773	55144
18.62585	55738
18.63398	57507
18.64210	54061
18.65022	54820
18.65835	55814
18.66647	56127
18.67460	52406
18.68272	58708
18.69083	54036
18.69897	51424
18.70708	52082
18.71522	55650
18.72333	51015
18.73145	54670
18.73958	55322
18.74770	53279
18.75582	50693
18.76395	54794
18.77207	53119
18.78020	53200
18.78832	58562
18.79643	56282
18.80457	51874
18.81268	53441
18.82082	53200
18.82893	54499
18.83705	55458
18.84518	54036
18.85330	56223
18.86142	54501
18.86955	53166
18.87767	52018
18.88580	51478
18.89392	55222
18.90203	51519
18.91017	51821
18.91828	56733
18.92642	54461
18.93453	57251
18.94265	54561
18.95078	57638
18.95890	56761
18.96703	58819
18.97515	60992
18.98327	60356
18.99140	55914
18.99952	59469
19.00763	56222
19.01577	52149
19.02388	57739
19.03202	59293
19.04013	53185
19.04825	55290
19.05638	49989
19.06450	55366
19.07263	51206
19.08075	51695
19.08887	52727
19.09700	54122
19.10512	59250
19.11325	60385
19.12137	60061
19.12948	65342
19.13762	68347
19.14573	63520
19.15385	64016
19.16198	61586
19.17010	62092
19.17823	62323
19.18635	62904
19.19447	60248
19.20260	58058
19.21072	57757
19.21885	58022
19.22697	53523
19.23508	57405
19.24322	55280
19.25133	57186
19.25945	56027
19.26758	54996
19.27570	56553
19.28383	61202
19.29195	63274
19.30007	75054
19.30820	75345
19.31632	89465
19.32445	87132
19.33257	78538
19.34068	75754
19.34882	73154
19.35693	68128
19.36507	66199
19.37318	60597
19.38130	64169
19.38943	65848
19.39755	69322
19.40567	70089
19.41380	73687
19.42192	74693
19.43005	78703
19.43817	77392
19.44628	76039
19.45442	72812
19.46253	71226
19.47067	70448
19.47878	70533
19.48690	71799
19.49503	74562
19.50315	81875
19.51127	91104
19.51940	119545
19.52752	145553
19.53565	174712
19.54377	206402
19.55188	210516
19.56002	196171
19.56813	152249
19.57627	118486
19.58438	92903
19.59250	81224
19.60063	74278
19.60875	67549
19.61688	63585
19.62500	63930
19.63312	66128
19.64125	67813
19.64937	79982
19.65748	109704
19.66562	167783
19.67373	272902
19.68187	431795
19.68998	626115
19.69810	756879
19.70623	798846
19.71435	708584
19.72248	557992
19.73060	421629
19.73872	297747
19.74685	231288
19.75497	190068
19.76310	157226
19.77122	139098
19.77933	121432
19.78747	120747
19.79558	102108
19.80370	103856
19.81183	98583
19.81995	87856
19.82808	85969
19.83620	84970
19.84432	80371
19.85245	80645
19.86057	77599
19.86870	77788
19.87682	75832
19.88493	75419
19.89307	78955
19.90118	86619
19.90932	96857
19.91743	110933
19.92555	129110
19.93368	136690
19.94180	147635
19.94992	145823
19.95805	146014
19.96617	141665
19.97430	131640
19.98242	127405
19.99053	123753
19.99867	123206
20.00678	116454
20.01492	124443
20.02303	114111
20.03115	115360
20.03928	105552
20.04740	105915
20.05552	100402
20.06365	97111
20.07177	85171
20.07990	84953
20.08802	79841
20.09613	76160
20.10427	70565
20.11238	76226
20.12052	75368
20.12863	72149
20.13675	71345
20.14488	74133
20.15300	67713
20.16113	73778
20.16925	67985
20.17737	68056
20.18550	64533
20.19362	65506
20.20173	69962
20.20987	70879
20.21798	67934
20.22612	74461
20.23423	66036
20.24235	76455
20.25048	67658
20.25860	84709
20.26673	96310
20.27485	131327
20.28297	200760
20.29110	311709
20.29922	446943
20.30733	579051
20.31547	640978
20.32358	629470
20.33172	511718
20.33983	402107
20.34795	297846
20.35608	213321
20.36420	169249
20.37233	145949
20.38045	119076
20.38857	110232
20.39670	97806
20.40482	89840
20.41295	88902
20.42107	88978
20.42918	92116
20.43732	101677
20.44543	122374
20.45355	153324
20.46168	187888
20.46980	202488
20.47793	221895
20.48605	208033
20.49417	190390
20.50230	163505
20.51042	135718
20.51855	112574
20.52667	102417
20.53478	96790
20.54292	85287
20.55103	87581
20.55917	78381
20.56728	76571
20.57540	80181
20.58353	72612
20.59165	74404
20.59977	72337
20.60790	71523
20.61602	71878
20.62415	67822
20.63227	70486
20.64038	66946
20.64852	67860
20.65663	67146
20.66477	66334
20.67288	67973
20.68100	73287
20.68913	74803
20.69725	69224
20.70537	67769
20.71350	67052
20.72162	67865
20.72975	65897
20.73787	65186
20.74598	68049
20.75412	61360
20.76223	63343
20.77037	69558
20.77848	66528
20.78660	69471
20.79473	68999
20.80285	65849
20.81098	66641
20.81910	65727
20.82722	64836
20.83535	62899
20.84347	70039
20.85158	65424
20.85972	71950
20.86783	68139
20.87597	70235
20.88408	72120
20.89220	70845
20.90033	63174
20.90845	67049
20.91658	64120
20.92470	66357
20.93282	62917
20.94095	64655
20.94907	65891
20.95720	66946
20.96532	60973
20.97343	59923
20.98157	53322
20.98968	60035
20.99780	63171
21.00593	63588
21.01405	65112
21.02218	58982
21.03030	59352
21.03842	59808
21.04655	61415
21.05467	54625
21.06280	61743
21.07092	63099
21.07903	62812
21.08717	64729
21.09528	62322
21.10340	58575
21.11153	57983
21.11965	58123
21.12778	59486
21.13590	65848
21.14402	64407
21.15215	67519
21.16027	75647
21.16840	78620
21.17652	81129
21.18463	85590
21.19277	89161
21.20088	92494
21.20902	96202
21.21713	96955
21.22525	90116
21.23338	89170
21.24150	88165
21.24962	91733
21.25775	88890
21.26587	86884
21.27400	91273
21.28212	91835
21.29023	91950
21.29837	89072
21.30648	90319
21.31462	86799
21.32273	85196
21.33085	84887
21.33898	83834
21.34710	83233
21.35522	80571
21.36335	77347
21.37147	86861
21.37960	82979
21.38772	84629
21.39583	82819
21.40397	80099
21.41208	77296
21.42022	82170
21.42833	89649
21.43645	90392
21.44458	91024
21.45270	94064
21.46083	102025
21.46895	93043
21.47707	91421
21.48520	90106
21.49332	85390
21.50143	93756
21.50957	86564
21.51768	87221
21.52582	84802
21.53393	80527
21.54205	79492
21.55018	80500
21.55830	79664
21.56643	76972
21.57455	84893
21.58267	87204
21.59080	81589
21.59892	86798
21.60705	86457
21.61517	90217
21.62328	86519
21.63142	98557
21.63953	112345
21.64765	148141
21.65578	189357
21.66390	232205
21.67203	277474
21.68015	283730
21.68827	264982
21.69640	225504
21.70452	182006
21.71265	148735
21.72077	123351
21.72888	102851
21.73702	97567
21.74513	97602
21.75325	96138
21.76138	88259
21.76950	88711
21.77763	85632
21.78575	92736
21.79387	88141
21.80200	89126
21.81012	87520
21.81825	89894
21.82637	94572
21.83448	100568
21.84262	122671
21.85073	170964
21.85887	203902
21.86698	248391
21.87510	270435
21.88323	253905
21.89135	218877
21.89947	171700
21.90760	134481
21.91572	117232
21.92385	102809
21.93197	92026
21.94008	87158
21.94822	87472
21.95633	84191
21.96447	82808
21.97258	83927
21.98070	87543
21.98883	80433
21.99695	76613
22.00508	76112
22.01320	78496
22.02132	79028
22.02945	81954
22.03757	73010
22.04568	67916
22.05382	75364
22.06193	74433
22.07007	70097
22.07818	74131
22.08630	72393
22.09443	72536
22.10255	74055
22.11068	73204
22.11880	71327
22.12692	71123
22.13505	73483
22.14317	73313
22.15128	72595
22.15942	71859
22.16753	76209
22.17567	72664
22.18378	77237
22.19190	74530
22.20003	79214
22.20815	79312
22.21628	80054
22.22440	77198
22.23252	78864
22.24065	91610
22.24877	95878
22.25690	105634
22.26502	104862
22.27313	103118
22.28127	95035
22.28938	88051
22.29750	87681
22.30563	84827
22.31375	74712
22.32188	77668
22.33000	82428
22.33812	73933
22.34625	74092
22.35437	73647
22.36250	69081
22.37062	69465
22.37873	67442
22.38687	64716
22.39498	67574
22.40312	67594
22.41123	62840
22.41935	63474
22.42748	69364
22.43560	66197
22.44372	70549
22.45185	67564
22.45997	74574
22.46810	67889
22.47622	74837
22.48433	70991
22.49247	71348
22.50058	73358
22.50872	70960
22.51683	69514
22.52495	69457
22.53308	75443
22.54120	75526
22.54932	66899
22.55745	76998
22.56557	73633
22.57370	70430
22.58182	68876
22.58993	73377
22.59807	66159
22.60618	69170
22.61432	67080
22.62243	66772
22.63055	69621
22.63868	62922
22.64680	62321
22.65493	60923
22.66305	61513
22.67117	65294
22.67930	64237
22.68742	59682
22.69553	61332
22.70367	66780
22.71178	63081
22.71992	66105
22.72803	67746
22.73615	69292
22.74428	68845
22.75240	78182
22.76053	73567
22.76865	69103
22.77677	75307
22.78490	64366
22.79302	68994
22.80113	67482
22.80927	68618
22.81738	66314
22.82552	74778
22.83363	71557
22.84175	76878
22.84988	74825
22.85800	75239
22.86613	75487
22.87425	83468
22.88237	79548
22.89050	80972
22.89862	81729
22.90675	84879
22.91487	75145
22.92298	83301
22.93112	91668
22.93923	97246
22.94735	105220
22.95548	117784
22.96360	128137
22.97173	126376
22.97985	130540
22.98797	114414
22.99610	114753
23.00422	104612
23.01235	91110
23.02047	90824
23.02858	83639
23.03672	78695
23.04483	73357
23.05297	66159
23.06108	65358
23.06920	66752
23.07733	62769
23.08545	60411
23.09357	62095
23.10170	61287
23.10982	60908
23.11795	64067
23.12607	61350
23.13418	58997
23.14232	57423
23.15043	57097
23.15857	55308
23.16668	55889
23.17480	55425
23.18293	57309
23.19105	58231
23.19917	58951
23.20730	59871
23.21542	51586
23.22355	56349
23.23167	52738
23.23978	51156
23.24792	53797
23.25603	54522
23.26417	56634
23.27228	53775
23.28040	53179
23.28853	54444
23.29665	55311
23.30478	52632
23.31290	53866
23.32102	59080
23.32915	58048
23.33727	53654
23.34538	49386
23.35352	50824
23.36163	55972
23.36977	56068
23.37788	52768
23.38600	54595
23.39413	55948
23.40225	58827
23.41038	57781
23.41850	61134
23.42662	58164
23.43475	58127
23.44287	56537
23.45100	55941
23.45912	55574
23.46723	52018
23.47537	56055
23.48348	53206
23.49160	54379
23.49973	51409
23.50785	50380
23.51598	51025
23.52410	52740
23.53222	51913
23.54035	47740
23.54847	51605
23.55660	58714
23.56472	55162
23.57283	60309
23.58097	54544
23.58908	61985
23.59720	58939
23.60533	60524
23.61345	59084
23.62158	57433
23.62970	62494
23.63782	54894
23.64595	55138
23.65407	57057
23.66220	59559
23.67032	54383
23.67843	60291
23.68657	62123
23.69468	62822
23.70282	63075
23.71093	63382
23.71905	69203
23.72718	62948
23.73530	63457
23.74342	65566
23.75155	63448
23.75967	98310
23.76780	205425
23.77592	530768
23.78403	1315928
23.79217	2700326
23.80028	4520965
23.80842	5797095
23.81653	6337737
23.82465	5554708
23.83278	4391549
23.84090	3184177
23.84902	2160659
23.85715	1492425
23.86527	1055700
23.87340	822453
23.88152	649697
23.88963	556577
23.89777	483041
23.90588	425391
23.91402	387292
23.92213	348937
23.93025	328320
23.93838	308801
23.94650	284544
23.95463	274363
23.96275	248363
23.97087	240821
23.97900	231580
23.98712	222140
23.99523	211644
24.00337	198452
24.01148	194925
24.01962	188884
24.02773	186013
24.03585	180670
24.04398	169736
24.05210	171361
24.06023	170259
24.06835	165149
24.07647	160664
24.08460	158496
24.09272	156347
24.10085	148121
24.10897	142029
24.11708	138737
24.12522	136557
24.13333	134217
24.14145	139085
24.14958	140508
24.15770	150376
24.16583	160873
24.17395	171745
24.18207	175424
24.19020	165201
24.19832	157099
24.20645	147247
24.21457	148650
24.22268	141469
24.23082	145808
24.23893	160326
24.24707	161809
24.25518	179692
24.26330	176287
24.27143	169341
24.27955	146884
24.28767	136653
24.29580	126467
24.30392	120301
24.31205	112988
24.32017	106150
24.32828	117299
24.33642	107540
24.34453	101714
24.35267	99670
24.36078	105925
24.36890	98309
24.37703	107733
24.38515	107952
24.39327	103734
24.40140	113845
24.40952	117769
24.41765	134540
24.42577	148832
24.43388	161631
24.44202	175008
24.45013	156423
24.45827	139215
24.46638	117896
24.47450	105428
24.48263	95699
24.49075	96035
24.49888	98025
24.50700	96130
24.51512	101237
24.52325	116681
24.53137	125211
24.53948	146889
24.54762	155763
24.55573	165728
24.56387	152811
24.57198	147647
24.58010	123863
24.58823	120916
24.59635	110299
24.60448	110564
24.61260	106016
24.62072	104536
24.62885	106877
24.63697	94511
24.64508	94813
24.65322	95314
24.66133	93695
24.66947	93671
24.67758	95860
24.68570	94807
24.69383	104330
24.70195	98818
24.71008	94404
24.71820	91639
24.72632	89931
24.73445	87368
24.74257	84830
24.75070	81365
24.75882	83728
24.76693	78282
24.77507	83370
24.78318	85992
24.79130	76319
24.79943	81431
24.80755	78564
24.81568	82967
24.82380	75498
24.83192	80004
24.84005	76628
24.84817	76176
24.85630	77945
24.86442	78947
24.87253	77903
24.88067	82963
24.88878	83519
24.89692	86271
24.90503	90444
24.91315	86589
24.92128	83850
24.92940	86099
24.93752	83288
24.94565	83907
24.95377	82651
24.96190	75662
24.97002	73144
24.97813	72573
24.98627	74785
24.99438	68373
25.00252	73586
25.01063	74310
25.01875	67359
25.02688	68018
25.03500	71412
25.04312	69964
25.05125	74532
25.05937	72295
25.06750	69768
25.07562	71802
25.08373	71658
25.09187	71965
25.09998	66525
25.10812	72431
25.11623	73142
25.12435	75473
25.13248	90203
25.14060	105299
25.14873	145416
25.15685	204234
25.16497	269990
25.17310	320089
25.18122	346413
25.18933	337763
25.19747	290926
25.20558	235296
25.21372	184518
25.22183	143814
25.22995	118312
25.23808	104451
25.24620	94385
25.25433	89503
25.26245	81825
25.27057	84926
25.27870	87395
25.28682	83480
25.29495	81421
25.30307	85886
25.31118	90183
25.31932	90900
25.32743	93195
25.33555	92288
25.34368	98316
25.35180	95426
25.35993	84896
25.36805	85256
25.37617	84489
25.38430	75885
25.39242	67722
25.40055	69809
25.40867	67022
25.41678	66240
25.42492	68702
25.43303	67400
25.44115	65853
25.44928	68597
25.45740	65893
25.46553	63998
25.47365	66565
25.48177	68855
25.48990	73874
25.49802	73993
25.50615	81431
25.51427	88872
25.52238	86742
25.53052	76800
25.53863	84443
25.54677	78209
25.55488	71125
25.56300	67456
25.57113	67376
25.57925	67878
25.58737	67475
25.59550	64622
25.60362	66706
25.61175	67851
25.61987	65801
25.62798	65281
25.63612	63275
25.64423	61116
25.65237	60720
25.66048	61888
25.66860	59596
25.67673	59702
25.68485	60763
25.69297	59278
25.70110	61997
25.70922	62621
25.71735	68532
25.72547	67038
25.73358	66039
25.74172	67159
25.74983	62920
25.75797	67086
25.76608	67204
25.77420	64879
25.78233	62334
25.79045	62476
25.79858	56949
25.80670	66403
25.81482	68844
25.82295	65591
25.83107	68088
25.83918	60045
25.84732	64379
25.85543	68170
25.86357	65657
25.87168	66988
25.87980	59022
25.88793	61142
25.89605	65395
25.90418	62152
25.91230	55452
25.92042	61965
25.92855	57795
25.93667	66532
25.94480	61376
25.95292	59879
25.96103	61903
25.96917	59429
25.97728	61368
25.98540	58934
25.99353	58296
26.00165	57724
26.00978	57696
26.01790	56537
26.02602	57896
26.03415	61345
26.04227	60947
26.05040	55583
26.05852	54700
26.06663	58080
26.07477	58923
26.08288	60987
26.09100	62641
26.09913	62299
26.10725	69340
26.11538	65915
26.12350	66425
26.13162	71464
26.13975	77836
26.14787	71303
26.15600	79650
26.16412	82949
26.17223	90430
26.18037	89317
26.18848	87045
26.19662	84947
26.20473	79483
26.21285	74525
26.22098	75922
26.22910	68005
26.23722	63962
26.24535	67455
26.25347	62858
26.26160	60634
26.26972	60911
26.27783	61598
26.28597	64759
26.29408	62650
26.30222	69074
26.31033	62120
26.31845	63127
26.32658	61978
26.33470	62846
26.34283	57428
26.35095	59930
26.35907	61018
26.36720	61699
26.37532	63623
26.38343	70380
26.39157	71852
26.39968	88143
26.40782	114724
26.41593	126857
26.42405	148949
26.43218	149150
26.44030	144165
26.44843	138550
26.45655	123179
26.46467	106696
26.47280	92824
26.48092	81216
26.48903	71330
26.49717	69318
26.50528	68507
26.51342	63462
26.52153	63246
26.52965	59914
26.53778	62307
26.54590	56806
26.55403	60356
26.56215	58854
26.57027	56705
26.57840	58416
26.58652	56915
26.59465	52985
26.60277	55126
26.61088	57921
26.61902	62424
26.62713	61554
26.63525	58878
26.64338	60597
26.65150	57228
26.65963	55311
26.66775	57106
26.67587	62346
26.68400	58585
26.69212	58472
26.70025	60542
26.70837	53875
26.71648	59139
26.72462	58849
26.73273	56460
26.74085	60069
26.74898	63020
26.75710	60744
26.76523	56885
26.77335	60094
26.78147	60386
26.78960	63455
26.79772	62697
26.80585	63212
26.81397	60464
26.82208	59178
26.83022	63068
26.83833	57859
26.84647	60332
26.85458	70540
26.86270	59721
26.87083	65618
26.87895	66081
26.88707	67278
26.89520	68001
26.90332	68657
26.91145	72394
26.91957	70191
26.92768	62219
26.93582	62645
26.94393	61604
26.95207	69793
26.96018	64126
26.96830	69397
26.97643	92365
26.98455	138659
26.99268	293940
27.00080	635942
27.00892	1386587
27.01705	2689244
27.02517	4281196
27.03328	5444495
27.04142	5594469
27.04953	4950387
27.05767	3981791
27.06578	2956265
27.07390	2080902
27.08203	1465064
27.09015	1062149
27.09828	827679
27.10640	676776
27.11452	563531
27.12265	509477
27.13077	443002
27.13888	398885
27.14702	366743
27.15513	352471
27.16327	318762
27.17138	296644
27.17950	278126
27.18763	265191
27.19575	266206
27.20388	248040
27.21200	247451
27.22012	240139
27.22825	243365
27.23637	230505
27.24450	229647
27.25262	225076
27.26073	199879
27.26887	194343
27.27698	185794
27.28510	180220
27.29323	168956
27.30135	164106
27.30948	160762
27.31760	152011
27.32572	147869
27.33385	146436
27.34197	142845
27.35010	139753
27.35822	144704
27.36633	138293
27.37447	140942
27.38258	135124
27.39072	131994
27.39883	126588
27.40695	134474
27.41508	122504
27.42320	123098
27.43132	118118
27.43945	119022
27.44757	124412
27.45570	119217
27.46382	113818
27.47193	114161
27.48007	118859
27.48818	104910
27.49632	110700
27.50443	114294
27.51255	108009
27.52068	105210
27.52880	110532
27.53692	104675
27.54505	103848
27.55317	104879
27.56130	108246
27.56942	113130
27.57753	116055
27.58567	104388
27.59378	107421
27.60192	108479
27.61003	107899
27.61815	102047
27.62628	100509
27.63440	104299
27.64253	111592
27.65065	100732
27.65877	100758
27.66690	101472
27.67502	96106
27.68313	95111
27.69127	89319
27.69938	93801
27.70752	92965
27.71563	91598
27.72375	90704
27.73188	88088
27.74000	91506
27.74813	92190
27.75625	85564
27.76437	83102
27.77250	80783
27.78062	87293
27.78875	84983
27.79687	80992
27.80498	81515
27.81312	90232
27.82123	80024
27.82935	86034
27.83748	84609
27.84560	81783
27.85373	83958
27.86185	84143
27.86997	81031
27.87810	80413
27.88622	83395
27.89435	86534
27.90247	83897
27.91058	81144
27.91872	77183
27.92683	76065
27.93495	76787
27.94308	75302
27.95120	73077
27.95933	76377
27.96745	77930
27.97557	79025
27.98370	82518
27.99182	78574
27.99995	77082
28.00807	80821
28.01618	80265
28.02432	74927
28.03243	81769
28.04057	77179
28.04868	80373
28.05680	89131
28.06493	83904
28.07305	92847
28.08117	90930
28.08930	90842
28.09742	88789
28.10555	84329
28.11367	83058
28.12178	77416
28.12992	77654
28.13803	76465
28.14617	79534
28.15428	76001
28.16240	74536
28.17053	73193
28.17865	72234
28.18677	77329
28.19490	78473
28.20302	81044
28.21115	79833
28.21927	76030
28.22738	86424
28.23552	96979
28.24363	101010
28.25177	97695
28.25988	102141
28.26800	91734
28.27613	85896
28.28425	80373
28.29238	82211
28.30050	79675
28.30862	88587
28.31675	100362
28.32487	115951
28.33298	159922
28.34112	244339
28.34923	338270
28.35737	489604
28.36548	652719
28.37360	809110
28.38173	956361
28.38985	1056440
28.39798	1073410
28.40610	1020203
28.41422	967148
28.42235	846089
28.43047	731713
28.43860	634072
28.44672	531721
28.45483	463428
28.46297	398138
28.47108	357291
28.47920	311703
28.48733	288803
28.49545	260783
28.50358	252635
28.51170	227061
28.51982	219734
28.52795	203459
28.53607	186789
28.54420	184243
28.55232	179194
28.56043	165662
28.56857	163157
28.57668	155128
28.58480	153516
28.59293	147022
28.60105	147174
28.60918	143038
28.61730	134488
28.62542	134970
28.63355	128588
28.64167	134701
28.64980	132940
28.65792	135318
28.66603	141706
28.67417	137117
28.68228	142889
28.69042	141530
28.69853	141409
28.70665	131888
28.71478	124528
28.72290	124414
28.73102	116439
28.73915	115028
28.74727	113689
28.75540	105216
28.76352	106357
28.77163	110978
28.77977	114926
28.78788	117622
28.79602	118483
28.80413	133063
28.81225	130165
28.82038	133661
28.82850	127059
28.83663	109310
28.84475	104714
28.85287	106442
28.86100	97615
28.86912	98953
28.87723	99866
28.88537	93041
28.89348	98407
28.90162	92604
28.90973	95770
28.91785	94369
28.92598	95931
28.93410	93261
28.94223	93682
28.95035	94515
28.95847	95168
28.96660	96307
28.97472	100848
28.98283	95891
28.99097	95597
28.99908	94285
29.00722	97879
29.01533	91283
29.02345	92271
29.03158	87696
29.03970	90278
29.04783	91544
29.05595	85918
29.06407	84816
29.07220	85521
29.08032	87668
29.08845	84476
29.09657	82410
29.10468	89959
29.11282	84908
29.12093	81301
29.12905	83144
29.13718	90100
29.14530	83058
29.15343	81827
29.16155	83020
29.16967	83329
29.17780	90235
29.18592	89264
29.19405	81168
29.20217	82956
29.21028	87267
29.21842	90802
29.22653	90894
29.23465	95556
29.24278	84752
29.25090	87385
29.25903	81526
29.26715	85655
29.27527	87745
29.28340	86923
29.29152	86636
29.29965	77820
29.30777	83236
29.31588	79921
29.32402	84572
29.33213	78106
29.34027	78370
29.34838	75835
29.35650	76654
29.36463	72350
29.37275	79798
29.38087	79523
29.38900	75675
29.39712	77159
29.40525	83031
29.41337	76957
29.42148	77271
29.42962	76692
29.43773	77354
29.44587	74039
29.45398	77321
29.46210	74062
29.47023	76159
29.47835	70954
29.48648	74610
29.49460	82377
29.50272	79991
29.51085	87721
29.51897	90009
29.52708	90752
29.53522	95440
29.54333	89276
29.55147	84832
29.55958	82500
29.56770	76552
29.57583	76362
29.58395	73927
29.59208	69441
29.60020	71584
29.60832	69535
29.61645	63846
29.62457	71751
29.63270	62598
29.64082	68852
29.64893	69468
29.65707	71706
29.66518	73732
29.67330	68027
29.68143	70121
29.68955	69952
29.69768	69413
29.70580	65661
29.71392	63248
29.72205	61897
29.73017	64432
29.73830	61772
29.74642	65403
29.75453	65688
29.76267	61999
29.77078	64879
29.77890	68844
29.78703	65642
29.79515	62493
29.80328	65782
29.81140	61273
29.81952	63453
29.82765	60245
29.83577	63645
29.84390	62442
29.85202	59170
29.86013	67441
29.86827	58638
29.87638	64311
29.88452	65019
29.89263	64751
29.90075	68117
29.90888	73074
29.91700	75918
29.92512	72444
29.93325	77697
29.94137	84710
29.94950	73078
29.95762	73558
29.96573	73347
29.97387	84462
29.98198	95320
29.99012	113817
29.99823	146897
30.00635	186021
30.01448	236892
30.02260	273579
30.03072	304222
30.03885	359857
30.04697	388405
30.05510	396625
30.06322	409636
30.07133	414334
30.07947	408072
30.08758	402607
30.09572	381100
30.10383	333599
30.11195	306395
30.12008	283550
30.12820	258910
30.13633	244820
30.14445	219628
30.15257	195426
30.16070	185247
30.16882	177926
30.17693	173355
30.18507	158846
30.19318	150321
30.20132	149494
30.20943	141624
30.21755	135502
30.22568	122216
30.23380	118722
30.24193	118097
30.25005	113113
30.25817	111122
30.26630	103939
30.27442	104686
30.28255	100158
30.29067	99019
30.29878	99406
30.30692	98823
30.31503	95935
30.32315	90444
30.33128	92786
30.33940	89241
30.34753	88636
30.35565	88825
30.36377	86851
30.37190	85689
30.38002	84526
30.38815	84920
30.39627	91531
30.40438	85334
30.41252	86875
30.42063	86806
30.42875	79241
30.43688	78707
30.44500	77732
30.45313	83382
30.46125	80701
30.46937	82580
30.47750	75928
30.48562	70488
30.49375	78209
30.50187	81350
30.50998	74951
30.51812	77695
30.52623	69804
30.53437	77579
30.54248	71216
30.55060	74815
30.55873	73579
30.56685	74086
30.57497	73031
30.58310	73704
30.59122	77690
30.59935	78468
30.60747	73357
30.61558	71677
30.62372	72062
30.63183	72125
30.63997	71607
30.64808	67993
30.65620	70999
30.66433	74764
30.67245	69148
30.68058	70044
30.68870	67898
30.69682	68719
30.70495	67127
30.71307	63889
30.72118	70493
30.72932	64604
30.73743	68064
30.74557	68285
30.75368	69289
30.76180	70891
30.76993	69661
30.77805	64209
30.78618	62303
30.79430	69060
30.80242	73088
30.81055	81555
30.81867	87824
30.82678	87949
30.83492	90262
30.84303	94517
30.85117	89020
30.85928	77024
30.86740	74380
30.87553	74390
30.88365	66767
30.89178	75703
30.89990	70989
30.90802	64447
30.91615	63911
30.92427	66505
30.93240	66276
30.94052	69058
30.94863	66615
30.95677	65934
30.96488	63190
30.97300	61167
30.98113	64708
30.98925	61042
30.99738	61626
31.00550	59954
31.01362	67817
31.02175	64196
31.02987	68723
31.03800	60511
31.04612	66444
31.05423	68496
31.06237	66381
31.07048	66234
31.07860	65259
31.08673	66640
31.09485	65840
31.10298	65936
31.11110	78102
31.11922	83768
31.12735	92987
31.13547	85312
31.14360	84723
31.15172	77812
31.15983	76846
31.16797	74738
31.17608	78461
31.18422	87271
31.19233	109996
31.20045	140647
31.20858	202983
31.21670	330513
31.22482	490300
31.23295	681613
31.24107	788581
31.24920	817913
31.25732	735416
31.26543	547984
31.27357	370655
31.28168	248421
31.28982	165192
31.29793	120080
31.30605	93566
31.31418	82370
31.32230	78699
31.33043	76509
31.33855	77262
31.34667	76129
31.35480	71881
31.36292	68793
31.37103	73619
31.37917	67184
31.38728	68147
31.39542	65591
31.40353	66169
31.41165	69079
31.41978	64722
31.42790	65501
31.43603	68043
31.44415	71168
31.45227	73722
31.46040	77476
31.46852	80876
31.47663	73586
31.48477	71700
31.49288	64507
31.50102	66309
31.50913	64583
31.51725	70062
31.52538	66727
31.53350	69999
31.54163	63077
31.54975	66674
31.55787	67211
31.56600	68967
31.57412	68397
31.58225	75657
31.59037	68412
31.59848	62806
31.60662	61593
31.61473	67014
31.62285	62442
31.63098	68368
31.63910	65067
31.64723	61194
31.65535	65655
31.66347	68864
31.67160	70098
31.67972	70710
31.68785	74390
31.69597	70741
31.70408	68837
31.71222	65055
31.72033	69192
31.72847	62559
31.73658	66115
31.74470	66155
31.75283	57953
31.76095	57782
31.76907	56837
31.77720	60623
31.78532	62713
31.79345	60685
31.80157	59543
31.80968	67345
31.81782	65725
31.82593	67641
31.83407	70243
31.84218	70516
31.85030	71061
31.85843	68044
31.86655	74046
31.87467	72777
31.88280	76362
31.89092	78045
31.89905	77159
31.90717	80324
31.91528	71116
31.92342	76311
31.93153	78626
31.93967	85868
31.94778	106508
31.95590	127627
31.96403	153899
31.97215	181297
31.98028	201945
31.98840	235031
31.99652	256064
32.00465	258686
32.01277	266153
32.02088	260672
32.02902	243044
32.03713	228682
32.04527	212914
32.05338	191217
32.06150	171798
32.06963	171350
32.07775	157812
32.08588	147829
32.09400	128497
32.10212	135062
32.11025	130196
32.11837	131085
32.12650	125483
32.13462	118545
32.14273	109210
32.15087	103232
32.15898	100209
32.16710	93652
32.17523	89372
32.18335	94909
32.19148	85220
32.19960	84268
32.20772	80079
32.21585	80585
32.22397	82129
32.23210	81150
32.24022	82601
32.24833	79198
32.25647	72762
32.26458	76973
32.27270	78324
32.28083	79900
32.28895	70790
32.29708	73938
32.30520	76318
32.31332	74486
32.32145	74791
32.32957	73487
32.33770	72394
32.34582	69446
32.35393	73934
32.36207	70562
32.37018	73144
32.37832	71135
32.38643	76044
32.39455	75476
32.40268	69965
32.41080	75344
32.41892	73223
32.42705	71236
32.43517	69799
32.44330	66827
32.45142	68180
32.45953	65723
32.46767	70075
32.47578	71442
32.48392	65825
32.49203	70081
32.50015	68783
32.50828	66826
32.51640	67419
32.52452	66270
32.53265	66006
32.54077	68109
32.54890	64759
32.55702	66843
32.56513	66331
32.57327	71909
32.58138	64921
32.58952	71365
32.59763	71863
32.60575	67367
32.61388	67102
32.62200	66557
32.63013	64139
32.63825	64718
32.64637	64214
32.65450	67120
32.66262	64290
32.67073	65422
32.67887	75785
32.68698	71459
32.69512	81952
32.70323	90304
32.71135	91871
32.71948	84242
32.72760	88176
32.73573	78607
32.74385	77323
32.75197	75692
32.76010	69087
32.76822	72770
32.77635	68844
32.78447	68564
32.79258	64370
32.80072	69254
32.80883	63464
32.81695	63432
32.82508	56796
32.83320	60696
32.84133	67381
32.84945	64278
32.85757	61720
32.86570	60384
32.87382	70517
32.88195	63041
32.89007	66428
32.89818	65373
32.90632	66740
32.91443	61322
32.92255	67461
32.93068	70310
32.93880	73457
32.94693	70749
32.95505	65125
32.96317	63403
32.97130	65937
32.97942	69978
32.98755	65850
32.99567	68508
33.00378	69970
33.01192	67844
33.02003	69856
33.02817	75547
33.03628	71398
33.04440	72892
33.05253	65087
33.06065	70008
33.06877	59740
33.07690	62128
33.08502	68491
33.09315	69492
33.10127	68829
33.10938	75449
33.11752	75329
33.12563	85503
33.13377	91638
33.14188	98266
33.15000	86835
33.15813	79397
33.16625	77036
33.17438	69666
33.18250	69646
33.19062	70691
33.19875	65773
33.20687	64559
33.21498	62595
33.22312	67478
33.23123	67338
33.23937	70131
33.24748	74141
33.25560	75314
33.26373	70326
33.27185	68235
33.27998	68587
33.28810	63592
33.29622	63883
33.30435	63348
33.31247	67098
33.32058	65965
33.32872	62082
33.33683	66100
33.34497	63562
33.35308	65969
33.36120	67150
33.36933	61197
33.37745	57535
33.38558	66128
33.39370	63586
33.40182	62265
33.40995	61382
33.41807	63603
33.42620	61914
33.43432	62600
33.44243	61634
33.45057	63641
33.45868	58543
33.46680	60047
33.47493	60241
33.48305	63727
33.49118	54459
33.49930	58524
33.50742	59353
33.51555	63239
33.52367	63332
33.53180	61516
33.53992	61708
33.54803	64640
33.55617	64103
33.56428	64395
33.57240	62489
33.58053	70769
33.58865	62903
33.59678	67479
33.60490	62645
33.61302	64441
33.62115	61558
33.62927	60921
33.63740	63321
33.64552	59042
33.65363	65483
33.66177	59477
33.66988	60310
33.67802	60801
33.68613	63638
33.69425	66962
33.70238	68121
33.71050	62680
33.71862	61075
33.72675	60690
33.73487	59639
33.74300	61256
33.75112	57704
33.75923	60417
33.76737	61471
33.77548	58364
33.78362	59845
33.79173	61947
33.79985	60134
33.80798	60324
33.81610	63477
33.82423	61084
33.83235	63021
33.84047	61088
33.84860	58299
33.85672	60571
33.86483	63941
33.87297	67071
33.88108	64020
33.88922	66251
33.89733	62056
33.90545	64724
33.91358	60154
33.92170	65966
33.92983	61256
33.93795	62402
33.94607	59786
33.95420	63571
33.96232	61047
33.97045	62416
33.97857	66620
33.98668	57230
33.99482	59925
34.00293	59522
34.01105	59647
34.01918	57284
34.02730	66568
34.03543	57743
34.04355	54202
34.05167	64698
34.05980	62554
34.06792	56410
34.07605	58408
34.08417	60373
34.09228	55407
34.10042	64363
34.10853	63864
34.11665	58712
34.12478	60930
34.13290	59822
34.14103	64108
34.14915	61909
34.15727	58211
34.16540	59092
34.17352	56159
34.18165	59100
34.18977	63357
34.19788	58035
34.20602	62916
34.21413	59936
34.22227	58821
34.23038	54971
34.23850	63562
34.24663	58187
34.25475	58633
34.26287	59764
34.27100	59243
34.27912	57534
34.28725	64371
34.29537	59745
34.30348	59754
34.31162	60912
34.31973	55667
34.32787	56125
34.33598	61440
34.34410	61332
34.35223	67261
34.36035	60867
34.36847	59484
34.37660	59136
34.38472	60596
34.39285	63576
34.40097	59905
34.40908	62260
34.41722	63759
34.42533	58742
34.43347	62010
34.44158	62759
34.44970	60278
34.45783	60753
34.46595	60240
34.47408	59633
34.48220	57501
34.49032	62579
34.49845	62854
34.50657	57304
34.51468	65124
34.52282	68061
34.53093	65918
34.53907	71916
34.54718	79889
34.55530	93162
34.56343	105854
34.57155	131857
34.57968	156398
34.58780	172551
34.59592	176917
34.60405	172887
34.61217	152809
34.62030	147826
34.62842	132477
34.63653	116042
34.64467	111495
34.65278	106124
34.66090	95703
34.66903	96898
34.67715	92212
34.68528	88214
34.69340	83203
34.70152	87546
34.70965	79337
34.71777	78654
34.72590	75847
34.73402	84522
34.74213	76338
34.75027	78982
34.75838	78033
34.76650	74920
34.77463	79710
34.78275	76536
34.79088	79185
34.79900	77977
34.80712	77335
34.81525	72251
34.82337	74292
34.83150	74460
34.83962	75433
34.84773	67790
34.85587	72204
34.86398	72061
34.87212	72482
34.88023	71443
34.88835	63708
34.89648	72718
34.90460	67003
34.91272	66111
34.92085	68092
34.92897	72770
34.93710	69447
34.94522	72285
34.95333	73964
34.96147	77086
34.96958	79929
34.97772	71991
34.98583	75162
34.99395	76611
35.00208	76775
35.01020	74315
35.01833	80922
35.02645	69822
35.03457	75807
35.04270	70715
35.05082	71179
35.05893	70492
35.06707	72561
35.07518	65625
35.08332	68783
35.09143	67533
35.09955	67425
35.10768	70379
35.11580	71698
35.12393	74050
35.13205	69102
35.14017	68254
35.14830	73000
35.15642	75889
35.16453	80139
35.17267	82400
35.18078	83576
35.18892	85514
35.19703	85938
35.20515	81091
35.21328	82207
35.22140	76863
35.22953	73933
35.23765	70250
35.24577	70143
35.25390	70549
35.26202	69696
35.27015	69824
35.27827	67368
35.28638	71552
35.29452	73188
35.30263	71333
35.31075	73080
35.31888	71317
35.32700	69616
35.33513	70225
35.34325	67660
35.35137	62218
35.35950	64921
35.36762	64667
35.37575	63284
35.38387	64386
35.39198	68660
35.40012	66045
35.40823	62660
35.41635	67302
35.42448	71730
35.43260	71926
35.44073	72541
35.44885	73277
35.45697	69343
35.46510	73011
35.47322	73747
35.48135	73550
35.48947	73306
35.49758	75629
35.50572	74875
35.51383	70841
35.52197	69614
35.53008	72646
35.53820	70481
35.54633	74911
35.55445	69720
35.56257	66131
35.57070	66403
35.57882	68547
35.58695	73462
35.59507	72925
35.60318	72538
35.61132	69054
35.61943	68557
35.62757	71235
35.63568	68887
35.64380	70520
35.65193	74047
35.66005	73032
35.66818	75123
35.67630	71382
35.68442	72095
35.69255	74800
35.70067	72287
35.70878	81708
35.71692	77382
35.72503	83107
35.73317	81532
35.74128	87464
35.74940	79774
35.75753	73162
35.76565	79317
35.77378	76082
35.78190	73781
35.79002	76426
35.79815	77984
35.80627	74840
35.81438	72289
35.82252	68999
35.83063	71430
35.83877	72886
35.84688	72842
35.85500	73817
35.86313	75299
35.87125	69783
35.87938	72397
35.88750	72737
35.89562	70128
35.90375	68782
35.91187	75605
35.92000	71063
35.92812	72562
35.93623	70721
35.94437	68533
35.95248	64648
35.96060	69621
35.96873	70044
35.97685	68343
35.98498	74727
35.99310	67312
36.00122	71122
36.00935	70037
36.01747	70690
36.02560	77168
36.03372	76509
36.04183	80196
36.04997	75191
36.05808	85012
36.06622	82797
36.07433	78788
36.08245	79850
36.09058	81448
36.09870	83018
36.10682	77273
36.11495	75574
36.12307	78729
36.13120	75160
36.13932	71293
36.14743	69249
36.15557	74657
36.16368	75444
36.17182	78151
36.17993	78850
36.18805	75824
36.19618	79862
36.20430	67210
36.21242	74842
36.22055	77163
36.22867	77737
36.23680	79615
36.24492	75611
36.25303	68417
36.26117	78536
36.26928	70941
36.27742	73026
36.28553	71763
36.29365	73203
36.30178	70069
36.30990	71267
36.31803	72616
36.32615	76737
36.33427	82914
36.34240	81513
36.35052	83768
36.35863	93137
36.36677	87881
36.37488	83289
36.38302	87200
36.39113	83370
36.39925	82308
36.40738	83761
36.41550	88465
36.42363	93937
36.43175	82188
36.43987	79570
36.44800	79403
36.45612	79891
36.46425	70132
36.47237	69809
36.48048	73079
36.48862	74698
36.49673	70775
36.50485	75377
36.51298	69712
36.52110	64123
36.52923	67276
36.53735	70342
36.54547	70425
36.55360	66211
36.56172	71899
36.56985	66568
36.57797	69528
36.58608	71972
36.59422	69613
36.60233	67265
36.61045	72589
36.61858	73458
36.62670	72416
36.63483	65881
36.64295	69338
36.65107	68420
36.65920	69959
36.66732	74567
36.67545	70888
36.68357	75208
36.69168	71250
36.69982	78339
36.70793	71022
36.71607	76929
36.72418	77244
36.73230	78345
36.74043	80424
36.74855	75162
36.75667	71729
36.76480	72890
36.77292	73839
36.78105	73917
36.78917	73221
36.79728	72982
36.80542	72323
36.81353	68610
36.82167	71220
36.82978	75288
36.83790	70648
36.84603	69132
36.85415	74632
36.86227	71753
36.87040	70056
36.87852	72924
36.88665	72930
36.89477	67722
36.90288	70277
36.91102	69266
36.91913	70170
36.92727	70234
36.93538	80779
36.94350	79082
36.95163	72484
36.95975	69400
36.96788	70499
36.97600	74720
36.98412	69402
36.99225	68212
37.00037	69719
37.00848	74983
37.01662	73691
37.02473	73916
37.03287	71669
37.04098	69780
37.04910	66321
37.05723	74306
37.06535	66580
37.07348	70902
37.08160	70095
37.08972	73876
37.09785	75320
37.10597	73089
37.11410	76508
37.12222	77004
37.13033	72780
37.13847	76889
37.14658	77761
37.15470	73660
37.16283	73623
37.17095	74458
37.17908	75020
37.18720	70316
37.19532	78321
37.20345	76479
37.21157	72240
37.21970	70642
37.22782	71412
37.23593	73052
37.24407	75495
37.25218	75187
37.26030	81958
37.26843	70349
37.27655	71697
37.28468	76400
37.29280	71951
37.30092	75271
37.30905	71241
37.31717	70685
37.32530	72463
37.33342	76746
37.34153	77069
37.34967	74220
37.35778	80714
37.36592	89173
37.37403	99150
37.38215	111809
37.39028	127980
37.39840	127210
37.40652	127311
37.41465	128931
37.42277	123734
37.43090	109102
37.43902	105592
37.44713	97954
37.45527	94129
37.46338	94548
37.47152	96398
37.47963	89193
37.48775	92632
