C:\MassHunter\GCMS\1\data\JTB-E18\JTB-E18-027-09.D Wed Sep 18 15:09:32 2019
Start of data points
2.09533	83213
2.10347	79493
2.11158	81742
2.11972	86885
2.12783	82668
2.13595	80904
2.14408	76320
2.15220	78866
2.16033	76146
2.16845	79156
2.17657	75973
2.18470	75055
2.19282	71031
2.20093	68121
2.20907	68795
2.21718	66892
2.22532	68885
2.23343	67793
2.24155	71188
2.24968	65943
2.25780	65145
2.26593	81473
2.27405	508972
2.28217	2179828
2.29030	1882263
2.29842	718228
2.30655	387144
2.31467	294218
2.32278	265789
2.33092	232068
2.33903	211783
2.34715	193459
2.35528	178748
2.36340	154664
2.37153	150536
2.37965	160227
2.38777	265578
2.39590	247310
2.40402	153277
2.41215	151841
2.42027	141522
2.42838	161327
2.43652	150682
2.44463	141884
2.45275	152580
2.46088	130827
2.46900	122089
2.47713	117043
2.48525	114959
2.49337	149591
2.50150	186242
2.50962	142168
2.51775	129776
2.52587	117983
2.53398	113891
2.54212	115976
2.55023	127391
2.55837	129050
2.56648	120694
2.57460	111324
2.58273	112880
2.59085	109218
2.59897	111585
2.60710	107148
2.61522	122803
2.62335	142291
2.63147	127239
2.63958	111216
2.64772	104932
2.65583	101818
2.66397	117069
2.67208	121869
2.68020	174105
2.68833	181891
2.69645	136660
2.70458	111321
2.71270	109056
2.72082	96110
2.72895	102279
2.73707	100185
2.74518	104149
2.75332	99628
2.76143	99804
2.76957	94584
2.77768	95588
2.78580	89613
2.79393	95676
2.80205	95609
2.81018	109603
2.81830	126931
2.82642	302195
2.83455	852324
2.84267	958954
2.85080	511247
2.85892	302809
2.86703	291136
2.87517	251718
2.88328	177624
2.89140	153707
2.89953	135364
2.90765	125553
2.91578	114497
2.92390	107337
2.93202	103309
2.94015	102530
2.94827	100929
2.95640	90390
2.96452	92601
2.97263	94042
2.98077	96436
2.98888	95703
2.99700	111381
3.00513	124723
3.01325	143840
3.02138	175510
3.02950	435960
3.03762	939807
3.04575	1424463
3.05387	3855519
3.06200	1.046644E+07
3.07012	1.263173E+07
3.07823	7699728
3.08637	3686187
3.09448	2054810
3.10262	1352467
3.11073	971663
3.11885	737266
3.12698	565636
3.13510	444673
3.14322	367417
3.15135	325167
3.15947	273212
3.16760	269280
3.17572	247802
3.18383	231365
3.19197	207188
3.20008	196548
3.20822	179812
3.21633	176886
3.22445	179533
3.23258	194097
3.24070	184978
3.24882	164313
3.25695	153611
3.26507	144796
3.27320	144006
3.28132	271816
3.28943	1199184
3.29757	4274887
3.30568	8946599
3.31382	1.086684E+07
3.32193	8590460
3.33005	5554560
3.33818	3563187
3.34630	2519942
3.35443	1886295
3.36255	1477098
3.37067	1409926
3.37880	1660098
3.38692	1806903
3.39503	1558391
3.40317	1695253
3.41128	3501941
3.41942	5782681
3.42753	5315361
3.43565	3182829
3.44378	1744252
3.45190	1176196
3.46003	926481
3.46815	791822
3.47627	672951
3.48440	592000
3.49252	517168
3.50065	477234
3.50877	426745
3.51688	394946
3.52502	372927
3.53313	346930
3.54125	334278
3.54938	316016
3.55750	305041
3.56563	290168
3.57375	283510
3.58187	273629
3.59000	267674
3.59812	259745
3.60625	255372
3.61437	365788
3.62248	872415
3.63062	2149869
3.63873	3326682
3.64685	2967974
3.65498	1801956
3.66310	1013607
3.67123	649709
3.67935	519894
3.68747	432707
3.69560	372780
3.70372	323640
3.71185	304136
3.71997	282723
3.72808	272196
3.73622	276673
3.74433	278384
3.75247	279716
3.76058	272059
3.76870	255708
3.77683	251143
3.78495	237156
3.79307	216593
3.80120	215644
3.80932	214930
3.81745	212666
3.82557	211961
3.83368	225038
3.84182	223328
3.84993	204811
3.85807	193539
3.86618	178072
3.87430	181576
3.88243	179187
3.89055	181408
3.89868	189249
3.90680	182930
3.91492	179630
3.92305	179797
3.93117	177300
3.93928	174708
3.94742	168917
3.95553	168984
3.96367	165029
3.97178	157418
3.97990	158631
3.98803	149977
3.99615	157648
4.00428	152464
4.01240	157051
4.02052	159048
4.02865	152316
4.03677	152264
4.04488	157477
4.05302	158882
4.06113	171143
4.06927	172238
4.07738	162155
4.08550	167330
4.09363	159508
4.10175	148720
4.10988	150839
4.11800	151112
4.12612	157298
4.13425	168400
4.14237	206062
4.15050	243485
4.15862	258281
4.16673	216273
4.17487	183444
4.18298	174297
4.19110	162908
4.19923	152158
4.20735	146738
4.21548	154935
4.22360	199232
4.23172	245116
4.23985	264886
4.24797	236692
4.25610	199860
4.26422	179685
4.27233	168550
4.28047	156408
4.28858	149808
4.29670	150277
4.30483	143016
4.31295	142828
4.32108	148434
4.32920	152220
4.33732	144435
4.34545	138936
4.35357	141440
4.36170	137484
4.36982	145073
4.37793	139526
4.38607	137384
4.39418	132772
4.40232	131554
4.41043	126735
4.41855	132927
4.42668	130920
4.43480	138489
4.44292	143779
4.45105	157220
4.45917	183612
4.46730	181245
4.47542	171790
4.48353	153967
4.49167	147878
4.49978	143425
4.50792	142267
4.51603	134999
4.52415	134500
4.53228	136822
4.54040	134064
4.54853	133383
4.55665	125162
4.56477	129438
4.57290	131417
4.58102	129314
4.58913	127642
4.59727	122990
4.60538	122315
4.61352	123055
4.62163	120354
4.62975	125727
4.63788	120459
4.64600	124524
4.65413	125389
4.66225	120432
4.67037	120927
4.67850	121872
4.68662	125903
4.69473	126297
4.70287	122913
4.71098	123407
4.71912	117499
4.72723	119140
4.73535	118169
4.74348	123631
4.75160	124134
4.75973	116138
4.76785	116572
4.77597	118247
4.78410	117943
4.79222	115454
4.80035	122471
4.80847	116990
4.81658	124279
4.82472	130463
4.83283	124873
4.84095	124755
4.84908	118971
4.85720	128721
4.86533	126521
4.87345	129187
4.88157	133815
4.88970	126431
4.89782	126170
4.90595	136484
4.91407	192651
4.92218	410970
4.93032	1076667
4.93843	2349439
4.94657	3811881
4.95468	4506130
4.96280	3978185
4.97093	2897500
4.97905	1989132
4.98717	1359423
4.99530	972506
5.00342	744782
5.01155	614472
5.01967	510687
5.02778	438716
5.03592	392633
5.04403	355596
5.05217	320461
5.06028	292962
5.06840	283189
5.07653	263832
5.08465	254199
5.09277	266112
5.10090	307479
5.10902	382329
5.11715	448235
5.12527	449651
5.13338	395642
5.14152	325459
5.14963	280955
5.15777	252324
5.16588	283461
5.17400	342525
5.18213	408205
5.19025	454117
5.19838	427788
5.20650	360950
5.21462	294087
5.22275	272005
5.23087	315915
5.23898	377820
5.24712	405493
5.25523	363958
5.26337	303653
5.27148	255407
5.27960	241985
5.28773	225835
5.29585	231593
5.30398	210016
5.31210	201378
5.32022	187106
5.32835	194886
5.33647	201870
5.34460	196493
5.35272	198369
5.36083	176295
5.36897	173050
5.37708	168229
5.38520	157344
5.39333	159549
5.40145	160678
5.40958	161745
5.41770	153904
5.42582	147802
5.43395	146861
5.44207	148599
5.45020	147918
5.45832	154483
5.46643	145196
5.47457	142692
5.48268	144232
5.49080	147181
5.49893	148696
5.50705	153571
5.51518	154298
5.52330	151141
5.53142	150108
5.53955	146040
5.54767	151317
5.55580	138785
5.56392	140265
5.57203	150335
5.58017	151494
5.58828	160166
5.59642	158162
5.60453	155337
5.61265	160562
5.62078	163113
5.62890	185567
5.63702	184396
5.64515	179636
5.65327	176440
5.66140	168120
5.66952	161302
5.67763	169132
5.68577	177953
5.69388	178493
5.70202	185379
5.71013	189632
5.71825	216388
5.72638	238848
5.73450	248773
5.74262	242140
5.75075	229985
5.75887	259954
5.76700	269427
5.77512	272054
5.78323	261619
5.79137	247879
5.79948	278515
5.80762	455607
5.81573	851410
5.82385	1410509
5.83198	1878191
5.84010	1938088
5.84823	1553283
5.85635	1066885
5.86447	705267
5.87260	469788
5.88072	354389
5.88883	284219
5.89697	269207
5.90508	312745
5.91322	421300
5.92133	635687
5.92945	830844
5.93758	904227
5.94570	772996
5.95383	557309
5.96195	389621
5.97007	288795
5.97820	259412
5.98632	226445
5.99445	200672
6.00257	177424
6.01068	156396
6.01882	138797
6.02693	127685
6.03505	124583
6.04318	125772
6.05130	123377
6.05943	117004
6.06755	111380
6.07567	112113
6.08380	108623
6.09192	105923
6.10005	103092
6.10817	99595
6.11628	98365
6.12442	95793
6.13253	97902
6.14065	100428
6.14878	108190
6.15690	107053
6.16503	115013
6.17315	123907
6.18127	143034
6.18940	159992
6.19752	183264
6.20565	195108
6.21377	182312
6.22188	158237
6.23002	142708
6.23813	138671
6.24627	135727
6.25438	135487
6.26250	132091
6.27063	136233
6.27875	130046
6.28687	136887
6.29500	139436
6.30312	136959
6.31125	140675
6.31937	155119
6.32748	152222
6.33562	153530
6.34373	156295
6.35187	165223
6.35998	172840
6.36810	174458
6.37623	173056
6.38435	167249
6.39248	165053
6.40060	170941
6.40872	173914
6.41685	172741
6.42497	172987
6.43308	179516
6.44122	177801
6.44933	186423
6.45747	179871
6.46558	195470
6.47370	183870
6.48183	201737
6.48995	198803
6.49808	203381
6.50620	205169
6.51432	160119
6.52245	131554
6.53057	127678
6.53868	127256
6.54682	122518
6.55493	124087
6.56307	116340
6.57118	113427
6.57930	113225
6.58743	113371
6.59555	106371
6.60368	114570
6.61180	112643
6.61992	111709
6.62805	101539
6.63617	96691
6.64430	98209
6.65242	95965
6.66053	97113
6.66867	96927
6.67678	97031
6.68490	96231
6.69303	93581
6.70115	97071
6.70928	103674
6.71740	117380
6.72552	157948
6.73365	200892
6.74177	242119
6.74990	262109
6.75802	236285
6.76613	199308
6.77427	164747
6.78238	134591
6.79050	112495
6.79863	96117
6.80675	93401
6.81488	98674
6.82300	89164
6.83112	92743
6.83925	97988
6.84737	119175
6.85550	189200
6.86362	332935
6.87173	585684
6.87987	906118
6.88798	1156785
6.89612	1207125
6.90423	1057896
6.91235	750263
6.92048	470247
6.92860	288162
6.93672	188071
6.94485	135255
6.95297	114960
6.96110	94705
6.96922	81578
6.97733	76460
6.98547	74521
6.99358	68812
7.00172	79458
7.00983	99118
7.01795	140659
7.02608	230407
7.03420	327472
7.04233	439959
7.05045	497231
7.05857	481275
7.06670	409934
7.07482	312664
7.08293	235131
7.09107	190499
7.09918	152327
7.10732	137215
7.11543	122875
7.12355	113148
7.13168	110357
7.13980	102688
7.14793	101302
7.15605	97942
7.16417	90724
7.17230	84721
7.18042	83550
7.18853	79443
7.19667	87385
7.20478	88031
7.21292	101138
7.22103	100324
7.22915	102887
7.23728	99735
7.24540	105821
7.25353	107194
7.26165	117962
7.26977	130528
7.27790	153369
7.28602	178047
7.29415	184517
7.30227	171225
7.31038	153259
7.31852	131112
7.32663	120560
7.33475	117997
7.34288	138849
7.35100	140618
7.35913	134404
7.36725	122262
7.37537	122370
7.38350	137359
7.39162	196820
7.39975	270427
7.40787	341168
7.41598	372133
7.42412	350486
7.43223	290522
7.44037	220567
7.44848	165565
7.45660	135271
7.46473	115105
7.47285	104044
7.48097	104570
7.48910	117126
7.49722	145238
7.50535	190000
7.51347	231643
7.52158	261167
7.52972	243971
7.53783	211066
7.54597	162528
7.55408	136836
7.56220	113387
7.57033	99367
7.57845	87101
7.58657	81989
7.59470	76403
7.60282	77060
7.61095	72496
7.61907	71352
7.62718	74919
7.63532	79440
7.64343	78598
7.65157	80634
7.65968	71748
7.66780	73374
7.67593	76223
7.68405	70729
7.69218	67682
7.70030	65160
7.70842	64835
7.71655	63317
7.72467	59616
7.73278	65208
7.74092	59273
7.74903	57669
7.75717	55387
7.76528	54804
7.77340	54662
7.78153	58796
7.78965	59552
7.79778	56483
7.80590	54052
7.81402	54154
7.82215	55511
7.83027	56044
7.83838	55010
7.84652	55546
7.85463	56230
7.86277	54760
7.87088	54432
7.87900	57175
7.88713	55336
7.89525	54095
7.90338	56970
7.91150	56356
7.91962	61925
7.92775	59907
7.93587	52686
7.94400	55567
7.95212	53556
7.96023	58025
7.96837	58660
7.97648	58152
7.98460	61295
7.99273	57698
8.00085	57599
8.00898	53066
8.01710	52093
8.02522	50541
8.03335	55741
8.04147	56180
8.04960	53215
8.05772	51813
8.06583	51324
8.07397	47806
8.08208	53100
8.09022	51744
8.09833	50627
8.10645	47563
8.11458	48463
8.12270	51246
8.13082	50350
8.13895	52461
8.14707	52712
8.15520	54764
8.16332	60390
8.17143	57351
8.17957	61525
8.18768	58103
8.19582	52585
8.20393	57913
8.21205	50189
8.22018	49754
8.22830	49055
8.23643	52566
8.24455	54763
8.25267	48466
8.26080	50101
8.26892	50416
8.27703	47854
8.28517	46050
8.29328	49968
8.30142	49338
8.30953	51353
8.31765	47902
8.32578	52877
8.33390	59712
8.34203	64289
8.35015	69567
8.35827	71412
8.36640	65121
8.37452	58220
8.38263	53389
8.39077	50051
8.39888	48945
8.40702	48435
8.41513	52247
8.42325	47544
8.43138	46166
8.43950	49502
8.44763	42213
8.45575	46387
8.46387	42609
8.47200	44546
8.48012	44675
8.48825	48785
8.49637	54955
8.50448	61955
8.51262	60723
8.52073	69032
8.52885	65451
8.53698	56016
8.54510	55442
8.55323	55256
8.56135	56490
8.56947	53187
8.57760	56924
8.58572	56528
8.59385	54292
8.60197	49052
8.61008	49815
8.61822	48052
8.62633	45201
8.63445	48664
8.64258	46710
8.65070	49623
8.65883	54374
8.66695	49443
8.67507	46127
8.68320	46987
8.69132	43162
8.69945	51997
8.70757	53189
8.71568	54750
8.72382	72945
8.73193	131922
8.74007	293898
8.74818	598404
8.75630	1005359
8.76443	1277495
8.77255	1253005
8.78067	1001086
8.78880	670167
8.79692	426060
8.80505	304425
8.81317	229921
8.82128	177657
8.82942	146481
8.83753	130439
8.84567	118322
8.85378	110170
8.86190	104920
8.87003	98303
8.87815	90348
8.88628	87523
8.89440	88815
8.90252	87104
8.91065	84970
8.91877	79421
8.92688	81503
8.93502	80433
8.94313	72339
8.95127	73240
8.95938	69860
8.96750	72778
8.97563	73032
8.98375	71259
8.99188	74237
9.00000	73210
9.00812	71219
9.01625	72184
9.02437	68310
9.03248	66390
9.04062	64644
9.04873	63785
9.05687	68493
9.06498	68061
9.07310	68008
9.08123	61368
9.08935	60751
9.09748	68803
9.10560	64657
9.11372	68267
9.12185	60657
9.12997	66485
9.13810	61020
9.14622	63100
9.15433	63542
9.16247	61676
9.17058	58551
9.17870	59957
9.18683	63200
9.19495	57758
9.20308	55471
9.21120	59475
9.21932	61037
9.22745	57435
9.23557	56212
9.24370	55019
9.25182	55922
9.25993	56596
9.26807	58525
9.27618	60436
9.28432	63636
9.29243	66552
9.30055	59780
9.30868	58657
9.31680	58586
9.32492	64258
9.33305	62037
9.34117	63757
9.34930	63441
9.35742	64701
9.36553	66559
9.37367	61359
9.38178	63935
9.38992	51405
9.39803	55976
9.40615	53799
9.41428	54034
9.42240	56135
9.43052	50668
9.43865	55429
9.44677	50773
9.45490	49825
9.46302	52039
9.47113	50208
9.47927	46612
9.48738	51418
9.49552	50446
9.50363	51334
9.51175	53694
9.51988	52248
9.52800	50370
9.53613	51442
9.54425	53417
9.55237	56654
9.56050	54670
9.56862	48650
9.57673	48824
9.58487	46851
9.59298	49379
9.60112	47124
9.60923	45942
9.61735	44929
9.62548	45799
9.63360	42620
9.64173	42680
9.64985	43342
9.65797	44941
9.66610	43233
9.67422	39436
9.68233	42420
9.69047	40731
9.69858	40746
9.70672	39997
9.71483	37710
9.72295	36249
9.73108	37271
9.73920	36818
9.74733	32764
9.75545	36525
9.76357	33608
9.77170	33563
9.77982	32990
9.78795	35228
9.79607	37289
9.80418	35163
9.81232	36892
9.82043	35994
9.82855	37900
9.83668	35534
9.84480	33584
9.85293	32654
9.86105	39628
9.86917	34437
9.87730	38246
9.88542	36681
9.89355	35825
9.90167	35983
9.90978	34447
9.91792	34703
9.92603	32985
9.93417	33919
9.94228	34320
9.95040	38024
9.95853	43911
9.96665	45712
9.97477	53249
9.98290	59582
9.99102	61234
9.99915	61434
10.00727	54012
10.01538	50665
10.02352	47272
10.03163	43591
10.03977	42755
10.04788	42548
10.05600	42261
10.06413	39365
10.07225	34092
10.08037	37392
10.08850	32536
10.09662	38897
10.10475	38768
10.11287	34398
10.12098	35435
10.12912	34154
10.13723	35893
10.14537	35080
10.15348	33458
10.16160	36902
10.16973	37680
10.17785	36375
10.18598	33366
10.19410	35709
10.20222	36377
10.21035	39166
10.21847	41917
10.22658	43116
10.23472	41742
10.24283	39754
10.25097	38939
10.25908	40255
10.26720	39466
10.27533	43913
10.28345	44219
10.29158	43757
10.29970	46316
10.30782	46038
10.31595	43983
10.32407	41143
10.33220	40881
10.34032	37209
10.34843	37647
10.35657	39936
10.36468	39313
10.37280	36837
10.38093	40973
10.38905	43590
10.39718	46756
10.40530	47637
10.41342	49403
10.42155	42596
10.42967	38688
10.43780	41528
10.44592	35498
10.45403	35055
10.46217	37468
10.47028	35445
10.47840	32836
10.48653	34219
10.49465	32607
10.50278	33986
10.51090	34696
10.51902	38717
10.52715	43708
10.53527	40371
10.54340	42886
10.55152	43382
10.55963	43374
10.56777	47626
10.57588	37762
10.58402	37964
10.59213	40169
10.60025	42796
10.60838	35855
10.61650	32695
10.62462	35910
10.63275	39406
10.64087	39508
10.64900	33709
10.65712	44103
10.66523	37321
10.67337	38354
10.68148	39396
10.68962	41916
10.69773	39482
10.70585	45792
10.71398	45664
10.72210	43644
10.73023	46576
10.73835	49328
10.74647	46086
10.75460	40980
10.76272	45680
10.77083	45694
10.77897	43430
10.78708	41597
10.79522	42523
10.80333	38788
10.81145	38529
10.81958	37355
10.82770	32778
10.83583	37431
10.84395	30848
10.85207	32507
10.86020	32863
10.86832	34952
10.87643	31234
10.88457	31042
10.89268	34173
10.90082	32887
10.90893	32735
10.91705	32433
10.92518	30644
10.93330	37304
10.94143	31797
10.94955	34504
10.95767	33069
10.96580	31717
10.97392	36210
10.98205	40733
10.99017	42520
10.99828	35621
11.00642	38080
11.01453	35766
11.02265	32178
11.03078	32565
11.03890	32810
11.04703	31902
11.05515	32441
11.06327	37569
11.07140	32376
11.07952	31846
11.08765	31345
11.09577	31399
11.10388	33401
11.11202	32663
11.12013	35573
11.12825	38709
11.13638	41667
11.14450	42295
11.15263	39948
11.16075	44864
11.16887	47392
11.17700	43790
11.18512	42720
11.19325	47332
11.20137	44826
11.20948	39310
11.21762	41737
11.22573	38234
11.23387	44973
11.24198	42084
11.25010	38943
11.25823	42296
11.26635	46611
11.27447	51374
11.28260	63937
11.29072	85353
11.29885	109587
11.30697	134990
11.31508	151131
11.32322	162873
11.33133	160170
11.33947	146105
11.34758	149235
11.35570	131920
11.36383	118940
11.37195	107234
11.38008	91920
11.38820	80183
11.39632	70241
11.40445	63716
11.41257	53228
11.42068	52131
11.42882	47240
11.43693	45086
11.44507	44723
11.45318	41790
11.46130	41223
11.46943	43183
11.47755	36782
11.48568	39935
11.49380	36914
11.50192	37833
11.51005	38878
11.51817	38785
11.52628	40068
11.53442	49300
11.54253	50348
11.55067	57969
11.55878	63156
11.56690	59064
11.57503	62058
11.58315	60889
11.59128	60461
11.59940	58344
11.60752	55650
11.61565	55637
11.62377	48357
11.63190	43709
11.64002	37584
11.64813	39182
11.65627	38353
11.66438	40329
11.67250	39984
11.68063	42093
11.68875	49252
11.69688	54434
11.70500	54928
11.71312	64057
11.72125	65271
11.72937	62548
11.73750	63519
11.74562	63802
11.75373	69761
11.76187	68310
11.76998	72605
11.77812	62075
11.78623	61884
11.79435	57741
11.80248	56922
11.81060	53901
11.81872	49793
11.82685	52672
11.83497	46126
11.84310	53187
11.85122	48543
11.85933	42863
11.86747	41187
11.87558	39550
11.88372	41877
11.89183	38546
11.89995	35265
11.90808	38883
11.91620	37410
11.92432	42097
11.93245	44554
11.94057	54837
11.94870	61166
11.95682	69805
11.96493	68061
11.97307	68683
11.98118	67531
11.98932	65780
11.99743	65198
12.00555	63539
12.01368	51316
12.02180	49402
12.02993	49956
12.03805	40033
12.04617	41926
12.05430	43165
12.06242	43045
12.07053	39058
12.07867	37365
12.08678	33434
12.09492	33912
12.10303	34701
12.11115	31918
12.11928	34084
12.12740	35947
12.13553	36389
12.14365	34426
12.15177	32835
12.15990	35960
12.16802	33948
12.17613	32862
12.18427	35395
12.19238	32687
12.20052	36940
12.20863	36469
12.21675	32443
12.22488	33856
12.23300	35221
12.24113	31165
12.24925	32439
12.25737	35627
12.26550	35324
12.27362	31331
12.28175	32642
12.28987	34737
12.29798	33313
12.30612	34154
12.31423	34293
12.32235	34441
12.33048	38780
12.33860	33979
12.34673	30104
12.35485	32114
12.36297	29779
12.37110	30211
12.37922	30467
12.38735	34844
12.39547	36488
12.40358	34680
12.41172	34530
12.41983	31671
12.42797	36045
12.43608	37616
12.44420	37985
12.45233	39981
12.46045	38441
12.46857	37811
12.47670	36706
12.48482	34352
12.49295	33046
12.50107	34393
12.50918	33246
12.51732	31593
12.52543	31015
12.53357	30562
12.54168	30569
12.54980	34772
12.55793	31060
12.56605	32192
12.57417	33850
12.58230	32729
12.59042	33749
12.59855	30795
12.60667	33447
12.61478	29695
12.62292	29622
12.63103	31023
12.63917	27811
12.64728	30414
12.65540	27758
12.66353	27404
12.67165	32436
12.67978	28843
12.68790	31660
12.69602	28710
12.70415	30729
12.71227	30257
12.72038	31473
12.72852	36221
12.73663	40022
12.74477	37797
12.75288	37932
12.76100	35125
12.76913	36695
12.77725	33397
12.78538	36201
12.79350	34561
12.80162	45294
12.80975	42166
12.81787	44828
12.82600	47388
12.83412	47902
12.84223	48792
12.85037	51821
12.85848	45867
12.86660	40956
12.87473	37351
12.88285	38508
12.89098	35893
12.89910	37200
12.90722	33196
12.91535	33995
12.92347	35719
12.93160	36075
12.93972	40352
12.94783	43035
12.95597	58742
12.96408	75867
12.97220	97086
12.98033	122411
12.98845	135088
12.99658	150714
13.00470	162265
13.01282	158164
13.02095	142380
13.02907	128914
13.03720	106286
13.04532	92493
13.05343	77563
13.06157	64393
13.06968	56365
13.07782	50317
13.08593	46912
13.09405	50019
13.10218	44642
13.11030	47615
13.11842	42473
13.12655	39007
13.13467	42353
13.14280	36395
13.15092	35487
13.15903	37420
13.16717	41136
13.17528	38168
13.18342	36793
13.19153	38137
13.19965	40659
13.20778	40131
13.21590	45032
13.22402	39692
13.23215	41993
13.24027	40381
13.24840	40548
13.25652	41251
13.26463	50430
13.27277	58478
13.28088	62458
13.28902	61764
13.29713	67853
13.30525	68183
13.31338	66536
13.32150	67980
13.32963	66396
13.33775	73078
13.34587	68946
13.35400	67460
13.36212	68854
13.37023	64434
13.37837	57664
13.38648	58267
13.39462	53641
13.40273	46458
13.41085	41729
13.41898	41743
13.42710	41445
13.43523	37103
13.44335	36954
13.45147	38958
13.45960	39384
13.46772	36569
13.47585	32697
13.48397	33905
13.49208	34722
13.50022	33923
13.50833	32616
13.51645	36125
13.52458	36257
13.53270	34120
13.54083	38217
13.54895	40056
13.55707	45720
13.56520	46445
13.57332	54131
13.58145	61903
13.58957	64287
13.59768	65047
13.60582	64755
13.61393	68453
13.62207	76129
13.63018	74763
13.63830	79436
13.64643	86670
13.65455	84887
13.66267	85192
13.67080	78363
13.67892	81252
13.68705	72641
13.69517	61411
13.70328	56692
13.71142	55926
13.71953	51091
13.72767	49709
13.73578	49362
13.74390	52183
13.75203	48597
13.76015	47676
13.76827	45196
13.77640	45295
13.78452	46968
13.79265	44395
13.80077	42388
13.80888	39937
13.81702	38225
13.82513	37134
13.83327	36533
13.84138	34691
13.84950	39817
13.85763	36547
13.86575	35070
13.87388	41093
13.88200	38293
13.89012	40663
13.89825	46258
13.90637	50395
13.91448	59587
13.92262	55574
13.93073	59759
13.93887	63174
13.94698	60860
13.95510	62484
13.96323	56849
13.97135	55485
13.97948	52804
13.98760	49781
13.99572	45005
14.00385	49276
14.01197	48821
14.02008	50449
14.02822	51471
14.03633	49026
14.04447	44520
14.05258	47334
14.06070	44325
14.06883	39240
14.07695	41727
14.08508	40234
14.09320	37519
14.10132	36452
14.10945	35157
14.11757	37204
14.12570	46102
14.13382	68059
14.14193	112345
14.15007	186054
14.15818	286671
14.16630	352647
14.17443	375605
14.18255	318377
14.19068	226239
14.19880	169331
14.20692	126185
14.21505	111477
14.22317	96874
14.23130	91913
14.23942	78527
14.24753	72606
14.25567	74188
14.26378	65963
14.27192	69332
14.28003	60615
14.28815	55194
14.29628	56795
14.30440	52337
14.31252	50483
14.32065	47527
14.32877	42474
14.33690	38997
14.34502	36783
14.35313	35882
14.36127	36569
14.36938	37198
14.37752	37845
14.38563	34783
14.39375	33386
14.40188	35517
14.41000	35104
14.41812	34307
14.42625	36504
14.43437	36376
14.44250	31834
14.45062	31135
14.45873	34051
14.46687	33502
14.47498	33698
14.48312	31109
14.49123	29992
14.49935	30464
14.50748	30758
14.51560	36164
14.52373	31658
14.53185	31457
14.53997	32070
14.54810	31865
14.55622	36891
14.56433	31302
14.57247	33400
14.58058	29930
14.58872	33445
14.59683	33065
14.60495	33321
14.61308	33658
14.62120	32944
14.62933	32096
14.63745	29434
14.64557	30692
14.65370	33211
14.66182	30381
14.66995	29480
14.67807	32984
14.68618	31521
14.69432	29032
14.70243	31667
14.71055	33187
14.71868	33014
14.72680	30818
14.73493	31739
14.74305	32000
14.75117	32268
14.75930	36310
14.76742	31834
14.77555	32603
14.78367	32287
14.79178	32760
14.79992	36363
14.80803	31236
14.81615	32012
14.82428	34434
14.83240	33198
14.84053	33892
14.84865	35913
14.85677	33112
14.86490	34140
14.87302	33316
14.88115	34330
14.88927	32919
14.89738	30587
14.90552	31545
14.91363	31546
14.92177	36562
14.92988	33345
14.93800	34348
14.94613	33403
14.95425	31147
14.96237	31857
14.97050	32454
14.97862	32746
14.98675	32116
14.99487	33729
15.00298	30883
15.01112	28703
15.01923	33832
15.02737	30863
15.03548	32881
15.04360	32336
15.05173	35122
15.05985	28203
15.06797	31301
15.07610	28029
15.08422	30544
15.09235	29660
15.10047	28804
15.10858	31927
15.11672	31473
15.12483	31335
15.13297	33202
15.14108	30239
15.14920	29852
15.15733	31944
15.16545	32065
15.17358	32536
15.18170	33196
15.18982	29234
15.19795	29273
15.20607	31480
15.21418	32463
15.22232	30905
15.23043	32292
15.23857	30257
15.24668	30328
15.25480	31561
15.26293	31829
15.27105	31680
15.27918	29556
15.28730	26971
15.29542	27881
15.30355	25272
15.31167	30104
15.31980	30198
15.32792	28591
15.33603	29955
15.34417	27388
15.35228	30643
15.36040	27076
15.36853	27931
15.37665	25178
15.38478	26811
15.39290	27204
15.40102	27305
15.40915	29837
15.41727	27644
15.42540	31026
15.43352	26370
15.44163	28955
15.44977	27559
15.45788	27385
15.46600	26466
15.47413	28310
15.48225	27352
15.49038	27922
15.49850	28022
15.50662	32067
15.51475	30370
15.52287	28567
15.53100	28091
15.53912	27691
15.54723	31863
15.55537	30060
15.56348	27361
15.57162	31786
15.57973	29085
15.58785	29464
15.59598	28070
15.60410	30657
15.61222	30214
15.62035	25280
15.62847	26779
15.63660	23816
15.64472	26266
15.65283	25814
15.66097	27851
15.66908	28560
15.67722	30224
15.68533	28478
15.69345	29092
15.70158	31330
15.70970	27865
15.71783	27896
15.72595	28994
15.73407	26974
15.74220	30416
15.75032	33197
15.75843	33314
15.76657	33325
15.77468	29882
15.78282	32502
15.79093	31292
15.79905	33931
15.80718	31950
15.81530	29875
15.82343	28916
15.83155	29152
15.83967	27310
15.84780	28272
15.85592	31541
15.86403	31378
15.87217	26165
15.88028	26509
15.88842	29437
15.89653	31103
15.90465	30716
15.91278	30785
15.92090	28307
15.92903	27654
15.93715	31983
15.94527	28958
15.95340	29355
15.96152	30244
15.96965	28215
15.97777	26767
15.98588	27915
15.99402	31300
16.00213	33284
16.01025	36039
16.01838	39685
16.02650	39523
16.03463	41217
16.04275	39941
16.05087	35491
16.05900	35378
16.06712	30475
16.07525	30977
16.08337	31633
16.09148	29460
16.09962	30976
16.10773	32898
16.11587	29883
16.12398	27741
16.13210	30639
16.14023	30722
16.14835	30190
16.15647	30890
16.16460	27430
16.17272	28942
16.18085	30411
16.18897	28719
16.19708	30540
16.20522	30623
16.21333	27205
16.22147	31678
16.22958	29616
16.23770	31148
16.24583	29614
16.25395	30483
16.26207	30588
16.27020	31052
16.27832	27144
16.28645	30509
16.29457	31816
16.30268	29634
16.31082	32945
16.31893	33226
16.32707	31274
16.33518	37180
16.34330	33598
16.35143	32919
16.35955	34305
16.36768	30229
16.37580	29507
16.38392	32011
16.39205	31970
16.40017	31209
16.40828	33477
16.41642	30366
16.42453	26717
16.43267	28527
16.44078	29983
16.44890	29300
16.45703	30647
16.46515	30826
16.47328	31189
16.48140	31697
16.48952	34124
16.49765	33864
16.50577	31814
16.51388	34190
16.52202	31520
16.53013	28872
16.53827	30532
16.54638	33477
16.55450	29293
16.56263	30744
16.57075	30434
16.57888	31435
16.58700	35420
16.59512	37188
16.60325	32931
16.61137	33470
16.61950	34351
16.62762	33149
16.63573	30973
16.64387	30605
16.65198	29829
16.66010	28011
16.66823	32135
16.67635	29630
16.68448	32031
16.69260	30004
16.70072	36622
16.70885	29095
16.71697	33060
16.72510	29249
16.73322	31403
16.74133	34098
16.74947	34569
16.75758	29756
16.76572	33324
16.77383	31507
16.78195	30599
16.79008	28288
16.79820	30211
16.80632	30591
16.81445	31432
16.82257	33269
16.83070	32975
16.83882	30082
16.84693	32358
16.85507	31223
16.86318	30904
16.87132	34320
16.87943	33851
16.88755	36554
16.89568	29411
16.90380	30472
16.91192	30319
16.92005	32857
16.92817	32261
16.93630	29293
16.94442	32820
16.95253	30779
16.96067	31306
16.96878	33742
16.97692	32816
16.98503	29121
16.99315	32505
17.00128	32553
17.00940	32890
17.01753	29535
17.02565	32298
17.03377	29202
17.04190	28864
17.05002	29610
17.05813	28717
17.06627	28331
17.07438	32784
17.08252	34590
17.09063	32583
17.09875	31203
17.10688	34625
17.11500	32625
17.12313	33955
17.13125	32581
17.13937	31476
17.14750	31077
17.15562	29114
17.16375	32379
17.17187	33444
17.17998	30581
17.18812	32081
17.19623	30507
17.20435	28639
17.21248	30158
17.22060	34264
17.22873	34239
17.23685	31768
17.24497	28358
17.25310	31282
17.26122	28377
17.26935	33941
17.27747	30600
17.28558	28037
17.29372	30198
17.30183	31941
17.30995	32989
17.31808	33821
17.32620	31392
17.33433	32532
17.34245	31283
17.35057	33811
17.35870	35619
17.36682	35968
17.37495	36429
17.38307	38402
17.39118	44043
17.39932	39529
17.40743	40540
17.41557	39403
17.42368	41623
17.43180	43737
17.43993	36198
17.44805	40736
17.45617	37999
17.46430	36073
17.47242	37384
17.48055	35386
17.48867	37253
17.49678	38147
17.50492	38079
17.51303	40403
17.52117	48190
17.52928	53129
17.53740	60350
17.54553	72136
17.55365	76502
17.56177	79777
17.56990	79820
17.57802	73571
17.58615	60753
17.59427	52340
17.60238	45018
17.61052	39023
17.61863	40431
17.62677	39543
17.63488	35901
17.64300	37942
17.65113	34051
17.65925	36024
17.66738	37482
17.67550	37544
17.68362	36146
17.69175	40773
17.69987	37560
17.70798	35807
17.71612	32450
17.72423	36647
17.73237	35851
17.74048	33050
17.74860	35296
17.75673	35684
17.76485	34122
17.77298	33523
17.78110	35916
17.78922	33365
17.79735	34615
17.80547	38102
17.81360	33833
17.82172	35151
17.82983	33822
17.83797	39120
17.84608	40971
17.85420	41180
17.86233	41303
17.87045	43939
17.87858	46181
17.88670	40609
17.89482	36910
17.90295	36829
17.91107	33831
17.91920	33795
17.92732	31326
17.93543	35970
17.94357	34173
17.95168	33127
17.95980	33062
17.96793	32647
17.97605	29952
17.98418	33319
17.99230	32519
18.00042	33436
18.00855	32880
18.01667	35617
18.02480	37777
18.03292	40670
18.04103	39090
18.04917	39270
18.05728	41710
18.06542	40901
18.07353	39196
18.08165	41312
18.08978	39031
18.09790	39036
18.10602	36169
18.11415	39100
18.12227	37043
18.13040	38045
18.13852	34315
18.14663	36672
18.15477	33656
18.16288	32711
18.17102	38651
18.17913	33937
18.18725	39073
18.19538	37268
18.20350	36905
18.21163	36091
18.21975	38621
18.22787	36210
18.23600	38457
18.24412	38399
18.25223	35863
18.26037	36924
18.26848	39339
18.27662	39513
18.28473	36271
18.29285	36493
18.30098	34391
18.30910	32939
18.31723	34234
18.32535	33361
18.33347	32620
18.34160	30721
18.34972	33990
18.35783	34042
18.36597	32147
18.37408	30640
18.38222	31405
18.39033	34532
18.39845	32971
18.40658	35760
18.41470	39403
18.42283	34866
18.43095	35317
18.43907	31891
18.44720	32613
18.45532	33460
18.46345	30946
18.47157	33655
18.47968	30328
18.48782	33432
18.49593	32688
18.50405	33702
18.51218	35771
18.52030	35183
18.52843	37082
18.53655	33062
18.54467	37836
18.55280	37011
18.56092	40880
18.56905	39827
18.57717	36519
18.58528	41758
18.59342	42536
18.60153	43247
18.60965	47001
18.61778	47603
18.62590	49409
18.63403	46694
18.64215	44963
18.65027	38642
18.65840	41422
18.66652	39896
18.67465	42087
18.68277	40433
18.69088	38832
18.69902	41613
18.70713	38659
18.71527	39529
18.72338	38546
18.73150	38009
18.73963	39197
18.74775	39595
18.75587	36648
18.76400	39784
18.77212	38582
18.78025	36592
18.78837	37802
18.79648	37488
18.80462	37624
18.81273	36301
18.82087	36242
18.82898	35546
18.83710	33849
18.84523	32507
18.85335	36180
18.86148	35114
18.86960	37696
18.87772	37813
18.88585	36709
18.89397	45968
18.90208	42856
18.91022	44999
18.91833	42151
18.92647	42197
18.93458	41217
18.94270	40598
18.95083	36075
18.95895	34401
18.96708	34045
18.97520	34299
18.98332	33500
18.99145	38221
18.99957	36245
19.00770	40701
19.01582	37614
19.02393	40317
19.03207	39620
19.04018	39899
19.04830	39093
19.05643	40712
19.06455	39380
19.07268	41536
19.08080	45967
19.08892	48689
19.09705	48495
19.10517	52930
19.11330	54541
19.12142	50933
19.12953	53720
19.13767	60147
19.14578	65171
19.15390	72062
19.16203	73324
19.17015	74648
19.17828	65509
19.18640	63453
19.19452	59958
19.20265	53326
19.21077	47374
19.21890	48199
19.22702	44921
19.23513	41511
19.24327	41319
19.25138	42061
19.25952	41057
19.26763	39439
19.27575	42236
19.28388	45268
19.29200	46320
19.30012	47801
19.30825	48326
19.31637	43422
19.32450	38678
19.33262	40010
19.34073	39206
19.34887	40563
19.35698	33729
19.36512	35755
19.37323	35485
19.38135	35901
19.38948	35834
19.39760	37588
19.40572	36936
19.41385	35381
19.42197	40475
19.43010	42652
19.43822	57130
19.44633	86951
19.45447	125181
19.46258	163637
19.47072	173272
19.47883	157091
19.48695	126430
19.49508	91140
19.50320	69649
19.51133	52724
19.51945	42822
19.52757	43173
19.53570	40998
19.54382	41530
19.55193	40229
19.56007	40793
19.56818	39731
19.57632	38904
19.58443	41333
19.59255	34614
19.60068	35626
19.60880	36342
19.61693	40781
19.62505	45244
19.63317	51798
19.64130	63754
19.64942	81218
19.65755	84275
19.66567	85565
19.67378	80750
19.68192	72122
19.69003	60542
19.69815	56131
19.70628	48091
19.71440	46439
19.72253	42716
19.73065	44160
19.73877	38842
19.74690	39914
19.75502	41818
19.76315	37429
19.77127	39098
19.77938	39467
19.78752	39769
19.79563	39699
19.80375	36614
19.81188	38340
19.82000	36855
19.82813	35968
19.83625	41543
19.84437	40163
19.85250	49744
19.86062	45410
19.86875	54525
19.87687	55315
19.88498	64967
19.89312	75848
19.90123	80115
19.90937	89319
19.91748	98166
19.92560	87752
19.93373	90606
19.94185	83218
19.94997	83332
19.95810	81707
19.96622	82251
19.97435	74313
19.98247	75335
19.99058	73239
19.99872	75469
20.00683	70197
20.01497	70934
20.02308	62162
20.03120	62387
20.03933	57885
20.04745	53679
20.05558	51879
20.06370	46973
20.07182	44323
20.07995	44119
20.08807	46956
20.09618	44981
20.10432	45332
20.11243	42182
20.12057	37882
20.12868	41737
20.13680	41871
20.14493	41480
20.15305	45462
20.16118	43467
20.16930	48001
20.17742	47967
20.18555	45195
20.19367	48756
20.20178	50867
20.20992	48054
20.21803	50009
20.22617	52277
20.23428	59314
20.24240	66409
20.25053	71710
20.25865	79721
20.26678	77937
20.27490	80950
20.28302	73184
20.29115	60948
20.29927	53689
20.30740	51174
20.31552	47372
20.32363	44993
20.33177	40234
20.33988	38961
20.34800	39781
20.35613	39103
20.36425	41212
20.37238	36749
20.38050	36732
20.38862	41271
20.39675	42984
20.40487	44793
20.41300	40344
20.42112	45428
20.42923	47247
20.43737	45319
20.44548	48554
20.45360	41589
20.46173	42587
20.46985	40387
20.47798	43359
20.48610	45000
20.49422	37750
20.50235	35872
20.51047	38685
20.51860	37922
20.52672	37469
20.53483	41643
20.54297	38412
20.55108	34963
20.55922	32616
20.56733	32548
20.57545	34897
20.58358	35250
20.59170	31486
20.59982	34163
20.60795	31606
20.61607	30644
20.62420	32011
20.63232	31397
20.64043	30023
20.64857	36837
20.65668	31263
20.66482	33936
20.67293	33033
20.68105	32765
20.68918	31469
20.69730	34073
20.70543	32016
20.71355	31962
20.72167	33273
20.72980	32910
20.73792	36182
20.74603	34608
20.75417	35033
20.76228	35257
20.77042	37549
20.77853	37987
20.78665	37235
20.79478	35635
20.80290	39063
20.81103	36963
20.81915	33592
20.82727	34943
20.83540	32490
20.84352	36182
20.85163	31235
20.85977	32741
20.86788	29648
20.87602	36450
20.88413	30950
20.89225	35678
20.90038	33938
20.90850	33773
20.91663	32146
20.92475	31952
20.93287	32411
20.94100	37088
20.94912	29617
20.95725	30651
20.96537	29747
20.97348	32515
20.98162	33677
20.98973	30790
20.99785	31034
21.00598	31337
21.01410	34973
21.02223	30634
21.03035	35131
21.03847	33458
21.04660	36128
21.05472	36343
21.06285	34797
21.07097	36899
21.07908	34124
21.08722	34478
21.09533	33341
21.10347	34449
21.11158	35956
21.11970	35990
21.12783	33412
21.13595	32442
21.14407	33187
21.15220	32837
21.16032	33659
21.16845	33522
21.17657	34135
21.18468	30988
21.19282	32353
21.20093	33581
21.20907	30921
21.21718	36392
21.22530	35355
21.23343	35491
21.24155	35751
21.24967	33673
21.25780	33746
21.26592	34237
21.27405	37225
21.28217	36907
21.29028	35770
21.29842	34548
21.30653	33951
21.31467	35370
21.32278	34553
21.33090	33960
21.33903	38483
21.34715	35102
21.35528	34490
21.36340	33818
21.37152	32224
21.37965	34883
21.38777	31796
21.39588	34472
21.40402	37625
21.41213	35143
21.42027	38986
21.42838	34686
21.43650	33629
21.44463	35433
21.45275	33698
21.46088	29977
21.46900	32103
21.47712	35346
21.48525	37112
21.49337	34769
21.50150	34328
21.50962	31878
21.51773	34740
21.52587	32537
21.53398	32497
21.54210	34487
21.55023	32970
21.55835	35711
21.56648	31232
21.57460	38736
21.58272	40086
21.59085	42164
21.59897	47832
21.60710	48417
21.61522	49551
21.62333	48929
21.63147	44346
21.63958	41483
21.64770	38039
21.65583	38776
21.66395	37043
21.67208	33244
21.68020	34243
21.68832	34352
21.69645	34242
21.70457	35648
21.71270	34458
21.72082	33499
21.72893	33216
21.73707	34997
21.74518	33727
21.75332	33890
21.76143	35099
21.76955	38085
21.77768	40404
21.78580	39875
21.79392	42702
21.80205	44742
21.81017	43327
21.81830	44179
21.82642	39562
21.83453	40135
21.84267	39538
21.85078	37971
21.85892	35878
21.86703	31181
21.87515	31266
21.88328	31775
21.89140	31463
21.89952	32838
21.90765	33833
21.91577	35994
21.92390	33914
21.93202	32663
21.94013	35764
21.94827	33370
21.95638	35443
21.96452	34929
21.97263	31039
21.98075	32894
21.98888	32947
21.99700	30371
22.00513	34253
22.01325	30999
22.02137	31535
22.02950	35058
22.03762	34848
22.04573	37368
22.05387	33323
22.06198	38553
22.07012	36318
22.07823	36698
22.08635	37559
22.09448	37959
22.10260	40321
22.11073	38269
22.11885	33488
22.12697	33906
22.13510	31802
22.14322	37357
22.15135	35670
22.15947	35377
22.16758	36203
22.17572	32841
22.18383	36635
22.19195	35755
22.20008	34833
22.20820	35982
22.21633	34043
22.22445	34495
22.23257	31344
22.24070	30966
22.24882	29023
22.25695	30266
22.26507	30608
22.27318	31647
22.28132	30841
22.28943	33565
22.29755	35370
22.30568	34568
22.31380	33093
22.32193	32724
22.33005	31922
22.33817	35181
22.34630	33807
22.35442	29260
22.36255	30923
22.37067	31690
22.37878	33482
22.38692	34477
22.39503	32795
22.40317	33142
22.41128	32978
22.41940	32650
22.42753	35130
22.43565	34834
22.44377	34171
22.45190	31594
22.46002	33824
22.46815	29067
22.47627	30596
22.48438	32774
22.49252	34639
22.50063	28230
22.50877	34919
22.51688	34681
22.52500	30872
22.53313	32063
22.54125	28868
22.54938	29564
22.55750	31537
22.56562	36033
22.57375	32781
22.58187	32634
22.58998	38245
22.59812	31441
22.60623	34678
22.61437	34707
22.62248	31765
22.63060	30041
22.63873	30288
22.64685	32589
22.65498	32397
22.66310	34286
22.67122	30650
22.67935	30945
22.68747	32732
22.69558	30887
22.70372	31417
22.71183	30874
22.71997	30949
22.72808	33523
22.73620	33000
22.74433	32152
22.75245	32991
22.76058	32077
22.76870	34357
22.77682	34122
22.78495	35898
22.79307	33874
22.80120	33751
22.80932	29237
22.81743	33766
22.82557	32049
22.83368	31409
22.84180	30864
22.84993	35123
22.85805	36007
22.86618	35751
22.87430	36616
22.88242	37343
22.89055	39133
22.89867	40635
22.90680	46141
22.91492	51885
22.92303	52321
22.93117	53987
22.93928	54713
22.94740	59128
22.95553	55343
22.96365	50507
22.97178	54220
22.97990	50622
22.98802	49520
22.99615	50632
23.00427	48605
23.01240	47104
23.02052	48228
23.02863	44463
23.03677	47380
23.04488	44339
23.05302	45311
23.06113	42383
23.06925	43833
23.07738	40543
23.08550	39172
23.09362	41182
23.10175	42478
23.10987	42969
23.11800	39890
23.12612	40109
23.13423	42140
23.14237	37728
23.15048	38209
23.15862	41649
23.16673	41519
23.17485	41722
23.18298	39684
23.19110	43365
23.19923	42273
23.20735	44244
23.21547	43959
23.22360	37152
23.23172	36691
23.23983	40447
23.24797	41623
23.25608	39522
23.26422	38820
23.27233	39304
23.28045	38947
23.28858	38047
23.29670	39959
23.30483	41823
23.31295	42095
23.32107	42689
23.32920	40464
23.33732	41400
23.34543	42081
23.35357	42581
23.36168	46604
23.36982	42211
23.37793	43854
23.38605	47562
23.39418	50724
23.40230	42213
23.41043	47578
23.41855	40547
23.42667	45878
23.43480	41329
23.44292	39639
23.45105	40757
23.45917	42160
23.46728	40012
23.47542	43009
23.48353	39392
23.49165	39811
23.49978	38070
23.50790	38170
23.51603	37333
23.52415	40865
23.53227	39336
23.54040	44946
23.54852	45900
23.55665	44776
23.56477	41795
23.57288	43904
23.58102	43436
23.58913	42517
23.59727	47031
23.60538	41661
23.61350	42023
23.62163	42230
23.62975	41487
23.63787	44723
23.64600	43683
23.65412	44195
23.66225	42201
23.67037	43218
23.67848	45549
23.68662	47620
23.69473	46008
23.70287	47462
23.71098	45286
23.71910	47439
23.72723	63504
23.73535	104802
23.74347	235442
23.75160	529968
23.75972	1168050
23.76785	2046151
23.77597	2758919
23.78408	3074962
23.79222	2856708
23.80033	2364756
23.80847	1786709
23.81658	1310398
23.82470	968162
23.83283	721058
23.84095	546658
23.84908	425341
23.85720	356337
23.86532	300203
23.87345	258867
23.88157	237200
23.88968	211702
23.89782	184341
23.90593	176286
23.91407	166379
23.92218	146731
23.93030	144727
23.93843	131951
23.94655	129822
23.95468	118866
23.96280	119063
23.97092	109995
23.97905	112625
23.98717	101311
23.99528	100676
24.00342	89190
24.01153	89606
24.01967	86973
24.02778	85521
24.03590	82124
24.04403	84374
24.05215	80804
24.06028	78177
24.06840	77708
24.07652	77706
24.08465	79440
24.09277	75068
24.10090	78057
24.10902	76477
24.11713	71952
24.12527	69709
24.13338	66871
24.14150	61031
24.14963	61854
24.15775	67621
24.16588	67259
24.17400	74367
24.18212	75614
24.19025	74248
24.19837	71949
24.20650	67232
24.21462	66241
24.22273	65335
24.23087	58596
24.23898	58848
24.24712	55767
24.25523	55491
24.26335	53412
24.27148	54856
24.27960	51389
24.28772	52704
24.29585	51740
24.30397	52727
24.31210	56139
24.32022	59349
24.32833	70919
24.33647	87183
24.34458	113553
24.35272	131415
24.36083	133999
24.36895	114305
24.37708	91885
24.38520	71951
24.39333	58724
24.40145	52647
24.40957	50488
24.41770	50510
24.42582	49162
24.43393	46034
24.44207	51635
24.45018	54361
24.45832	52971
24.46643	56096
24.47455	54119
24.48268	52922
24.49080	52035
24.49893	48464
24.50705	45931
24.51517	44654
24.52330	48434
24.53142	45152
24.53953	46458
24.54767	42134
24.55578	43898
24.56392	40116
24.57203	42727
24.58015	42010
24.58828	40664
24.59640	42087
24.60453	41494
24.61265	42464
24.62077	42388
24.62890	43440
24.63702	40412
24.64515	40948
24.65327	44117
24.66138	44656
24.66952	39889
24.67763	43149
24.68575	40440
24.69388	38126
24.70200	35912
24.71013	38798
24.71825	41501
24.72637	37619
24.73450	36878
24.74262	41191
24.75075	40019
24.75887	40042
24.76698	40095
24.77512	41191
24.78323	40630
24.79135	39978
24.79948	39657
24.80760	41126
24.81573	43558
24.82385	43117
24.83197	41582
24.84010	40202
24.84822	39705
24.85635	37631
24.86447	34241
24.87258	40280
24.88072	35909
24.88883	33948
24.89697	36622
24.90508	35241
24.91320	35100
24.92133	38228
24.92945	34430
24.93757	39256
24.94570	36012
24.95382	34882
24.96195	35864
24.97007	36777
24.97818	30023
24.98632	34792
24.99443	36868
25.00257	40932
25.01068	34807
25.01880	31913
25.02693	34404
25.03505	34642
25.04318	36428
25.05130	34262
25.05942	32732
25.06755	34622
25.07567	32816
25.08378	35125
25.09192	36278
25.10003	35803
25.10817	32574
25.11628	39225
25.12440	34112
25.13253	33340
25.14065	37968
25.14878	40055
25.15690	36247
25.16502	37035
25.17315	36185
25.18127	33456
25.18938	33438
25.19752	41049
25.20563	35256
25.21377	32104
25.22188	35186
25.23000	35036
25.23813	31296
25.24625	31802
25.25438	33586
25.26250	32219
25.27062	33547
25.27875	32380
25.28687	36643
25.29500	40753
25.30312	42618
25.31123	43748
25.31937	44262
25.32748	41554
25.33560	40831
25.34373	35517
25.35185	38147
25.35998	37571
25.36810	35001
25.37622	32496
25.38435	32876
25.39247	32228
25.40060	32804
25.40872	34539
25.41683	33287
25.42497	32366
25.43308	36516
25.44122	33390
25.44933	32796
25.45745	28952
25.46558	31666
25.47370	31721
25.48182	31015
25.48995	32667
25.49807	33134
25.50620	32919
25.51432	33190
25.52243	32972
25.53057	33316
25.53868	30585
25.54682	32065
25.55493	31393
25.56305	32018
25.57118	30761
25.57930	31418
25.58742	30751
25.59555	33387
25.60367	32584
25.61180	31646
25.61992	33231
25.62803	30390
25.63617	28451
25.64428	30034
25.65242	30473
25.66053	27043
25.66865	33893
25.67678	32309
25.68490	26489
25.69303	26779
25.70115	28307
25.70927	28794
25.71740	30061
25.72552	31151
25.73363	27527
25.74177	33506
25.74988	33104
25.75802	30526
25.76613	31178
25.77425	31369
25.78238	30389
25.79050	31245
25.79863	27172
25.80675	29002
25.81487	34582
25.82300	30358
25.83112	27077
25.83923	32070
25.84737	29530
25.85548	30379
25.86362	30459
25.87173	28491
25.87985	29853
25.88798	31704
25.89610	30707
25.90423	30304
25.91235	31386
25.92047	30483
25.92860	28052
25.93672	27806
25.94485	32173
25.95297	27240
25.96108	26080
25.96922	29078
25.97733	26521
25.98545	31495
25.99358	30482
26.00170	27640
26.00983	29863
26.01795	29755
26.02607	29300
26.03420	29306
26.04232	31509
26.05045	29881
26.05857	29223
26.06668	29679
26.07482	30402
26.08293	32685
26.09107	29940
26.09918	27242
26.10730	29673
26.11543	34032
26.12355	34927
26.13167	37023
26.13980	37223
26.14792	35983
26.15605	39533
26.16417	34545
26.17228	37351
26.18042	34524
26.18853	36262
26.19667	34353
26.20478	31958
26.21290	38268
26.22103	32672
26.22915	30250
26.23727	29130
26.24540	29940
26.25352	29184
26.26165	31762
26.26977	29127
26.27788	28748
26.28602	27880
26.29413	28281
26.30227	28012
26.31038	28726
26.31850	28903
26.32663	27975
26.33475	29230
26.34288	31803
26.35100	31577
26.35912	28728
26.36725	29600
26.37537	31900
26.38348	31091
26.39162	30298
26.39973	31264
26.40787	28148
26.41598	26661
26.42410	31592
26.43223	29451
26.44035	32287
26.44848	30177
26.45660	30431
26.46472	31710
26.47285	31367
26.48097	28225
26.48910	30456
26.49722	30336
26.50533	28602
26.51347	30558
26.52158	27796
26.52970	28151
26.53783	29172
26.54595	29577
26.55408	28934
26.56220	27331
26.57032	28981
26.57845	24114
26.58657	34687
26.59470	27236
26.60282	28062
26.61093	28881
26.61907	30381
26.62718	26552
26.63530	29247
26.64343	29365
26.65155	28395
26.65968	31500
26.66780	32427
26.67592	30941
26.68405	31016
26.69217	32041
26.70030	33234
26.70842	31177
26.71653	33035
26.72467	32585
26.73278	34657
26.74092	32992
26.74903	30078
26.75715	31992
26.76528	32467
26.77340	32807
26.78152	31618
26.78965	31088
26.79777	33843
26.80590	32350
26.81402	31087
26.82213	33420
26.83027	32312
26.83838	33633
26.84652	29811
26.85463	28768
26.86275	31515
26.87088	33720
26.87900	35836
26.88713	35460
26.89525	34283
26.90337	31909
26.91150	34279
26.91962	36234
26.92773	36838
26.93587	38914
26.94398	53851
26.95212	86847
26.96023	149923
26.96835	253608
26.97648	400582
26.98460	568567
26.99273	728662
27.00085	861553
27.00897	901785
27.01710	834591
27.02522	680580
27.03333	556436
27.04147	431403
27.04958	320319
27.05772	256444
27.06583	201276
27.07395	177170
27.08208	147404
27.09020	127314
27.09833	113229
27.10645	106609
27.11457	98200
27.12270	90807
27.13082	85530
27.13895	80655
27.14707	76144
27.15518	76987
27.16332	68428
27.17143	68987
27.17955	62251
27.18768	62810
27.19580	60035
27.20393	62598
27.21205	59081
27.22017	52607
27.22830	51235
27.23642	54128
27.24455	54134
27.25267	52731
27.26078	55039
27.26892	48980
27.27703	48936
27.28515	51603
27.29328	46596
27.30140	44965
27.30953	46251
27.31765	47082
27.32577	43338
27.33390	46066
27.34202	45700
27.35015	43552
27.35827	41110
27.36638	39813
27.37452	45475
27.38263	45882
27.39077	40279
27.39888	43938
27.40700	40397
27.41513	41888
27.42325	41519
27.43137	40130
27.43950	41046
27.44762	42303
27.45575	37849
27.46387	36418
27.47198	38919
27.48012	40704
27.48823	38889
27.49637	41584
27.50448	40124
27.51260	38156
27.52073	41793
27.52885	44166
27.53698	35767
27.54510	36229
27.55322	37175
27.56135	36837
27.56947	36554
27.57758	38132
27.58572	39382
27.59383	36788
27.60197	36371
27.61008	36801
27.61820	33850
27.62633	32328
27.63445	36578
27.64258	34446
27.65070	34349
27.65882	37587
27.66695	35028
27.67507	34820
27.68318	32786
27.69132	32479
27.69943	35976
27.70757	37144
27.71568	38680
27.72380	41767
27.73193	46103
27.74005	46835
27.74818	49678
27.75630	49113
27.76442	40414
27.77255	44018
27.78067	40359
27.78880	35893
27.79692	41061
27.80503	31717
27.81317	35901
27.82128	34952
27.82940	39266
27.83753	31981
27.84565	33957
27.85378	34154
27.86190	34481
27.87002	34842
27.87815	34177
27.88627	30532
27.89440	38601
27.90252	33369
27.91063	31615
27.91877	31702
27.92688	30490
27.93502	31409
27.94313	34284
27.95125	31309
27.95938	35545
27.96750	36831
27.97562	35924
27.98375	37680
27.99187	46821
28.00000	40475
28.00812	43096
28.01623	37699
28.02437	36974
28.03248	36024
28.04062	32007
28.04873	35320
28.05685	36159
28.06498	37945
28.07310	40252
28.08122	50697
28.08935	54104
28.09747	68396
28.10560	75116
28.11372	76545
28.12183	72450
28.12997	64647
28.13808	58659
28.14622	49431
28.15433	45836
28.16245	44162
28.17058	39959
28.17870	40610
28.18683	33942
28.19495	36163
28.20307	32853
28.21120	34411
28.21932	36250
28.22743	37711
28.23557	35518
28.24368	45420
28.25182	59923
28.25993	78836
28.26805	114751
28.27618	164397
28.28430	221025
28.29243	283267
28.30055	353735
28.30867	401734
28.31680	415783
28.32492	429215
28.33303	428125
28.34117	405782
28.34928	370161
28.35742	336767
28.36553	308720
28.37365	260222
28.38178	231174
28.38990	196960
28.39803	184096
28.40615	159308
28.41427	142928
28.42240	127935
28.43052	113917
28.43865	106205
28.44677	95704
28.45488	88096
28.46302	82881
28.47113	75124
28.47925	73475
28.48738	76639
28.49550	66879
28.50363	66201
28.51175	69391
28.51987	64771
28.52800	66250
28.53612	58062
28.54425	64950
28.55237	58550
28.56048	56528
28.56862	56376
28.57673	53718
28.58487	57313
28.59298	52948
28.60110	52229
28.60923	51220
28.61735	51926
28.62547	52618
28.63360	53671
28.64172	50709
28.64985	56917
28.65797	51315
28.66608	54893
28.67422	55885
28.68233	55364
28.69047	55593
28.69858	57140
28.70670	75335
28.71483	75920
28.72295	80682
28.73107	75437
28.73920	71706
28.74732	66797
28.75545	53539
28.76357	47831
28.77168	47852
28.77982	44860
28.78793	48802
28.79607	43162
28.80418	43435
28.81230	42325
28.82043	43535
28.82855	41458
28.83668	43267
28.84480	44003
28.85292	41196
28.86105	41265
28.86917	43627
28.87728	41755
28.88542	39906
28.89353	41284
28.90167	41356
28.90978	42390
28.91790	39633
28.92603	41307
28.93415	41356
28.94228	43285
28.95040	43034
28.95852	42936
28.96665	46103
28.97477	40886
28.98290	41640
28.99102	39857
28.99913	39077
29.00727	39050
29.01538	41428
29.02350	42402
29.03163	38101
29.03975	39591
29.04788	38522
29.05600	41188
29.06412	40764
29.07225	38962
29.08037	36670
29.08850	36051
29.09662	38337
29.10473	37032
29.11287	41305
29.12098	38474
29.12910	42387
29.13723	38603
29.14535	36700
29.15348	37394
29.16160	37289
29.16972	36085
29.17785	34994
29.18597	39728
29.19410	37799
29.20222	40108
29.21033	37350
29.21847	39695
29.22658	39310
29.23472	44119
29.24283	45763
29.25095	44256
29.25908	42471
29.26720	43631
29.27532	42111
29.28345	43258
29.29157	40296
29.29970	37245
29.30782	39999
29.31593	38161
29.32407	37615
29.33218	34942
29.34032	34139
29.34843	35230
29.35655	34553
29.36468	40057
29.37280	34695
29.38092	33962
29.38905	36826
29.39717	35464
29.40530	36211
29.41342	35633
29.42153	35060
29.42967	41927
29.43778	41623
29.44592	37486
29.45403	39188
29.46215	36167
29.47028	39293
29.47840	38219
29.48653	34944
29.49465	39941
29.50277	35747
29.51090	40752
29.51902	36762
29.52713	36484
29.53527	37581
29.54338	35877
29.55152	37714
29.55963	35569
29.56775	41023
29.57588	40162
29.58400	44162
29.59213	52170
29.60025	49478
29.60837	46313
29.61650	42928
29.62462	41481
29.63275	36851
29.64087	36948
29.64898	37932
29.65712	36536
29.66523	34291
29.67335	35335
29.68148	34639
29.68960	36082
29.69773	35624
29.70585	36823
29.71397	36262
29.72210	35909
29.73022	35464
29.73835	35550
29.74647	35101
29.75458	36972
29.76272	34240
29.77083	32550
29.77897	30037
29.78708	33311
29.79520	33126
29.80333	35620
29.81145	32383
29.81957	34736
29.82770	32845
29.83582	31771
29.84395	34173
29.85207	36072
29.86018	37885
29.86832	39697
29.87643	49752
29.88457	58501
29.89268	72880
29.90080	88079
29.90893	114235
29.91705	134507
29.92517	149110
29.93330	164034
29.94142	175306
29.94955	185472
29.95767	199159
29.96578	193893
29.97392	200710
29.98203	195683
29.99017	179119
29.99828	170375
30.00640	155582
30.01453	139895
30.02265	127360
30.03078	123122
30.03890	118080
30.04702	103856
30.05515	94725
30.06327	87665
30.07138	86450
30.07952	86403
30.08763	81942
30.09577	70942
30.10388	69916
30.11200	70950
30.12013	63929
30.12825	63315
30.13638	59638
30.14450	61953
30.15262	54852
30.16075	56584
30.16887	55827
30.17698	52717
30.18512	54022
30.19323	47412
30.20137	50431
30.20948	48841
30.21760	45566
30.22573	43652
30.23385	43882
30.24198	49379
30.25010	43349
30.25822	46396
30.26635	44542
30.27447	47836
30.28260	45072
30.29072	45766
30.29883	41892
30.30697	41401
30.31508	40295
30.32320	45695
30.33133	43980
30.33945	39344
30.34758	43604
30.35570	42138
30.36382	41500
30.37195	40604
30.38007	41281
30.38820	36928
30.39632	40678
30.40443	38996
30.41257	38124
30.42068	39830
30.42882	38822
30.43693	40939
30.44505	36443
30.45318	37737
30.46130	38401
30.46942	39741
30.47755	39488
30.48567	41051
30.49380	38837
30.50192	37599
30.51003	39025
30.51817	37371
30.52628	37119
30.53442	38159
30.54253	41763
30.55065	36543
30.55878	33091
30.56690	35229
30.57502	32982
30.58315	34156
30.59127	35914
30.59940	39195
30.60752	36600
30.61563	38808
30.62377	38367
30.63188	34466
30.64002	37261
30.64813	37625
30.65625	33825
30.66438	34527
30.67250	36257
30.68063	35485
30.68875	35163
30.69687	34883
30.70500	34380
30.71312	38544
30.72123	35612
30.72937	40416
30.73748	34670
30.74562	39349
30.75373	36151
30.76185	35328
30.76998	38099
30.77810	38458
30.78623	37961
30.79435	40691
30.80247	38752
30.81060	39195
30.81872	43077
30.82685	35573
30.83497	36425
30.84308	35547
30.85122	33384
30.85933	35363
30.86745	34811
30.87558	34258
30.88370	34045
30.89183	34204
30.89995	34648
30.90807	34257
30.91620	35375
30.92432	32066
30.93245	33360
30.94057	35177
30.94868	30906
30.95682	32486
30.96493	32346
30.97305	34210
30.98118	36147
30.98930	32561
30.99743	39838
31.00555	34310
31.01367	35458
31.02180	34748
31.02992	36862
31.03805	39180
31.04617	35759
31.05428	36534
31.06242	39176
31.07053	42491
31.07867	35709
31.08678	38749
31.09490	40368
31.10303	37164
31.11115	39394
31.11927	36403
31.12740	37804
31.13552	37174
31.14365	36304
31.15177	38771
31.15988	40626
31.16802	45829
31.17613	53146
31.18427	63004
31.19238	74906
31.20050	83720
31.20863	89772
31.21675	90495
31.22487	84943
31.23300	73843
31.24112	58978
31.24925	48111
31.25737	46396
31.26548	39294
31.27362	37248
31.28173	36678
31.28987	38267
31.29798	40136
31.30610	35880
31.31423	36126
31.32235	31923
31.33048	37163
31.33860	35043
31.34672	33480
31.35485	36977
31.36297	40374
31.37108	39618
31.37922	37022
31.38733	37855
31.39547	32284
31.40358	38064
31.41170	38275
31.41983	37432
31.42795	38032
31.43608	38461
31.44420	39246
31.45232	37914
31.46045	37907
31.46857	35274
31.47670	34034
31.48482	39621
31.49293	32798
31.50107	33647
31.50918	34368
31.51730	35442
31.52543	32956
31.53355	36604
31.54168	37286
31.54980	36924
31.55792	36865
31.56605	35431
31.57417	35901
31.58230	33372
31.59042	36951
31.59853	36952
31.60667	34252
31.61478	35773
31.62290	40287
31.63103	37640
31.63915	40990
31.64728	37536
31.65540	39955
31.66352	41799
31.67165	42333
31.67977	42508
31.68790	44340
31.69602	45399
31.70413	46005
31.71227	45191
31.72038	38366
31.72852	41899
31.73663	37151
31.74475	38958
31.75288	35039
31.76100	36183
31.76912	37064
31.77725	38419
31.78537	38622
31.79350	37707
31.80162	41581
31.80973	40147
31.81787	42239
31.82598	40902
31.83412	54227
31.84223	55606
31.85035	69265
31.85848	80605
31.86660	95351
31.87473	106477
31.88285	116664
31.89097	116850
31.89910	128335
31.90722	118335
31.91533	117902
31.92347	117209
31.93158	111142
31.93972	103588
31.94783	96378
31.95595	92569
31.96408	85615
31.97220	86072
31.98033	81334
31.98845	76135
31.99657	75836
32.00470	71857
32.01282	64515
32.02093	59147
32.02907	63882
32.03718	65482
32.04532	56845
32.05343	52255
32.06155	55882
32.06968	49783
32.07780	48680
32.08593	44813
32.09405	47788
32.10217	49627
32.11030	46425
32.11842	48442
32.12655	45854
32.13467	43743
32.14278	46408
32.15092	44887
32.15903	44697
32.16715	42316
32.17528	41920
32.18340	44039
32.19153	45210
32.19965	42203
32.20777	46490
32.21590	43703
32.22402	39395
32.23215	42608
32.24027	43528
32.24838	40112
32.25652	40880
32.26463	41538
32.27277	41120
32.28088	39485
32.28900	37078
32.29713	39602
32.30525	39807
32.31337	38259
32.32150	40714
32.32962	39055
32.33775	36654
32.34587	38752
32.35398	41213
32.36212	41905
32.37023	38431
32.37837	38084
32.38648	41341
32.39460	39508
32.40273	36656
32.41085	37672
32.41897	37223
32.42710	40466
32.43522	41709
32.44335	39709
32.45147	36251
32.45958	40841
32.46772	39640
32.47583	43045
32.48397	37498
32.49208	38005
32.50020	37103
32.50833	38673
32.51645	37468
32.52458	37063
32.53270	37718
32.54082	41363
32.54895	40466
32.55707	39398
32.56518	39781
32.57332	43013
32.58143	42621
32.58957	45607
32.59768	52896
32.60580	59421
32.61393	60791
32.62205	63027
32.63018	58475
32.63830	51766
32.64642	44252
32.65455	41527
32.66267	40671
32.67078	42383
32.67892	40262
32.68703	42710
32.69517	40894
32.70328	40298
32.71140	38271
32.71953	43457
32.72765	44138
32.73578	42521
32.74390	43223
32.75202	39084
32.76015	40644
32.76827	37762
32.77640	38643
32.78452	36518
32.79263	38429
32.80077	39805
32.80888	40052
32.81700	37143
32.82513	39554
32.83325	36454
32.84138	35626
32.84950	38276
32.85762	36549
32.86575	37520
32.87387	39150
32.88200	34448
32.89012	36167
32.89823	36518
32.90637	42418
32.91448	38982
32.92262	39920
32.93073	39568
32.93885	41972
32.94698	36547
32.95510	35449
32.96322	37534
32.97135	36343
32.97947	34615
32.98760	36762
32.99572	39356
33.00383	39557
33.01197	37899
33.02008	40213
33.02822	39875
33.03633	38434
33.04445	44146
33.05258	38393
33.06070	41149
33.06882	37578
33.07695	40937
33.08507	46063
33.09320	49632
33.10132	48855
33.10943	54816
33.11757	57662
33.12568	52007
33.13382	51498
33.14193	49245
33.15005	47363
33.15818	45668
33.16630	41743
33.17443	42404
33.18255	40434
33.19067	36357
33.19880	40426
33.20692	35728
33.21503	36749
33.22317	37295
33.23128	41311
33.23942	39427
33.24753	39751
33.25565	38126
33.26378	38335
33.27190	38160
33.28003	39838
33.28815	39120
33.29627	41432
33.30440	38269
33.31252	42913
33.32065	39775
33.32877	42320
33.33688	41422
33.34502	40719
33.35313	38688
33.36125	35374
33.36938	37894
33.37750	35423
33.38563	41008
33.39375	39629
33.40187	39759
33.41000	40005
33.41812	39508
33.42625	40498
33.43437	40599
33.44248	41453
33.45062	41316
33.45873	39537
33.46685	40049
33.47498	39445
33.48310	36313
33.49123	39583
33.49935	42112
33.50747	41640
33.51560	36607
33.52372	43222
33.53185	38580
33.53997	38046
33.54808	37707
33.55622	37245
33.56433	40358
33.57247	37998
33.58058	39306
33.58870	40587
33.59683	39748
33.60495	38217
33.61307	36039
33.62120	41038
33.62932	35852
33.63745	39363
33.64557	38925
33.65368	42046
33.66182	39902
33.66993	38476
33.67807	41192
33.68618	38972
33.69430	40906
33.70243	38714
33.71055	41286
33.71867	41060
33.72680	41784
33.73492	39496
33.74305	43243
33.75117	47065
33.75928	46209
33.76742	45334
33.77553	46729
33.78367	50145
33.79178	48840
33.79990	49775
33.80803	50886
33.81615	50728
33.82428	55667
33.83240	47065
33.84052	48803
33.84865	52346
33.85677	49370
33.86488	52488
33.87302	53590
33.88113	50007
33.88927	55394
33.89738	51660
33.90550	50666
33.91363	50245
33.92175	51593
33.92988	51492
33.93800	53830
33.94612	48393
33.95425	55141
33.96237	48166
33.97050	53306
33.97862	45721
33.98673	50757
33.99487	51353
34.00298	49588
34.01110	47817
34.01923	50199
34.02735	47774
34.03548	45060
34.04360	46341
34.05172	47284
34.05985	45299
34.06797	45258
34.07610	42472
34.08422	49754
34.09233	46071
34.10047	41096
34.10858	42680
34.11670	44179
34.12483	46793
34.13295	47570
34.14108	43072
34.14920	50875
34.15732	45183
34.16545	44178
34.17357	45691
34.18170	41410
34.18982	45662
34.19793	47417
34.20607	43467
34.21418	41312
34.22232	39544
34.23043	39437
34.23855	44535
34.24668	45063
34.25480	41834
34.26292	42265
34.27105	44446
34.27917	44930
34.28730	43410
34.29542	42814
34.30353	47779
34.31167	47051
34.31978	49115
34.32792	44856
34.33603	48585
34.34415	47525
34.35228	45184
34.36040	43050
34.36853	43642
34.37665	41336
34.38477	46607
34.39290	42422
34.40102	44772
34.40913	45146
34.41727	40561
34.42538	45455
34.43352	48385
34.44163	50228
34.44975	60761
34.45788	73641
34.46600	87742
34.47413	101353
34.48225	114896
34.49037	120828
34.49850	130048
34.50662	130754
34.51473	120716
34.52287	115122
34.53098	103533
34.53912	96851
34.54723	97357
34.55535	85920
34.56348	80918
34.57160	73433
34.57973	72170
34.58785	68099
34.59597	67206
34.60410	64229
34.61222	66064
34.62035	61786
34.62847	67185
34.63658	65198
34.64472	64214
34.65283	64845
34.66095	67266
34.66908	68862
34.67720	64151
34.68533	62859
34.69345	65126
34.70157	62929
34.70970	63886
34.71782	65693
34.72595	59501
34.73407	60011
34.74218	61780
34.75032	60656
34.75843	59315
34.76655	57291
34.77468	55178
34.78280	55994
34.79093	60650
34.79905	57724
34.80717	57013
34.81530	57007
34.82342	54377
34.83155	55361
34.83967	49254
34.84778	50883
34.85592	52002
34.86403	49380
34.87217	46888
34.88028	52886
34.88840	51840
34.89653	53633
34.90465	52417
34.91277	55128
34.92090	53458
34.92902	57211
34.93715	52480
34.94527	59418
34.95338	51295
34.96152	53174
34.96963	51582
34.97777	50772
34.98588	51797
34.99400	51041
35.00213	48143
35.01025	53041
35.01838	46650
35.02650	48444
35.03462	49012
35.04275	49883
35.05087	51460
35.05898	51607
35.06712	44224
35.07523	51201
35.08337	50355
35.09148	51218
35.09960	49436
35.10773	51097
35.11585	50595
35.12398	52200
35.13210	53063
35.14022	51095
35.14835	50102
35.15647	48011
35.16460	50625
35.17272	48129
35.18083	49166
35.18897	49910
35.19708	51134
35.20520	51658
35.21333	49694
35.22145	49186
35.22958	50954
35.23770	48102
35.24582	50511
35.25395	50555
35.26207	53623
35.27020	53453
35.27832	55349
35.28643	51938
35.29457	51745
35.30268	51402
35.31080	53518
35.31893	54598
35.32705	54900
35.33518	52523
35.34330	51540
35.35142	56400
35.35955	52490
35.36767	52972
35.37580	56143
35.38392	52274
35.39203	52468
35.40017	53759
35.40828	54360
35.41642	54635
35.42453	57006
35.43265	54001
35.44078	52356
35.44890	54701
35.45702	55609
35.46515	57221
35.47327	58706
35.48140	54997
35.48952	51882
35.49763	53052
35.50577	53112
35.51388	53142
35.52202	53628
35.53013	50504
35.53825	51091
35.54638	49465
35.55450	51548
35.56262	50709
35.57075	55836
35.57887	55949
35.58700	51400
35.59512	55415
35.60323	53919
35.61137	55895
35.61948	56288
35.62762	55994
35.63573	59815
35.64385	50536
35.65198	56084
35.66010	50493
35.66823	51561
35.67635	53758
35.68447	53796
35.69260	50122
35.70072	48519
35.70883	51337
35.71697	53127
35.72508	47828
35.73322	52984
35.74133	54033
35.74945	48154
35.75758	49700
35.76570	45568
35.77383	48306
35.78195	49413
35.79007	49486
35.79820	50263
35.80632	49683
35.81445	49767
35.82257	53056
35.83068	55732
35.83882	51701
35.84693	52641
35.85505	51676
35.86318	54022
35.87130	51325
35.87943	52446
35.88755	53967
35.89567	49302
35.90380	50858
35.91192	54444
35.92005	55099
35.92817	50406
35.93628	51834
35.94442	50745
35.95253	54504
35.96065	57299
35.96878	51584
35.97690	51394
35.98503	52211
35.99315	51041
36.00127	55937
36.00940	59439
36.01752	56749
36.02565	53767
36.03377	57278
36.04188	55174
36.05002	58213
36.05813	56990
36.06627	54938
36.07438	57778
36.08250	55742
36.09063	55695
36.09875	53035
36.10687	52281
36.11500	54318
36.12312	55557
36.13125	54687
36.13937	56034
36.14748	54841
36.15562	52125
36.16373	56337
36.17187	55635
36.17998	54039
36.18810	53742
36.19623	52483
36.20435	51823
36.21248	51919
36.22060	57523
36.22872	56243
36.23685	64897
36.24497	70031
36.25308	79757
36.26122	80606
36.26933	81744
36.27747	71735
36.28558	65346
36.29370	64197
36.30183	59451
36.30995	58562
36.31808	57325
36.32620	56039
36.33432	55519
36.34245	55591
36.35057	58511
36.35868	57528
36.36682	58313
36.37493	61132
36.38307	58761
36.39118	55609
36.39930	56410
36.40743	59787
36.41555	56516
36.42368	59412
36.43180	58091
36.43992	62791
36.44805	63353
36.45617	59386
36.46430	56811
36.47242	58521
36.48053	54978
36.48867	56151
36.49678	57793
36.50490	55954
36.51303	57535
36.52115	56230
36.52928	58577
36.53740	54471
36.54552	53852
36.55365	54819
36.56177	55905
36.56990	56321
36.57802	53352
36.58613	60528
36.59427	59296
36.60238	59194
36.61052	60169
36.61863	56185
36.62675	57404
36.63488	58764
36.64300	57760
36.65112	55422
36.65925	56790
36.66737	53761
36.67550	57595
36.68362	57401
36.69173	59745
36.69987	57736
36.70798	57107
36.71612	58122
36.72423	60868
36.73235	56912
36.74048	56944
36.74860	60549
36.75672	61684
36.76485	58894
36.77297	58434
36.78110	57407
36.78922	60129
36.79733	59515
36.80547	58687
36.81358	57485
36.82172	57335
36.82983	60413
36.83795	58991
36.84608	57938
36.85420	60095
36.86233	60257
36.87045	61662
36.87857	56508
36.88670	59009
36.89482	57995
36.90293	61647
36.91107	58034
36.91918	58990
36.92732	60822
36.93543	60228
36.94355	58191
36.95168	55249
36.95980	60022
36.96793	62719
36.97605	63822
36.98417	76080
36.99230	88802
37.00042	112274
37.00853	133940
37.01667	166358
37.02478	183628
37.03292	187676
37.04103	177071
37.04915	151994
37.05728	119850
37.06540	96169
37.07353	87082
37.08165	72019
37.08977	69380
37.09790	67554
37.10602	65603
37.11415	67791
37.12227	65045
37.13038	69409
37.13852	66447
37.14663	60953
37.15475	66798
37.16288	64251
37.17100	64140
37.17913	66193
37.18725	65556
37.19537	66844
37.20350	66285
37.21162	63197
37.21975	61997
37.22787	64239
37.23598	65336
37.24412	66034
37.25223	72868
37.26037	84231
37.26848	95459
37.27660	108169
37.28473	127334
37.29285	133535
37.30097	134830
37.30910	135612
37.31722	125067
37.32535	117872
37.33347	107494
37.34158	97406
37.34972	96513
37.35783	91263
37.36597	85364
37.37408	84862
37.38220	76902
37.39033	83692
37.39845	81312
37.40657	82332
37.41470	81508
37.42282	74884
37.43095	81611
37.43907	76236
37.44718	77238
37.45532	78839
37.46343	75554
37.47157	72038
37.47968	74846
37.48780	74439
