D:\MassHunter\GCMS\1\data\JTB-E02\BACandSTRAW\JTB-E02-208-26.D Thu Mar 14 15:18:34 2019
Start of data points
2.09518	127025
2.10330	126710
2.11143	131946
2.11955	132152
2.12767	128505
2.13580	130333
2.14392	132334
2.15205	125000
2.16017	126548
2.16828	126630
2.17642	118249
2.18453	123185
2.19267	114392
2.20078	107900
2.20890	112780
2.21703	114875
2.22515	111594
2.23328	111526
2.24140	105251
2.24952	102317
2.25765	105488
2.26577	106556
2.27388	101340
2.28202	101284
2.29013	100167
2.29827	102099
2.30638	98246
2.31450	99854
2.32263	94648
2.33075	99421
2.33888	99247
2.34700	95714
2.35512	93625
2.36325	96872
2.37137	98562
2.37948	95392
2.38762	95810
2.39573	185854
2.40387	3446759
2.41198	1.232369E+07
2.42010	1.27935E+07
2.42823	7599425
2.43635	4117042
2.44448	3221851
2.45260	2730729
2.46072	2343509
2.46885	2038015
2.47697	1795895
2.48510	1597750
2.49322	1450429
2.50133	1307195
2.50947	1213483
2.51758	1116324
2.52570	1067787
2.53383	1005834
2.54195	940436
2.55008	909887
2.55820	868025
2.56632	856714
2.57445	837515
2.58257	817001
2.59070	780792
2.59882	764097
2.60693	752610
2.61507	760224
2.62318	699053
2.63132	718845
2.63943	716304
2.64755	701765
2.65568	673885
2.66380	666113
2.67192	686785
2.68005	658189
2.68817	656246
2.69630	650177
2.70442	699895
2.71253	802748
2.72067	756502
2.72878	676620
2.73692	654938
2.74503	646336
2.75315	631091
2.76128	655476
2.76940	705661
2.77753	699562
2.78565	645571
2.79377	620317
2.80190	622798
2.81002	611012
2.81813	606782
2.82627	595324
2.83438	600154
2.84252	572750
2.85063	589293
2.85875	581839
2.86688	576751
2.87500	575257
2.88313	567579
2.89125	559550
2.89937	558080
2.90750	540857
2.91562	549438
2.92373	544886
2.93187	540956
2.93998	548981
2.94812	620180
2.95623	636494
2.96435	564970
2.97248	550737
2.98060	543165
2.98873	528161
2.99685	520703
3.00497	520877
3.01310	519259
3.02122	515211
3.02935	505909
3.03747	515337
3.04558	497566
3.05372	506765
3.06183	490723
3.06995	491233
3.07808	492706
3.08620	480556
3.09433	483128
3.10245	471740
3.11057	485285
3.11870	468084
3.12682	469159
3.13495	474364
3.14307	469214
3.15118	455250
3.15932	462921
3.16743	449801
3.17557	479280
3.18368	472344
3.19180	467644
3.19993	442789
3.20805	444125
3.21617	446316
3.22430	423039
3.23242	425327
3.24055	431720
3.24867	435409
3.25678	433552
3.26492	431319
3.27303	577808
3.28117	3221561
3.28928	1.378664E+07
3.29740	1.929551E+07
3.30553	1.510892E+07
3.31365	9721824
3.32177	7508905
3.32990	6226052
3.33802	5229791
3.34615	4434129
3.35427	3837011
3.36238	4545304
3.37052	1.313887E+07
3.37863	2.384883E+07
3.38677	2.374642E+07
3.39488	1.753163E+07
3.40300	1.344544E+07
3.41113	1.147716E+07
3.41925	9837640
3.42738	8604418
3.43550	7547997
3.44362	6647494
3.45175	5957233
3.45987	5403351
3.46798	4956570
3.47612	5012116
3.48423	5280405
3.49237	5203888
3.50048	4757140
3.50860	4256390
3.51673	3901715
3.52485	3588792
3.53298	3341342
3.54110	3099562
3.54922	2857258
3.55735	2709079
3.56547	2528624
3.57360	2397650
3.58172	2278699
3.58983	2152928
3.59797	2037437
3.60608	1938618
3.61420	1852758
3.62233	1762034
3.63045	1703131
3.63858	1595945
3.64670	1553589
3.65482	1499938
3.66295	1459653
3.67107	1398969
3.67920	1336410
3.68732	1301678
3.69543	1252329
3.70357	1215398
3.71168	1202556
3.71980	1148187
3.72793	1115598
3.73605	1075866
3.74418	1049292
3.75230	1019854
3.76042	1003438
3.76855	975571
3.77667	957690
3.78480	933631
3.79292	922967
3.80103	897861
3.80917	874186
3.81728	844943
3.82542	834970
3.83353	832403
3.84165	802075
3.84978	781045
3.85790	773259
3.86602	928684
3.87415	2169280
3.88227	4928774
3.89040	5871366
3.89852	4029390
3.90663	2512635
3.91477	1981041
3.92288	1742294
3.93102	1544021
3.93913	1421266
3.94725	1332513
3.95538	1340940
3.96350	1469424
3.97163	1585114
3.97975	1957364
3.98787	6520076
3.99600	2.04922E+07
4.00412	3.1024E+07
4.01223	2.854498E+07
4.02037	1.705814E+07
4.02848	8921069
4.03662	5950902
4.04473	4540876
4.05285	3692033
4.06098	3128594
4.06910	2653210
4.07723	2405691
4.08535	2353319
4.09347	2806486
4.10160	3106584
4.10972	2660249
4.11785	2079653
4.12597	1826403
4.13408	1632630
4.14222	1515094
4.15033	1446035
4.15845	1339679
4.16658	1283140
4.17470	1240351
4.18283	1166686
4.19095	1131346
4.19907	1075691
4.20720	1043359
4.21532	1034489
4.22345	991978
4.23157	978739
4.23968	956088
4.24782	916508
4.25593	882992
4.26405	875414
4.27218	838066
4.28030	829903
4.28843	814680
4.29655	844099
4.30467	926434
4.31280	928264
4.32092	871241
4.32905	776828
4.33717	741410
4.34528	735862
4.35342	705505
4.36153	702337
4.36967	755751
4.37778	1325715
4.38590	3358506
4.39403	5931554
4.40215	6018136
4.41027	3959729
4.41840	2366098
4.42652	1665511
4.43465	1366957
4.44277	1145081
4.45088	1024555
4.45902	931966
4.46713	923623
4.47527	1086092
4.48338	1219276
4.49150	1141649
4.49963	954022
4.50775	847151
4.51588	782813
4.52400	733727
4.53212	684824
4.54025	656521
4.54837	631056
4.55648	620241
4.56462	600318
4.57273	580074
4.58087	577497
4.58898	570295
4.59710	551880
4.60523	546209
4.61335	536027
4.62148	521551
4.62960	529278
4.63772	517101
4.64585	495332
4.65397	505738
4.66208	509314
4.67022	495846
4.67833	485205
4.68647	484191
4.69458	479513
4.70270	479944
4.71083	477993
4.71895	482473
4.72708	470458
4.73520	476872
4.74332	455238
4.75145	452882
4.75957	465812
4.76770	461952
4.77582	497382
4.78393	589820
4.79207	597419
4.80018	546774
4.80830	496323
4.81643	463225
4.82455	452258
4.83268	518463
4.84080	750648
4.84892	1136820
4.85705	1241858
4.86517	1011502
4.87330	699063
4.88142	569879
4.88953	543405
4.89767	553923
4.90578	557683
4.91392	521192
4.92203	507118
4.93015	474283
4.93828	446152
4.94640	430515
4.95452	415332
4.96265	406106
4.97077	413370
4.97890	400177
4.98702	395911
4.99513	383219
5.00327	391523
5.01138	382053
5.01952	379560
5.02763	392703
5.03575	452572
5.04388	597684
5.05200	711833
5.06012	651823
5.06825	522071
5.07637	475006
5.08450	523689
5.09262	679095
5.10073	778035
5.10887	699666
5.11698	559442
5.12512	472470
5.13323	433645
5.14135	448750
5.14948	508709
5.15760	696304
5.16573	966782
5.17385	1161403
5.18197	1186217
5.19010	1050811
5.19822	1021297
5.20633	2044983
5.21447	8640442
5.22258	2.695208E+07
5.23072	4.645522E+07
5.23883	5.151934E+07
5.24695	4.097072E+07
5.25508	2.344904E+07
5.26320	1.337725E+07
5.27133	9511939
5.27945	7519976
5.28757	6361276
5.29570	5551024
5.30382	4909277
5.31195	4414137
5.32007	4062765
5.32818	3751740
5.33632	3507300
5.34443	3319236
5.35255	3130655
5.36068	2985851
5.36880	2791380
5.37693	2681035
5.38505	2569106
5.39317	2473933
5.40130	2347481
5.40942	2261129
5.41755	2173912
5.42567	2078693
5.43378	2010374
5.44192	1982072
5.45003	1914504
5.45817	1817550
5.46628	1798998
5.47440	1713341
5.48253	1681946
5.49065	1640879
5.49877	1603742
5.50690	1543159
5.51502	1493133
5.52315	1477224
5.53127	1452877
5.53938	1426873
5.54752	1397918
5.55563	1364142
5.56377	1346678
5.57188	1321573
5.58000	1280336
5.58813	1278458
5.59625	1403775
5.60437	1707175
5.61250	2004708
5.62062	1999793
5.62875	1708744
5.63687	1599383
5.64498	2400774
5.65312	5157117
5.66123	9593233
5.66937	1.229077E+07
5.67748	1.060367E+07
5.68560	6799254
5.69373	3906902
5.70185	2687756
5.70998	2330188
5.71810	2463572
5.72622	2528080
5.73435	2290369
5.74247	1883882
5.75058	1577049
5.75872	1428448
5.76683	1304434
5.77497	1231552
5.78308	1207482
5.79120	1195181
5.79933	1212533
5.80745	1263701
5.81558	1516882
5.82370	2820085
5.83182	6034303
5.83995	9736338
5.84807	1.08315E+07
5.85620	8252075
5.86432	4910069
5.87243	2893001
5.88057	2060031
5.88868	1710106
5.89680	1545918
5.90493	1380221
5.91305	1307904
5.92118	1214391
5.92930	1191099
5.93742	1132067
5.94555	1059242
5.95367	1051220
5.96180	1023340
5.96992	987678
5.97803	992969
5.98617	997554
5.99428	1043877
6.00240	1017649
6.01053	943955
6.01865	885678
6.02678	863209
6.03490	830468
6.04302	813806
6.05115	783681
6.05927	774846
6.06740	749882
6.07552	708474
6.08363	706189
6.09177	700524
6.09988	671217
6.10802	662004
6.11613	663780
6.12425	639248
6.13238	638418
6.14050	628462
6.14862	612118
6.15675	632081
6.16487	655070
6.17300	882436
6.18112	1837769
6.18923	4104608
6.19737	6806565
6.20548	7473628
6.21362	5650303
6.22173	3301558
6.22985	1939406
6.23798	1409558
6.24610	1239568
6.25423	1351881
6.26235	2597505
6.27047	7341813
6.27860	1.740446E+07
6.28672	2.849978E+07
6.29483	3.265973E+07
6.30297	2.701726E+07
6.31108	1.608147E+07
6.31922	8028540
6.32733	4570134
6.33545	3217416
6.34358	2637544
6.35170	2305051
6.35983	2075512
6.36795	1862584
6.37607	1733944
6.38420	1604830
6.39232	1527074
6.40043	1419886
6.40857	1381425
6.41668	1350019
6.42482	1262501
6.43293	1243523
6.44105	1246934
6.44918	1261090
6.45730	1256561
6.46543	1164230
6.47355	1100650
6.48167	1056236
6.48980	988516
6.49792	972058
6.50605	954337
6.51417	952048
6.52228	1015693
6.53042	1374083
6.53853	2224752
6.54665	3343084
6.55478	3704784
6.56290	3041549
6.57103	2048794
6.57915	1357694
6.58727	1070866
6.59540	936590
6.60352	892857
6.61165	843725
6.61977	802336
6.62788	780435
6.63602	767257
6.64413	757988
6.65227	763028
6.66038	716951
6.66850	710694
6.67663	690996
6.68475	683204
6.69287	669692
6.70100	692992
6.70912	663888
6.71725	654274
6.72537	641953
6.73348	644778
6.74162	642475
6.74973	622280
6.75787	624372
6.76598	630084
6.77410	608257
6.78223	606856
6.79035	595733
6.79848	591151
6.80660	594768
6.81472	580471
6.82285	588825
6.83097	574100
6.83908	568883
6.84722	568011
6.85533	622837
6.86347	819411
6.87158	1340337
6.87970	2026649
6.88783	2303389
6.89595	2027380
6.90408	1619129
6.91220	1367375
6.92032	1175666
6.92845	918651
6.93657	766531
6.94468	720029
6.95282	830273
6.96093	1146912
6.96907	1651529
6.97718	2524857
6.98530	4090501
6.99343	5566252
7.00155	5414947
7.00968	3787175
7.01780	2100826
7.02592	1241950
7.03405	938984
7.04217	829772
7.05030	739758
7.05842	710888
7.06653	671384
7.07467	650575
7.08278	750487
7.09090	705896
7.09903	686513
7.10715	659597
7.11528	644937
7.12340	631381
7.13152	639294
7.13965	607689
7.14777	613705
7.15590	594555
7.16402	582226
7.17213	562065
7.18027	563998
7.18838	567334
7.19652	532168
7.20463	507160
7.21275	508971
7.22088	491960
7.22900	490744
7.23712	476501
7.24525	469122
7.25337	478267
7.26150	517470
7.26962	591558
7.27773	708451
7.28587	809264
7.29398	761010
7.30212	654331
7.31023	503201
7.31835	427358
7.32648	390386
7.33460	389083
7.34272	399308
7.35085	390632
7.35897	382445
7.36710	388637
7.37522	377175
7.38333	372898
7.39147	374024
7.39958	371181
7.40772	363115
7.41583	362275
7.42395	359713
7.43208	353432
7.44020	360538
7.44833	344278
7.45645	346851
7.46457	341312
7.47270	330435
7.48082	335493
7.48893	337927
7.49707	335030
7.50518	331790
7.51332	336988
7.52143	326265
7.52955	318627
7.53768	312292
7.54580	320663
7.55393	342009
7.56205	393038
7.57017	450950
7.57830	456884
7.58642	428498
7.59455	380693
7.60267	346703
7.61078	329242
7.61892	310755
7.62703	309120
7.63515	291529
7.64328	280366
7.65140	282775
7.65953	283360
7.66765	277957
7.67577	278480
7.68390	284445
7.69202	274409
7.70015	266320
7.70827	266457
7.71638	266686
7.72452	284442
7.73263	269059
7.74075	258860
7.74888	273031
7.75700	294670
7.76513	320645
7.77325	399503
7.78137	510550
7.78950	638803
7.79762	672353
7.80575	596558
7.81387	475637
7.82198	410252
7.83012	345967
7.83823	329734
7.84637	313448
7.85448	297335
7.86260	275801
7.87073	277273
7.87885	284180
7.88697	277579
7.89510	264670
7.90322	258958
7.91135	280301
7.91947	310279
7.92758	326173
7.93572	356069
7.94383	386517
7.95197	391352
7.96008	377264
7.96820	345322
7.97633	301933
7.98445	259788
7.99258	235839
8.00070	212880
8.00882	200842
8.01695	194208
8.02507	190852
8.03318	189181
8.04132	183377
8.04943	168155
8.05757	157556
8.06568	157810
8.07380	165289
8.08193	153523
8.09005	159805
8.09818	153685
8.10630	147101
8.11442	153903
8.12255	171991
8.13067	162177
8.13880	187622
8.14692	285298
8.15503	583334
8.16317	1177396
8.17128	2010588
8.17940	2794669
8.18753	3604652
8.19565	4794885
8.20378	6144585
8.21190	6589462
8.22002	5505046
8.22815	3688458
8.23627	2035030
8.24440	1124549
8.25252	710541
8.26063	551017
8.26877	514199
8.27688	504033
8.28500	480838
8.29313	434276
8.30125	341714
8.30938	291954
8.31750	250029
8.32562	240890
8.33375	238237
8.34187	247653
8.35000	276180
8.35812	319792
8.36623	323446
8.37437	326094
8.38248	332751
8.39062	321802
8.39873	322345
8.40685	356133
8.41498	404425
8.42310	485772
8.43122	535858
8.43935	523044
8.44747	467737
8.45560	388013
8.46372	331019
8.47183	297228
8.47997	274999
8.48808	258996
8.49622	258835
8.50433	256149
8.51245	238813
8.52058	242329
8.52870	230544
8.53683	229158
8.54495	234282
8.55307	240333
8.56120	248784
8.56932	271493
8.57743	278440
8.58557	297361
8.59368	303661
8.60182	260266
8.60993	234620
8.61805	211033
8.62618	191076
8.63430	190088
8.64243	188653
8.65055	204815
8.65867	199438
8.66680	224828
8.67492	222663
8.68303	220851
8.69117	198577
8.69928	188091
8.70742	190869
8.71553	197326
8.72365	191741
8.73178	193054
8.73990	179513
8.74803	188475
8.75615	205107
8.76427	265071
8.77240	384122
8.78052	478503
8.78865	536063
8.79677	464230
8.80488	369260
8.81302	266750
8.82113	221870
8.82925	191060
8.83738	177043
8.84550	174497
8.85363	162522
8.86175	172551
8.86987	161346
8.87800	160430
8.88612	157733
8.89425	164504
8.90237	172756
8.91048	192271
8.91862	206199
8.92673	217686
8.93487	211935
8.94298	205004
8.95110	175068
8.95923	160588
8.96735	158234
8.97547	152955
8.98360	151250
8.99172	154607
8.99985	212271
9.00797	438406
9.01608	1007731
9.02422	2064800
9.03233	3283619
9.04047	3798899
9.04858	3359736
9.05670	2254054
9.06483	1335209
9.07295	793749
9.08107	501998
9.08920	426164
9.09732	409493
9.10545	417579
9.11357	410331
9.12168	376311
9.12982	348688
9.13793	299578
9.14607	265721
9.15418	250829
9.16230	233208
9.17043	232011
9.17855	224897
9.18668	221121
9.19480	254714
9.20292	325450
9.21105	455652
9.21917	604611
9.22728	666274
9.23542	616409
9.24353	479028
9.25167	359534
9.25978	272739
9.26790	222146
9.27603	207018
9.28415	205964
9.29228	198681
9.30040	201985
9.30852	205959
9.31665	228340
9.32477	273308
9.33290	315159
9.34102	338203
9.34913	323179
9.35727	282645
9.36538	252733
9.37350	233139
9.38163	230727
9.38975	238463
9.39788	231966
9.40600	232081
9.41412	221765
9.42225	222771
9.43037	211576
9.43850	202019
9.44662	209747
9.45473	201210
9.46287	210514
9.47098	204903
9.47912	215473
9.48723	189700
9.49535	192039
9.50348	190482
9.51160	218809
9.51972	256182
9.52785	359718
9.53597	490785
9.54410	567701
9.55222	565629
9.56033	469903
9.56847	351627
9.57658	260236
9.58472	205293
9.59283	192074
9.60095	184597
9.60908	199667
9.61720	208681
9.62532	247915
9.63345	231406
9.64157	212954
9.64970	193882
9.65782	178436
9.66593	165560
9.67407	171271
9.68218	158853
9.69032	157617
9.69843	181162
9.70655	198166
9.71468	214933
9.72280	214864
9.73093	215638
9.73905	186071
9.74717	169423
9.75530	160622
9.76342	156157
9.77153	141044
9.77967	138914
9.78778	146973
9.79592	136317
9.80403	125256
9.81215	122859
9.82028	120542
9.82840	122052
9.83653	122428
9.84465	124481
9.85277	122413
9.86090	130484
9.86902	146463
9.87715	176269
9.88527	195805
9.89338	202031
9.90152	188283
9.90963	163595
9.91775	132965
9.92588	129842
9.93400	130523
9.94213	123756
9.95025	121731
9.95837	122162
9.96650	145134
9.97462	218289
9.98275	664308
9.99087	2244509
9.99898	6661347
10.00712	1.469912E+07
10.01523	2.429035E+07
10.02335	3.126355E+07
10.03148	3.133548E+07
10.03960	2.459846E+07
10.04773	1.420879E+07
10.05585	6503708
10.06397	2820931
10.07210	1410540
10.08022	999605
10.08835	1039211
10.09647	1362373
10.10458	1738701
10.11272	2106454
10.12083	2224187
10.12897	2187757
10.13708	2049545
10.14520	1839068
10.15333	1676601
10.16145	1510563
10.16957	1369386
10.17770	1228930
10.18582	1187173
10.19395	1130619
10.20207	1095318
10.21018	1066954
10.21832	1005833
10.22643	1000880
10.23457	968864
10.24268	953667
10.25080	951555
10.25893	959458
10.26705	938532
10.27518	888064
10.28330	865441
10.29142	824609
10.29955	818715
10.30767	805308
10.31578	783328
10.32392	749540
10.33203	750254
10.34017	737179
10.34828	722970
10.35640	695924
10.36453	664726
10.37265	663190
10.38078	631546
10.38890	616083
10.39702	615105
10.40515	602439
10.41327	606120
10.42138	591254
10.42952	587686
10.43763	569518
10.44577	571643
10.45388	546967
10.46200	539121
10.47013	536724
10.47825	511577
10.48638	501162
10.49450	502222
10.50262	476547
10.51075	503252
10.51887	479463
10.52700	465245
10.53512	468452
10.54323	473749
10.55137	461386
10.55948	454779
10.56760	452649
10.57573	449567
10.58385	444770
10.59198	454924
10.60010	437521
10.60822	424924
10.61635	414519
10.62447	416170
10.63260	416149
10.64072	405209
10.64883	403868
10.65697	401588
10.66508	425695
10.67322	527254
10.68133	668793
10.68945	763131
10.69758	820158
10.70570	850233
10.71382	912604
10.72195	1096101
10.73007	1263974
10.73820	1217643
10.74632	962685
10.75443	690951
10.76257	510303
10.77068	425673
10.77882	399117
10.78693	383526
10.79505	372412
10.80318	382354
10.81130	392050
10.81943	409636
10.82755	426944
10.83567	450086
10.84380	459712
10.85192	508402
10.86003	559376
10.86817	585080
10.87628	552592
10.88442	491732
10.89253	419798
10.90065	374596
10.90878	339965
10.91690	329061
10.92503	326746
10.93315	333462
10.94127	359290
10.94940	403539
10.95752	470664
10.96563	532517
10.97377	513615
10.98188	434749
10.99002	328563
10.99813	216452
11.00625	160912
11.01438	131386
11.02250	128111
11.03063	131258
11.03875	123439
11.04687	124853
11.05500	126031
11.06312	127235
11.07125	121669
11.07937	119406
11.08748	119361
11.09562	111069
11.10373	111588
11.11185	120753
11.11998	127595
11.12810	142986
11.13623	168890
11.14435	187358
11.15247	202755
11.16060	200464
11.16872	169424
11.17685	138485
11.18497	124777
11.19308	117686
11.20122	105254
11.20933	105904
11.21747	105929
11.22558	105336
11.23370	102551
11.24183	110908
11.24995	97380
11.25807	97848
11.26620	95725
11.27432	98829
11.28245	106002
11.29057	126671
11.29868	152537
11.30682	198357
11.31493	205668
11.32307	197074
11.33118	175933
11.33930	143025
11.34743	113128
11.35555	118687
11.36367	142766
11.37180	226215
11.37992	508650
11.38805	1320033
11.39617	3153481
11.40428	6125852
11.41242	9523827
11.42053	1.19585E+07
11.42867	1.240871E+07
11.43678	1.088561E+07
11.44490	8330528
11.45303	5653063
11.46115	3446547
11.46928	2036600
11.47740	1347264
11.48552	1127842
11.49365	1164092
11.50177	1196899
11.50988	1226575
11.51802	1252089
11.52613	1218147
11.53427	1179875
11.54238	1072529
11.55050	978117
11.55863	934097
11.56675	850311
11.57488	820766
11.58300	797635
11.59112	767230
11.59925	737372
11.60737	722754
11.61550	702956
11.62362	687415
11.63173	673254
11.63987	642652
11.64798	647690
11.65610	620365
11.66423	613804
11.67235	606910
11.68048	610282
11.68860	615683
11.69672	606511
11.70485	585399
11.71297	568077
11.72110	574199
11.72922	544303
11.73733	534804
11.74547	520909
11.75358	512359
11.76170	517266
11.76983	508233
11.77795	482270
11.78608	488217
11.79420	483569
11.80232	466679
11.81045	486800
11.81857	511901
11.82670	563195
11.83482	628646
11.84293	622222
11.85107	610278
11.85918	536106
11.86732	502532
11.87543	484776
11.88355	482717
11.89168	506303
11.89980	537194
11.90792	581477
11.91605	567289
11.92417	552781
11.93230	552572
11.94042	535388
11.94853	510882
11.95667	494277
11.96478	453039
11.97292	441681
11.98103	411599
11.98915	409700
11.99728	390942
12.00540	387187
12.01353	392907
12.02165	396997
12.02977	417612
12.03790	409751
12.04602	413741
12.05413	404778
12.06227	399436
12.07038	387317
12.07852	382814
12.08663	397981
12.09475	410323
12.10288	410771
12.11100	408745
12.11913	403163
12.12725	389719
12.13537	400023
12.14350	362144
12.15162	346034
12.15975	309488
12.16787	296928
12.17598	251968
12.18412	215565
12.19223	179791
12.20035	168607
12.20848	164148
12.21660	154791
12.22473	149438
12.23285	150610
12.24097	147575
12.24910	148938
12.25722	140840
12.26535	137196
12.27347	139856
12.28158	144152
12.28972	132041
12.29783	127431
12.30595	130835
12.31408	133332
12.32220	135687
12.33033	148063
12.33845	149308
12.34657	172371
12.35470	185684
12.36282	188218
12.37095	192217
12.37907	163145
12.38718	162970
12.39532	201156
12.40343	334937
12.41157	616180
12.41968	1002978
12.42780	1312210
12.43593	1414094
12.44405	1175976
12.45217	832245
12.46030	516494
12.46842	325990
12.47655	254140
12.48467	226807
12.49278	219569
12.50092	217657
12.50903	209036
12.51717	192253
12.52528	192423
12.53340	172418
12.54153	161518
12.54965	157179
12.55778	155236
12.56590	151209
12.57402	147000
12.58215	139664
12.59027	140729
12.59838	159793
12.60652	206096
12.61463	342692
12.62277	605797
12.63088	912474
12.63900	1180718
12.64713	1223219
12.65525	978110
12.66338	670025
12.67150	440784
12.67962	329052
12.68775	308946
12.69587	301008
12.70398	317494
12.71212	305363
12.72023	292819
12.72837	285808
12.73648	284445
12.74460	268877
12.75273	256825
12.76085	272279
12.76898	255414
12.77710	261432
12.78522	279570
12.79335	312976
12.80147	311717
12.80960	311399
12.81772	315445
12.82583	287161
12.83397	279509
12.84208	247203
12.85020	237090
12.85833	226501
12.86645	226302
12.87458	230277
12.88270	222161
12.89082	219038
12.89895	215945
12.90707	214065
12.91520	202687
12.92332	206658
12.93143	195385
12.93957	193876
12.94768	181111
12.95582	191022
12.96393	181369
12.97205	185423
12.98018	185618
12.98830	180030
12.99642	199629
13.00455	201181
13.01267	212735
13.02080	205783
13.02892	191036
13.03703	170973
13.04517	179217
13.05328	160347
13.06142	155133
13.06953	155325
13.07765	156358
13.08578	152201
13.09390	154812
13.10202	162166
13.11015	151524
13.11827	157274
13.12640	158968
13.13452	158107
13.14263	160783
13.15077	167670
13.15888	190482
13.16702	250560
13.17513	304767
13.18325	360301
13.19138	349951
13.19950	308293
13.20763	243308
13.21575	182655
13.22387	152174
13.23200	134082
13.24012	120066
13.24823	108546
13.25637	102220
13.26448	101607
13.27262	109847
13.28073	101762
13.28885	92031
13.29698	91268
13.30510	84820
13.31323	88776
13.32135	107777
13.32947	143349
13.33760	190138
13.34572	240952
13.35385	280676
13.36197	280915
13.37008	250107
13.37822	207993
13.38633	188786
13.39445	148085
13.40258	125032
13.41070	119537
13.41883	111157
13.42695	102535
13.43507	108481
13.44320	94267
13.45132	90199
13.45945	87108
13.46757	90242
13.47568	85352
13.48382	85114
13.49193	89637
13.50007	83836
13.50818	87385
13.51630	86355
13.52443	91271
13.53255	76940
13.54067	83346
13.54880	72704
13.55692	71614
13.56505	72021
13.57317	72180
13.58128	84734
13.58942	74910
13.59753	72136
13.60567	80387
13.61378	70079
13.62190	75339
13.63003	68488
13.63815	68457
13.64627	65647
13.65440	69990
13.66252	70669
13.67065	70459
13.67877	73248
13.68688	78510
13.69502	72083
13.70313	76219
13.71127	64761
13.71938	64357
13.72750	66748
13.73563	65263
13.74375	66177
13.75188	65424
13.76000	65121
13.76812	66488
13.77625	62429
13.78437	60794
13.79248	55901
13.80062	59018
13.80873	55842
13.81687	63258
13.82498	55773
13.83310	55845
13.84123	56225
13.84935	57878
13.85748	55256
13.86560	55080
13.87372	53804
13.88185	53750
13.88997	53260
13.89810	50331
13.90622	49631
13.91433	51152
13.92247	54471
13.93058	52336
13.93870	52417
13.94683	50310
13.95495	52875
13.96308	59176
13.97120	47865
13.97932	50280
13.98745	57482
13.99557	79698
14.00370	102719
14.01182	166062
14.01993	256789
14.02807	346786
14.03618	361333
14.04430	330703
14.05243	235932
14.06055	170242
14.06868	121630
14.07680	100734
14.08492	99379
14.09305	105980
14.10117	124511
14.10930	115742
14.11742	113468
14.12553	96519
14.13367	88646
14.14178	81107
14.14992	70557
14.15803	68166
14.16615	77570
14.17428	68546
14.18240	78121
14.19052	88801
14.19865	111525
14.20677	138086
14.21490	174836
14.22302	176509
14.23113	160356
14.23927	149121
14.24738	119788
14.25552	104919
14.26363	95982
14.27175	84591
14.27988	84543
14.28800	76357
14.29613	69937
14.30425	65170
14.31237	72121
14.32050	71687
14.32862	69935
14.33673	66336
14.34487	69546
14.35298	64853
14.36112	61772
14.36923	61819
14.37735	66940
14.38548	59516
14.39360	57554
14.40173	55710
14.40985	61992
14.41797	61550
14.42610	58810
14.43422	58392
14.44233	59045
14.45047	72088
14.45858	68940
14.46672	80765
14.47483	107844
14.48295	129207
14.49108	149576
14.49920	161941
14.50733	151236
14.51545	142773
14.52357	133929
14.53170	120973
14.53982	122104
14.54795	126435
14.55607	147067
14.56418	158422
14.57232	164060
14.58043	166141
14.58855	132073
14.59668	116073
14.60480	97438
14.61293	96703
14.62105	86004
14.62917	79192
14.63730	74564
14.64542	78104
14.65355	76780
14.66167	97256
14.66978	99519
14.67792	84002
14.68603	77048
14.69417	68652
14.70228	66634
14.71040	66888
14.71853	57695
14.72665	61586
14.73477	55638
14.74290	62748
14.75102	66101
14.75915	75560
14.76727	68895
14.77538	64529
14.78352	68961
14.79163	78258
14.79977	64539
14.80788	65521
14.81600	59663
14.82413	63403
14.83225	58455
14.84038	54499
14.84850	58658
14.85662	59234
14.86475	53066
14.87287	58574
14.88098	52648
14.88912	48871
14.89723	53432
14.90537	54172
14.91348	56115
14.92160	63459
14.92973	69735
14.93785	69978
14.94598	69887
14.95410	64807
14.96222	60536
14.97035	58366
14.97847	68513
14.98658	62405
14.99472	72997
15.00283	80998
15.01097	95739
15.01908	94550
15.02720	95110
15.03533	80074
15.04345	70527
15.05158	67485
15.05970	57504
15.06782	59022
15.07595	54613
15.08407	54278
15.09220	50691
15.10032	60354
15.10843	63561
15.11657	56294
15.12468	55255
15.13280	59241
15.14093	57676
15.14905	55251
15.15718	58263
15.16530	64380
15.17342	71144
15.18155	78710
15.18967	79087
15.19780	70544
15.20592	69669
15.21403	64354
15.22217	64959
15.23028	61082
15.23842	71866
15.24653	73114
15.25465	92068
15.26278	111780
15.27090	122056
15.27902	122030
15.28715	117022
15.29527	105165
15.30340	101312
15.31152	79452
15.31963	78236
15.32777	70375
15.33588	80529
15.34402	69320
15.35213	67107
15.36025	65168
15.36838	66228
15.37650	65885
15.38463	63290
15.39275	65759
15.40087	61319
15.40900	58018
15.41712	61965
15.42523	63903
15.43337	60386
15.44148	63464
15.44962	60672
15.45773	64510
15.46585	63768
15.47398	70474
15.48210	64260
15.49023	66231
15.49835	62936
15.50647	60356
15.51460	57956
15.52272	52605
15.53083	55730
15.53897	55895
15.54708	59645
15.55522	49128
15.56333	51125
15.57145	55251
15.57958	48914
15.58770	55381
15.59583	51130
15.60395	52098
15.61207	49499
15.62020	47701
15.62832	49803
15.63645	44244
15.64457	46155
15.65268	44750
15.66082	45797
15.66893	45818
15.67705	45194
15.68518	45966
15.69330	53531
15.70143	41268
15.70955	46495
15.71767	51334
15.72580	48285
15.73392	49979
15.74205	44592
15.75017	46238
15.75828	49760
15.76642	57047
15.77453	59567
15.78267	48423
15.79078	45050
15.79890	48025
15.80703	36684
15.81515	44085
15.82327	46600
15.83140	54640
15.83952	46656
15.84765	46959
15.85577	48549
15.86388	48675
15.87202	45227
15.88013	50553
15.88827	49045
15.89638	39664
15.90450	42230
15.91263	42625
15.92075	40878
15.92887	49702
15.93700	42526
15.94512	50157
15.95325	39070
15.96137	41305
15.96948	43552
15.97762	44688
15.98573	47348
15.99387	43265
16.00198	49825
16.01010	48356
16.01823	50440
16.02635	41492
16.03448	55114
16.04260	45321
16.05072	51263
16.05885	42313
16.06697	41393
16.07508	46544
16.08322	40829
16.09133	40363
16.09947	41267
16.10758	43237
16.11570	39390
16.12383	42683
16.13195	42105
16.14008	41179
16.14820	42394
16.15632	43556
16.16445	47163
16.17257	42214
16.18070	44485
16.18882	44422
16.19693	44431
16.20507	47430
16.21318	48576
16.22130	75164
16.22943	77179
16.23755	90384
16.24568	85322
16.25380	82562
16.26192	74409
16.27005	55782
16.27817	51750
16.28630	58902
16.29442	50787
16.30253	54972
16.31067	63953
16.31878	85230
16.32692	124222
16.33503	148586
16.34315	186274
16.35128	181437
16.35940	158456
16.36752	127520
16.37565	94448
16.38377	82608
16.39190	72645
16.40002	69418
16.40813	63745
16.41627	62659
16.42438	66212
16.43252	77553
16.44063	83530
16.44875	82072
16.45688	76625
16.46500	70011
16.47312	69254
16.48125	66195
16.48937	58232
16.49750	62308
16.50562	54243
16.51373	52416
16.52187	55158
16.52998	54855
16.53812	53597
16.54623	56867
16.55435	53837
16.56248	49242
16.57060	60001
16.57873	49920
16.58685	50855
16.59497	49051
16.60310	48262
16.61122	51138
16.61933	47962
16.62747	46956
16.63558	44630
16.64372	48562
16.65183	51460
16.65995	54672
16.66808	56184
16.67620	59187
16.68433	63451
16.69245	58191
16.70057	56715
16.70870	52173
16.71682	50181
16.72495	56042
16.73307	53714
16.74118	55910
16.74932	53115
16.75743	49955
16.76555	50178
16.77368	55877
16.78180	57733
16.78993	64502
16.79805	65877
16.80617	75226
16.81430	74471
16.82242	76108
16.83055	66330
16.83867	60289
16.84678	61416
16.85492	59888
16.86303	54917
16.87115	62566
16.87928	52943
16.88740	53162
16.89553	47041
16.90365	55228
16.91177	45963
16.91990	50349
16.92802	44992
16.93615	51508
16.94427	46992
16.95238	51807
16.96052	50085
16.96863	49564
16.97677	48726
16.98488	51819
16.99300	48647
17.00113	46643
17.00925	54493
17.01737	42781
17.02550	44847
17.03362	47392
17.04175	55570
17.04987	43258
17.05798	43067
17.06612	46040
17.07423	57563
17.08237	54302
17.09048	55200
17.09860	57277
17.10673	61542
17.11485	67106
17.12298	54858
17.13110	48595
17.13922	52463
17.14735	53180
17.15547	64125
17.16358	74202
17.17172	90520
17.17983	95068
17.18797	95082
17.19608	101082
17.20420	82891
17.21233	75145
17.22045	72032
17.22858	66978
17.23670	61570
17.24482	61869
17.25295	64031
17.26107	60221
17.26918	57819
17.27732	59621
17.28543	57379
17.29357	55931
17.30168	54606
17.30980	55818
17.31793	56690
17.32605	50411
17.33418	55397
17.34230	64170
17.35042	55664
17.35855	56944
17.36667	49362
17.37480	52381
17.38292	50738
17.39103	53534
17.39917	49401
17.40728	46039
17.41540	55159
17.42353	53938
17.43165	45283
17.43978	46955
17.44790	44068
17.45602	40272
17.46415	45263
17.47227	44839
17.48040	49460
17.48852	40920
17.49663	50661
17.50477	40491
17.51288	44148
17.52102	45614
17.52913	48610
17.53725	58034
17.54538	51801
17.55350	56971
17.56162	48008
17.56975	48578
17.57787	46324
17.58600	45606
17.59412	41317
17.60223	44794
17.61037	54174
17.61848	41535
17.62662	42827
17.63473	45707
17.64285	45220
17.65098	55543
17.65910	58043
17.66723	60325
17.67535	61272
17.68347	59127
17.69160	59406
17.69972	62095
17.70783	52442
17.71597	56794
17.72408	49390
17.73222	47059
17.74033	45755
17.74845	44668
17.75658	53804
17.76470	55793
17.77283	60188
17.78095	65719
17.78907	69738
17.79720	69773
17.80532	69723
17.81343	69238
17.82157	74930
17.82968	63466
17.83782	63997
17.84593	66123
17.85405	59204
17.86218	60810
17.87030	52895
17.87843	55862
17.88655	50847
17.89467	51257
17.90280	57254
17.91092	51996
17.91905	53665
17.92717	50144
17.93528	50126
17.94342	45610
17.95153	47269
17.95965	51389
17.96778	49187
17.97590	49244
17.98403	45730
17.99215	44812
18.00027	52471
18.00840	45331
18.01652	44079
18.02465	42206
18.03277	47748
18.04088	51140
18.04902	47347
18.05713	48396
18.06527	53820
18.07338	56913
18.08150	61558
18.08963	70132
18.09775	69179
18.10587	70514
18.11400	66792
18.12212	73363
18.13025	54326
18.13837	56063
18.14648	52523
18.15462	48574
18.16273	50481
18.17087	48158
18.17898	48579
18.18710	47784
18.19523	46702
18.20335	45269
18.21147	48799
18.21960	48246
18.22772	45251
18.23585	43846
18.24397	47721
18.25208	47845
18.26022	46261
18.26833	46446
18.27647	45435
18.28458	50317
18.29270	48727
18.30083	64240
18.30895	54626
18.31708	51912
18.32520	51604
18.33332	44567
18.34145	44142
18.34957	41572
18.35768	44032
18.36582	42569
18.37393	43730
18.38207	45237
18.39018	45122
18.39830	47015
18.40643	45652
18.41455	42953
18.42268	43384
18.43080	41866
18.43892	42710
18.44705	39087
18.45517	41510
18.46330	49768
18.47142	41944
18.47953	43957
18.48767	49219
18.49578	55362
18.50390	66723
18.51203	79762
18.52015	106260
18.52828	118289
18.53640	119363
18.54452	111595
18.55265	94295
18.56077	86784
18.56890	87097
18.57702	85355
18.58513	67992
18.59327	64708
18.60138	63259
18.60950	63586
18.61763	52323
18.62575	50324
18.63388	51243
18.64200	53256
18.65012	48372
18.65825	49434
18.66637	44403
18.67450	46032
18.68262	48132
18.69073	44243
18.69887	47710
18.70698	46044
18.71512	54414
18.72323	61601
18.73135	58914
18.73948	61977
18.74760	66513
18.75572	69777
18.76385	68226
18.77197	70518
18.78010	68318
18.78822	66311
18.79633	65900
18.80447	68856
18.81258	61254
18.82072	62595
18.82883	66226
18.83695	64527
18.84508	64237
18.85320	63383
18.86133	66891
18.86945	65839
18.87757	61992
18.88570	58393
18.89382	59476
18.90193	58585
18.91007	61101
18.91818	59559
18.92632	63594
18.93443	74187
18.94255	79219
18.95068	89354
18.95880	95224
18.96693	87969
18.97505	86249
18.98317	80146
18.99130	69262
18.99942	67585
19.00755	76088
19.01567	103663
19.02378	119512
19.03192	135199
19.04003	167405
19.04815	155397
19.05628	131348
19.06440	115932
19.07253	99877
19.08065	88635
19.08877	73542
19.09690	71829
19.10502	71272
19.11315	69599
19.12127	62449
19.12938	61612
19.13752	63453
19.14563	61930
19.15375	64436
19.16188	56577
19.17000	58445
19.17813	55369
19.18625	56615
19.19437	57931
19.20250	55154
19.21062	60026
19.21875	65262
19.22687	62696
19.23498	57819
19.24312	58382
19.25123	52069
19.25937	51128
19.26748	51712
19.27560	49948
19.28373	47107
19.29185	46255
19.29997	46096
19.30810	46724
19.31622	46487
19.32435	45945
19.33247	47900
19.34058	46219
19.34872	45419
19.35683	47609
19.36497	46318
19.37308	47785
19.38120	53311
19.38933	45327
19.39745	45914
19.40558	48035
19.41370	46772
19.42182	49920
19.42995	52554
19.43807	53684
19.44618	55931
19.45432	50207
19.46243	45385
19.47057	46758
19.47868	43200
19.48680	41708
19.49493	43080
19.50305	39857
19.51118	47957
19.51930	43911
19.52742	44023
19.53555	51268
19.54367	54934
19.55178	58239
19.55992	65458
19.56803	65906
19.57617	70124
19.58428	65867
19.59240	66396
19.60053	70792
19.60865	69221
19.61678	56756
19.62490	58030
19.63302	57495
19.64115	56253
19.64927	51665
19.65740	49833
19.66552	53345
19.67363	47512
19.68177	54957
19.68988	50793
19.69800	48315
19.70613	52143
19.71425	56649
19.72238	53750
19.73050	54026
19.73862	63282
19.74675	61846
19.75487	49284
19.76300	49281
19.77112	55728
19.77923	61320
19.78737	65521
19.79548	81953
19.80362	100275
19.81173	119832
19.81985	108452
19.82798	94246
19.83610	80523
19.84422	68738
19.85235	57389
19.86047	58552
19.86860	50904
19.87672	48681
19.88483	52223
19.89297	47589
19.90108	45197
19.90922	42986
19.91733	55482
19.92545	45009
19.93358	44844
19.94170	42435
19.94982	49262
19.95795	52431
19.96607	51569
19.97420	43017
19.98232	46003
19.99043	52748
19.99857	48213
20.00668	50169
20.01482	53381
20.02293	72972
20.03105	105420
20.03918	159800
20.04730	216518
20.05543	274465
20.06355	308387
20.07167	279484
20.07980	225547
20.08792	181492
20.09603	145399
20.10417	117323
20.11228	97501
20.12042	83818
20.12853	74856
20.13665	71341
20.14478	60652
20.15290	59981
20.16103	52082
20.16915	55171
20.17727	48901
20.18540	54420
20.19352	53799
20.20165	50426
20.20977	51592
20.21788	54035
20.22602	51240
20.23413	50494
20.24225	55485
20.25038	52478
20.25850	51674
20.26663	50163
20.27475	47562
20.28287	46423
20.29100	48103
20.29912	46694
20.30725	42860
20.31537	44018
20.32348	41098
20.33162	42308
20.33973	43251
20.34787	46507
20.35598	47663
20.36410	57635
20.37223	57337
20.38035	71623
20.38847	76249
20.39660	72706
20.40472	79583
20.41285	68413
20.42097	71464
20.42908	72328
20.43722	66188
20.44533	66559
20.45347	64265
20.46158	66429
20.46970	61960
20.47783	64013
20.48595	59663
20.49407	60040
20.50220	55298
20.51032	60343
20.51845	63913
20.52657	51729
20.53468	51041
20.54282	48623
20.55093	52382
20.55907	57780
20.56718	50553
20.57530	50232
20.58343	54294
20.59155	69068
20.59968	92488
20.60780	125763
20.61592	168695
20.62405	191525
20.63217	197751
20.64028	173779
20.64842	152025
20.65653	130961
20.66467	102226
20.67278	93982
20.68090	69379
20.68903	63279
20.69715	61343
20.70528	55492
20.71340	64708
20.72152	50189
20.72965	52561
20.73777	50179
20.74590	47861
20.75402	51220
20.76213	51991
20.77027	63732
20.77838	75743
20.78650	86911
20.79463	93514
20.80275	87250
20.81088	78982
20.81900	72962
20.82712	65917
20.83525	60748
20.84337	63104
20.85150	68125
20.85962	60172
20.86773	55165
20.87587	57061
20.88398	52107
20.89210	50822
20.90023	49005
20.90835	44063
20.91648	43434
20.92460	46050
20.93272	49649
20.94085	42054
20.94897	43466
20.95710	39849
20.96522	37433
20.97333	40102
20.98147	40350
20.98958	41063
20.99772	39571
21.00583	41086
21.01395	39009
21.02208	37144
21.03020	41879
21.03832	46969
21.04645	51226
21.05457	45643
21.06270	47369
21.07082	40274
21.07893	39075
21.08707	40267
21.09518	42725
21.10332	41669
21.11143	38868
21.11955	39818
21.12768	46611
21.13580	38493
21.14393	37883
21.15205	39282
21.16017	44909
21.16830	54120
21.17642	41598
21.18453	42595
21.19267	40761
21.20078	41311
21.20892	40706
21.21703	49724
21.22515	48571
21.23328	65950
21.24140	110321
21.24953	167385
21.25765	235990
21.26577	298664
21.27390	320732
21.28202	300354
21.29013	209822
21.29827	140137
21.30638	96161
21.31452	82935
21.32263	65062
21.33075	59817
21.33888	53608
21.34700	59060
21.35513	50907
21.36325	46813
21.37137	45994
21.37950	43796
21.38762	47140
21.39575	43891
21.40387	42751
21.41198	45077
21.42012	43169
21.42823	41939
21.43635	45655
21.44448	45547
21.45260	44224
21.46073	41021
21.46885	45569
21.47697	43256
21.48510	39383
21.49322	43029
21.50135	40718
21.50947	44787
21.51758	48431
21.52572	40228
21.53383	41586
21.54197	41849
21.55008	44796
21.55820	40966
21.56633	41474
21.57445	38719
21.58257	46103
21.59070	42819
21.59882	43769
21.60695	43293
21.61507	49563
21.62318	57880
21.63132	51335
21.63943	50836
21.64757	49210
21.65568	45568
21.66380	46008
21.67193	43840
21.68005	44661
21.68818	47341
21.69630	49479
21.70442	50074
21.71255	45432
21.72067	45660
21.72878	50831
21.73692	47297
21.74503	54704
21.75317	46144
21.76128	41088
21.76940	53266
21.77753	40456
21.78565	42179
21.79378	43177
21.80190	38913
21.81002	42090
21.81815	41888
21.82627	42949
21.83438	42040
21.84252	39191
21.85063	41146
21.85877	44051
21.86688	41619
21.87500	42750
21.88313	37647
21.89125	40379
21.89938	42703
21.90750	41489
21.91562	44034
21.92375	43788
21.93187	46922
21.94000	58447
21.94812	78209
21.95623	77884
21.96437	78596
21.97248	79420
21.98060	73990
21.98873	63047
21.99685	56680
22.00498	49978
22.01310	46959
22.02122	46862
22.02935	46160
22.03747	45914
22.04560	49318
22.05372	50065
22.06183	51711
22.06997	46749
22.07808	47446
22.08622	47082
22.09433	42394
22.10245	40608
22.11058	41070
22.11870	45245
22.12682	48472
22.13495	52040
22.14307	69436
22.15120	67386
22.15932	78014
22.16743	81667
22.17557	78246
22.18368	67021
22.19182	59115
22.19993	53017
22.20805	52639
22.21618	51834
22.22430	55119
22.23242	43893
22.24055	45394
22.24867	43558
22.25680	48291
22.26492	48782
22.27303	45155
22.28117	48415
22.28928	47004
22.29742	48969
22.30553	45668
22.31365	41629
22.32178	45681
22.32990	50229
22.33803	42751
22.34615	44181
22.35427	43007
22.36240	43598
22.37052	45145
22.37863	39163
22.38677	43459
22.39488	42564
22.40302	43978
22.41113	39368
22.41925	39061
22.42738	39789
22.43550	42425
22.44363	43668
22.45175	45556
22.45987	43568
22.46800	44713
22.47612	38329
22.48425	40739
22.49237	42334
22.50048	42831
22.50862	51395
22.51673	41832
22.52485	44543
22.53298	53939
22.54110	64014
22.54923	93510
22.55735	139657
22.56547	230452
22.57360	359531
22.58172	487358
22.58985	542012
22.59797	485393
22.60608	377329
22.61422	256006
22.62233	176316
22.63045	124754
22.63858	102516
22.64670	92102
22.65483	78972
22.66295	76065
22.67107	67222
22.67920	63951
22.68732	61719
22.69545	57175
22.70357	58946
22.71168	54605
22.71982	59751
22.72793	53348
22.73607	52587
22.74418	50619
22.75230	54920
22.76043	50683
22.76855	51095
22.77667	49060
22.78480	47951
22.79292	48414
22.80105	46288
22.80917	53062
22.81728	48315
22.82542	48231
22.83353	52301
22.84167	48211
22.84978	50088
22.85790	48119
22.86603	50289
22.87415	47744
22.88228	46793
22.89040	46706
22.89852	51269
22.90665	41940
22.91477	44676
22.92288	44324
22.93102	42867
22.93913	45726
22.94727	47789
22.95538	44059
22.96350	45245
22.97163	44750
22.97975	47214
22.98788	42974
22.99600	44838
23.00412	46725
23.01225	47278
23.02037	45019
23.02850	43066
23.03662	42746
23.04473	43512
23.05287	43658
23.06098	40861
23.06910	46848
23.07723	41101
23.08535	41756
23.09348	47108
23.10160	50698
23.10972	43894
23.11785	44364
23.12597	45359
23.13410	46350
23.14222	41295
23.15033	48560
23.15847	51130
23.16658	53620
23.17470	57575
23.18283	58204
23.19095	55408
23.19908	60334
23.20720	52975
23.21532	49108
23.22345	52287
23.23157	48443
23.23970	45771
23.24782	47670
23.25593	49755
23.26407	46530
23.27218	50927
23.28032	43542
23.28843	40399
23.29655	43962
23.30468	41247
23.31280	50793
23.32092	51957
23.32905	53678
23.33717	57852
23.34530	63848
23.35342	73334
23.36153	89987
23.36967	82682
23.37778	88138
23.38592	78562
23.39403	75700
23.40215	72515
23.41028	72960
23.41840	64983
23.42653	71855
23.43465	69677
23.44277	78699
23.45090	72672
23.45902	77290
23.46713	85337
23.47527	86256
23.48338	90666
23.49152	87057
23.49963	93227
23.50775	86760
23.51588	78663
23.52400	81211
23.53213	73050
23.54025	67395
23.54837	72526
23.55650	60464
23.56462	55960
23.57273	54391
23.58087	58723
23.58898	47177
23.59712	44932
23.60523	50070
23.61335	53703
23.62148	52284
23.62960	62432
23.63773	54173
23.64585	53765
23.65397	52289
23.66210	53216
23.67022	47448
23.67835	48134
23.68647	52053
23.69458	41971
23.70272	42698
23.71083	50766
23.71895	43470
23.72708	47387
23.73520	50898
23.74333	52838
23.75145	44348
23.75957	45977
23.76770	45743
23.77582	45110
23.78395	53247
23.79207	45026
23.80018	42209
23.80832	40058
23.81643	41778
23.82457	39758
23.83268	45037
23.84080	40326
23.84893	39452
23.85705	37315
23.86517	42200
23.87330	39621
23.88142	51498
23.88955	42425
23.89767	42063
23.90578	41802
23.91392	40564
23.92203	37585
23.93017	49374
23.93828	41355
23.94640	48424
23.95453	39623
23.96265	40369
23.97077	47801
23.97890	39922
23.98702	39764
23.99515	42603
24.00327	48406
24.01138	39737
24.01952	50626
24.02763	46610
24.03577	44652
24.04388	48420
24.05200	45029
24.06013	56318
24.06825	55656
24.07638	55009
24.08450	53415
24.09262	56342
24.10075	56148
24.10887	56718
24.11698	63291
24.12512	69730
24.13323	77350
24.14137	75663
24.14948	97128
24.15760	81932
24.16573	81080
24.17385	80320
24.18198	93300
24.19010	81891
24.19822	78790
24.20635	78915
24.21447	78370
24.22260	90195
24.23072	129517
24.23883	258340
24.24697	655469
24.25508	1565266
24.26320	3016209
24.27133	4411683
24.27945	5169125
24.28758	4956249
24.29570	4199915
24.30382	3271808
24.31195	2512838
24.32007	1927584
24.32820	1462594
24.33632	1128007
24.34443	902296
24.35257	718658
24.36068	589019
24.36882	511905
24.37693	438706
24.38505	397939
24.39318	378717
24.40130	368028
24.40942	330981
24.41755	304608
24.42567	243068
24.43380	211212
24.44192	179492
24.45003	161321
24.45817	152217
24.46628	136618
24.47442	129338
24.48253	113062
24.49065	104498
24.49878	100907
24.50690	96654
24.51502	94331
24.52315	93790
24.53127	95647
24.53940	99288
24.54752	101686
24.55563	91489
24.56377	92691
24.57188	80223
24.58002	73258
24.58813	76202
24.59625	78178
24.60438	81306
24.61250	70008
24.62063	65637
24.62875	71879
24.63687	74267
24.64500	67221
24.65312	71122
24.66123	80150
24.66937	90002
24.67748	104480
24.68562	119775
24.69373	118943
24.70185	134202
24.70998	133182
24.71810	129862
24.72623	119474
24.73435	107141
24.74247	98387
24.75060	89886
24.75872	92315
24.76685	87951
24.77497	86691
24.78308	74665
24.79122	74248
24.79933	76607
24.80745	77266
24.81558	78300
24.82370	90124
24.83183	79318
24.83995	74827
24.84807	72044
24.85620	64422
24.86432	63779
24.87245	56669
24.88057	65121
24.88868	56026
24.89682	52861
24.90493	53809
24.91305	59720
24.92118	51448
24.92930	55462
24.93743	55089
24.94555	51023
24.95367	53744
24.96180	54857
24.96992	57528
24.97805	54422
24.98617	53456
24.99428	60466
25.00242	56889
25.01053	50192
25.01867	51271
25.02678	59468
25.03490	49888
25.04303	50776
25.05115	50350
25.05927	49346
25.06740	49664
25.07552	48411
25.08365	62454
25.09177	49111
25.09988	48641
25.10802	55113
25.11613	59971
25.12427	51399
25.13238	53946
25.14050	54797
25.14863	53886
25.15675	64623
25.16488	59296
25.17300	53696
25.18112	58213
25.18925	55291
25.19737	49473
25.20548	46537
25.21362	49266
25.22173	50235
25.22987	47145
25.23798	50102
25.24610	47279
25.25423	52059
25.26235	49965
25.27048	56527
25.27860	57402
25.28672	60191
25.29485	61155
25.30297	56714
25.31108	58862
25.31922	56003
25.32733	58657
25.33547	59516
25.34358	64511
25.35170	55177
25.35983	54576
25.36795	55399
25.37608	50076
25.38420	52105
25.39232	54163
25.40045	53341
25.40857	54130
25.41670	61155
25.42482	54529
25.43293	51569
25.44107	48428
25.44918	47073
25.45730	51230
25.46543	54377
25.47355	48907
25.48168	45190
25.48980	44994
25.49792	44907
25.50605	51136
25.51417	45739
25.52230	49428
25.53042	47031
25.53853	46943
25.54667	49885
25.55478	51642
25.56292	48338
25.57103	57183
25.57915	47025
25.58728	43354
25.59540	49838
25.60352	58308
25.61165	46753
25.61977	57395
25.62790	66432
25.63602	72876
25.64413	79620
25.65227	85987
25.66038	83234
25.66852	77599
25.67663	69825
25.68475	64668
25.69288	61427
25.70100	57481
25.70913	55666
25.71725	50104
25.72537	53330
25.73350	51014
25.74162	50991
25.74973	53023
25.75787	49860
25.76598	60785
25.77412	48585
25.78223	54102
25.79035	59817
25.79848	55321
25.80660	61696
25.81473	60711
25.82285	57926
25.83097	62088
25.83910	59747
25.84722	58220
25.85533	54211
25.86347	53551
25.87158	53358
25.87972	57364
25.88783	48711
25.89595	51015
25.90408	49900
25.91220	51898
25.92033	51258
25.92845	47274
25.93657	52659
25.94470	51199
25.95282	49716
25.96095	46337
25.96907	46494
25.97718	47059
25.98532	48515
25.99343	47462
26.00155	49789
26.00968	51064
26.01780	51173
26.02593	46288
26.03405	47669
26.04217	46077
26.05030	46122
26.05842	51792
26.06655	45223
26.07467	46366
26.08278	42989
26.09092	44976
26.09903	43131
26.10717	41881
26.11528	45593
26.12340	44960
26.13153	44602
26.13965	41396
26.14777	42356
26.15590	42488
26.16402	46510
26.17215	44203
26.18027	45136
26.18838	47013
26.19652	47995
26.20463	43860
26.21277	45352
26.22088	45344
26.22900	44180
26.23713	45468
26.24525	48044
26.25337	48352
26.26150	44059
26.26962	46644
26.27775	46858
26.28587	48669
26.29398	44779
26.30212	48050
26.31023	47818
26.31837	57455
26.32648	60266
26.33460	73077
26.34273	91477
26.35085	112739
26.35898	132753
26.36710	145938
26.37522	142496
26.38335	136454
26.39147	117977
26.39958	103737
26.40772	91806
26.41583	108110
26.42397	108938
26.43208	128670
26.44020	128414
26.44833	117488
26.45645	109980
26.46458	83797
26.47270	69691
26.48082	66583
26.48895	56272
26.49707	50487
26.50520	57219
26.51332	46352
26.52143	51155
26.52957	48457
26.53768	47973
26.54580	43573
26.55393	46926
26.56205	45528
26.57018	47742
26.57830	49619
26.58642	48463
26.59455	50022
26.60267	43207
26.61080	43251
26.61892	48292
26.62703	46993
26.63517	60213
26.64328	60305
26.65140	55596
26.65953	60753
26.66765	62731
26.67578	74089
26.68390	67368
26.69202	72936
26.70015	62937
26.70827	58593
26.71640	66826
26.72452	54373
26.73263	61585
26.74077	50238
26.74888	51340
26.75702	46158
26.76513	48100
26.77325	49559
26.78138	45539
26.78950	45595
26.79762	45833
26.80575	49534
26.81387	47187
26.82200	44728
26.83012	45591
26.83823	51971
26.84637	45929
26.85448	49041
26.86262	44853
26.87073	46715
26.87885	44593
26.88698	49574
26.89510	46654
26.90323	46626
26.91135	42887
26.91947	43302
26.92760	40842
26.93572	43039
26.94383	47491
26.95197	47956
26.96008	53964
26.96822	51883
26.97633	53508
26.98445	58127
26.99258	63965
27.00070	68191
27.00883	64789
27.01695	63611
27.02507	54052
27.03320	54156
27.04132	51083
27.04945	49118
27.05757	44136
27.06568	43371
27.07382	53512
27.08193	49757
27.09005	49221
27.09818	48910
27.10630	49744
27.11443	46138
27.12255	47456
27.13067	51548
27.13880	48446
27.14692	48537
27.15505	52923
27.16317	52856
27.17128	49249
27.17942	50754
27.18753	49031
27.19565	50733
27.20378	48075
27.21190	49443
27.22003	49921
27.22815	49269
27.23627	49630
27.24440	59855
27.25252	51517
27.26065	56521
27.26877	52063
27.27688	54983
27.28502	51393
27.29313	51045
27.30127	52620
27.30938	50093
27.31750	51117
27.32563	51285
27.33375	57927
27.34187	48582
27.35000	49901
27.35812	46479
27.36625	46200
27.37437	46205
27.38248	51536
27.39062	50691
27.39873	52769
27.40687	63290
27.41498	85980
27.42310	135812
27.43123	233569
27.43935	372472
27.44748	534216
27.45560	686818
27.46372	812329
27.47185	868545
27.47997	838251
27.48808	758568
27.49622	637630
27.50433	541628
27.51247	432841
27.52058	364378
27.52870	315124
27.53683	248317
27.54495	213609
27.55308	178757
27.56120	154913
27.56932	136197
27.57745	119272
27.58557	114871
27.59368	101666
27.60182	93428
27.60993	89226
27.61807	88013
27.62618	80558
27.63430	78322
27.64243	72491
27.65055	75752
27.65868	75620
27.66680	78687
27.67492	86197
27.68305	86313
27.69117	98406
27.69930	91031
27.70742	86304
27.71553	79186
27.72367	76271
27.73178	69670
27.73990	64051
27.74803	68621
27.75615	65576
27.76428	64445
27.77240	60885
27.78052	61128
27.78865	61676
27.79677	67563
27.80490	57704
27.81302	55539
27.82113	57194
27.82927	57903
27.83738	59494
27.84552	59974
27.85363	61035
27.86175	57651
27.86988	55376
27.87800	60611
27.88612	65220
27.89425	56813
27.90237	54166
27.91050	51782
27.91862	50193
27.92673	54051
27.93487	54083
27.94298	55394
27.95112	52855
27.95923	48523
27.96735	52833
27.97548	43103
27.98360	51272
27.99172	56697
27.99985	53046
28.00797	58528
28.01610	48894
28.02422	48086
28.03233	49316
28.04047	48790
28.04858	49202
28.05672	57795
28.06483	49075
28.07295	52494
28.08108	50342
28.08920	48002
28.09733	46989
28.10545	48196
28.11357	47912
28.12170	47640
28.12982	53403
28.13793	52813
28.14607	56098
28.15418	54315
28.16232	54289
28.17043	51079
28.17855	52522
28.18668	55772
28.19480	49046
28.20293	46396
28.21105	50467
28.21917	51450
28.22730	49577
28.23542	54445
28.24355	47782
28.25167	46336
28.25978	48070
28.26792	50574
28.27603	48978
28.28415	50447
28.29228	52200
28.30040	53460
28.30853	52758
28.31665	52508
28.32477	63312
28.33290	47681
28.34102	47506
28.34915	50112
28.35727	48427
28.36538	50936
28.37352	47972
28.38163	51354
28.38977	49421
28.39788	55121
28.40600	43409
28.41413	43743
28.42225	55498
28.43037	58183
28.43850	53829
28.44662	51825
28.45475	51218
28.46287	51338
28.47098	52299
28.47912	53972
28.48723	54522
28.49537	54057
28.50348	58599
28.51160	57902
28.51973	66909
28.52785	56563
28.53598	68008
28.54410	52653
28.55222	53765
28.56035	54285
28.56847	52839
28.57658	54919
28.58472	53233
28.59283	52329
28.60097	62587
28.60908	52996
28.61720	50270
28.62533	52779
28.63345	51868
28.64158	50389
28.64970	49440
28.65782	53871
28.66595	50239
28.67407	58977
28.68218	52116
28.69032	54410
28.69843	70468
28.70657	73541
28.71468	87286
28.72280	111231
28.73093	129762
28.73905	146414
28.74718	175570
28.75530	190470
28.76342	195707
28.77155	200962
28.77967	203662
28.78780	208152
28.79592	201989
28.80403	194868
28.81217	187755
28.82028	182354
28.82840	180675
28.83653	162486
28.84465	155006
28.85278	148512
28.86090	134273
28.86902	129446
28.87715	123399
28.88527	117478
28.89340	114644
28.90152	103712
28.90963	96935
28.91777	99099
28.92588	92799
28.93402	90847
28.94213	81089
28.95025	85284
28.95838	81802
28.96650	79414
28.97462	78678
28.98275	69472
28.99087	69166
28.99900	65409
29.00712	66232
29.01523	64933
29.02337	64525
29.03148	64125
29.03962	62904
29.04773	57469
29.05585	62371
29.06398	66857
29.07210	69104
29.08022	69279
29.08835	79238
29.09647	84928
29.10460	73181
29.11272	69029
29.12083	65189
29.12897	62369
29.13708	59618
29.14522	57826
29.15333	57094
29.16145	59105
29.16958	60590
29.17770	60463
29.18583	67445
29.19395	65878
29.20207	63547
29.21020	63758
29.21832	71199
29.22643	63439
29.23457	61515
29.24268	57172
29.25082	58567
29.25893	62012
29.26705	61282
29.27518	60184
29.28330	53652
29.29143	58127
29.29955	55323
29.30767	55223
29.31580	56151
29.32392	55184
29.33205	53280
29.34017	52610
29.34828	55693
29.35642	50806
29.36453	53326
29.37265	49122
29.38078	52815
29.38890	50829
29.39703	48746
29.40515	45596
29.41327	52291
29.42140	50084
29.42952	51193
29.43765	50169
29.44577	49225
29.45388	50221
29.46202	48075
29.47013	47207
29.47825	48814
29.48638	54080
29.49450	51271
29.50263	60728
29.51075	60641
29.51887	54512
29.52700	52139
29.53512	60367
29.54325	48767
29.55137	49229
29.55948	47101
29.56762	47266
29.57573	45885
29.58387	49476
29.59198	55741
29.60010	45301
29.60823	46912
29.61635	48218
29.62447	50019
29.63260	48068
29.64072	49069
29.64885	55022
29.65697	49372
29.66508	53526
29.67322	50657
29.68133	50482
29.68947	52164
29.69758	51706
29.70570	51036
29.71383	54884
29.72195	55337
29.73008	52424
29.73820	51685
29.74632	60975
29.75445	50713
29.76257	55734
29.77068	50881
29.77882	57849
29.78693	56404
29.79507	54126
29.80318	52512
29.81130	53784
29.81943	54254
29.82755	48733
29.83568	53193
29.84380	50759
29.85192	58373
29.86005	53169
29.86817	51055
29.87630	51313
29.88442	48488
29.89253	47244
29.90067	50637
29.90878	52605
29.91690	47840
29.92503	48175
29.93315	58287
29.94128	47670
29.94940	50123
29.95752	48425
29.96565	54622
29.97377	48983
29.98190	45152
29.99002	48128
29.99813	47467
30.00627	49663
30.01438	44434
30.02250	50220
30.03063	53346
30.03875	60590
30.04688	59411
30.05500	57925
30.06312	55421
30.07125	64199
30.07937	66688
30.08750	52177
30.09562	50828
30.10373	56534
30.11187	50364
30.11998	54301
30.12812	52259
30.13623	56167
30.14435	51871
30.15248	54874
30.16060	55883
30.16872	64670
30.17685	60485
30.18497	58083
30.19310	58237
30.20122	58642
30.20933	57769
30.21747	59318
30.22558	63781
30.23372	62989
30.24183	67598
30.24995	57650
30.25808	54949
30.26620	51194
30.27433	56684
30.28245	52791
30.29057	52175
30.29870	54996
30.30682	62074
30.31493	66657
30.32307	76399
30.33118	88684
30.33932	98122
30.34743	107709
30.35555	109552
30.36368	117622
30.37180	123438
30.37993	117827
30.38805	117617
30.39617	128116
30.40430	118697
30.41242	119859
30.42053	126358
30.42867	125991
30.43678	124797
30.44492	126007
30.45303	122464
30.46115	108603
30.46928	103568
30.47740	100864
30.48553	94154
30.49365	97354
30.50177	85023
30.50990	90603
30.51802	84494
30.52615	83122
30.53427	79060
30.54238	76907
30.55052	71133
30.55863	71493
30.56675	69304
30.57488	69588
30.58300	70179
30.59113	78721
30.59925	73533
30.60737	68718
30.61550	68751
30.62362	74623
30.63175	76162
30.63987	62501
30.64798	65525
30.65612	66643
30.66423	64328
30.67237	56618
30.68048	59056
30.68860	63500
30.69673	60260
30.70485	58074
30.71297	61582
30.72110	56629
30.72922	62678
30.73735	54731
30.74547	55285
30.75358	61479
30.76172	54162
30.76983	58350
30.77797	56964
30.78608	52395
30.79420	59645
30.80233	55004
30.81045	57153
30.81857	58246
30.82670	57457
30.83482	58500
30.84295	58198
30.85107	58439
30.85918	56186
30.86732	66561
30.87543	55623
30.88357	54899
30.89168	49153
30.89980	60893
30.90793	54171
30.91605	49825
30.92418	60871
30.93230	50179
30.94042	50908
30.94855	52921
30.95667	51691
30.96478	53879
30.97292	51330
30.98103	54773
30.98917	52075
30.99728	54511
31.00540	51073
31.01353	55617
31.02165	52924
31.02978	59587
31.03790	51204
31.04602	52867
31.05415	50897
31.06227	62481
31.07040	64069
31.07852	54492
31.08663	53812
31.09477	50580
31.10288	54263
31.11100	49592
31.11913	52099
31.12725	58150
31.13538	53270
31.14350	50447
31.15162	52845
31.15975	50720
31.16787	57201
31.17600	56764
31.18412	51112
31.19223	51465
31.20037	52160
31.20848	60905
31.21662	51522
31.22473	50487
31.23285	51595
31.24098	47221
31.24910	51563
31.25722	61262
31.26535	52354
31.27347	59441
31.28160	58485
31.28972	54116
31.29783	52020
31.30597	54968
31.31408	57241
31.32222	59534
31.33033	62090
31.33845	57603
31.34658	60729
31.35470	67747
31.36282	72626
31.37095	61859
31.37907	59241
31.38720	61977
31.39532	55864
31.40343	56113
31.41157	64810
31.41968	55970
31.42782	56344
31.43593	54128
31.44405	52596
31.45218	48697
31.46030	49677
31.46843	51462
31.47655	50774
31.48467	52090
31.49280	50594
31.50092	53511
31.50903	49366
31.51717	51222
31.52528	58826
31.53342	52844
31.54153	53170
31.54965	61372
31.55778	51852
31.56590	54005
31.57403	55201
31.58215	53969
31.59027	61283
31.59840	54401
31.60652	54748
31.61465	59368
31.62277	79517
31.63088	91348
31.63902	120978
31.64713	145359
31.65525	174246
31.66338	174481
31.67150	168346
31.67963	142460
31.68775	119119
31.69587	91093
31.70400	71763
31.71212	72263
31.72025	60884
31.72837	60479
31.73648	60186
31.74462	61080
31.75273	65444
31.76085	65738
31.76898	56131
31.77710	59370
31.78523	53163
31.79335	55611
31.80147	57840
31.80960	53523
31.81772	57681
31.82585	52594
31.83397	56247
31.84208	59245
31.85022	54104
31.85833	53816
31.86647	56026
31.87458	56665
31.88270	55478
31.89083	53071
31.89895	55691
31.90707	63667
31.91520	52819
31.92332	50318
31.93145	56746
31.93957	63574
31.94768	53339
31.95582	53853
31.96393	51704
31.97207	50820
31.98018	53264
31.98830	63369
31.99643	54260
32.00455	57789
32.01268	60553
32.02080	54622
32.02892	56104
32.03705	54538
32.04517	54087
32.05328	55202
32.06142	56718
32.06953	53636
32.07767	51829
32.08578	52056
32.09390	56316
32.10203	56856
32.11015	53385
32.11828	54495
32.12640	53799
32.13452	53506
32.14265	55795
32.15077	61832
32.15888	56119
32.16702	56154
32.17513	56730
32.18327	53889
32.19138	55718
32.19950	61247
32.20763	58669
32.21575	57050
32.22388	58522
32.23200	56501
32.24012	61500
32.24825	68530
32.25637	73992
32.26450	84188
32.27262	92627
32.28073	101271
32.28887	104823
32.29698	112164
32.30510	113227
32.31323	113071
32.32135	111373
32.32948	103749
32.33760	111386
32.34572	98780
32.35385	100012
32.36197	99249
32.37010	102095
32.37822	94881
32.38633	90878
32.39447	90124
32.40258	91512
32.41072	88030
32.41883	97227
32.42695	93571
32.43508	101742
32.44320	95729
32.45132	94118
32.45945	90024
32.46757	84373
32.47570	73552
32.48382	83579
32.49193	69289
32.50007	65423
32.50818	64822
32.51632	69677
32.52443	63845
32.53255	65592
32.54068	73234
32.54880	61260
32.55693	61800
32.56505	69651
32.57317	59653
32.58130	56624
32.58942	60216
32.59753	60715
32.60567	54739
32.61378	53591
32.62192	56440
32.63003	56842
32.63815	59569
32.64628	58791
32.65440	67193
32.66253	58467
32.67065	58769
32.67877	57790
32.68690	54554
32.69502	64395
32.70313	55708
32.71127	59994
32.71938	57675
32.72752	59921
32.73563	61814
32.74375	58288
32.75188	56604
32.76000	58357
32.76813	55956
32.77625	60288
32.78437	58077
32.79250	60112
32.80062	60011
32.80875	59971
32.81687	61530
32.82498	58902
32.83312	58356
32.84123	59320
32.84935	60934
32.85748	58574
32.86560	59652
32.87373	56561
32.88185	59292
32.88997	57925
32.89810	58104
32.90622	60312
32.91435	60535
32.92247	57607
32.93058	58798
32.93872	56535
32.94683	61961
32.95497	61226
32.96308	57725
32.97120	72944
32.97933	65183
32.98745	74944
32.99557	69942
33.00370	75792
33.01182	67002
33.01995	67045
33.02807	60094
33.03618	61362
33.04432	58801
33.05243	54476
33.06057	61316
33.06868	59547
33.07680	59877
33.08493	57713
33.09305	60533
33.10117	65375
33.10930	62957
33.11742	60543
33.12555	62561
33.13367	67980
33.14178	68901
33.14992	60200
33.15803	65589
33.16617	59380
33.17428	56070
33.18240	57767
33.19053	57870
33.19865	59328
33.20678	62161
33.21490	61983
33.22302	68319
33.23115	60549
33.23927	62016
33.24738	61392
33.25552	59735
33.26363	58583
33.27177	63250
33.27988	55365
33.28800	63113
33.29613	63332
33.30425	68295
33.31238	61089
33.32050	59590
33.32862	57143
33.33675	62971
33.34487	68611
33.35300	61705
33.36112	59537
33.36923	64122
33.37737	56922
33.38548	59950
33.39360	60143
33.40173	60986
33.40985	58929
33.41798	58475
33.42610	58889
33.43422	60147
33.44235	56798
33.45047	56380
33.45860	66820
33.46672	60956
33.47483	58707
33.48297	57147
33.49108	58948
33.49920	61812
33.50733	62454
33.51545	63639
33.52358	62052
33.53170	57718
33.53982	61423
33.54795	58772
33.55607	71803
33.56420	70705
33.57232	62667
33.58043	61099
33.58857	58689
33.59668	57933
33.60482	59151
33.61293	67326
33.62105	63447
33.62918	71382
33.63730	66398
33.64542	79736
33.65355	83682
33.66167	93962
33.66980	93926
33.67792	79574
33.68603	66476
33.69417	66473
33.70228	64588
33.71042	62803
33.71853	64573
33.72665	63462
33.73478	74009
33.74290	63284
33.75103	59609
33.75915	59846
33.76727	64064
33.77540	68067
33.78352	67543
33.79163	61213
33.79977	61140
33.80788	58242
33.81602	64272
33.82413	67461
33.83225	64030
33.84038	60216
33.84850	62282
33.85663	60646
33.86475	61729
33.87287	62408
33.88100	60983
33.88912	63964
33.89725	64809
33.90537	58816
33.91348	55152
33.92162	63732
33.92973	64307
33.93785	60953
33.94598	61461
33.95410	64402
33.96223	67688
33.97035	65185
33.97847	61802
33.98660	60290
33.99472	61563
34.00285	60714
34.01097	59547
34.01908	61653
34.02722	60421
34.03533	62472
34.04345	65873
34.05158	63520
34.05970	60548
34.06783	62385
34.07595	64328
34.08407	61618
34.09220	66990
34.10032	63037
34.10845	70626
34.11657	66172
34.12468	64550
34.13282	66571
34.14093	76682
34.14907	64407
34.15718	73014
34.16530	66691
34.17343	71496
34.18155	70130
34.18967	66424
34.19780	64564
34.20592	73351
34.21405	70943
34.22217	71737
34.23028	64374
34.23842	66571
34.24653	73990
34.25467	67324
34.26278	63590
34.27090	67932
34.27903	66577
34.28715	74049
34.29528	64773
34.30340	62632
34.31152	62551
34.31965	63179
34.32777	65521
34.33588	65339
34.34402	73477
34.35213	60274
34.36027	66553
34.36838	64848
34.37650	68057
34.38463	66848
34.39275	65918
34.40088	70238
34.40900	66010
34.41712	65384
34.42525	64564
34.43337	69846
34.44148	68876
34.44962	63104
34.45773	65784
34.46587	67336
34.47398	68781
34.48210	65221
34.49023	68378
34.49835	62692
34.50648	63092
34.51460	63940
34.52272	64544
34.53085	67667
34.53897	64789
34.54710	75737
34.55522	74836
34.56333	89410
34.57147	94613
34.57958	93226
34.58770	89712
34.59583	83560
34.60395	92900
34.61208	74307
34.62020	75373
34.62832	76249
34.63645	67868
34.64457	67718
34.65270	72113
34.66082	68773
34.66893	67325
34.67707	67590
34.68518	69875
34.69332	69912
34.70143	69485
34.70955	70286
34.71768	71809
34.72580	67710
34.73392	64885
34.74205	68984
34.75017	69632
34.75830	65576
34.76642	71992
34.77453	64858
34.78267	64493
34.79078	62235
34.79892	69463
34.80703	69211
34.81515	63731
34.82328	67822
34.83140	73106
34.83952	71476
34.84765	75080
34.85577	77164
34.86390	87419
34.87202	99169
34.88013	110033
34.88827	121445
34.89638	127370
34.90452	121013
34.91263	116400
34.92075	111097
34.92888	105657
34.93700	99671
34.94513	91556
34.95325	88146
34.96137	81750
34.96950	79499
34.97762	83483
34.98573	79349
34.99387	79395
35.00198	79392
35.01012	76579
35.01823	73617
35.02635	76049
35.03448	83421
35.04260	74029
35.05073	76002
35.05885	72221
35.06697	72216
35.07510	73800
35.08322	74968
35.09135	69791
35.09947	75736
35.10758	70404
35.11572	71300
35.12383	70934
35.13195	71284
35.14008	67125
35.14820	70739
35.15633	72785
35.16445	73194
35.17257	70728
35.18070	70885
35.18882	74926
35.19695	71098
35.20507	75431
35.21318	74786
35.22132	71924
35.22943	71806
35.23757	67425
35.24568	71517
35.25380	74364
35.26193	72050
35.27005	71673
35.27817	72922
35.28630	74550
35.29442	71960
35.30255	72896
35.31067	72649
35.31878	73688
35.32692	72029
35.33503	74301
35.34317	72593
35.35128	72987
35.35940	72229
35.36753	82359
35.37565	73142
35.38377	73124
35.39190	72348
35.40002	80556
35.40815	70991
35.41627	73590
35.42438	79407
35.43252	74456
35.44063	70684
35.44877	76826
35.45688	75802
35.46500	77508
35.47313	82226
35.48125	81449
35.48938	80915
35.49750	84279
35.50562	81840
35.51375	79477
35.52187	80384
35.52998	81322
35.53812	80314
35.54623	92306
35.55437	78997
35.56248	75593
35.57060	80143
35.57873	83088
35.58685	77770
35.59498	86874
35.60310	80507
35.61122	79395
35.61935	82709
35.62747	78938
35.63560	84539
35.64372	83851
35.65183	78345
35.65997	82273
35.66808	84100
35.67620	76767
35.68433	79363
35.69245	79625
35.70058	85620
35.70870	77104
35.71682	78348
35.72495	80227
35.73307	78335
35.74120	75044
35.74932	69249
35.75743	73730
35.76557	78903
35.77368	77247
35.78180	76181
35.78993	84896
35.79805	76064
35.80618	83000
35.81430	79059
35.82242	78782
35.83055	80778
35.83867	88177
35.84680	74646
35.85492	76407
35.86303	78022
35.87117	86094
35.87928	77422
35.88742	73896
35.89553	79260
35.90365	76162
35.91178	75537
35.91990	82445
35.92802	71450
35.93615	84640
35.94427	78706
35.95240	73271
35.96052	89683
35.96863	77778
35.97677	80411
35.98488	80466
35.99302	87973
36.00113	91256
36.00925	95196
36.01738	87284
36.02550	85326
36.03363	89773
36.04175	84102
36.04987	94505
36.05800	82413
36.06612	86017
36.07423	80781
36.08237	82190
36.09048	81490
36.09862	76467
36.10673	79132
36.11485	77117
36.12298	82339
36.13110	81790
36.13923	86133
36.14735	77374
36.15547	82205
36.16360	83763
36.17172	77648
36.17983	84005
36.18797	79894
36.19608	81348
36.20422	78109
36.21233	82460
36.22045	83893
36.22858	89630
36.23670	83591
36.24483	85416
36.25295	86021
36.26107	84778
36.26920	97386
36.27732	88423
36.28545	93417
36.29357	99050
36.30168	88388
36.30982	83689
36.31793	85219
36.32605	90479
36.33418	87900
36.34230	85133
36.35043	80233
36.35855	94813
36.36667	82404
36.37480	81356
36.38292	84763
36.39105	85647
36.39917	80097
36.40728	77038
36.41542	84054
36.42353	85798
36.43167	82804
36.43978	86883
36.44790	88119
36.45603	89015
36.46415	84370
36.47227	81394
36.48040	79909
36.48852	83497
36.49665	83355
36.50477	81238
36.51288	85961
36.52102	84023
36.52913	85575
36.53727	91744
36.54538	77878
36.55350	88405
36.56163	88580
36.56975	94587
36.57788	91208
36.58600	91240
36.59412	90473
36.60225	98012
36.61037	97742
36.61848	89379
36.62662	92466
36.63473	92795
36.64287	97678
36.65098	99760
36.65910	98766
36.66723	104637
36.67535	94484
36.68348	95064
36.69160	95252
36.69972	95364
36.70785	88542
36.71597	86482
36.72408	86384
36.73222	84587
36.74033	80904
36.74847	92579
36.75658	90392
36.76470	86712
36.77283	82545
36.78095	96701
36.78908	88459
36.79720	90289
36.80532	87060
36.81345	89451
36.82157	90787
36.82970	88843
36.83782	92803
36.84593	86589
36.85407	84780
36.86218	92793
36.87030	86427
36.87843	83612
36.88655	94150
36.89468	91617
36.90280	87930
36.91092	95658
36.91905	88404
36.92717	87333
36.93530	88598
36.94342	96820
36.95153	95333
36.95967	101838
36.96778	107169
36.97592	108750
36.98403	119274
36.99215	123773
37.00028	116846
37.00840	113790
37.01652	104951
37.02465	103997
37.03277	107143
37.04090	92251
37.04902	94121
37.05713	85799
37.06527	93003
37.07338	94573
37.08152	92461
37.08963	95178
37.09775	93769
37.10588	94167
37.11400	92615
37.12212	98120
37.13025	99280
37.13837	95975
37.14650	92890
37.15462	95079
37.16273	91190
37.17087	94913
37.17898	86602
37.18712	98864
37.19523	92751
37.20335	92148
37.21148	101035
37.21960	96861
37.22773	92700
37.23585	91502
37.24397	97996
37.25210	92953
37.26022	97086
37.26833	105229
37.27647	94113
37.28458	96529
37.29272	92529
37.30083	93621
37.30895	89056
37.31708	88655
37.32520	92665
37.33333	95107
37.34145	94233
37.34957	92103
37.35770	100032
37.36582	97069
37.37395	94139
37.38207	94768
37.39018	93866
37.39832	97846
37.40643	94201
37.41455	105636
37.42268	96876
37.43080	96477
37.43893	97350
37.44705	99737
37.45517	96504
37.46330	96235
37.47142	103361
37.47955	97579
37.48767	102368
