C:\MassHunter\GCMS\1\data\JTB-E18\JTB-E18-024-05.D Wed Sep 11 10:22:53 2019
Start of data points
2.09523,154449
2.10337,156265
2.11148,157894
2.11960,152675
2.12773,156676
2.13585,154620
2.14398,151728
2.15210,152039
2.16022,152648
2.16835,139114
2.17647,140596
2.18458,139936
2.19272,127789
2.20083,132905
2.20897,127297
2.21708,128245
2.22520,122830
2.23333,122193
2.24145,121125
2.24958,125281
2.25770,118592
2.26582,189324
2.27395,1079548
2.28207,2215975
2.29018,1176358
2.29832,514925
2.30643,367119
2.31457,316139
2.32268,295555
2.33080,261696
2.33893,255331
2.34705,231209
2.35518,205178
2.36330,192640
2.37142,191423
2.37955,281969
2.38767,440919
2.39580,281452
2.40392,206000
2.41203,188330
2.42017,200840
2.42828,210439
2.43640,180224
2.44453,190203
2.45265,198136
2.46078,178057
2.46890,166480
2.47702,157587
2.48515,158009
2.49327,192708
2.50140,200126
2.50952,168995
2.51763,163574
2.52577,158949
2.53388,153846
2.54202,159047
2.55013,171081
2.55825,164089
2.56638,155906
2.57450,159032
2.58262,149090
2.59075,156423
2.59887,159065
2.60700,155596
2.61512,168012
2.62323,192482
2.63137,175259
2.63948,153679
2.64762,145066
2.65573,156130
2.66385,158520
2.67198,186478
2.68010,237280
2.68822,210624
2.69635,168859
2.70447,155716
2.71260,149720
2.72072,144418
2.72883,147357
2.73697,146930
2.74508,144951
2.75322,143748
2.76133,141720
2.76945,142086
2.77758,143400
2.78570,140233
2.79383,139322
2.80195,153190
2.81007,159938
2.81820,194521
2.82632,522625
2.83443,1054384
2.84257,827095
2.85068,433326
2.85882,318133
2.86693,319510
2.87505,262132
2.88318,202347
2.89130,182082
2.89943,172553
2.90755,162548
2.91567,158607
2.92380,157432
2.93192,154693
2.94003,145172
2.94817,144234
2.95628,136543
2.96442,141844
2.97253,145086
2.98065,140054
2.98878,154056
2.99690,161773
3.00503,181015
3.01315,198111
3.02127,269066
3.02940,560592
3.03752,939564
3.04565,1479211
3.05377,4617180
3.06188,9743405
3.07002,9136520
3.07813,4840477
3.08625,2346070
3.09438,1400375
3.10250,952253
3.11063,698520
3.11875,555014
3.12687,447744
3.13500,379993
3.14312,321745
3.15125,290766
3.15937,264507
3.16748,259367
3.17562,261980
3.18373,242004
3.19187,209939
3.19998,196565
3.20810,202506
3.21623,191186
3.22435,209764
3.23247,214338
3.24060,206167
3.24872,182636
3.25685,171409
3.26497,171082
3.27308,187172
3.28122,364161
3.28933,1334717
3.29747,3894020
3.30558,6722521
3.31370,7004906
3.32183,4890719
3.32995,2793525
3.33807,1671616
3.34620,1149582
3.35432,879260
3.36245,754921
3.37057,867804
3.37868,1123924
3.38682,1192964
3.39493,1024512
3.40307,1504189
3.41118,3389023
3.41930,4832262
3.42743,3828769
3.43555,2090046
3.44368,1160861
3.45180,807914
3.45992,665484
3.46805,580299
3.47617,507787
3.48428,454664
3.49242,401643
3.50053,366691
3.50867,344515
3.51678,312024
3.52490,321643
3.53303,301469
3.54115,287949
3.54928,280815
3.55740,270314
3.56552,258886
3.57365,266936
3.58177,258148
3.58990,248041
3.59802,246706
3.60613,254193
3.61427,387718
3.62238,979020
3.63050,2101338
3.63863,2798922
3.64675,2219995
3.65488,1295388
3.66300,746169
3.67112,523953
3.67925,425424
3.68737,372174
3.69550,323798
3.70362,301427
3.71173,280924
3.71987,270160
3.72798,269607
3.73610,269532
3.74423,268807
3.75235,267905
3.76048,263951
3.76860,262498
3.77672,240198
3.78485,227970
3.79297,227329
3.80110,234153
3.80922,224899
3.81733,218250
3.82547,224188
3.83358,244515
3.84172,235286
3.84983,220250
3.85795,202053
3.86608,194785
3.87420,198269
3.88232,200120
3.89045,211564
3.89857,211190
3.90670,203945
3.91482,207521
3.92293,202090
3.93107,204987
3.93918,196981
3.94732,194528
3.95543,187837
3.96355,188384
3.97168,188398
3.97980,184420
3.98792,184640
3.99605,174678
4.00417,187012
4.01230,183278
4.02042,184919
4.02853,182679
4.03667,180230
4.04478,186400
4.05292,192996
4.06103,194489
4.06915,198148
4.07728,197475
4.08540,196043
4.09353,185215
4.10165,178909
4.10977,181336
4.11790,184572
4.12602,192142
4.13413,204037
4.14227,227457
4.15038,261549
4.15852,263362
4.16663,232023
4.17475,208926
4.18288,185954
4.19100,182008
4.19913,174082
4.20725,178309
4.21537,190041
4.22350,232791
4.23162,299545
4.23975,325842
4.24787,292462
4.25598,241583
4.26412,220714
4.27223,200365
4.28035,191294
4.28848,180615
4.29660,188778
4.30473,176589
4.31285,175338
4.32097,182079
4.32910,184781
4.33722,184298
4.34535,175603
4.35347,174897
4.36158,177885
4.36972,174171
4.37783,173446
4.38597,167812
4.39408,165394
4.40220,173865
4.41033,173318
4.41845,164865
4.42657,161788
4.43470,169275
4.44282,176229
4.45095,191239
4.45907,200707
4.46718,198501
4.47532,197858
4.48343,187961
4.49157,174161
4.49968,175479
4.50780,169479
4.51593,164836
4.52405,171165
4.53217,173271
4.54030,166314
4.54842,165825
4.55655,166216
4.56467,167308
4.57278,161076
4.58092,162176
4.58903,159292
4.59717,160289
4.60528,160050
4.61340,164298
4.62153,156923
4.62965,157031
4.63778,163326
4.64590,153645
4.65402,160400
4.66215,159917
4.67027,160095
4.67838,161213
4.68652,159057
4.69463,158725
4.70277,163245
4.71088,162436
4.71900,156544
4.72713,156934
4.73525,157888
4.74338,162500
4.75150,163823
4.75962,160072
4.76775,157505
4.77587,159697
4.78398,158540
4.79212,165878
4.80023,162619
4.80837,168137
4.81648,164607
4.82460,164796
4.83273,162671
4.84085,165494
4.84898,157941
4.85710,169554
4.86522,171985
4.87335,175906
4.88147,167450
4.88960,164721
4.89772,165118
4.90583,163146
4.91397,183259
4.92208,245597
4.93020,442589
4.93833,847458
4.94645,1367175
4.95458,1641054
4.96270,1503334
4.97082,1155751
4.97895,823915
4.98707,616015
4.99520,482608
5.00332,386088
5.01143,345953
5.01957,322473
5.02768,290848
5.03582,281300
5.04393,257431
5.05205,254278
5.06018,242717
5.06830,240967
5.07642,230202
5.08455,235376
5.09267,246165
5.10080,289071
5.10892,342298
5.11703,397173
5.12517,394788
5.13328,347608
5.14142,303073
5.14953,262385
5.15765,252646
5.16578,262848
5.17390,315500
5.18202,376616
5.19015,404639
5.19827,381258
5.20640,328560
5.21452,272954
5.22263,242860
5.23077,233203
5.23888,224806
5.24702,220061
5.25513,215057
5.26325,207660
5.27138,214141
5.27950,207429
5.28763,217618
5.29575,218391
5.30387,202509
5.31200,206320
5.32012,199014
5.32823,191493
5.33637,203908
5.34448,201714
5.35262,199492
5.36073,193212
5.36885,183311
5.37698,176247
5.38510,176213
5.39323,178578
5.40135,169248
5.40947,171876
5.41760,169251
5.42572,171492
5.43385,175180
5.44197,181324
5.45008,178682
5.45822,174503
5.46633,167894
5.47445,169436
5.48258,175364
5.49070,172615
5.49883,174803
5.50695,176322
5.51507,174222
5.52320,174694
5.53132,173759
5.53945,172799
5.54757,172289
5.55568,161842
5.56382,169822
5.57193,167696
5.58005,169658
5.58818,175010
5.59630,174712
5.60443,173638
5.61255,177573
5.62067,189717
5.62880,199819
5.63692,214502
5.64505,209834
5.65317,200360
5.66128,195777
5.66942,184287
5.67753,180970
5.68567,197829
5.69378,194302
5.70190,200267
5.71003,208606
5.71815,223186
5.72627,234558
5.73440,250435
5.74252,245432
5.75065,237517
5.75877,247412
5.76688,255892
5.77502,254393
5.78313,247150
5.79127,232736
5.79938,255803
5.80750,368177
5.81563,642160
5.82375,1038034
5.83187,1333841
5.84000,1372532
5.84812,1114429
5.85625,778700
5.86437,533156
5.87248,374305
5.88062,300518
5.88873,257926
5.89687,242827
5.90498,267797
5.91310,345580
5.92123,479536
5.92935,619862
5.93748,659468
5.94560,576644
5.95372,439109
5.96185,306214
5.96997,251369
5.97808,214127
5.98622,205778
5.99433,189965
6.00247,169107
6.01058,146167
6.01870,145488
6.02683,135214
6.03495,132711
6.04308,128036
6.05120,134022
6.05932,130006
6.06745,125535
6.07557,121617
6.08370,119021
6.09182,126997
6.09993,118944
6.10807,118325
6.11618,117158
6.12430,107111
6.13243,116474
6.14055,117299
6.14868,119418
6.15680,116116
6.16492,122755
6.17305,141367
6.18117,147021
6.18930,157171
6.19742,182614
6.20553,197771
6.21367,196364
6.22178,168536
6.22990,155935
6.23803,145996
6.24615,148478
6.25428,147011
6.26240,149504
6.27052,156633
6.27865,153009
6.28677,151600
6.29490,157486
6.30302,156620
6.31113,164456
6.31927,165965
6.32738,178132
6.33552,176188
6.34363,178151
6.35175,181510
6.35988,190367
6.36800,205610
6.37612,189165
6.38425,188988
6.39237,187984
6.40050,195389
6.40862,199443
6.41673,188628
6.42487,196221
6.43298,196539
6.44112,202046
6.44923,204924
6.45735,210144
6.46548,221588
6.47360,225890
6.48173,222214
6.48985,213633
6.49797,226173
6.50610,198138
6.51422,163324
6.52233,157148
6.53047,148202
6.53858,144876
6.54672,145888
6.55483,148051
6.56295,140891
6.57108,136995
6.57920,130951
6.58733,133219
6.59545,133567
6.60357,132419
6.61170,122427
6.61982,129672
6.62793,126642
6.63607,123887
6.64418,121703
6.65232,115958
6.66043,121116
6.66855,116843
6.67668,112071
6.68480,117814
6.69293,117271
6.70105,115174
6.70917,115256
6.71730,123320
6.72542,137431
6.73355,172071
6.74167,208810
6.74978,230468
6.75792,230675
6.76603,215103
6.77415,193788
6.78228,155230
6.79040,134220
6.79853,126124
6.80665,110890
6.81477,108570
6.82290,106204
6.83102,109847
6.83915,107560
6.84727,114449
6.85538,144541
6.86352,209761
6.87163,342586
6.87977,527394
6.88788,729699
6.89600,835153
6.90413,790574
6.91225,649630
6.92037,445216
6.92850,296078
6.93662,200709
6.94475,145291
6.95287,107945
6.96098,101181
6.96912,93330
6.97723,84971
6.98537,85859
6.99348,77931
7.00160,82719
7.00973,90199
7.01785,107187
7.02597,147922
7.03410,214240
7.04222,297506
7.05035,361914
7.05847,387155
7.06658,356498
7.07472,295963
7.08283,222037
7.09097,174533
7.09908,142601
7.10720,121634
7.11533,115413
7.12345,104886
7.13158,106524
7.13970,100563
7.14782,107131
7.15595,98496
7.16407,96345
7.17218,89825
7.18032,86200
7.18843,83741
7.19657,92343
7.20468,91309
7.21280,95116
7.22093,95121
7.22905,105081
7.23718,95123
7.24530,103370
7.25342,100334
7.26155,101438
7.26967,116288
7.27778,127046
7.28592,146579
7.29403,162927
7.30217,160041
7.31028,147059
7.31840,128790
7.32653,113634
7.33465,118606
7.34278,117058
7.35090,122353
7.35902,124275
7.36715,116566
7.37527,115223
7.38340,120080
7.39152,139206
7.39963,184245
7.40777,243905
7.41588,286196
7.42400,299229
7.43213,258218
7.44025,228521
7.44838,169251
7.45650,132358
7.46462,115146
7.47275,100859
7.48087,100498
7.48900,102795
7.49712,113349
7.50523,145859
7.51337,183077
7.52148,206823
7.52962,216049
7.53773,197332
7.54585,170596
7.55398,137781
7.56210,114472
7.57022,99506
7.57835,92084
7.58647,78508
7.59460,80389
7.60272,76354
7.61083,82631
7.61897,79955
7.62708,78983
7.63522,83283
7.64333,82687
7.65145,78300
7.65958,80488
7.66770,73344
7.67582,75178
7.68395,71246
7.69207,72877
7.70020,73739
7.70832,69604
7.71643,71715
7.72457,68589
7.73268,66524
7.74082,67540
7.74893,68539
7.75705,69109
7.76518,69547
7.77330,69090
7.78143,68853
7.78955,67543
7.79767,68435
7.80580,64396
7.81392,68136
7.82203,65243
7.83017,63320
7.83828,59153
7.84642,62316
7.85453,64665
7.86265,70782
7.87078,63524
7.87890,63616
7.88703,67749
7.89515,61423
7.90327,63131
7.91140,61788
7.91952,64758
7.92765,66437
7.93577,63444
7.94388,60889
7.95202,64201
7.96013,64571
7.96825,63438
7.97638,64512
7.98450,66129
7.99263,65916
8.00075,64559
8.00887,64175
8.01700,62112
8.02512,63043
8.03325,66992
8.04137,64893
8.04948,65297
8.05762,61020
8.06573,67615
8.07385,59718
8.08198,57824
8.09010,61968
8.09823,62024
8.10635,63563
8.11447,60128
8.12260,64918
8.13072,63689
8.13885,63014
8.14697,70406
8.15508,64449
8.16322,67570
8.17133,71023
8.17947,72707
8.18758,72547
8.19570,67060
8.20383,65135
8.21195,65572
8.22007,64289
8.22820,64558
8.23632,66006
8.24445,73512
8.25257,64883
8.26068,63551
8.26882,63023
8.27693,65878
8.28507,63926
8.29318,63854
8.30130,68425
8.30943,66947
8.31755,63803
8.32567,67614
8.33380,68598
8.34192,70438
8.35005,82662
8.35817,81465
8.36628,75744
8.37442,71912
8.38253,70999
8.39067,67826
8.39878,64531
8.40690,68709
8.41503,66904
8.42315,68691
8.43128,66159
8.43940,66369
8.44752,66777
8.45565,61849
8.46377,65679
8.47188,64138
8.48002,64465
8.48813,67014
8.49627,68908
8.50438,75345
8.51250,80240
8.52063,74833
8.52875,82557
8.53688,76696
8.54500,71067
8.55312,75444
8.56125,72573
8.56937,77289
8.57750,74511
8.58562,72002
8.59373,74358
8.60187,67620
8.60998,71663
8.61810,65390
8.62623,66469
8.63435,66952
8.64248,63639
8.65060,63584
8.65872,64973
8.66685,61968
8.67497,68745
8.68310,65935
8.69122,63930
8.69933,66973
8.70747,66057
8.71558,72960
8.72370,72477
8.73183,82394
8.73995,112295
8.74808,187171
8.75620,342481
8.76432,512490
8.77245,637039
8.78057,610301
8.78870,478976
8.79682,351994
8.80493,246821
8.81307,196253
8.82118,166858
8.82932,141741
8.83743,131056
8.84555,121989
8.85368,117819
8.86180,111331
8.86992,107902
8.87805,105302
8.88617,99824
8.89430,98261
8.90242,99351
8.91053,103341
8.91867,88995
8.92678,88668
8.93492,96859
8.94303,92323
8.95115,93353
8.95928,92374
8.96740,89345
8.97553,88321
8.98365,87641
8.99177,89092
8.99990,88425
9.00802,93660
9.01613,82637
9.02427,86765
9.03238,88934
9.04052,83860
9.04863,84852
9.05675,86170
9.06488,86021
9.07300,80210
9.08113,85108
9.08925,86412
9.09737,86905
9.10550,80250
9.11362,84376
9.12173,85750
9.12987,83086
9.13798,87189
9.14612,82581
9.15423,78601
9.16235,80411
9.17048,74433
9.17860,81309
9.18673,76532
9.19485,76653
9.20297,78876
9.21110,79827
9.21922,77511
9.22735,77637
9.23547,73965
9.24358,79643
9.25172,81006
9.25983,81362
9.26795,82594
9.27608,82161
9.28420,81942
9.29233,84012
9.30045,86646
9.30857,82946
9.31670,75467
9.32482,75170
9.33295,79121
9.34107,79361
9.34918,79055
9.35732,75254
9.36543,73802
9.37355,79268
9.38168,74713
9.38980,75069
9.39793,68101
9.40605,70295
9.41417,71438
9.42230,68540
9.43042,70453
9.43855,64758
9.44667,68096
9.45478,65562
9.46292,63784
9.47103,63122
9.47917,64383
9.48728,61883
9.49540,67170
9.50353,66732
9.51165,69329
9.51977,66863
9.52790,64574
9.53602,66871
9.54415,61082
9.55227,59617
9.56038,58754
9.56852,57645
9.57663,52323
9.58477,60149
9.59288,54543
9.60100,54323
9.60913,49132
9.61725,51308
9.62538,52459
9.63350,50871
9.64162,51244
9.64975,55028
9.65787,51698
9.66598,55682
9.67412,52503
9.68223,48808
9.69037,50121
9.69848,44301
9.70660,43389
9.71473,44678
9.72285,46697
9.73098,44373
9.73910,42887
9.74722,44915
9.75535,45464
9.76347,45833
9.77160,43894
9.77972,45776
9.78783,42905
9.79597,46226
9.80408,45042
9.81220,45708
9.82033,41950
9.82845,44865
9.83658,40057
9.84470,45663
9.85282,43952
9.86095,46834
9.86907,43708
9.87720,42626
9.88532,42656
9.89343,44146
9.90157,44634
9.90968,43235
9.91780,39781
9.92593,46088
9.93405,43649
9.94218,43188
9.95030,47077
9.95842,45269
9.96655,52523
9.97467,55348
9.98280,57221
9.99092,57828
9.99903,61707
10.00717,58474
10.01528,55290
10.02342,53036
10.03153,48912
10.03965,52870
10.04778,47692
10.05590,45878
10.06402,48356
10.07215,45338
10.08027,45549
10.08840,46788
10.09652,47214
10.10463,43854
10.11277,42705
10.12088,43947
10.12902,46916
10.13713,43137
10.14525,44380
10.15338,43999
10.16150,36861
10.16962,39764
10.17775,42274
10.18587,43231
10.19400,40339
10.20212,43460
10.21023,45846
10.21837,46956
10.22648,48547
10.23462,47746
10.24273,48783
10.25085,49465
10.25898,47604
10.26710,43203
10.27523,48521
10.28335,50626
10.29147,47654
10.29960,50339
10.30772,50403
10.31583,51042
10.32397,47197
10.33208,46153
10.34022,46565
10.34833,47443
10.35645,44962
10.36458,43964
10.37270,48469
10.38083,48884
10.38895,53023
10.39707,55882
10.40520,60270
10.41332,57252
10.42145,54057
10.42957,53096
10.43768,46664
10.44582,44233
10.45393,45023
10.46205,47473
10.47018,43172
10.47830,39299
10.48643,48155
10.49455,44136
10.50267,43406
10.51080,44825
10.51892,44035
10.52705,48940
10.53517,49190
10.54328,51042
10.55142,49129
10.55953,50048
10.56765,48417
10.57578,50961
10.58390,46076
10.59203,43683
10.60015,46128
10.60827,45938
10.61640,43157
10.62452,42772
10.63265,45831
10.64077,45445
10.64888,42405
10.65702,46207
10.66513,43397
10.67327,45586
10.68138,47031
10.68950,44080
10.69763,48586
10.70575,48125
10.71387,52260
10.72200,52972
10.73012,49352
10.73825,51060
10.74637,51223
10.75448,47665
10.76262,48581
10.77073,49520
10.77887,49611
10.78698,47652
10.79510,44933
10.80323,48953
10.81135,43296
10.81948,43038
10.82760,39172
10.83572,39094
10.84385,39636
10.85197,42412
10.86008,42324
10.86822,41746
10.87633,41735
10.88447,40792
10.89258,40569
10.90070,40453
10.90883,43945
10.91695,40931
10.92508,37866
10.93320,40740
10.94132,40136
10.94945,44178
10.95757,39164
10.96568,41797
10.97382,45134
10.98193,42468
10.99007,42977
10.99818,46790
11.00630,45597
11.01443,46629
11.02255,43334
11.03068,42664
11.03880,41050
11.04692,37889
11.05505,39047
11.06317,38131
11.07130,34457
11.07942,37865
11.08753,35152
11.09567,35279
11.10378,41040
11.11190,39912
11.12003,39078
11.12815,41408
11.13628,44910
11.14440,44871
11.15252,46236
11.16065,49090
11.16877,46521
11.17690,47486
11.18502,48444
11.19313,44304
11.20127,44960
11.20938,44472
11.21750,44513
11.22563,45167
11.23375,46704
11.24188,43078
11.25000,46712
11.25812,44981
11.26625,44242
11.27437,48749
11.28250,52930
11.29062,64659
11.29873,80225
11.30687,101841
11.31498,116916
11.32312,128561
11.33123,126923
11.33935,133089
11.34748,123700
11.35560,118795
11.36372,102698
11.37185,92063
11.37997,84274
11.38810,72969
11.39622,61706
11.40433,61859
11.41247,51893
11.42058,50912
11.42872,46648
11.43683,47110
11.44495,42821
11.45308,45063
11.46120,46262
11.46933,41601
11.47745,40777
11.48557,41928
11.49370,41045
11.50182,42851
11.50993,39341
11.51807,45425
11.52618,45404
11.53432,53120
11.54243,54955
11.55055,60548
11.55868,59777
11.56680,65371
11.57493,61362
11.58305,58936
11.59117,59103
11.59930,59261
11.60742,58245
11.61553,52969
11.62367,48977
11.63178,48207
11.63992,44403
11.64803,41691
11.65615,43307
11.66428,40424
11.67240,47357
11.68053,47456
11.68865,48787
11.69677,58877
11.70490,70183
11.71302,77581
11.72115,75192
11.72927,73388
11.73738,67541
11.74552,71768
11.75363,69014
11.76175,66800
11.76988,68105
11.77800,63598
11.78613,64171
11.79425,62764
11.80237,59194
11.81050,50904
11.81862,52645
11.82675,48817
11.83487,47523
11.84298,46556
11.85112,51159
11.85923,45551
11.86737,48052
11.87548,42203
11.88360,40585
11.89173,43892
11.89985,40617
11.90797,41222
11.91610,42259
11.92422,42650
11.93235,44524
11.94047,54945
11.94858,57067
11.95672,58022
11.96483,66125
11.97297,65952
11.98108,67310
11.98920,66036
11.99733,64442
12.00545,60168
12.01357,52549
12.02170,53361
12.02982,47025
12.03795,48199
12.04607,42071
12.05418,43106
12.06232,41136
12.07043,39991
12.07857,44820
12.08668,42038
12.09480,38567
12.10293,35377
12.11105,40767
12.11918,40647
12.12730,41022
12.13542,40255
12.14355,42588
12.15167,40903
12.15978,45168
12.16792,41762
12.17603,41524
12.18417,39964
12.19228,43681
12.20040,40926
12.20853,42160
12.21665,40751
12.22478,37065
12.23290,40363
12.24102,39452
12.24915,36036
12.25727,37047
12.26540,40123
12.27352,37542
12.28163,36760
12.28977,38573
12.29788,41205
12.30600,43243
12.31413,50268
12.32225,48344
12.33038,51963
12.33850,44236
12.34662,41038
12.35475,38444
12.36287,38422
12.37100,37712
12.37912,36350
12.38723,38386
12.39537,43608
12.40348,39283
12.41160,35811
12.41973,35737
12.42785,41487
12.43598,40394
12.44410,39768
12.45222,40545
12.46035,42088
12.46847,40416
12.47660,44377
12.48472,42411
12.49283,36334
12.50097,38645
12.50908,35305
12.51722,40714
12.52533,35978
12.53345,37247
12.54158,38225
12.54970,37879
12.55782,40748
12.56595,39398
12.57407,36522
12.58220,35494
12.59032,37679
12.59843,37665
12.60657,39803
12.61468,36607
12.62282,37239
12.63093,34158
12.63905,36411
12.64718,35649
12.65530,36924
12.66342,36193
12.67155,36792
12.67967,38836
12.68780,34186
12.69592,32366
12.70403,35082
12.71217,34968
12.72028,38508
12.72842,38026
12.73653,41930
12.74465,41931
12.75278,46314
12.76090,43345
12.76903,40890
12.77715,36569
12.78527,36398
12.79340,38447
12.80152,44180
12.80963,46939
12.81777,44044
12.82588,47262
12.83402,50575
12.84213,49158
12.85025,51034
12.85838,49502
12.86650,45971
12.87463,40059
12.88275,40669
12.89087,39680
12.89900,37219
12.90712,37769
12.91525,36493
12.92337,36743
12.93148,37011
12.93962,41723
12.94773,40634
12.95585,49476
12.96398,57522
12.97210,74873
12.98023,92813
12.98835,118318
12.99647,126932
13.00460,127939
13.01272,139234
13.02085,121217
13.02897,109729
13.03708,95152
13.04522,80976
13.05333,69868
13.06145,59416
13.06958,55151
13.07770,49369
13.08583,48523
13.09395,47826
13.10207,47138
13.11020,45191
13.11832,43177
13.12645,41887
13.13457,42319
13.14268,40205
13.15082,42132
13.15893,40600
13.16707,44301
13.17518,39135
13.18330,44014
13.19143,40353
13.19955,44364
13.20767,47354
13.21580,44300
13.22392,42689
13.23205,41783
13.24017,42639
13.24828,43827
13.25642,45019
13.26453,48986
13.27267,52875
13.28078,54940
13.28890,62529
13.29703,67931
13.30515,64563
13.31328,67464
13.32140,67374
13.32952,67955
13.33765,63581
13.34577,66365
13.35388,71022
13.36202,65621
13.37013,60725
13.37827,58060
13.38638,58245
13.39450,47831
13.40263,47849
13.41075,48167
13.41888,43156
13.42700,45840
13.43512,43165
13.44325,42604
13.45137,43042
13.45948,39851
13.46762,36321
13.47573,39044
13.48387,38101
13.49198,37493
13.50010,40932
13.50823,36943
13.51635,35302
13.52448,36366
13.53260,37583
13.54072,38565
13.54885,40851
13.55697,41008
13.56510,47770
13.57322,54166
13.58133,57509
13.58947,58348
13.59758,65143
13.60570,66936
13.61383,62603
13.62195,69578
13.63008,67466
13.63820,74362
13.64632,70914
13.65445,74376
13.66257,72705
13.67070,75625
13.67882,68771
13.68693,62148
13.69507,58068
13.70318,55266
13.71130,49743
13.71943,46906
13.72755,43289
13.73568,47422
13.74380,47241
13.75192,44570
13.76005,47813
13.76817,48007
13.77630,46269
13.78442,51249
13.79253,46413
13.80067,50685
13.80878,44465
13.81692,46774
13.82503,42642
13.83315,45288
13.84128,45352
13.84940,40965
13.85752,42885
13.86565,41749
13.87377,43647
13.88190,42916
13.89002,45368
13.89813,45111
13.90627,52896
13.91438,52651
13.92252,58598
13.93063,60480
13.93875,61244
13.94688,63567
13.95500,58743
13.96313,55533
13.97125,54937
13.97937,54549
13.98750,50547
13.99562,48128
14.00373,52008
14.01187,53063
14.01998,55506
14.02812,50396
14.03623,51048
14.04435,53041
14.05248,54524
14.06060,53652
14.06873,56121
14.07685,57156
14.08497,51536
14.09310,50915
14.10122,52695
14.10935,56831
14.11747,51359
14.12558,54414
14.13372,60208
14.14183,65021
14.14995,93114
14.15808,138182
14.16620,207644
14.17433,268776
14.18245,281293
14.19057,254439
14.19870,199876
14.20682,167752
14.21495,141422
14.22307,122506
14.23118,111562
14.23932,98853
14.24743,104361
14.25555,92188
14.26368,87863
14.27180,84737
14.27993,88176
14.28805,76110
14.29617,77447
14.30430,75570
14.31242,69862
14.32055,67345
14.32867,59880
14.33678,56758
14.34492,47971
14.35303,44383
14.36117,41064
14.36928,47133
14.37740,38088
14.38553,36973
14.39365,42944
14.40177,40449
14.40990,42903
14.41802,43652
14.42615,44647
14.43427,41874
14.44238,41033
14.45052,43012
14.45863,43484
14.46677,43054
14.47488,38929
14.48300,38267
14.49113,37769
14.49925,37797
14.50737,40243
14.51550,38462
14.52362,39188
14.53175,46038
14.53987,40482
14.54798,40965
14.55612,36781
14.56423,40173
14.57237,39184
14.58048,42503
14.58860,37520
14.59673,37344
14.60485,38596
14.61298,34746
14.62110,37330
14.62922,39769
14.63735,36123
14.64547,37224
14.65358,36400
14.66172,37360
14.66983,40584
14.67797,35480
14.68608,37123
14.69420,36592
14.70233,40208
14.71045,35601
14.71858,36455
14.72670,37910
14.73482,40313
14.74295,36655
14.75107,36970
14.75920,41462
14.76732,38617
14.77543,33412
14.78357,37919
14.79168,39547
14.79980,39278
14.80793,36598
14.81605,37139
14.82418,40738
14.83230,35652
14.84042,35793
14.84855,39502
14.85667,39911
14.86480,41282
14.87292,42204
14.88103,41605
14.88917,39792
14.89728,38868
14.90540,40140
14.91353,39469
14.92165,40701
14.92978,38678
14.93790,40362
14.94602,41106
14.95415,40826
14.96227,40376
14.97040,37798
14.97852,41084
14.98663,37875
14.99477,39878
15.00288,43600
15.01102,41105
15.01913,35570
15.02725,40260
15.03538,42381
15.04350,38781
15.05162,41931
15.05975,37703
15.06787,39654
15.07600,33546
15.08412,42207
15.09223,37847
15.10037,37062
15.10848,37380
15.11662,35690
15.12473,37877
15.13285,38289
15.14098,40888
15.14910,35916
15.15723,36461
15.16535,38794
15.17347,37570
15.18160,32851
15.18972,35690
15.19783,39513
15.20597,39691
15.21408,36565
15.22222,38797
15.23033,38903
15.23845,35577
15.24658,41591
15.25470,35573
15.26283,35019
15.27095,35289
15.27907,33491
15.28720,32843
15.29532,36784
15.30343,34414
15.31157,36276
15.31968,35743
15.32782,35326
15.33593,31014
15.34405,36357
15.35218,33554
15.36030,37115
15.36843,32909
15.37655,33269
15.38467,38705
15.39280,35051
15.40092,35274
15.40905,39326
15.41717,34474
15.42528,31644
15.43342,36644
15.44153,36048
15.44965,36158
15.45778,33798
15.46590,36666
15.47403,37627
15.48215,35069
15.49027,31434
15.49840,37160
15.50652,31294
15.51465,34013
15.52277,37577
15.53088,35977
15.53902,34386
15.54713,34025
15.55525,34809
15.56338,35150
15.57150,33775
15.57963,32350
15.58775,31400
15.59587,36537
15.60400,37912
15.61212,32650
15.62025,35427
15.62837,30730
15.63648,33051
15.64462,35462
15.65273,34894
15.66087,35324
15.66898,34343
15.67710,35761
15.68523,33831
15.69335,33433
15.70147,35404
15.70960,32018
15.71772,35796
15.72585,35389
15.73397,32645
15.74208,36845
15.75022,38110
15.75833,40717
15.76647,38097
15.77458,44518
15.78270,38934
15.79083,44127
15.79895,40184
15.80708,37415
15.81520,37130
15.82332,37030
15.83145,38828
15.83957,37332
15.84768,36947
15.85582,36023
15.86393,33377
15.87207,39015
15.88018,35730
15.88830,38411
15.89643,36210
15.90455,36084
15.91268,35475
15.92080,34459
15.92892,35276
15.93705,38154
15.94517,37893
15.95328,35737
15.96142,37026
15.96953,38923
15.97767,35674
15.98578,35443
15.99390,37190
16.00203,36540
16.01015,39924
16.01828,41435
16.02640,40169
16.03452,46373
16.04265,43064
16.05077,44019
16.05890,39647
16.06702,39081
16.07513,38873
16.08327,39461
16.09138,39248
16.09950,35588
16.10763,35742
16.11575,34487
16.12388,41016
16.13200,39786
16.14012,33297
16.14825,37152
16.15637,34269
16.16450,43277
16.17262,35330
16.18073,38116
16.18887,36763
16.19698,36707
16.20512,39346
16.21323,38866
16.22135,34236
16.22948,36495
16.23760,37726
16.24572,35956
16.25385,36796
16.26197,38364
16.27010,38555
16.27822,35148
16.28633,38017
16.29447,38903
16.30258,37914
16.31072,36135
16.31883,38399
16.32695,39686
16.33508,40522
16.34320,41085
16.35132,37601
16.35945,38854
16.36757,36076
16.37570,33309
16.38382,34745
16.39193,37267
16.40007,33914
16.40818,38977
16.41632,36202
16.42443,40878
16.43255,40382
16.44068,41173
16.44880,34199
16.45693,39873
16.46505,36065
16.47317,36571
16.48130,38010
16.48942,40790
16.49753,37485
16.50567,37092
16.51378,38241
16.52192,39298
16.53003,39410
16.53815,39533
16.54628,39491
16.55440,39547
16.56253,39591
16.57065,38481
16.57877,37389
16.58690,39581
16.59502,38245
16.60313,38873
16.61127,41569
16.61938,41491
16.62752,38961
16.63563,38355
16.64375,37926
16.65188,35782
16.66000,32502
16.66813,34695
16.67625,37458
16.68437,40118
16.69250,34134
16.70062,36796
16.70875,37106
16.71687,36554
16.72498,36121
16.73312,33568
16.74123,31763
16.74935,39360
16.75748,33663
16.76560,36888
16.77373,36154
16.78185,37411
16.78997,37204
16.79810,36387
16.80622,36077
16.81435,37082
16.82247,37278
16.83058,35350
16.83872,37395
16.84683,36243
16.85497,34891
16.86308,38900
16.87120,37248
16.87933,36383
16.88745,38189
16.89557,39529
16.90370,41264
16.91182,36674
16.91995,39443
16.92807,36730
16.93618,37788
16.94432,36425
16.95243,36336
16.96057,37411
16.96868,42394
16.97680,37533
16.98493,37452
16.99305,34337
17.00117,35885
17.00930,37356
17.01742,37823
17.02555,38895
17.03367,36198
17.04178,37443
17.04992,38559
17.05803,41100
17.06617,38324
17.07428,36004
17.08240,39887
17.09053,38075
17.09865,43350
17.10678,39544
17.11490,38704
17.12302,40782
17.13115,37658
17.13927,38066
17.14738,37335
17.15552,40578
17.16363,43273
17.17177,39800
17.17988,42813
17.18800,34378
17.19613,37546
17.20425,38285
17.21238,38945
17.22050,38350
17.22862,38622
17.23675,35473
17.24487,35631
17.25300,34627
17.26112,38610
17.26923,39960
17.27737,37116
17.28548,41149
17.29360,35209
17.30173,36452
17.30985,38595
17.31798,36307
17.32610,40271
17.33422,39172
17.34235,43492
17.35047,42095
17.35860,39660
17.36672,47146
17.37483,44368
17.38297,49963
17.39108,47624
17.39920,49543
17.40733,49434
17.41545,49484
17.42358,50446
17.43170,46567
17.43982,49207
17.44795,43416
17.45607,45900
17.46420,46377
17.47232,44813
17.48043,47200
17.48857,43107
17.49668,44015
17.50482,49299
17.51293,45336
17.52105,51203
17.52918,56417
17.53730,68276
17.54542,73839
17.55355,81607
17.56167,86164
17.56980,87616
17.57792,88457
17.58603,73039
17.59417,65753
17.60228,61102
17.61042,53152
17.61853,48010
17.62665,46035
17.63478,41431
17.64290,40533
17.65103,45843
17.65915,46143
17.66727,42497
17.67540,42983
17.68352,45967
17.69163,44308
17.69977,48451
17.70788,44155
17.71602,45084
17.72413,45081
17.73225,44667
17.74038,43906
17.74850,46382
17.75663,39968
17.76475,43148
17.77287,41187
17.78100,41012
17.78912,41924
17.79723,42409
17.80537,40104
17.81348,40750
17.82162,45449
17.82973,45087
17.83785,46970
17.84598,47064
17.85410,53094
17.86223,49928
17.87035,51774
17.87847,53017
17.88660,51218
17.89472,45304
17.90285,42292
17.91097,42907
17.91908,41060
17.92722,37868
17.93533,40360
17.94345,42886
17.95158,42337
17.95970,38528
17.96783,40135
17.97595,41901
17.98407,40872
17.99220,36397
18.00032,38076
18.00845,38536
18.01657,39498
18.02468,41555
18.03282,42793
18.04093,46573
18.04905,46928
18.05718,48794
18.06530,49734
18.07343,53901
18.08155,50283
18.08967,49442
18.09780,48927
18.10592,49263
18.11405,47681
18.12217,45939
18.13028,44315
18.13842,46114
18.14653,45393
18.15467,44776
18.16278,46584
18.17090,48123
18.17903,43138
18.18715,43563
18.19527,41655
18.20340,48498
18.21152,45320
18.21965,48380
18.22777,47788
18.23588,49913
18.24402,45693
18.25213,49030
18.26027,46350
18.26838,44377
18.27650,43693
18.28463,41211
18.29275,39176
18.30088,40497
18.30900,39203
18.31712,39822
18.32525,43704
18.33337,38317
18.34148,43584
18.34962,43985
18.35773,42722
18.36587,43551
18.37398,44425
18.38210,45109
18.39023,50037
18.39835,51724
18.40648,51170
18.41460,52823
18.42272,48094
18.43085,47592
18.43897,51557
18.44708,47405
18.45522,47172
18.46333,47574
18.47147,46846
18.47958,44995
18.48770,48546
18.49583,42966
18.50395,47854
18.51208,45044
18.52020,46275
18.52832,46794
18.53645,47185
18.54457,44502
18.55270,44526
18.56082,46130
18.56893,45944
18.57707,42495
18.58518,50477
18.59330,49898
18.60143,51159
18.60955,50475
18.61768,53146
18.62580,56265
18.63392,52452
18.64205,50100
18.65017,47638
18.65830,45546
18.66642,45082
18.67453,46402
18.68267,46679
18.69078,47548
18.69892,46735
18.70703,48470
18.71515,48794
18.72328,44712
18.73140,41300
18.73952,40075
18.74765,42496
18.75577,37847
18.76390,42714
18.77202,43500
18.78013,40853
18.78827,44150
18.79638,44180
18.80452,40501
18.81263,44461
18.82075,40329
18.82888,43863
18.83700,43197
18.84512,41529
18.85325,41168
18.86137,41494
18.86950,41754
18.87762,40170
18.88573,44066
18.89387,45295
18.90198,46316
18.91012,47655
18.91823,51769
18.92635,48982
18.93448,45344
18.94260,44666
18.95073,43418
18.95885,43167
18.96697,39701
18.97510,41478
18.98322,40420
18.99133,42476
18.99947,40374
19.00758,42853
19.01572,45281
19.02383,48442
19.03195,49136
19.04008,42775
19.04820,46963
19.05633,46631
19.06445,43952
19.07257,46633
19.08070,47715
19.08882,49148
19.09693,57317
19.10507,56759
19.11318,57537
19.12132,51405
19.12943,58924
19.13755,60895
19.14568,67472
19.15380,71385
19.16193,74331
19.17005,82386
19.17817,80231
19.18630,75362
19.19442,73108
19.20255,62389
19.21067,59849
19.21878,54294
19.22692,46959
19.23503,46950
19.24315,43780
19.25128,42419
19.25940,43611
19.26753,43831
19.27565,45783
19.28377,46014
19.29190,47403
19.30002,52252
19.30815,51057
19.31627,47473
19.32438,47303
19.33252,43954
19.34063,43842
19.34877,47496
19.35688,44963
19.36500,40641
19.37313,41982
19.38125,42921
19.38937,43238
19.39750,47885
19.40562,45871
19.41375,43961
19.42187,47961
19.42998,47915
19.43812,52690
19.44623,67930
19.45437,91330
19.46248,130241
19.47060,163450
19.47873,193003
19.48685,182554
19.49497,152018
19.50310,117792
19.51122,87636
19.51935,67761
19.52747,60096
19.53558,53530
19.54372,48257
19.55183,51706
19.55997,48139
19.56808,46724
19.57620,48357
19.58433,43016
19.59245,49005
19.60058,46669
19.60870,46349
19.61682,44035
19.62495,46284
19.63307,52888
19.64118,61787
19.64932,74256
19.65743,79619
19.66557,88168
19.67368,88604
19.68180,86259
19.68993,73001
19.69805,71972
19.70618,64278
19.71430,66580
19.72242,55726
19.73055,55993
19.73867,53424
19.74680,46178
19.75492,56006
19.76303,48478
19.77117,49136
19.77928,48803
19.78740,47741
19.79553,43913
19.80365,50467
19.81178,46511
19.81990,42960
19.82802,45240
19.83615,47086
19.84427,46529
19.85240,53826
19.86052,56867
19.86863,57036
19.87677,67853
19.88488,78446
19.89300,100319
19.90113,124882
19.90925,142636
19.91738,158596
19.92550,165854
19.93362,167632
19.94175,161899
19.94987,157369
19.95800,151499
19.96612,147000
19.97423,152312
19.98237,145826
19.99048,134728
19.99862,129575
20.00673,131430
20.01485,122138
20.02298,121021
20.03110,115064
20.03922,106882
20.04735,100587
20.05547,84899
20.06360,79342
20.07172,66346
20.07983,62880
20.08797,65440
20.09608,60187
20.10422,64839
20.11233,60230
20.12045,60033
20.12858,56424
20.13670,55308
20.14482,56932
20.15295,54477
20.16107,53856
20.16920,58400
20.17732,54882
20.18543,60178
20.19357,62670
20.20168,60350
20.20982,62461
20.21793,57809
20.22605,65592
20.23418,60796
20.24230,75814
20.25043,82407
20.25855,90069
20.26667,90444
20.27480,98710
20.28292,100041
20.29103,93186
20.29917,89474
20.30728,74697
20.31542,69500
20.32353,64444
20.33165,59711
20.33978,60347
20.34790,53161
20.35603,55639
20.36415,46485
20.37227,50560
20.38040,46740
20.38852,47911
20.39665,50189
20.40477,53358
20.41288,51937
20.42102,57107
20.42913,56606
20.43725,54156
20.44538,57723
20.45350,56329
20.46163,55590
20.46975,55043
20.47787,57867
20.48600,55770
20.49412,49751
20.50225,47912
20.51037,46939
20.51848,47202
20.52662,46970
20.53473,44867
20.54287,44558
20.55098,43955
20.55910,42456
20.56723,44673
20.57535,40625
20.58347,45256
20.59160,45657
20.59972,42256
20.60785,44497
20.61597,47641
20.62408,39811
20.63222,40790
20.64033,43175
20.64847,45578
20.65658,42107
20.66470,39829
20.67283,44258
20.68095,40271
20.68907,45748
20.69720,44006
20.70532,39803
20.71345,41998
20.72157,41763
20.72968,42157
20.73782,43020
20.74593,44025
20.75407,44330
20.76218,43144
20.77030,45062
20.77843,47941
20.78655,45906
20.79468,44313
20.80280,43194
20.81092,40130
20.81905,42872
20.82717,48949
20.83528,45226
20.84342,42020
20.85153,44287
20.85967,43272
20.86778,44740
20.87590,42502
20.88403,43194
20.89215,45098
20.90028,39509
20.90840,43018
20.91652,42723
20.92465,44456
20.93277,42478
20.94088,43267
20.94902,45578
20.95713,43208
20.96527,43201
20.97338,45049
20.98150,40378
20.98963,43626
20.99775,45450
21.00588,45193
21.01400,44251
21.02212,41904
21.03025,41469
21.03837,42851
21.04650,44500
21.05462,42150
21.06273,43003
21.07087,46705
21.07898,44145
21.08710,44400
21.09523,46592
21.10335,41173
21.11148,41570
21.11960,46482
21.12772,49634
21.13585,43521
21.14397,44536
21.15210,44055
21.16022,43223
21.16833,42092
21.17647,44112
21.18458,44984
21.19272,42942
21.20083,45804
21.20895,41449
21.21708,46256
21.22520,44508
21.23332,42529
21.24145,45699
21.24957,49959
21.25770,49225
21.26582,48481
21.27393,51565
21.28207,42883
21.29018,44911
21.29832,46828
21.30643,44994
21.31455,46041
21.32268,45644
21.33080,44045
21.33892,47809
21.34705,42263
21.35517,41657
21.36330,46765
21.37142,43564
21.37953,44972
21.38767,43684
21.39578,42393
21.40392,42335
21.41203,44823
21.42015,42769
21.42828,42718
21.43640,44697
21.44453,41962
21.45265,42598
21.46077,42464
21.46890,42514
21.47702,43126
21.48513,46238
21.49327,44892
21.50138,48053
21.50952,43350
21.51763,42074
21.52575,43398
21.53388,45441
21.54200,43498
21.55013,47238
21.55825,43343
21.56637,47599
21.57450,42073
21.58262,46529
21.59075,48155
21.59887,52945
21.60698,54526
21.61512,53428
21.62323,61290
21.63135,59533
21.63948,59423
21.64760,51955
21.65573,48364
21.66385,47963
21.67197,43827
21.68010,50763
21.68822,46313
21.69635,45275
21.70447,43315
21.71258,45315
21.72072,41548
21.72883,45506
21.73695,46855
21.74508,45464
21.75320,51023
21.76133,46562
21.76945,49095
21.77757,50801
21.78570,53452
21.79382,52270
21.80195,52791
21.81007,59603
21.81818,57844
21.82632,56421
21.83443,50462
21.84257,49971
21.85068,48760
21.85880,48751
21.86693,49907
21.87505,43554
21.88317,44450
21.89130,45177
21.89942,45384
21.90755,47120
21.91567,46609
21.92378,48798
21.93192,45299
21.94003,40903
21.94817,43533
21.95628,47745
21.96440,45087
21.97253,45501
21.98065,40316
21.98877,39545
21.99690,43985
22.00502,40676
22.01315,44253
22.02127,41650
22.02938,40505
22.03752,47771
22.04563,45959
22.05377,44762
22.06188,41566
22.07000,43199
22.07813,43113
22.08625,43661
22.09438,41325
22.10250,43497
22.11062,41520
22.11875,41841
22.12687,45648
22.13498,44581
22.14312,43784
22.15123,44848
22.15937,42903
22.16748,42994
22.17560,43071
22.18373,44602
22.19185,43543
22.19998,48014
22.20810,51274
22.21622,41792
22.22435,44671
22.23247,41142
22.24060,47378
22.24872,40586
22.25683,42127
22.26497,43157
22.27308,42014
22.28120,42036
22.28933,44198
22.29745,42177
22.30558,49039
22.31370,44757
22.32182,43179
22.32995,46219
22.33807,41387
22.34620,43967
22.35432,44274
22.36243,43909
22.37057,44151
22.37868,43652
22.38680,41632
22.39493,43192
22.40305,43952
22.41118,46287
22.41930,44399
22.42742,42821
22.43555,45211
22.44367,44713
22.45180,44702
22.45992,48189
22.46803,44600
22.47617,43606
22.48428,42845
22.49242,41329
22.50053,43415
22.50865,42703
22.51678,42538
22.52490,46898
22.53302,43483
22.54115,42761
22.54927,44251
22.55740,43068
22.56552,44126
22.57363,40859
22.58177,40106
22.58988,45860
22.59802,44700
22.60613,41286
22.61425,40314
22.62238,42915
22.63050,41805
22.63863,44648
22.64675,41062
22.65487,43150
22.66300,39849
22.67112,42073
22.67923,39197
22.68737,40670
22.69548,43930
22.70362,45372
22.71173,44286
22.71985,43364
22.72798,41854
22.73610,41464
22.74423,44097
22.75235,43977
22.76047,41039
22.76860,43769
22.77672,42326
22.78483,40314
22.79297,42971
22.80108,42119
22.80922,42464
22.81733,44604
22.82545,48064
22.83358,47690
22.84170,44218
22.84983,43214
22.85795,40805
22.86607,45317
22.87420,47940
22.88232,45652
22.89045,49272
22.89857,52538
22.90668,55875
22.91482,56989
22.92293,60891
22.93105,67286
22.93918,71554
22.94730,69274
22.95543,74564
22.96355,72223
22.97167,61010
22.97980,61882
22.98792,64346
22.99605,59906
23.00417,62239
23.01228,61667
23.02042,55627
23.02853,55365
23.03665,53405
23.04478,48108
23.05290,47410
23.06103,54539
23.06915,49853
23.07727,47234
23.08540,51066
23.09352,46070
23.10165,45362
23.10977,50411
23.11788,48723
23.12602,44559
23.13413,43735
23.14227,44637
23.15038,44049
23.15850,46133
23.16663,45059
23.17475,48370
23.18287,47571
23.19100,44361
23.19912,44007
23.20725,44945
23.21537,43949
23.22348,44358
23.23162,42765
23.23973,45057
23.24787,43135
23.25598,44847
23.26410,44745
23.27223,41653
23.28035,44621
23.28848,44486
23.29660,47451
23.30472,46383
23.31285,48784
23.32097,48935
23.32908,44345
23.33722,42627
23.34533,43873
23.35347,44526
23.36158,45577
23.36970,44337
23.37783,50866
23.38595,52565
23.39408,51498
23.40220,51255
23.41032,47839
23.41845,48429
23.42657,46912
23.43468,47216
23.44282,47949
23.45093,44044
23.45907,42347
23.46718,42389
23.47530,45115
23.48343,44194
23.49155,46228
23.49968,44914
23.50780,48291
23.51592,48980
23.52405,49366
23.53217,49440
23.54030,47761
23.54842,47525
23.55653,49386
23.56467,48866
23.57278,50752
23.58090,51551
23.58903,47668
23.59715,49171
23.60528,52627
23.61340,53510
23.62152,52049
23.62965,52455
23.63777,53704
23.64590,57625
23.65402,60393
23.66213,62307
23.67027,58625
23.67838,62538
23.68652,61622
23.69463,61307
23.70275,61401
23.71088,62020
23.71900,60852
23.72712,64976
23.73525,72265
23.74337,98463
23.75150,187842
23.75962,341806
23.76773,626953
23.77587,1018844
23.78398,1353527
23.79212,1418429
23.80023,1358423
23.80835,1155757
23.81648,927444
23.82460,699020
23.83272,503219
23.84085,403792
23.84897,314489
23.85710,262441
23.86522,239907
23.87333,209764
23.88147,188571
23.88958,166753
23.89772,149605
23.90583,140532
23.91395,134362
23.92208,128130
23.93020,125047
23.93833,111952
23.94645,106113
23.95457,105195
23.96270,97083
23.97082,97476
23.97893,96025
23.98707,94420
23.99518,87319
24.00332,83869
24.01143,81969
24.01955,86830
24.02768,84143
24.03580,79412
24.04393,79688
24.05205,75206
24.06017,76467
24.06830,77727
24.07642,84221
24.08455,72576
24.09267,75946
24.10078,72924
24.10892,74967
24.11703,73521
24.12515,70882
24.13328,71572
24.14140,66508
24.14953,70801
24.15765,69004
24.16577,73623
24.17390,69960
24.18202,78944
24.19015,81148
24.19827,83476
24.20638,84282
24.21452,73163
24.22263,70278
24.23075,68391
24.23888,65785
24.24700,64920
24.25513,67639
24.26325,60979
24.27137,57284
24.27950,58511
24.28762,57222
24.29575,63711
24.30387,53115
24.31198,55445
24.32012,59165
24.32823,60785
24.33637,73677
24.34448,88063
24.35260,107573
24.36073,123421
24.36885,131891
24.37697,118663
24.38510,105656
24.39322,83044
24.40135,66453
24.40947,60952
24.41758,55672
24.42572,58194
24.43383,58086
24.44197,54721
24.45008,54817
24.45820,57545
24.46633,61782
24.47445,61020
24.48257,60695
24.49070,63237
24.49882,57537
24.50695,62582
24.51507,58690
24.52318,53039
24.53132,54637
24.53943,51189
24.54757,55340
24.55568,54113
24.56380,50149
24.57193,46434
24.58005,50481
24.58818,49223
24.59630,52537
24.60442,52605
24.61255,55681
24.62067,50899
24.62878,52561
24.63692,49924
24.64503,50805
24.65317,51561
24.66128,54921
24.66940,49507
24.67753,49941
24.68565,51631
24.69378,50516
24.70190,47454
24.71002,47807
24.71815,52552
24.72627,48007
24.73440,48953
24.74252,46584
24.75063,46089
24.75877,52861
24.76688,48841
24.77500,45743
24.78313,49710
24.79125,49227
24.79938,46712
24.80750,48496
24.81562,47724
24.82375,47077
24.83187,49863
24.84000,47543
24.84812,45361
24.85623,49152
24.86437,48761
24.87248,47871
24.88060,48061
24.88873,45763
24.89685,49867
24.90498,50516
24.91310,44807
24.92122,46396
24.92935,46123
24.93747,49733
24.94560,43310
24.95372,47194
24.96183,44351
24.96997,43233
24.97808,48387
24.98622,42192
24.99433,47930
25.00245,42079
25.01058,44398
25.01870,39951
25.02682,44837
25.03495,45005
25.04307,47070
25.05120,45950
25.05932,45224
25.06743,46089
25.07557,44720
25.08368,48766
25.09182,45723
25.09993,44099
25.10805,42536
25.11618,42296
25.12430,45942
25.13243,42264
25.14055,51805
25.14867,48278
25.15680,47164
25.16492,48347
25.17303,47099
25.18117,47556
25.18928,49218
25.19742,45450
25.20553,44480
25.21365,46461
25.22178,47058
25.22990,44459
25.23803,45853
25.24615,46299
25.25427,44342
25.26240,43932
25.27052,43872
25.27863,45996
25.28677,49402
25.29488,51588
25.30302,54494
25.31113,58475
25.31925,60229
25.32738,63451
25.33550,52566
25.34363,53122
25.35175,51212
25.35987,46961
25.36800,47323
25.37612,46776
25.38425,42714
25.39237,40859
25.40048,40027
25.40862,39892
25.41673,41459
25.42485,43794
25.43298,45490
25.44110,44210
25.44923,49024
25.45735,43045
25.46547,46671
25.47360,41111
25.48172,45090
25.48985,40317
25.49797,40358
25.50608,42374
25.51422,47364
25.52233,43953
25.53045,39589
25.53858,39934
25.54670,39836
25.55483,40667
25.56295,37868
25.57107,39738
25.57920,39111
25.58732,40834
25.59545,40177
25.60357,37949
25.61168,43705
25.61982,37229
25.62793,44531
25.63607,39146
25.64418,37310
25.65230,37516
25.66043,43513
25.66855,39437
25.67667,40481
25.68480,38555
25.69292,35353
25.70105,40468
25.70917,41112
25.71728,41498
25.72542,38790
25.73353,42132
25.74167,45018
25.74978,41645
25.75790,38069
25.76603,40875
25.77415,42823
25.78228,33451
25.79040,39125
25.79852,37216
25.80665,38082
25.81477,37818
25.82288,40019
25.83102,40052
25.83913,38365
25.84727,38582
25.85538,39629
25.86350,45265
25.87163,37448
25.87975,42044
25.88788,42909
25.89600,38791
25.90412,38578
25.91225,38461
25.92037,35318
25.92848,39619
25.93662,39447
25.94473,35865
25.95287,36370
25.96098,37153
25.96910,37042
25.97723,36179
25.98535,36050
25.99348,34837
26.00160,38055
26.00972,39605
26.01785,36799
26.02597,38875
26.03410,36920
26.04222,39474
26.05033,37921
26.05847,36789
26.06658,43107
26.07470,38568
26.08283,36932
26.09095,41373
26.09908,41927
26.10720,37568
26.11532,38630
26.12345,48209
26.13157,52880
26.13970,54813
26.14782,55496
26.15593,53036
26.16407,51851
26.17218,47753
26.18032,47530
26.18843,44646
26.19655,46486
26.20468,41530
26.21280,48805
26.22092,42932
26.22905,41215
26.23717,41421
26.24530,40992
26.25342,38057
26.26153,36649
26.26967,38000
26.27778,40458
26.28592,39479
26.29403,37921
26.30215,36000
26.31028,38979
26.31840,38155
26.32652,40543
26.33465,41581
26.34277,39602
26.35090,41857
26.35902,37915
26.36713,36048
26.37527,39528
26.38338,38510
26.39152,41477
26.39963,37890
26.40775,40091
26.41588,39975
26.42400,37831
26.43213,39369
26.44025,48550
26.44837,43341
26.45650,41210
26.46462,40427
26.47273,39231
26.48087,39699
26.48898,36143
26.49712,39202
26.50523,38269
26.51335,37585
26.52148,35235
26.52960,37786
26.53773,36957
26.54585,37047
26.55397,35146
26.56210,37941
26.57022,42061
26.57833,40864
26.58647,41122
26.59458,36351
26.60272,43716
26.61083,35624
26.61895,40444
26.62708,37818
26.63520,36262
26.64333,38534
26.65145,40129
26.65957,38262
26.66770,38936
26.67582,44210
26.68395,36165
26.69207,39213
26.70018,39240
26.70832,40217
26.71643,42676
26.72455,36563
26.73268,41301
26.74080,39217
26.74893,39822
26.75705,38872
26.76517,41340
26.77330,43410
26.78142,39815
26.78955,36217
26.79767,40431
26.80578,43596
26.81392,43328
26.82203,44298
26.83017,43386
26.83828,42324
26.84640,41944
26.85453,40922
26.86265,39004
26.87077,37373
26.87890,40601
26.88702,38163
26.89515,39320
26.90327,38816
26.91138,38388
26.91952,38914
26.92763,43575
26.93577,38930
26.94388,45593
26.95200,49350
26.96013,62881
26.96825,88064
26.97638,121868
26.98450,161505
26.99262,212972
27.00075,246337
27.00887,265094
27.01698,272522
27.02512,233426
27.03323,202425
27.04137,175187
27.04948,148397
27.05760,111925
27.06573,106534
27.07385,90829
27.08198,84675
27.09010,75984
27.09822,71999
27.10635,69012
27.11447,64305
27.12258,62938
27.13072,60003
27.13883,62171
27.14697,60943
27.15508,59409
27.16320,56236
27.17133,58262
27.17945,59803
27.18758,57587
27.19570,57687
27.20382,58096
27.21195,54321
27.22007,50631
27.22820,50228
27.23632,53135
27.24443,47646
27.25257,47217
27.26068,50550
27.26880,45839
27.27693,52518
27.28505,47259
27.29318,46731
27.30130,46268
27.30942,45744
27.31755,48631
27.32567,44859
27.33380,45980
27.34192,47126
27.35003,45393
27.35817,46752
27.36628,47261
27.37440,44371
27.38253,46430
27.39065,48577
27.39878,46698
27.40690,47629
27.41502,46422
27.42315,39371
27.43127,44317
27.43940,42625
27.44752,43818
27.45563,39318
27.46377,42316
27.47188,44086
27.48002,44418
27.48813,43553
27.49625,43672
27.50438,44545
27.51250,45395
27.52062,43286
27.52875,45668
27.53687,45880
27.54500,43832
27.55312,40932
27.56123,41343
27.56937,42545
27.57748,42863
27.58562,41411
27.59373,46977
27.60185,41952
27.60998,39487
27.61810,45860
27.62623,42426
27.63435,42666
27.64247,45476
27.65060,39892
27.65872,42072
27.66683,41838
27.67497,40035
27.68308,44593
27.69122,37523
27.69933,41047
27.70745,44567
27.71558,40414
27.72370,47477
27.73183,44592
27.73995,50345
27.74807,47590
27.75620,51291
27.76432,49531
27.77243,44020
27.78057,47488
27.78868,47600
27.79682,43166
27.80493,39334
27.81305,42305
27.82118,42972
27.82930,38621
27.83743,44994
27.84555,45706
27.85367,44308
27.86180,45157
27.86992,43926
27.87805,41169
27.88617,45846
27.89428,42520
27.90242,45608
27.91053,43037
27.91865,39922
27.92678,39604
27.93490,40656
27.94303,37217
27.95115,45992
27.95927,44669
27.96740,44249
27.97552,42581
27.98365,46785
27.99177,45046
27.99988,45172
28.00802,42365
28.01613,47884
28.02427,43817
28.03238,44232
28.04050,41109
28.04863,44080
28.05675,44987
28.06487,48777
28.07300,48588
28.08112,53960
28.08925,66745
28.09737,76897
28.10548,82618
28.11362,93789
28.12173,86654
28.12987,83046
28.13798,69566
28.14610,64201
28.15423,55929
28.16235,52423
28.17047,52089
28.17860,46545
28.18672,47978
28.19485,45034
28.20297,42805
28.21108,44770
28.21922,43092
28.22733,43294
28.23547,40462
28.24358,44691
28.25170,45431
28.25983,46791
28.26795,51194
28.27608,56207
28.28420,68097
28.29232,79902
28.30045,93538
28.30857,106784
28.31668,116374
28.32482,120473
28.33293,123959
28.34107,127270
28.34918,118191
28.35730,117420
28.36543,105697
28.37355,101527
28.38168,97204
28.38980,86962
28.39792,84461
28.40605,78453
28.41417,70662
28.42228,67739
28.43042,67567
28.43853,64874
28.44667,59317
28.45478,57979
28.46290,57485
28.47103,57478
28.47915,54719
28.48728,55991
28.49540,56509
28.50352,50577
28.51165,53062
28.51977,54074
28.52790,59087
28.53602,51886
28.54413,51934
28.55227,53284
28.56038,51562
28.56850,49393
28.57663,52852
28.58475,49950
28.59288,50547
28.60100,48794
28.60912,48473
28.61725,49194
28.62537,53273
28.63350,52846
28.64162,56634
28.64973,56494
28.65787,61601
28.66598,60060
28.67412,60903
28.68223,58874
28.69035,56187
28.69848,56666
28.70660,59633
28.71472,68901
28.72285,71564
28.73097,75423
28.73910,78239
28.74722,71556
28.75533,63471
28.76347,59468
28.77158,49311
28.77972,52854
28.78783,47943
28.79595,44296
28.80408,48361
28.81220,46143
28.82032,44637
28.82845,44937
28.83657,43936
28.84470,45371
28.85282,46464
28.86093,45368
28.86907,47535
28.87718,47616
28.88532,44404
28.89343,48800
28.90155,44515
28.90968,43514
28.91780,44998
28.92593,47858
28.93405,45560
28.94217,50182
28.95030,49661
28.95842,50895
28.96653,50327
28.97467,51529
28.98278,49875
28.99092,47989
28.99903,46253
29.00715,43962
29.01528,48299
29.02340,46228
29.03153,40167
29.03965,47189
29.04777,47875
29.05590,47612
29.06402,45837
29.07215,51207
29.08027,48440
29.08838,49991
29.09652,48636
29.10463,48697
29.11275,50957
29.12088,53462
29.12900,53594
29.13713,54472
29.14525,52372
29.15337,55269
29.16150,52552
29.16962,56057
29.17775,56207
29.18587,58175
29.19398,56771
29.20212,60049
29.21023,62822
29.21835,60919
29.22648,64008
29.23460,67557
29.24273,66772
29.25085,73853
29.25897,73879
29.26710,78094
29.27522,81808
29.28335,82760
29.29147,80660
29.29958,79166
29.30772,80559
29.31583,78436
29.32397,77630
29.33208,73114
29.34020,75442
29.34833,74001
29.35645,73774
29.36457,73222
29.37270,70416
29.38082,73367
29.38895,68602
29.39707,70926
29.40518,76293
29.41332,66897
29.42143,70308
29.42957,67126
29.43768,66804
29.44580,68499
29.45393,68725
29.46205,67302
29.47017,64013
29.47830,65139
29.48642,66480
29.49455,71678
29.50267,60167
29.51078,65386
29.51892,66666
29.52703,63968
29.53517,66993
29.54328,58916
29.55140,59464
29.55953,60574
29.56765,60740
29.57578,66989
29.58390,72782
29.59202,76273
29.60015,77961
29.60827,74582
29.61638,74100
29.62452,67101
29.63263,58459
29.64077,58111
29.64888,54428
29.65700,52887
29.66513,54366
29.67325,53693
29.68138,50155
29.68950,49390
29.69762,48090
29.70575,50887
29.71387,51508
29.72200,51120
29.73012,48279
29.73823,52273
29.74637,52057
29.75448,48340
29.76260,49384
29.77073,49604
29.77885,49834
29.78698,47383
29.79510,48198
29.80322,48845
29.81135,44993
29.81947,52252
29.82760,45650
29.83572,47338
29.84383,49140
29.85197,46802
29.86008,52157
29.86820,48112
29.87633,50685
29.88445,52321
29.89258,57355
29.90070,63828
29.90882,66551
29.91695,65062
29.92507,74825
29.93320,79465
29.94132,85770
29.94943,96371
29.95757,101538
29.96568,107366
29.97382,110818
29.98193,102613
29.99005,99432
29.99818,97329
30.00630,89251
30.01442,80341
30.02255,80136
30.03067,76146
30.03880,70086
30.04692,65758
30.05503,69219
30.06317,65821
30.07128,72204
30.07942,64359
30.08753,60326
30.09565,63598
30.10378,61639
30.11190,60886
30.12003,54470
30.12815,58846
30.13627,59237
30.14440,62466
30.15252,61644
30.16063,57819
30.16877,59702
30.17688,58109
30.18502,55693
30.19313,54342
30.20125,56393
30.20938,56615
30.21750,51833
30.22563,51664
30.23375,51052
30.24187,53574
30.25000,52928
30.25812,52810
30.26623,49897
30.27437,51671
30.28248,53192
30.29062,48260
30.29873,53132
30.30685,53620
30.31498,54107
30.32310,53387
30.33123,50647
30.33935,48057
30.34747,52688
30.35560,51111
30.36372,52455
30.37185,52291
30.37997,48155
30.38808,48271
30.39622,51360
30.40433,53039
30.41245,54246
30.42058,47323
30.42870,50948
30.43683,51626
30.44495,52334
30.45307,49620
30.46120,54523
30.46932,50441
30.47745,51368
30.48557,50339
30.49368,51085
30.50182,53672
30.50993,53043
30.51807,50748
30.52618,53470
30.53430,51734
30.54243,51624
30.55055,52470
30.55867,52922
30.56680,50626
30.57492,49645
30.58305,51018
30.59117,51558
30.59928,50585
30.60742,50792
30.61553,56574
30.62367,50569
30.63178,48464
30.63990,47164
30.64803,50138
30.65615,55848
30.66427,49218
30.67240,48641
30.68052,50332
30.68865,52110
30.69677,45962
30.70488,52771
30.71302,55444
30.72113,52408
30.72927,51739
30.73738,49943
30.74550,48720
30.75363,50882
30.76175,54837
30.76988,51118
30.77800,51829
30.78612,49707
30.79425,56500
30.80237,56516
30.81048,56552
30.81862,53896
30.82673,52873
30.83487,54505
30.84298,49044
30.85110,51390
30.85923,52426
30.86735,55105
30.87548,52452
30.88360,50332
30.89172,50827
30.89985,52405
30.90797,53253
30.91608,52912
30.92422,53073
30.93233,50349
30.94047,51511
30.94858,47645
30.95670,53993
30.96483,52728
30.97295,51647
30.98108,51599
30.98920,48389
30.99732,51836
31.00545,52037
31.01357,54920
31.02170,53925
31.02982,53795
31.03793,58485
31.04607,55065
31.05418,55585
31.06230,53831
31.07043,57729
31.07855,53822
31.08668,60084
31.09480,58140
31.10292,68357
31.11105,60402
31.11917,59013
31.12730,56857
31.13542,57388
31.14353,58665
31.15167,57076
31.15978,57198
31.16792,66197
31.17603,72162
31.18415,88300
31.19228,108565
31.20040,131073
31.20852,148200
31.21665,151508
31.22477,148596
31.23290,133500
31.24102,98391
31.24913,85548
31.25727,71690
31.26538,65494
31.27352,64437
31.28163,58035
31.28975,55061
31.29788,60094
31.30600,54174
31.31412,51760
31.32225,55236
31.33037,52903
31.33850,50998
31.34662,50401
31.35473,57187
31.36287,57701
31.37098,56088
31.37912,61167
31.38723,57411
31.39535,56064
31.40348,59708
31.41160,59073
31.41973,61569
31.42785,55916
31.43597,59981
31.44410,56508
31.45222,56733
31.46033,55757
31.46847,54848
31.47658,56167
31.48472,54916
31.49283,55325
31.50095,57825
31.50908,61196
31.51720,56693
31.52533,55886
31.53345,56555
31.54157,58852
31.54970,57347
31.55782,59457
31.56595,59592
31.57407,58312
31.58218,58395
31.59032,53368
31.59843,56114
31.60655,52570
31.61468,56404
31.62280,59981
31.63093,57981
31.63905,58233
31.64717,55659
31.65530,60063
31.66342,60048
31.67155,68183
31.67967,71723
31.68778,81566
31.69592,74578
31.70403,75264
31.71215,74031
31.72028,74187
31.72840,61229
31.73653,66600
31.74465,54618
31.75277,60141
31.76090,59963
31.76902,57475
31.77715,60601
31.78527,61482
31.79338,65163
31.80152,62712
31.80963,68610
31.81777,59559
31.82588,67777
31.83400,57086
31.84213,64283
31.85025,62060
31.85837,66946
31.86650,72223
31.87462,75865
31.88275,80687
31.89087,87172
31.89898,83201
31.90712,77970
31.91523,84994
31.92337,83768
31.93148,79809
31.93960,82336
31.94773,81379
31.95585,77178
31.96397,80010
31.97210,76075
31.98022,76741
31.98835,75333
31.99647,74114
32.00458,71373
32.01272,73543
32.02083,74519
32.02897,70628
32.03708,67592
32.04520,68352
32.05333,69671
32.06145,64680
32.06958,69158
32.07770,63304
32.08582,65173
32.09395,64985
32.10207,64467
32.11018,61651
32.11832,66116
32.12643,65594
32.13457,64598
32.14268,67302
32.15080,61588
32.15893,63930
32.16705,68397
32.17518,62584
32.18330,63622
32.19142,64208
32.19955,60361
32.20767,61869
32.21580,62441
32.22392,63900
32.23203,62397
32.24017,59886
32.24828,59750
32.25640,65766
32.26453,63772
32.27265,59724
32.28078,66643
32.28890,65154
32.29702,63203
32.30515,65293
32.31327,61987
32.32140,66337
32.32952,65079
32.33763,63243
32.34577,64694
32.35388,63852
32.36202,64948
32.37013,65533
32.37825,59331
32.38638,61412
32.39450,65519
32.40262,60799
32.41075,63107
32.41887,62040
32.42700,61901
32.43512,58436
32.44323,59714
32.45137,62006
32.45948,64655
32.46762,64318
32.47573,62799
32.48385,62759
32.49198,61809
32.50010,59246
32.50822,61607
32.51635,56906
32.52447,62772
32.53260,59763
32.54072,59326
32.54883,66216
32.55697,65322
32.56508,67092
32.57322,64615
32.58133,63467
32.58945,64517
32.59758,66684
32.60570,74360
32.61383,78476
32.62195,79957
32.63007,82215
32.63820,76048
32.64632,76098
32.65443,72445
32.66257,66199
32.67068,65747
32.67882,70827
32.68693,67921
32.69505,66515
32.70318,69069
32.71130,70442
32.71943,66804
32.72755,65362
32.73567,67651
32.74380,65106
32.75192,69881
32.76003,62252
32.76817,63393
32.77628,60964
32.78442,64394
32.79253,61691
32.80065,63392
32.80878,63132
32.81690,63647
32.82503,64982
32.83315,61607
32.84127,62958
32.84940,64300
32.85752,63530
32.86565,62873
32.87377,59683
32.88188,61119
32.89002,62982
32.89813,58701
32.90625,60974
32.91438,68473
32.92250,65569
32.93063,65915
32.93875,63280
32.94687,63888
32.95500,65971
32.96312,64548
32.97125,69508
32.97937,63668
32.98748,67439
32.99562,61326
33.00373,64242
33.01187,60510
33.01998,61504
33.02810,63145
33.03623,64786
33.04435,67533
33.05247,64538
33.06060,64613
33.06872,66098
33.07685,66839
33.08497,67681
33.09308,75132
33.10122,79954
33.10933,82421
33.11747,82644
33.12558,86212
33.13370,82910
33.14183,84209
33.14995,74529
33.15807,64135
33.16620,73083
33.17432,70337
33.18245,68455
33.19057,70509
33.19868,70554
33.20682,67380
33.21493,69275
33.22307,67443
33.23118,64222
33.23930,64778
33.24743,63807
33.25555,69229
33.26368,65489
33.27180,66292
33.27992,69156
33.28805,67633
33.29617,62642
33.30428,67680
33.31242,67910
33.32053,68641
33.32867,66266
33.33678,65575
33.34490,64893
33.35303,68358
33.36115,64530
33.36928,66498
33.37740,65182
33.38552,65987
33.39365,64736
33.40177,71244
33.40990,66815
33.41802,68748
33.42613,67741
33.43427,69598
33.44238,63005
33.45050,67070
33.45863,65767
33.46675,68636
33.47488,64506
33.48300,70150
33.49112,69353
33.49925,68693
33.50737,61849
33.51550,68159
33.52362,66116
33.53173,66738
33.53987,70894
33.54798,68789
33.55610,64097
33.56423,69939
33.57235,65269
33.58048,69491
33.58860,68035
33.59672,61565
33.60485,64875
33.61297,65044
33.62110,69104
33.62922,65719
33.63733,65043
33.64547,68941
33.65358,67158
33.66172,70188
33.66983,70584
33.67795,68458
33.68608,69786
33.69420,75765
33.70232,73558
33.71045,71937
33.71857,71433
33.72670,68922
33.73482,70328
33.74293,75974
33.75107,73609
33.75918,76842
33.76732,76750
33.77543,79455
33.78355,80567
33.79168,83988
33.79980,89829
33.80792,93517
33.81605,85988
33.82417,86410
33.83230,94896
33.84042,94142
33.84853,96579
33.85667,92836
33.86478,99419
33.87292,101874
33.88103,104753
33.88915,109538
33.89728,105214
33.90540,107082
33.91353,111649
33.92165,114635
33.92977,114727
33.93790,118537
33.94602,114514
33.95413,118796
33.96227,112535
33.97038,119651
33.97852,110278
33.98663,114615
33.99475,112379
34.00288,107376
34.01100,108716
34.01913,102663
34.02725,101279
34.03537,99308
34.04350,99643
34.05162,101648
34.05975,94174
34.06787,103311
34.07598,98032
34.08412,96064
34.09223,93722
34.10035,96108
34.10848,92095
34.11660,90843
34.12473,91308
34.13285,94781
34.14097,90550
34.14910,92045
34.15722,91948
34.16535,87518
34.17347,84881
34.18158,86080
34.18972,92391
34.19783,89139
34.20595,91673
34.21408,84024
34.22220,83558
34.23033,89231
34.23845,83961
34.24657,83740
34.25470,87786
34.26282,83231
34.27095,86365
34.27907,81004
34.28718,84936
34.29532,84699
34.30343,87920
34.31157,84556
34.31968,85431
34.32780,86028
34.33593,83690
34.34405,83798
34.35217,87641
34.36030,82083
34.36842,83759
34.37655,82942
34.38467,84882
34.39278,81923
34.40092,84097
34.40903,79755
34.41717,82954
34.42528,84264
34.43340,86522
34.44153,84867
34.44965,84079
34.45778,84835
34.46590,89844
34.47402,94985
34.48215,104029
34.49027,105914
34.49838,116472
34.50652,117913
34.51463,115852
34.52277,109372
34.53088,110873
34.53900,109644
34.54713,108927
34.55525,103765
34.56338,102870
34.57150,102377
34.57962,100345
34.58775,97680
34.59587,92909
34.60398,94459
34.61212,97736
34.62023,99635
34.62837,97132
34.63648,100530
34.64460,102913
34.65273,108151
34.66085,107831
34.66898,103420
34.67710,108482
34.68522,109440
34.69335,109739
34.70147,107006
34.70960,108690
34.71772,109282
34.72583,108502
34.73397,108142
34.74208,113656
34.75020,110509
34.75833,115219
34.76645,105824
34.77458,109029
34.78270,112747
34.79082,113720
34.79895,115579
34.80707,107813
34.81520,105553
34.82332,108117
34.83143,107164
34.83957,101859
34.84768,102983
34.85582,103628
34.86393,95371
34.87205,99580
34.88018,98011
34.88830,95903
34.89642,95029
34.90455,93699
34.91267,100879
34.92080,100681
34.92892,99749
34.93703,100366
34.94517,103695
34.95328,101659
34.96142,96967
34.96953,93703
34.97765,96092
34.98578,95210
34.99390,91004
35.00202,92771
35.01015,90876
35.01827,86801
35.02640,87634
35.03452,85353
35.04263,87822
35.05077,88880
35.05888,87161
35.06702,91622
35.07513,91944
35.08325,92514
35.09138,87452
35.09950,84195
35.10763,94899
35.11575,88967
35.12387,89414
35.13200,89515
35.14012,94547
35.14823,92641
35.15637,98379
35.16448,92204
35.17262,93533
35.18073,100060
35.18885,94806
35.19698,92119
35.20510,96699
35.21323,89418
35.22135,93044
35.22947,91413
35.23760,91130
35.24572,90363
35.25383,95355
35.26197,98170
35.27008,96086
35.27822,91472
35.28633,95297
35.29445,93623
35.30258,93963
35.31070,93771
35.31883,89653
35.32695,95150
35.33507,90842
35.34320,91257
35.35132,91536
35.35945,90935
35.36757,92778
35.37568,91009
35.38382,92467
35.39193,95661
35.40005,91607
35.40818,94447
35.41630,92097
35.42443,98196
35.43255,105051
35.44067,102554
35.44880,97532
35.45692,103679
35.46505,104452
35.47317,103183
35.48128,100689
35.48942,102527
35.49753,103367
35.50567,97138
35.51378,98560
35.52190,102633
35.53003,100978
35.53815,102727
35.54627,98619
35.55440,97371
35.56252,100739
35.57065,103370
35.57877,100890
35.58688,98907
35.59502,98010
35.60313,101693
35.61127,99387
35.61938,98466
35.62750,98313
35.63563,96039
35.64375,98741
35.65187,104521
35.66000,103277
35.66812,98074
35.67625,98977
35.68437,99468
35.69248,98661
35.70062,102872
35.70873,104451
35.71687,99877
35.72498,102160
35.73310,101792
35.74123,102021
35.74935,104778
35.75748,103370
35.76560,101314
35.77372,103540
35.78185,99222
35.78997,104154
35.79808,103623
35.80622,100164
35.81433,101537
35.82247,105612
35.83058,103988
35.83870,101071
35.84683,103168
35.85495,99665
35.86308,101581
35.87120,98882
35.87932,98353
35.88745,102628
35.89557,101393
35.90370,101150
35.91182,98813
35.91993,107263
35.92807,100286
35.93618,102074
35.94430,102889
35.95243,97588
35.96055,107383
35.96868,106564
35.97680,107396
35.98492,100182
35.99305,102179
36.00117,107300
36.00930,108519
36.01742,115200
36.02553,109216
36.03367,107617
36.04178,113397
36.04990,110847
36.05803,114238
36.06615,111429
36.07428,108288
36.08240,109871
36.09052,108993
36.09865,108683
36.10677,107534
36.11490,107995
36.12302,112114
36.13113,107510
36.13927,106179
36.14738,110013
36.15552,110224
36.16363,112062
36.17175,104046
36.17988,108159
36.18800,109854
36.19612,112061
36.20425,111170
36.21237,109381
36.22050,106748
36.22862,108450
36.23673,111508
36.24487,115127
36.25298,123263
36.26112,131035
36.26923,132599
36.27735,129315
36.28548,135848
36.29360,122165
36.30172,112558
36.30985,112828
36.31797,114337
36.32610,113434
36.33422,110293
36.34233,114745
36.35047,118169
36.35858,112162
36.36672,112992
36.37483,107182
36.38295,113140
36.39108,115516
36.39920,113852
36.40733,117134
36.41545,113854
36.42357,111114
36.43170,116412
36.43982,115998
36.44793,112939
36.45607,108385
36.46418,114576
36.47232,107993
36.48043,109912
36.48855,117742
36.49668,118522
36.50480,112368
36.51293,111426
36.52105,114316
36.52917,110894
36.53730,114728
36.54542,114580
36.55355,115002
36.56167,113000
36.56978,114114
36.57792,116992
36.58603,117733
36.59415,118773
36.60228,115216
36.61040,113452
36.61853,120677
36.62665,121996
36.63477,121388
36.64290,123092
36.65102,122656
36.65915,118903
36.66727,118672
36.67538,118495
36.68352,122873
36.69163,119922
36.69975,122817
36.70788,122229
36.71600,118312
36.72413,126036
36.73225,123727
36.74037,117313
36.74850,122045
36.75662,121398
36.76475,121831
36.77287,121152
36.78098,125502
36.78912,118491
36.79723,122594
36.80537,122253
36.81348,126768
36.82160,123824
36.82973,129289
36.83785,123588
36.84597,131333
36.85410,124719
36.86222,122417
36.87035,131866
36.87847,130328
36.88658,130990
36.89472,135641
36.90283,127247
36.91097,132036
36.91908,135308
36.92720,129596
36.93533,134335
36.94345,134851
36.95158,136266
36.95970,133287
36.96782,131678
36.97595,143340
36.98407,140390
36.99218,148640
37.00032,159484
37.00843,181257
37.01657,190031
37.02468,205554
37.03280,214900
37.04093,204318
37.04905,189839
37.05718,180144
37.06530,158971
37.07342,153880
37.08155,142677
37.08967,143534
37.09778,142892
37.10592,142931
37.11403,150975
37.12217,142378
37.13028,143992
37.13840,147464
37.14653,150205
37.15465,145721
37.16278,146696
37.17090,153732
37.17902,153936
37.18715,152727
37.19527,149902
37.20340,148176
37.21152,152011
37.21963,150630
37.22777,153198
37.23588,154669
37.24400,155491
37.25213,156444
37.26025,153431
37.26838,160451
37.27650,160403
37.28462,168426
37.29275,174912
37.30087,182751
37.30900,181826
37.31712,184548
37.32523,182120
37.33337,178942
37.34148,183861
37.34960,176842
37.35773,175755
37.36585,173172
37.37398,169732
37.38210,166738
37.39022,168467
37.39835,173524
37.40647,176205
37.41460,173059
37.42272,169738
37.43083,172766
37.43897,171000
37.44708,172436
37.45522,171743
37.46333,169726
37.47145,171334
37.47958,178939
37.48770,179358
