C:\MassHunter\GCMS\1\data\JTB-E02\BACandBLUE\JTB-E18-010-09.D Fri May 17 11:33:28 2019
Start of data points
2.09525	69129
2.10338	73641
2.11150	71824
2.11962	74170
2.12775	69300
2.13587	73380
2.14400	72122
2.15212	66616
2.16023	67485
2.16837	70330
2.17648	66539
2.18462	70012
2.19273	68330
2.20085	69096
2.20898	66747
2.21710	63440
2.22523	66579
2.23335	67988
2.24147	63321
2.24960	66982
2.25772	76752
2.26583	346320
2.27397	1531552
2.28208	1274654
2.29022	484179
2.29833	311454
2.30645	246273
2.31458	217669
2.32270	201040
2.33083	188568
2.33895	174588
2.34707	161685
2.35520	149701
2.36332	147152
2.37143	132897
2.37957	131619
2.38768	131982
2.39582	126620
2.40393	122085
2.41205	121648
2.42018	120839
2.42830	119978
2.43643	118186
2.44455	119598
2.45267	110647
2.46080	111838
2.46892	107175
2.47705	104592
2.48517	122936
2.49328	145244
2.50142	125255
2.50953	111048
2.51765	103873
2.52578	109276
2.53390	109692
2.54203	104163
2.55015	126516
2.55827	179949
2.56640	176791
2.57452	143159
2.58265	129031
2.59077	124112
2.59888	257835
2.60702	941850
2.61513	1105556
2.62325	583927
2.63138	344647
2.63950	258383
2.64763	213243
2.65575	183336
2.66387	161063
2.67200	149581
2.68012	138604
2.68825	132555
2.69637	126145
2.70448	121639
2.71262	118288
2.72073	114090
2.72887	111366
2.73698	111848
2.74510	111641
2.75323	110112
2.76135	106109
2.76947	116154
2.77760	294109
2.78572	588076
2.79385	463449
2.80197	275576
2.81008	222633
2.81822	221304
2.82633	190545
2.83447	163281
2.84258	150596
2.85070	138853
2.85883	138146
2.86695	127241
2.87508	130544
2.88320	118058
2.89132	117104
2.89945	114705
2.90757	112497
2.91568	110072
2.92382	102589
2.93193	107531
2.94007	102027
2.94818	103851
2.95630	124549
2.96443	137116
2.97255	140639
2.98068	117338
2.98880	113765
2.99692	109545
3.00505	111512
3.01317	110359
3.02128	103651
3.02942	101429
3.03753	102503
3.04567	100709
3.05378	105316
3.06190	94900
3.07003	114352
3.07815	400096
3.08628	1771788
3.09440	3490925
3.10252	4575765
3.11065	5079412
3.11877	3539658
3.12690	2105789
3.13502	1540014
3.14313	1198360
3.15127	967837
3.15938	814629
3.16750	724557
3.17563	693466
3.18375	959684
3.19188	1654277
3.20000	1623638
3.20812	1134011
3.21625	855782
3.22437	721325
3.23250	616668
3.24062	544354
3.24873	480698
3.25687	427653
3.26498	398507
3.27312	376106
3.28123	393597
3.28935	698403
3.29748	1818829
3.30560	3664625
3.31372	4487808
3.32185	3695007
3.32997	2558292
3.33810	1841461
3.34622	1443557
3.35433	1242155
3.36247	1050031
3.37058	944783
3.37872	844420
3.38683	770705
3.39495	714121
3.40308	668266
3.41120	621146
3.41932	606985
3.42745	581362
3.43557	564817
3.44370	535179
3.45182	506029
3.45993	500406
3.46807	486934
3.47618	483895
3.48432	477501
3.49243	464748
3.50055	428926
3.50868	423450
3.51680	405412
3.52493	409098
3.53305	417559
3.54117	412082
3.54930	404655
3.55742	398591
3.56553	507136
3.57367	726647
3.58178	741766
3.58992	610504
3.59803	500637
3.60615	465483
3.61428	451351
3.62240	426536
3.63053	416670
3.63865	406906
3.64677	391524
3.65490	490437
3.66302	1712403
3.67113	6528772
3.67927	1.232538E+07
3.68738	1.174128E+07
3.69552	7198701
3.70363	4365308
3.71175	3252697
3.71988	2685078
3.72800	2290534
3.73613	2024400
3.74425	1825671
3.75237	1635245
3.76050	1510926
3.76862	1391103
3.77675	1306879
3.78487	1214482
3.79298	1158905
3.80112	1313440
3.80923	1905853
3.81735	2448310
3.82548	2171437
3.83360	1637690
3.84173	1314735
3.84985	1184818
3.85797	1058380
3.86610	977936
3.87422	944939
3.88235	894441
3.89047	849850
3.89858	799501
3.90672	767123
3.91483	815104
3.92297	918724
3.93108	974627
3.93920	987648
3.94733	1355534
3.95545	2945672
3.96357	5266308
3.97170	5819450
3.97982	4274575
3.98795	2882268
3.99607	4663631
4.00418	1.25191E+07
4.01232	2.346074E+07
4.02043	2.589143E+07
4.02857	1.852267E+07
4.03668	9844790
4.04480	5618774
4.05293	3854071
4.06105	2972110
4.06918	2409206
4.07730	2053403
4.08542	1756694
4.09355	1562814
4.10167	1390534
4.10978	1280984
4.11792	1172954
4.12603	1081825
4.13417	1023923
4.14228	988882
4.15040	961554
4.15853	916316
4.16665	894955
4.17478	831063
4.18290	811154
4.19102	774390
4.19915	780598
4.20727	1234979
4.21538	3681806
4.22352	9476122
4.23163	1.557783E+07
4.23977	1.728742E+07
4.24788	1.324932E+07
4.25600	7820522
4.26413	5012683
4.27225	3681574
4.28038	2844367
4.28850	2316077
4.29662	1964630
4.30475	1703231
4.31287	1500767
4.32100	1370598
4.32912	1259733
4.33723	1152773
4.34537	1084248
4.35348	1029064
4.36160	1035152
4.36973	990978
4.37785	939994
4.38598	877527
4.39410	826699
4.40222	785422
4.41035	757199
4.41847	740297
4.42660	701764
4.43472	671577
4.44283	649869
4.45097	638501
4.45908	618912
4.46720	602078
4.47533	588687
4.48345	566424
4.49158	559194
4.49970	536105
4.50782	527341
4.51595	524325
4.52407	518313
4.53220	505600
4.54032	499656
4.54843	494199
4.55657	478850
4.56468	473598
4.57282	464056
4.58093	445345
4.58905	438010
4.59718	436845
4.60530	432102
4.61342	426172
4.62155	451421
4.62967	559826
4.63780	695306
4.64592	752409
4.65403	679147
4.66217	572089
4.67028	499375
4.67842	488252
4.68653	462071
4.69465	444669
4.70278	418268
4.71090	389984
4.71902	389404
4.72715	375673
4.73527	375234
4.74340	366691
4.75152	365652
4.75963	363465
4.76777	351838
4.77588	347171
4.78402	350956
4.79213	385622
4.80025	456028
4.80838	510793
4.81650	497877
4.82463	437419
4.83275	416467
4.84087	432676
4.84900	446637
4.85712	452668
4.86523	440034
4.87337	404850
4.88148	386490
4.88962	358316
4.89773	337782
4.90585	333711
4.91398	328386
4.92210	329810
4.93023	352729
4.93835	491776
4.94647	909012
4.95460	1680248
4.96272	2434179
4.97085	2727837
4.97897	2381904
4.98708	1789739
4.99522	1304310
5.00333	1021776
5.01145	864578
5.01958	774167
5.02770	789626
5.03583	836855
5.04395	901029
5.05207	830428
5.06020	738133
5.06832	665785
5.07645	623762
5.08457	571632
5.09268	542887
5.10082	529420
5.10893	500094
5.11707	484571
5.12518	464271
5.13330	455851
5.14143	468151
5.14955	468098
5.15767	516262
5.16580	555753
5.17392	572585
5.18205	540514
5.19017	492425
5.19828	476696
5.20642	498175
5.21453	510377
5.22267	486051
5.23078	466574
5.23890	458077
5.24703	449893
5.25515	426035
5.26327	397611
5.27140	379176
5.27952	371200
5.28765	356229
5.29577	352319
5.30388	344492
5.31202	342980
5.32013	348644
5.32827	346317
5.33638	351395
5.34450	368438
5.35263	353255
5.36075	351205
5.36888	329434
5.37700	335219
5.38512	327163
5.39325	336627
5.40137	327778
5.40948	336785
5.41762	328727
5.42573	324871
5.43387	320179
5.44198	324141
5.45010	330822
5.45823	331863
5.46635	328767
5.47448	313400
5.48260	303013
5.49072	306162
5.49885	284417
5.50697	298244
5.51508	290948
5.52322	290954
5.53133	286535
5.53947	284998
5.54758	291617
5.55570	307831
5.56383	348565
5.57195	401149
5.58008	413791
5.58820	390097
5.59632	357128
5.60445	318227
5.61257	299507
5.62070	287634
5.62882	289692
5.63693	285969
5.64507	293729
5.65318	289191
5.66130	285973
5.66943	280180
5.67755	298859
5.68568	324408
5.69380	349895
5.70192	347348
5.71005	310993
5.71817	303772
5.72630	281831
5.73442	271408
5.74253	260182
5.75067	261183
5.75878	252803
5.76692	252590
5.77503	257531
5.78315	252853
5.79128	249079
5.79940	248898
5.80752	248780
5.81565	247341
5.82377	245009
5.83190	245566
5.84002	244025
5.84813	240964
5.85627	244500
5.86438	234163
5.87252	238435
5.88063	228481
5.88875	229042
5.89688	228757
5.90500	222708
5.91312	195777
5.92125	185760
5.92937	178173
5.93750	168542
5.94562	187501
5.95373	200891
5.96187	234602
5.96998	258514
5.97812	297142
5.98623	349343
5.99435	366778
6.00248	340395
6.01060	298949
6.01873	251022
6.02685	215259
6.03497	197873
6.04310	193243
6.05122	178893
6.05933	175129
6.06747	173048
6.07558	170031
6.08372	166068
6.09183	166156
6.09995	161620
6.10808	158288
6.11620	171219
6.12433	198545
6.13245	277248
6.14057	394471
6.14870	496157
6.15682	485209
6.16495	402119
6.17307	298852
6.18118	248700
6.18932	221149
6.19743	211378
6.20555	203135
6.21368	206454
6.22180	194592
6.22993	191067
6.23805	188702
6.24617	196309
6.25430	192414
6.26242	204189
6.27055	198291
6.27867	192260
6.28678	184125
6.29492	192656
6.30303	186795
6.31115	183401
6.31928	195553
6.32740	202358
6.33553	220873
6.34365	247581
6.35177	246056
6.35990	221590
6.36802	201759
6.37615	192840
6.38427	201882
6.39238	197224
6.40052	185604
6.40863	190077
6.41677	190912
6.42488	184274
6.43300	178482
6.44113	190803
6.44925	188520
6.45737	186178
6.46550	185800
6.47362	179911
6.48175	181639
6.48987	184658
6.49798	185701
6.50612	186808
6.51423	193669
6.52237	183793
6.53048	192428
6.53860	190713
6.54673	197547
6.55485	186308
6.56297	206846
6.57110	213186
6.57922	243552
6.58735	265587
6.59547	247675
6.60358	228555
6.61172	213323
6.61983	200310
6.62797	203303
6.63608	198364
6.64420	202083
6.65233	208877
6.66045	234825
6.66858	262655
6.67670	285677
6.68482	267753
6.69295	232931
6.70107	215428
6.70918	211206
6.71732	200717
6.72543	203556
6.73357	214063
6.74168	205777
6.74980	204473
6.75793	177995
6.76605	172427
6.77418	172031
6.78230	168396
6.79042	165348
6.79855	157651
6.80667	157084
6.81480	154160
6.82292	145577
6.83103	147103
6.83917	156136
6.84728	178519
6.85540	218859
6.86353	249729
6.87165	261267
6.87978	219013
6.88790	165413
6.89602	131726
6.90415	106979
6.91227	104161
6.92040	94033
6.92852	89790
6.93663	87808
6.94477	86371
6.95288	92676
6.96100	91783
6.96913	105714
6.97725	118704
6.98538	122288
6.99350	118374
7.00162	107292
7.00975	98500
7.01787	90278
7.02600	91475
7.03412	90546
7.04223	89892
7.05037	87636
7.05848	95904
7.06662	88240
7.07473	91889
7.08285	87006
7.09098	87107
7.09910	78833
7.10722	72973
7.11535	73524
7.12347	80259
7.13160	77245
7.13972	96744
7.14783	120644
7.15597	166556
7.16408	205280
7.17222	210526
7.18033	186875
7.18845	150805
7.19658	123536
7.20470	129323
7.21283	226668
7.22095	563500
7.22907	1250353
7.23720	2063475
7.24532	2366711
7.25343	2022576
7.26157	1292689
7.26968	790389
7.27782	508533
7.28593	379791
7.29405	271519
7.30218	190218
7.31030	140479
7.31843	130480
7.32655	117000
7.33467	119085
7.34280	105904
7.35092	111745
7.35903	97215
7.36717	98669
7.37528	96583
7.38342	103190
7.39153	95831
7.39965	97842
7.40778	101611
7.41590	83593
7.42403	90299
7.43215	82489
7.44027	90910
7.44840	89979
7.45652	89465
7.46465	90897
7.47277	87611
7.48088	86928
7.48902	85055
7.49713	85513
7.50525	79655
7.51338	91081
7.52150	118686
7.52963	175590
7.53775	274788
7.54587	381680
7.55400	471395
7.56212	524675
7.57025	488731
7.57837	379711
7.58648	281523
7.59462	215310
7.60273	168065
7.61087	130856
7.61898	118836
7.62710	105126
7.63523	96318
7.64335	93997
7.65147	91679
7.65960	82862
7.66772	81732
7.67585	81720
7.68397	86237
7.69208	75468
7.70022	81096
7.70833	81080
7.71647	86175
7.72458	82212
7.73270	78743
7.74083	80892
7.74895	72211
7.75707	78070
7.76520	81282
7.77332	81620
7.78145	84441
7.78957	88385
7.79768	93423
7.80582	101070
7.81393	107042
7.82207	100385
7.83018	95814
7.83830	88512
7.84643	82883
7.85455	87291
7.86268	84431
7.87080	97749
7.87892	104054
7.88705	102877
7.89517	106430
7.90328	93062
7.91142	85712
7.91953	89467
7.92767	95189
7.93578	103624
7.94390	121014
7.95203	122411
7.96015	123035
7.96828	115906
7.97640	104963
7.98452	94314
7.99265	89471
8.00077	80740
8.00888	79363
8.01702	76987
8.02513	81714
8.03327	79923
8.04138	77511
8.04950	81748
8.05763	77056
8.06575	79773
8.07388	73642
8.08200	74620
8.09012	71708
8.09825	72904
8.10637	70773
8.11450	68906
8.12262	72214
8.13073	74850
8.13887	83780
8.14698	95156
8.15510	107143
8.16323	101657
8.17135	98792
8.17948	86172
8.18760	76680
8.19572	71445
8.20385	72909
8.21197	73821
8.22010	67640
8.22822	69424
8.23633	68756
8.24447	69181
8.25258	68653
8.26072	68624
8.26883	65546
8.27695	65472
8.28508	66034
8.29320	61392
8.30132	66732
8.30945	66861
8.31757	70919
8.32570	75688
8.33382	70783
8.34193	68884
8.35007	68516
8.35818	70688
8.36632	66510
8.37443	68137
8.38255	64514
8.39068	64102
8.39880	67706
8.40692	65594
8.41505	63803
8.42317	61132
8.43130	62991
8.43942	63736
8.44753	61411
8.45567	62845
8.46378	58274
8.47192	60856
8.48003	62348
8.48815	60141
8.49628	55891
8.50440	62272
8.51253	62457
8.52065	71379
8.52877	96198
8.53690	150769
8.54502	230584
8.55313	299258
8.56127	312246
8.56938	260670
8.57752	196362
8.58563	131465
8.59375	103820
8.60188	87369
8.61000	89831
8.61813	87278
8.62625	78385
8.63437	79585
8.64250	75109
8.65062	71563
8.65875	68951
8.66687	71337
8.67498	68402
8.68312	68621
8.69123	68950
8.69935	70547
8.70748	68985
8.71560	73950
8.72373	67397
8.73185	65785
8.73997	68449
8.74810	74409
8.75622	100174
8.76435	197055
8.77247	381134
8.78058	661986
8.78872	903877
8.79683	988487
8.80495	846024
8.81308	607898
8.82120	400387
8.82933	284164
8.83745	222288
8.84557	192528
8.85370	201101
8.86182	198147
8.86995	199141
8.87807	188736
8.88618	178864
8.89432	173538
8.90243	173095
8.91057	164334
8.91868	157337
8.92680	158415
8.93493	165265
8.94305	179084
8.95117	200123
8.95930	206416
8.96742	186753
8.97555	176187
8.98367	173059
8.99178	168791
8.99992	155739
9.00803	143241
9.01617	133390
9.02428	134077
9.03240	124419
9.04053	119071
9.04865	118424
9.05677	118184
9.06490	115461
9.07302	112933
9.08115	114502
9.08927	112233
9.09738	120878
9.10552	133713
9.11363	146107
9.12177	155017
9.12988	148786
9.13800	136988
9.14613	122369
9.15425	118181
9.16238	108912
9.17050	117096
9.17862	109921
9.18675	103031
9.19487	103451
9.20298	97027
9.21112	99658
9.21923	103664
9.22737	99016
9.23548	95730
9.24360	97292
9.25173	101332
9.25985	101144
9.26798	96668
9.27610	103430
9.28422	94191
9.29235	91815
9.30047	94324
9.30860	91297
9.31672	88662
9.32483	88899
9.33297	84352
9.34108	81157
9.34920	81383
9.35733	85857
9.36545	86845
9.37358	84731
9.38170	84442
9.38982	80060
9.39795	88228
9.40607	93079
9.41420	95944
9.42232	105350
9.43043	114860
9.43857	121346
9.44668	123135
9.45482	112090
9.46293	107929
9.47105	99351
9.47918	88072
9.48730	80746
9.49542	81353
9.50355	84435
9.51167	88497
9.51980	92817
9.52792	94808
9.53603	95572
9.54417	93201
9.55228	90999
9.56042	81408
9.56853	82758
9.57665	81676
9.58478	89369
9.59290	95464
9.60102	92037
9.60915	82855
9.61727	72611
9.62540	64721
9.63352	59995
9.64163	59587
9.64977	55982
9.65788	55863
9.66602	49982
9.67413	54760
9.68225	50619
9.69038	51910
9.69850	48710
9.70663	46769
9.71475	47046
9.72287	50704
9.73100	45817
9.73912	46227
9.74723	48522
9.75537	45673
9.76348	47248
9.77162	46790
9.77973	45544
9.78785	39372
9.79598	46019
9.80410	41830
9.81223	43294
9.82035	43825
9.82847	44277
9.83660	41804
9.84472	38813
9.85283	49978
9.86097	43989
9.86908	49421
9.87722	47099
9.88533	49142
9.89345	50846
9.90158	45837
9.90970	52711
9.91783	58458
9.92595	80356
9.93407	121577
9.94220	207492
9.95032	304811
9.95845	382791
9.96657	399271
9.97468	340227
9.98282	255571
9.99093	180395
9.99905	128635
10.00718	104313
10.01530	95210
10.02343	90450
10.03155	89332
10.03967	76282
10.04780	77777
10.05592	70023
10.06405	70160
10.07217	72198
10.08028	74664
10.08842	81578
10.09653	73499
10.10467	68263
10.11278	71606
10.12090	69059
10.12903	67327
10.13715	64029
10.14527	60896
10.15340	58448
10.16152	64192
10.16965	61973
10.17777	61462
10.18588	57429
10.19402	55715
10.20213	56777
10.21027	56021
10.21838	52949
10.22650	58202
10.23463	60385
10.24275	61416
10.25087	67876
10.25900	96222
10.26712	175941
10.27525	407771
10.28337	885673
10.29148	1661788
10.29962	2615428
10.30773	3686173
10.31587	5107698
10.32398	7353679
10.33210	1.026724E+07
10.34023	1.242068E+07
10.34835	1.212879E+07
10.35648	9320111
10.36460	5734590
10.37272	3034853
10.38085	1638858
10.38897	1038506
10.39708	747902
10.40522	579896
10.41333	465528
10.42147	396520
10.42958	338125
10.43770	305272
10.44583	291270
10.45395	277346
10.46208	263485
10.47020	247665
10.47832	228333
10.48645	216472
10.49457	208533
10.50270	190185
10.51082	183626
10.51893	176557
10.52707	171546
10.53518	162637
10.54330	166024
10.55143	166254
10.55955	151293
10.56768	145706
10.57580	145101
10.58392	147618
10.59205	141651
10.60017	131778
10.60830	129319
10.61642	125151
10.62453	117701
10.63267	117706
10.64078	112765
10.64890	113094
10.65703	110284
10.66515	110288
10.67328	102855
10.68140	108321
10.68952	107654
10.69765	105921
10.70577	102816
10.71390	101358
10.72202	100041
10.73013	99236
10.73827	97115
10.74638	95287
10.75452	93941
10.76263	92265
10.77075	88271
10.77888	89414
10.78700	89527
10.79512	83132
10.80325	86402
10.81137	82477
10.81950	86157
10.82762	79877
10.83573	83249
10.84387	78007
10.85198	74485
10.86012	71034
10.86823	73743
10.87635	76924
10.88448	66955
10.89260	66857
10.90072	70153
10.90885	71157
10.91697	71250
10.92510	73277
10.93322	68731
10.94133	69951
10.94947	62852
10.95758	68029
10.96572	66055
10.97383	62946
10.98195	68498
10.99008	65512
10.99820	68835
11.00633	63288
11.01445	67975
11.02257	64366
11.03070	60329
11.03882	60133
11.04693	56271
11.05507	56529
11.06318	55250
11.07132	53250
11.07943	58375
11.08755	64339
11.09568	60170
11.10380	59935
11.11193	60408
11.12005	56266
11.12817	49168
11.13630	50435
11.14442	46301
11.15255	49689
11.16067	49075
11.16878	52460
11.17692	52612
11.18503	56743
11.19315	55890
11.20128	60409
11.20940	58710
11.21753	52651
11.22565	51532
11.23377	49807
11.24190	46006
11.25002	44956
11.25815	44387
11.26627	45367
11.27438	43526
11.28252	43219
11.29063	42225
11.29875	54626
11.30688	66824
11.31500	101752
11.32313	160629
11.33125	241896
11.33937	309734
11.34750	362599
11.35562	345118
11.36375	287437
11.37187	204434
11.37998	143880
11.38812	105892
11.39623	85465
11.40437	88375
11.41248	82152
11.42060	82748
11.42873	78320
11.43685	77870
11.44497	64747
11.45310	61967
11.46122	68662
11.46935	68794
11.47747	79848
11.48558	96634
11.49372	125411
11.50183	147946
11.50997	159520
11.51808	144882
11.52620	125313
11.53433	101679
11.54245	85706
11.55058	81971
11.55870	77248
11.56682	80907
11.57495	74544
11.58307	75907
11.59118	76537
11.59932	91152
11.60743	113639
11.61557	145458
11.62368	177984
11.63180	176120
11.63993	158342
11.64805	125107
11.65618	95939
11.66430	78389
11.67242	68259
11.68055	65141
11.68867	60141
11.69678	59732
11.70492	59038
11.71303	62914
11.72117	64092
11.72928	61528
11.73740	59273
11.74553	59300
11.75365	56880
11.76178	51895
11.76990	53439
11.77802	53616
11.78615	55993
11.79427	53430
11.80240	52981
11.81052	52547
11.81863	51802
11.82677	52599
11.83488	50495
11.84300	53294
11.85113	50144
11.85925	48386
11.86738	47378
11.87550	48430
11.88362	46980
11.89175	43164
11.89987	44389
11.90800	44935
11.91612	48958
11.92423	54953
11.93237	56307
11.94048	57657
11.94860	53658
11.95673	52662
11.96485	50326
11.97298	47749
11.98110	50489
11.98922	54110
11.99735	74856
12.00547	87374
12.01360	105770
12.02172	110972
12.02983	101737
12.03797	89017
12.04608	70122
12.05422	61683
12.06233	56642
12.07045	54690
12.07858	54453
12.08670	53108
12.09482	52218
12.10295	51977
12.11107	57816
12.11920	62321
12.12732	65211
12.13543	71409
12.14357	67899
12.15168	67731
12.15982	59684
12.16793	53600
12.17605	49583
12.18418	49099
12.19230	45603
12.20043	46599
12.20855	49850
12.21667	52207
12.22480	46320
12.23292	46805
12.24103	49580
12.24917	49616
12.25728	49715
12.26542	46472
12.27353	44776
12.28165	43678
12.28978	43780
12.29790	41178
12.30603	46534
12.31415	44400
12.32227	43052
12.33040	43003
12.33852	42874
12.34663	46131
12.35477	41405
12.36288	42512
12.37102	42635
12.37913	39944
12.38725	45772
12.39538	46264
12.40350	52506
12.41163	68467
12.41975	80299
12.42787	101039
12.43600	100716
12.44412	94113
12.45225	85660
12.46037	77170
12.46848	63100
12.47662	59503
12.48473	63670
12.49285	55937
12.50098	53017
12.50910	53692
12.51723	51374
12.52535	50558
12.53347	51565
12.54160	56809
12.54972	59458
12.55785	66913
12.56597	78831
12.57408	84197
12.58222	82206
12.59033	71992
12.59847	63340
12.60658	57012
12.61470	52535
12.62283	54004
12.63095	49350
12.63907	46930
12.64720	48176
12.65532	48359
12.66345	45857
12.67157	44234
12.67968	46331
12.68782	41151
12.69593	42504
12.70407	45852
12.71218	45462
12.72030	50219
12.72843	58052
12.73655	61047
12.74467	66011
12.75280	70822
12.76092	57340
12.76905	50944
12.77717	47873
12.78528	44553
12.79342	42070
12.80153	41151
12.80967	38705
12.81778	43939
12.82590	38473
12.83403	40409
12.84215	40359
12.85028	35697
12.85840	41970
12.86652	38279
12.87465	37051
12.88277	38311
12.89088	37712
12.89902	33708
12.90713	37720
12.91527	36944
12.92338	41629
12.93150	37326
12.93963	34238
12.94775	39397
12.95588	46640
12.96400	48823
12.97212	61485
12.98025	77535
12.98837	91737
12.99650	94707
13.00462	87483
13.01273	70470
13.02087	57307
13.02898	52085
13.03710	48866
13.04523	47206
13.05335	46322
13.06148	40984
13.06960	41941
13.07772	43323
13.08585	45655
13.09397	43832
13.10210	42060
13.11022	40462
13.11833	40170
13.12647	40314
13.13458	42245
13.14270	41623
13.15083	37583
13.15895	38009
13.16708	39783
13.17520	42692
13.18332	39658
13.19145	42929
13.19957	47236
13.20770	54120
13.21582	51671
13.22393	45045
13.23207	50165
13.24018	49257
13.24832	42777
13.25643	41912
13.26455	39653
13.27268	43260
13.28080	42919
13.28892	41095
13.29705	39398
13.30517	35254
13.31330	34937
13.32142	36748
13.32953	38440
13.33767	40403
13.34578	41988
13.35392	41318
13.36203	38881
13.37015	38000
13.37828	36384
13.38640	36062
13.39452	33496
13.40265	35670
13.41077	33482
13.41890	33623
13.42702	34466
13.43513	35083
13.44327	34637
13.45138	33983
13.45952	36308
13.46763	38202
13.47575	32499
13.48388	35625
13.49200	39860
13.50013	33532
13.50825	35971
13.51637	35438
13.52450	39395
13.53262	39750
13.54073	37896
13.54887	36303
13.55698	40645
13.56512	40163
13.57323	40682
13.58135	36396
13.58948	40873
13.59760	40064
13.60573	43353
13.61385	44425
13.62197	45164
13.63010	53038
13.63822	47777
13.64635	44925
13.65447	40125
13.66258	41236
13.67072	39863
13.67883	37262
13.68695	36451
13.69508	34797
13.70320	36753
13.71133	35926
13.71945	36425
13.72757	35991
13.73570	43203
13.74382	49931
13.75195	74351
13.76007	134580
13.76818	200911
13.77632	296211
13.78443	382990
13.79255	392565
13.80068	356103
13.80880	306082
13.81693	273434
13.82505	247006
13.83317	234097
13.84130	238170
13.84942	228458
13.85755	197530
13.86567	166693
13.87378	140094
13.88192	117406
13.89003	103571
13.89817	94581
13.90628	81664
13.91440	81620
13.92253	73995
13.93065	71217
13.93877	69701
13.94690	65049
13.95502	67420
13.96315	67864
13.97127	65562
13.97938	71076
13.98752	74509
13.99563	77308
14.00377	76072
14.01188	73696
14.02000	64224
14.02813	62777
14.03625	65266
14.04438	61643
14.05250	62421
14.06062	63900
14.06875	67860
14.07687	61961
14.08498	65439
14.09312	67242
14.10123	67062
14.10937	64799
14.11748	65299
14.12560	62522
14.13373	64341
14.14185	66936
14.14998	67226
14.15810	68245
14.16622	68620
14.17435	69932
14.18247	78779
14.19058	93573
14.19872	113677
14.20683	154606
14.21497	177618
14.22308	205937
14.23120	216196
14.23933	213465
14.24745	204776
14.25558	201143
14.26370	199387
14.27182	183197
14.27995	157139
14.28807	143386
14.29620	125222
14.30432	113811
14.31243	106186
14.32057	102502
14.32868	95582
14.33680	94712
14.34493	90501
14.35305	88023
14.36118	78211
14.36930	68603
14.37742	66616
14.38555	61924
14.39367	59030
14.40180	55135
14.40992	59775
14.41803	63314
14.42617	68957
14.43428	66048
14.44240	65572
14.45053	63781
14.45865	55365
14.46678	57784
14.47490	53857
14.48302	51857
14.49115	51955
14.49927	56240
14.50740	51323
14.51552	50064
14.52363	52129
14.53177	54912
14.53988	53967
14.54802	50326
14.55613	47399
14.56425	47928
14.57238	49696
14.58050	52193
14.58862	46064
14.59675	44462
14.60487	44265
14.61300	40574
14.62112	41021
14.62923	43140
14.63737	44127
14.64548	43731
14.65362	38870
14.66173	44298
14.66985	40754
14.67798	38915
14.68610	36691
14.69423	39589
14.70235	36629
14.71047	38015
14.71860	39789
14.72672	39202
14.73483	40630
14.74297	39908
14.75108	41276
14.75922	41155
14.76733	45307
14.77545	50313
14.78358	55173
14.79170	92400
14.79983	211918
14.80795	559076
14.81607	1318182
14.82420	2450568
14.83232	3769672
14.84045	4576270
14.84857	4348907
14.85668	3378743
14.86482	2227947
14.87293	1357459
14.88105	851170
14.88918	587182
14.89730	429003
14.90543	339830
14.91355	303849
14.92167	260036
14.92980	241783
14.93792	213229
14.94605	207185
14.95417	187331
14.96228	179025
14.97042	174609
14.97853	158948
14.98665	144867
14.99478	145518
15.00290	137828
15.01103	136314
15.01915	130162
15.02727	122432
15.03540	113756
15.04352	111575
15.05165	108626
15.05977	100662
15.06788	100152
15.07602	95570
15.08413	95109
15.09227	93703
15.10038	89316
15.10850	91140
15.11663	96061
15.12475	92794
15.13287	95849
15.14100	106479
15.14912	105379
15.15725	105310
15.16537	95151
15.17348	80339
15.18162	76811
15.18973	69763
15.19787	58418
15.20598	63158
15.21410	53498
15.22223	53233
15.23035	50290
15.23847	52497
15.24660	53370
15.25472	46023
15.26285	47345
15.27097	47830
15.27908	48230
15.28722	45902
15.29533	45887
15.30347	43249
15.31158	45006
15.31970	40637
15.32783	40596
15.33595	42214
15.34408	42417
15.35220	45428
15.36032	43052
15.36845	41355
15.37657	42231
15.38468	40609
15.39282	42422
15.40093	42040
15.40907	39241
15.41718	37400
15.42530	39644
15.43343	40117
15.44155	42245
15.44968	44333
15.45780	41268
15.46592	46847
15.47405	47019
15.48217	57401
15.49030	65501
15.49842	87958
15.50653	89459
15.51467	86584
15.52278	88325
15.53090	86943
15.53903	74527
15.54715	69519
15.55528	62671
15.56340	62591
15.57152	53833
15.57965	48483
15.58777	49671
15.59590	42487
15.60402	46255
15.61213	43395
15.62027	43194
15.62838	41502
15.63650	41312
15.64463	41547
15.65275	40505
15.66088	43368
15.66900	41146
15.67712	38704
15.68525	40170
15.69337	38262
15.70150	39414
15.70962	41405
15.71773	40755
15.72587	38028
15.73398	38739
15.74212	37770
15.75023	47543
15.75835	58001
15.76648	94674
15.77460	140682
15.78272	210442
15.79085	297672
15.79897	328115
15.80710	305567
15.81522	240524
15.82333	173899
15.83147	125731
15.83958	96590
15.84772	79882
15.85583	76741
15.86395	67039
15.87208	65480
15.88020	64770
15.88833	59474
15.89645	55873
15.90457	53705
15.91270	59091
15.92082	56856
15.92893	48040
15.93707	50530
15.94518	51284
15.95332	49956
15.96143	55162
15.96955	60219
15.97768	55718
15.98580	61616
15.99393	64133
16.00205	63215
16.01017	71387
16.01830	78020
16.02642	86544
16.03453	90262
16.04267	88631
16.05078	79955
16.05892	72043
16.06703	61694
16.07515	59843
16.08328	52215
16.09140	50080
16.09953	45629
16.10765	48432
16.11577	51000
16.12390	49630
16.13202	51606
16.14015	49928
16.14827	52122
16.15638	56269
16.16452	51263
16.17263	50340
16.18075	51181
16.18888	45725
16.19700	46663
16.20513	45712
16.21325	46942
16.22137	45180
16.22950	44877
16.23762	43115
16.24575	47118
16.25387	41283
16.26198	43243
16.27012	43763
16.27823	42376
16.28635	41892
16.29448	47877
16.30260	47735
16.31073	49331
16.31885	49761
16.32697	46574
16.33510	47477
16.34322	48480
16.35135	50955
16.35947	56369
16.36758	64783
16.37572	72136
16.38383	82028
16.39197	75983
16.40008	71776
16.40820	66141
16.41633	60247
16.42445	53583
16.43257	57927
16.44070	61958
16.44882	87280
16.45695	151716
16.46507	289703
16.47318	538001
16.48132	843319
16.48943	1046950
16.49757	998065
16.50568	811176
16.51380	539701
16.52193	356331
16.53005	223552
16.53818	164718
16.54630	129649
16.55442	115291
16.56255	99897
16.57067	94298
16.57878	92633
16.58692	82971
16.59503	87338
16.60317	78042
16.61128	78644
16.61940	77203
16.62753	76442
16.63565	72562
16.64378	68947
16.65190	68940
16.66002	66129
16.66815	60172
16.67627	60522
16.68438	56467
16.69252	56824
16.70063	63841
16.70877	56369
16.71688	54497
16.72500	51930
16.73313	53007
16.74125	52656
16.74938	57906
16.75750	58561
16.76562	59847
16.77375	60941
16.78187	60042
16.79000	54667
16.79812	53482
16.80623	46466
16.81437	44087
16.82248	46356
16.83060	40388
16.83873	41285
16.84685	42291
16.85498	41385
16.86310	44279
16.87122	40552
16.87935	38775
16.88747	39782
16.89560	43024
16.90372	41749
16.91183	42727
16.91997	40706
16.92808	37772
16.93622	38540
16.94433	36074
16.95245	41230
16.96058	40200
16.96870	37829
16.97682	41855
16.98495	41847
16.99307	42984
17.00120	39550
17.00932	38040
17.01743	38949
17.02557	40017
17.03368	41765
17.04182	43409
17.04993	47420
17.05805	50524
17.06618	44623
17.07430	50443
17.08242	45606
17.09055	45980
17.09867	39391
17.10680	42477
17.11492	42878
17.12303	45097
17.13117	44325
17.13928	47464
17.14742	43201
17.15553	44682
17.16365	46818
17.17178	42401
17.17990	42198
17.18803	42143
17.19615	40227
17.20427	37890
17.21240	40538
17.22052	43710
17.22863	41187
17.23677	39693
17.24488	41516
17.25302	41964
17.26113	39625
17.26925	43374
17.27738	44675
17.28550	39463
17.29363	35768
17.30175	35002
17.30987	37438
17.31800	40539
17.32612	46478
17.33423	50398
17.34237	53198
17.35048	59258
17.35862	64725
17.36673	62831
17.37485	59784
17.38298	51599
17.39110	56312
17.39923	52845
17.40735	53544
17.41547	48933
17.42360	53746
17.43172	58011
17.43985	47183
17.44797	49555
17.45608	46115
17.46422	50405
17.47233	43605
17.48045	45930
17.48858	46166
17.49670	44637
17.50483	45786
17.51295	42234
17.52107	43982
17.52920	42678
17.53732	35250
17.54545	41998
17.55357	46550
17.56168	54650
17.56982	68881
17.57793	106023
17.58607	161737
17.59418	263732
17.60230	370091
17.61043	468150
17.61855	505911
17.62667	473303
17.63480	369965
17.64292	285825
17.65105	208671
17.65917	169319
17.66728	135519
17.67542	126395
17.68353	122913
17.69167	101849
17.69978	92402
17.70790	84133
17.71603	79027
17.72415	81714
17.73227	74858
17.74040	74156
17.74852	63468
17.75665	62277
17.76477	56618
17.77288	63430
17.78102	60399
17.78913	64550
17.79727	81841
17.80538	111340
17.81350	178418
17.82163	262840
17.82975	343608
17.83788	364775
17.84600	356077
17.85412	291855
17.86225	228632
17.87037	174257
17.87848	142850
17.88662	117491
17.89473	104916
17.90287	87603
17.91098	80680
17.91910	71355
17.92723	67015
17.93535	70485
17.94348	62596
17.95160	61020
17.95972	59017
17.96785	60615
17.97597	55750
17.98410	56233
17.99222	54571
18.00033	53922
18.00847	60331
18.01658	61774
18.02470	66915
18.03283	77949
18.04095	88582
18.04908	111609
18.05720	150241
18.06532	271290
18.07345	545431
18.08157	1016523
18.08970	1614855
18.09782	2075345
18.10593	2146557
18.11407	1902345
18.12218	1454153
18.13030	988712
18.13843	704053
18.14655	538992
18.15468	445256
18.16280	387614
18.17092	340778
18.17905	301118
18.18717	262837
18.19530	234110
18.20342	216208
18.21153	202171
18.21967	190930
18.22778	179533
18.23592	165842
18.24403	150492
18.25215	145525
18.26028	136545
18.26840	124813
18.27652	122409
18.28465	105139
18.29277	88977
18.30090	73936
18.30902	65698
18.31713	68015
18.32527	62927
18.33338	54680
18.34152	54713
18.34963	54118
18.35775	55613
18.36588	52232
18.37400	51944
18.38213	50308
18.39025	52049
18.39837	53226
18.40650	49910
18.41462	51246
18.42273	52008
18.43087	53403
18.43898	61960
18.44712	66704
18.45523	78725
18.46335	101576
18.47148	123095
18.47960	161556
18.48773	179979
18.49585	190499
18.50397	165427
18.51210	139131
18.52022	113532
18.52833	97865
18.53647	89108
18.54458	73169
18.55272	66405
18.56083	64865
18.56895	66435
18.57708	59291
18.58520	56631
18.59333	59390
18.60145	54741
18.60957	61274
18.61770	60442
18.62582	62147
18.63395	60744
18.64207	56539
18.65018	54041
18.65832	49529
18.66643	49077
18.67455	49218
18.68268	43833
18.69080	45307
18.69893	42493
18.70705	45696
18.71517	47740
18.72330	47710
18.73142	46143
18.73955	43550
18.74767	45683
18.75578	42227
18.76392	41408
18.77203	41419
18.78015	42365
18.78828	42143
18.79640	47502
18.80453	41313
18.81265	41466
18.82077	41908
18.82890	40617
18.83702	43414
18.84515	39942
18.85327	39766
18.86138	42945
18.86952	41228
18.87763	41575
18.88577	40278
18.89388	42722
18.90200	40558
18.91013	44047
18.91825	46402
18.92637	47676
18.93450	49806
18.94262	48577
18.95075	51120
18.95887	55529
18.96698	49747
18.97512	46622
18.98323	48731
18.99137	51018
18.99948	45645
19.00760	43819
19.01573	43255
19.02385	45052
19.03198	45369
19.04010	41566
19.04822	40196
19.05635	41643
19.06447	46926
19.07258	61299
19.08072	80376
19.08883	124291
19.09697	188623
19.10508	250498
19.11320	306727
19.12133	327607
19.12945	295491
19.13758	246524
19.14570	197025
19.15382	165629
19.16195	143811
19.17007	130877
19.17818	128274
19.18632	125719
19.19443	122216
19.20257	122439
19.21068	123437
19.21880	119057
19.22693	121080
19.23505	115864
19.24318	107630
19.25130	111383
19.25942	112756
19.26755	118095
19.27567	124494
19.28380	141065
19.29192	148360
19.30003	155353
19.30817	163583
19.31628	154143
19.32440	148732
19.33253	141515
19.34065	131254
19.34878	127872
19.35690	142801
19.36502	153661
19.37315	177253
19.38127	185730
19.38940	193792
19.39752	163635
19.40563	150823
19.41377	136177
19.42188	119910
19.43002	118585
19.43813	106591
19.44625	118138
19.45438	105981
19.46250	109388
19.47062	106890
19.47875	112674
19.48687	121285
19.49500	132582
19.50312	159903
19.51123	186317
19.51937	223514
19.52748	222472
19.53562	209464
19.54373	181862
19.55185	149227
19.55998	136995
19.56810	122011
19.57622	109584
19.58435	103896
19.59247	102492
19.60060	100820
19.60872	95336
19.61683	98425
19.62497	100063
19.63308	101731
19.64122	115452
19.64933	141940
19.65745	191111
19.66558	247455
19.67370	314802
19.68183	324773
19.68995	349732
19.69807	335566
19.70620	306843
19.71432	264205
19.72243	234786
19.73057	201520
19.73868	187360
19.74682	161813
19.75493	142244
19.76305	132503
19.77118	128137
19.77930	114181
19.78743	122477
19.79555	119527
19.80367	117129
19.81180	121998
19.81992	117805
19.82803	108981
19.83617	103723
19.84428	105755
19.85242	120507
19.86053	189516
19.86865	356595
19.87678	772393
19.88490	1449550
19.89303	2301471
19.90115	3067715
19.90927	3344769
19.91740	3264035
19.92552	2568936
19.93365	1875583
19.94177	1252240
19.94988	865784
19.95802	632719
19.96613	526563
19.97425	452091
19.98238	405766
19.99050	374464
19.99863	349036
20.00675	331514
20.01487	314343
20.02300	292767
20.03112	266971
20.03925	242954
20.04737	230890
20.05548	198811
20.06362	174657
20.07173	159888
20.07987	141821
20.08798	135730
20.09610	126376
20.10423	119821
20.11235	118599
20.12047	106784
20.12860	111134
20.13672	102361
20.14485	100591
20.15297	101826
20.16108	107259
20.16922	124918
20.17733	133724
20.18547	156761
20.19358	159886
20.20170	166426
20.20983	164720
20.21795	159561
20.22608	146544
20.23420	134196
20.24232	147464
20.25045	160156
20.25857	207416
20.26668	291703
20.27482	375818
20.28293	474850
20.29107	540533
20.29918	518630
20.30730	478312
20.31543	396771
20.32355	319503
20.33168	239756
20.33980	202679
20.34792	165709
20.35605	138354
20.36417	122603
20.37228	112326
20.38042	102918
20.38853	95474
20.39667	90334
20.40478	90530
20.41290	92290
20.42103	91089
20.42915	99688
20.43728	105312
20.44540	110383
20.45352	117047
20.46165	115780
20.46977	113696
20.47790	106595
20.48602	101740
20.49413	89483
20.50227	87714
20.51038	84391
20.51850	78395
20.52663	77592
20.53475	72460
20.54288	74004
20.55100	76402
20.55912	77066
20.56725	77586
20.57537	70450
20.58350	69725
20.59162	70070
20.59973	66924
20.60787	65231
20.61598	67923
20.62410	65957
20.63223	67781
20.64035	66420
20.64848	67195
20.65660	64075
20.66472	66463
20.67285	62426
20.68097	61784
20.68910	63854
20.69722	58350
20.70533	62170
20.71347	57623
20.72158	61368
20.72972	58160
20.73783	59265
20.74595	56183
20.75408	62457
20.76220	61871
20.77032	62165
20.77845	63703
20.78657	75850
20.79470	91320
20.80282	120239
20.81093	156865
20.81907	204246
20.82718	219998
20.83532	204705
20.84343	175406
20.85155	143586
20.85968	106196
20.86780	85816
20.87593	76191
20.88405	67927
20.89217	69136
20.90030	62780
20.90842	64492
20.91653	59464
20.92467	65479
20.93278	64249
20.94092	62565
20.94903	56956
20.95715	62776
20.96528	62512
20.97340	59992
20.98153	55463
20.98965	54927
20.99777	57232
21.00590	58636
21.01402	56064
21.02213	55698
21.03027	56355
21.03838	56032
21.04652	55583
21.05463	55429
21.06275	59145
21.07088	59242
21.07900	54125
21.08713	60891
21.09525	59244
21.10337	58314
21.11150	60929
21.11962	52468
21.12775	56407
21.13587	60776
21.14398	65883
21.15212	74122
21.16023	86209
21.16835	94159
21.17648	92153
21.18460	87348
21.19273	77018
21.20085	75771
21.20897	69538
21.21710	61140
21.22522	56895
21.23335	64243
21.24147	68051
21.24958	60497
21.25772	56471
21.26583	60374
21.27397	57262
21.28208	60693
21.29020	60407
21.29833	54303
21.30645	54364
21.31457	52025
21.32270	52981
21.33082	53582
21.33895	57772
21.34707	55556
21.35518	50838
21.36332	51509
21.37143	55124
21.37957	58352
21.38768	67102
21.39580	72261
21.40393	79861
21.41205	93749
21.42017	95414
21.42830	86937
21.43642	83284
21.44455	77862
21.45267	71385
21.46078	61927
21.46892	63465
21.47703	58678
21.48517	57043
21.49328	55819
21.50140	53780
21.50953	49699
21.51765	53007
21.52578	54460
21.53390	53046
21.54202	48242
21.55015	51779
21.55827	54278
21.56638	52705
21.57452	51131
21.58263	58682
21.59077	62955
21.59888	61436
21.60700	65133
21.61513	66333
21.62325	68949
21.63138	78127
21.63950	89001
21.64762	93210
21.65575	105777
21.66387	104543
21.67198	104442
21.68012	90651
21.68823	86546
21.69637	83350
21.70448	74892
21.71260	74425
21.72073	68462
21.72885	62480
21.73698	54895
21.74510	56753
21.75322	53133
21.76135	56198
21.76947	57537
21.77760	54383
21.78572	53074
21.79383	51194
21.80197	53813
21.81008	57856
21.81820	56488
21.82633	63098
21.83445	72729
21.84258	85566
21.85070	85665
21.85882	88901
21.86695	82774
21.87507	76693
21.88320	66586
21.89132	62697
21.89943	54731
21.90757	57502
21.91568	55773
21.92382	52804
21.93193	50359
21.94005	44057
21.94818	50510
21.95630	48050
21.96442	47280
21.97255	43204
21.98067	43003
21.98880	45988
21.99692	46271
22.00503	47206
22.01317	39545
22.02128	43776
22.02942	42727
22.03753	44146
22.04565	41316
22.05378	44132
22.06190	44177
22.07002	48755
22.07815	49627
22.08627	38391
22.09440	43198
22.10252	47363
22.11063	42539
22.11877	42190
22.12688	42952
22.13502	42709
22.14313	40477
22.15125	42125
22.15938	44768
22.16750	42167
22.17563	42440
22.18375	41153
22.19187	44774
22.20000	44841
22.20812	40915
22.21623	44947
22.22437	47418
22.23248	51015
22.24062	47842
22.24873	54148
22.25685	47987
22.26498	50947
22.27310	46782
22.28123	54220
22.28935	61080
22.29747	68886
22.30560	63475
22.31372	68569
22.32185	76428
22.32997	68321
22.33808	67858
22.34622	68668
22.35433	67749
22.36245	65334
22.37058	71017
22.37870	69358
22.38683	73044
22.39495	79344
22.40307	93837
22.41120	108537
22.41932	118627
22.42745	132687
22.43557	125157
22.44368	123200
22.45182	103934
22.45993	97874
22.46805	85594
22.47618	81583
22.48430	83624
22.49243	86681
22.50055	87709
22.50867	90441
22.51680	84518
22.52492	77341
22.53305	76986
22.54117	72097
22.54928	64963
22.55742	60693
22.56553	62032
22.57367	55144
22.58178	55203
22.58990	51785
22.59803	48732
22.60615	48093
22.61427	45747
22.62240	48979
22.63052	45715
22.63865	46121
22.64677	45316
22.65488	48590
22.66302	47542
22.67113	46806
22.67927	51947
22.68738	51523
22.69550	56382
22.70363	55650
22.71175	57841
22.71988	64133
22.72800	68754
22.73612	62776
22.74425	60270
22.75237	62678
22.76048	55910
22.76862	54428
22.77673	58168
22.78487	65176
22.79298	82758
22.80110	107705
22.80923	127013
22.81735	136702
22.82548	137833
22.83360	130923
22.84172	122479
22.84985	120072
22.85797	116165
22.86608	126143
22.87422	113087
22.88233	122387
22.89047	130831
22.89858	134959
22.90670	143180
22.91483	156479
22.92295	181286
22.93108	192821
22.93920	195713
22.94732	190680
22.95545	177888
22.96357	175826
22.97170	149481
22.97982	141803
22.98793	146647
22.99607	129900
23.00418	129187
23.01230	118373
23.02043	116971
23.02855	109168
23.03668	107370
23.04480	105536
23.05292	101702
23.06105	103385
23.06917	115126
23.07730	103956
23.08542	99352
23.09353	104293
23.10167	98403
23.10978	102253
23.11790	99326
23.12603	93983
23.13415	94624
23.14228	94738
23.15040	95230
23.15852	93788
23.16665	91128
23.17477	93953
23.18290	91993
23.19102	89020
23.19913	89832
23.20727	86416
23.21538	84928
23.22352	89533
23.23163	87805
23.23975	80740
23.24788	89882
23.25600	92422
23.26412	91502
23.27225	93849
23.28037	95602
23.28850	93112
23.29662	88322
23.30473	91138
23.31287	86119
23.32098	85457
23.32912	91903
23.33723	96133
23.34535	113759
23.35348	144381
23.36160	200868
23.36973	286263
23.37785	396200
23.38597	544851
23.39410	684632
23.40222	823704
23.41033	913726
23.41847	985998
23.42658	1044753
23.43472	1031829
23.44283	997887
23.45095	974505
23.45908	916150
23.46720	857050
23.47533	777162
23.48345	722027
23.49157	662404
23.49970	607255
23.50782	563185
23.51593	498889
23.52407	475638
23.53218	436741
23.54032	389658
23.54843	391399
23.55655	365900
23.56468	356823
23.57280	343992
23.58093	342925
23.58905	351549
23.59717	358301
23.60530	380600
23.61342	389033
23.62155	357043
23.62967	325668
23.63778	288513
23.64592	255471
23.65403	238889
23.66215	224695
23.67028	212451
23.67840	210398
23.68653	195759
23.69465	183707
23.70277	174902
23.71090	162907
23.71902	160039
23.72715	150138
23.73527	155605
23.74338	153761
23.75152	183124
23.75963	293328
23.76777	552667
23.77588	1017820
23.78400	1735688
23.79213	2469742
23.80025	2869702
23.80837	2871990
23.81650	2564209
23.82462	2143231
23.83275	1672741
23.84087	1250970
23.84898	979277
23.85712	768724
23.86523	627063
23.87337	540054
23.88148	463239
23.88960	411676
23.89773	389330
23.90585	353936
23.91397	337575
23.92210	316028
23.93022	288596
23.93835	279411
23.94647	260590
23.95458	234677
23.96272	220464
23.97083	218243
23.97897	207545
23.98708	187093
23.99520	186521
24.00333	183412
24.01145	177087
24.01958	181392
24.02770	192617
24.03582	199231
24.04395	191934
24.05207	188919
24.06018	181765
24.06832	162414
24.07643	152555
24.08457	139514
24.09268	137693
24.10080	126495
24.10893	130410
24.11705	128484
24.12518	127556
24.13330	130363
24.14142	132116
24.14955	131381
24.15767	136568
24.16578	134537
24.17392	127011
24.18203	121133
24.19017	115337
24.19828	118164
24.20640	118117
24.21453	116930
24.22265	123317
24.23078	117211
24.23890	111537
24.24702	105678
24.25515	99116
24.26327	98353
24.27140	98772
24.27952	99361
24.28763	99287
24.29577	97045
24.30388	95470
24.31200	95402
24.32013	96548
24.32825	96413
24.33638	87332
24.34450	91572
24.35262	85866
24.36075	88885
24.36887	84571
24.37700	87274
24.38512	92215
24.39323	105161
24.40137	118993
24.40948	130304
24.41762	138643
24.42573	124722
24.43385	107363
24.44198	99915
24.45010	90329
24.45822	87075
24.46635	95783
24.47447	109885
24.48260	117062
24.49072	128784
24.49883	131572
24.50697	139989
24.51508	143140
24.52322	162718
24.53133	166002
24.53945	167048
24.54758	167275
24.55570	172312
24.56382	177883
24.57195	172349
24.58007	167068
24.58820	169217
24.59632	164619
24.60443	167368
24.61257	161594
24.62068	160783
24.62882	154619
24.63693	155578
24.64505	156739
24.65318	165834
24.66130	161100
24.66943	163046
24.67755	159739
24.68567	156047
24.69380	149622
24.70192	154184
24.71003	146913
24.71817	156385
24.72628	149449
24.73442	147652
24.74253	151955
24.75065	147894
24.75878	153977
24.76690	146849
24.77503	150294
24.78315	157830
24.79127	155796
24.79940	158014
24.80752	158492
24.81565	149418
24.82377	148386
24.83188	156461
24.84002	169980
24.84813	190782
24.85625	221927
24.86438	274357
24.87250	346905
24.88063	438539
24.88875	533478
24.89687	572235
24.90500	571849
24.91312	496943
24.92125	403947
24.92937	324225
24.93748	246766
24.94562	197561
24.95373	174338
24.96185	153836
24.96998	144090
24.97810	133331
24.98623	132956
24.99435	128864
25.00247	127497
25.01060	128815
25.01872	122366
25.02685	117504
25.03497	116825
25.04308	117518
25.05122	120281
25.05933	114088
25.06747	118910
25.07558	118685
25.08370	117158
25.09183	130607
25.09995	152194
25.10807	214104
25.11620	360957
25.12432	681245
25.13245	1160043
25.14057	1709328
25.14868	2116559
25.15682	2272541
25.16493	2059508
25.17307	1557038
25.18118	1077005
25.18930	678894
25.19743	436339
25.20555	302359
25.21367	225868
25.22180	188671
25.22992	173684
25.23805	167589
25.24617	177853
25.25428	189315
25.26242	209565
25.27053	215897
25.27867	231380
25.28678	216479
25.29490	202011
25.30303	176901
25.31115	167150
25.31928	141367
25.32740	136936
25.33552	128353
25.34365	122748
25.35177	121969
25.35988	112020
25.36802	113339
25.37613	111306
25.38427	102608
25.39238	94240
25.40050	95512
25.40863	94561
25.41675	88288
25.42488	92352
25.43300	88289
25.44112	87187
25.44925	79091
25.45737	80285
25.46550	75881
25.47362	75769
25.48173	77312
25.48987	78683
25.49798	74542
25.50610	70986
25.51423	73411
25.52235	70451
25.53048	69091
25.53860	65165
25.54672	60625
25.55485	65758
25.56297	65865
25.57110	63880
25.57922	62585
25.58733	65458
25.59547	63560
25.60358	61068
25.61172	60043
25.61983	58644
25.62795	61482
25.63608	59680
25.64420	58183
25.65232	59416
25.66045	61518
25.66857	60140
25.67670	58668
25.68482	55257
25.69293	59007
25.70107	54625
25.70918	54892
25.71732	56367
25.72543	55949
25.73355	54682
25.74168	52472
25.74980	54495
25.75792	52154
25.76605	51489
25.77417	54012
25.78230	56693
25.79042	57408
25.79853	58619
25.80667	55031
25.81478	57944
25.82292	62390
25.83103	73600
25.83915	85921
25.84728	100842
25.85540	116164
25.86353	117045
25.87165	125882
25.87977	120714
25.88790	123080
25.89602	125868
25.90413	122481
25.91227	125105
25.92038	123324
25.92852	131251
25.93663	125812
25.94475	125297
25.95288	126366
25.96100	128690
25.96913	130287
25.97725	126704
25.98537	122214
25.99350	122416
26.00162	121474
26.00973	124673
26.01787	115083
26.02598	126528
26.03412	124707
26.04223	125075
26.05035	119001
26.05848	122379
26.06660	122564
26.07473	120988
26.08285	124378
26.09097	123837
26.09910	126679
26.10722	121915
26.11535	127102
26.12347	129403
26.13158	119455
26.13972	129496
26.14783	129432
26.15595	125652
26.16408	128355
26.17220	124651
26.18033	121220
26.18845	112831
26.19657	118245
26.20470	115460
26.21282	111372
26.22095	112214
26.22907	105176
26.23718	104553
26.24532	107558
26.25343	104451
26.26157	102162
26.26968	98717
26.27780	106145
26.28593	98435
26.29405	98099
26.30217	98218
26.31030	96884
26.31842	96363
26.32655	95397
26.33467	88446
26.34278	92064
26.35092	91198
26.35903	93954
26.36717	96533
26.37528	97948
26.38340	103774
26.39153	104379
26.39965	106693
26.40777	116479
26.41590	108534
26.42402	105273
26.43215	98737
26.44027	96223
26.44838	91673
26.45652	86884
26.46463	88979
26.47277	83815
26.48088	80647
26.48900	87603
26.49713	79479
26.50525	81940
26.51338	76069
26.52150	79654
26.52962	78807
26.53775	76164
26.54587	78548
26.55398	73014
26.56212	72405
26.57023	74739
26.57837	69139
26.58648	74410
26.59460	71820
26.60273	68112
26.61085	70197
26.61898	65112
26.62710	62188
26.63522	65442
26.64335	67332
26.65147	67006
26.65960	67212
26.66772	68927
26.67583	69950
26.68397	72126
26.69208	72228
26.70020	67373
26.70833	63312
26.71645	58574
26.72458	63435
26.73270	61631
26.74082	63914
26.74895	57521
26.75707	62542
26.76520	63818
26.77332	61282
26.78143	62252
26.78957	61016
26.79768	59372
26.80580	62533
26.81393	62428
26.82205	62364
26.83018	61597
26.83830	63035
26.84642	58221
26.85455	60082
26.86267	64246
26.87080	59934
26.87892	62497
26.88703	64028
26.89517	59272
26.90328	59786
26.91142	56618
26.91953	56012
26.92765	56418
26.93578	53841
26.94390	57477
26.95202	52383
26.96015	55479
26.96827	63793
26.97640	70958
26.98452	99502
26.99263	132598
27.00077	190188
27.00888	277269
27.01702	370861
27.02513	466857
27.03325	524388
27.04138	535619
27.04950	526328
27.05762	456127
27.06575	387045
27.07387	316503
27.08200	258580
27.09012	221689
27.09823	202920
27.10637	172974
27.11448	163782
27.12262	148989
27.13073	135435
27.13885	135269
27.14698	129906
27.15510	114930
27.16323	119455
27.17135	114995
27.17947	111908
27.18760	114902
27.19572	113835
27.20383	115429
27.21197	111294
27.22008	109990
27.22822	99200
27.23633	94753
27.24445	86273
27.25258	85596
27.26070	83968
27.26883	85295
27.27695	76028
27.28507	78305
27.29320	77041
27.30132	72000
27.30945	68710
27.31757	72421
27.32568	72740
27.33382	70048
27.34193	69428
27.35005	69642
27.35818	67885
27.36630	65047
27.37443	67588
27.38255	72844
27.39067	63329
27.39880	62421
27.40692	62466
27.41505	61004
27.42317	59959
27.43128	56171
27.43942	63523
27.44753	61234
27.45565	60765
27.46378	59492
27.47190	56171
27.48003	55229
27.48815	56438
27.49627	53770
27.50440	51863
27.51252	56374
27.52065	59292
27.52877	57682
27.53688	57940
27.54502	53152
27.55313	60982
27.56127	59061
27.56938	56768
27.57750	66516
27.58563	69483
27.59375	67873
27.60187	77538
27.61000	79494
27.61812	77333
27.62625	69774
27.63437	62348
27.64248	63244
27.65062	61962
27.65873	56553
27.66687	55958
27.67498	53007
27.68310	52087
27.69123	64185
27.69935	52789
27.70748	51720
27.71560	48886
27.72372	49333
27.73185	46481
27.73997	55090
27.74808	49085
27.75622	51144
27.76433	49829
27.77247	52710
27.78058	50905
27.78870	50149
27.79683	54616
27.80495	51859
27.81308	53960
27.82120	54598
27.82932	52399
27.83745	51022
27.84557	50711
27.85368	49998
27.86182	49923
27.86993	51423
27.87807	50244
27.88618	47718
27.89430	50266
27.90243	47104
27.91055	49358
27.91868	44125
27.92680	44794
27.93492	49360
27.94305	47731
27.95117	47228
27.95930	46675
27.96742	47341
27.97553	41654
27.98367	46949
27.99178	44688
27.99990	43199
28.00803	47187
28.01615	54385
28.02428	48505
28.03240	49098
28.04052	48248
28.04865	54536
28.05677	53075
28.06490	57988
28.07302	55808
28.08113	53235
28.08927	51638
28.09738	56271
28.10552	54375
28.11363	51441
28.12175	49524
28.12988	49858
28.13800	45802
28.14612	44088
28.15425	43899
28.16237	43637
28.17050	43389
28.17862	50489
28.18673	48110
28.19487	58182
28.20298	63269
28.21112	75096
28.21923	82582
28.22735	82417
28.23548	79674
28.24360	75610
28.25172	73357
28.25985	61694
28.26797	58568
28.27610	54353
28.28422	50223
28.29233	50871
28.30047	51950
28.30858	54434
28.31672	58601
28.32483	68193
28.33295	74813
28.34108	84328
28.34920	104962
28.35733	113587
28.36545	127091
28.37357	149835
28.38170	156344
28.38982	165928
28.39793	164421
28.40607	163473
28.41418	170740
28.42232	156539
28.43043	162042
28.43855	142106
28.44668	136434
28.45480	123180
28.46293	110417
28.47105	105283
28.47917	105981
28.48730	95630
28.49542	92270
28.50353	87740
28.51167	83450
28.51978	81061
28.52792	78789
28.53603	73341
28.54415	73469
28.55228	72470
28.56040	67458
28.56853	69097
28.57665	70494
28.58477	62907
28.59290	65983
28.60102	60136
28.60915	68826
28.61727	61294
28.62538	61726
28.63352	67234
28.64163	65190
28.64975	65922
28.65788	63788
28.66600	67601
28.67413	73869
28.68225	71825
28.69037	69693
28.69850	64624
28.70662	61428
28.71475	59518
28.72287	58775
28.73098	57422
28.73912	55336
28.74723	58656
28.75537	61389
28.76348	60086
28.77160	66135
28.77973	72961
28.78785	74272
28.79597	72208
28.80410	75741
28.81222	69969
28.82035	71610
28.82847	64327
28.83658	62234
28.84472	59384
28.85283	60225
28.86097	56819
28.86908	54707
28.87720	56461
28.88533	61426
28.89345	63895
28.90157	61952
28.90970	60144
28.91782	61775
28.92595	60090
28.93407	57005
28.94218	56647
28.95032	53094
28.95843	55420
28.96657	53434
28.97468	53692
28.98280	57670
28.99093	52298
28.99905	50109
29.00718	49349
29.01530	53738
29.02342	49509
29.03155	47429
29.03967	48647
29.04778	49497
29.05592	45406
29.06403	49051
29.07217	49629
29.08028	50017
29.08840	54789
29.09653	51197
29.10465	49845
29.11278	48351
29.12090	49973
29.12902	46569
29.13715	51483
29.14527	47007
29.15340	50712
29.16152	51631
29.16963	49221
29.17777	52479
29.18588	58921
29.19400	58335
29.20213	70250
29.21025	77564
29.21838	83207
29.22650	82279
29.23462	82908
29.24275	74593
29.25087	68330
29.25900	69837
29.26712	68467
29.27523	68773
29.28337	65581
29.29148	59862
29.29960	57776
29.30773	57195
29.31585	52802
29.32398	45636
29.33210	47057
29.34022	44460
29.34835	43903
29.35647	44488
29.36460	44220
29.37272	42211
29.38083	40747
29.38897	43068
29.39708	44180
29.40522	41863
29.41333	41439
29.42145	47117
29.42958	51797
29.43770	46899
29.44582	44092
29.45395	45490
29.46207	46390
29.47020	46033
29.47832	48129
29.48643	43902
29.49457	52893
29.50268	46529
29.51082	52974
29.51893	50234
29.52705	50031
29.53518	49318
29.54330	46071
29.55142	46788
29.55955	45022
29.56767	47201
29.57580	47520
29.58392	39578
29.59203	39657
29.60017	40436
29.60828	40664
29.61642	44097
29.62453	41933
29.63265	39195
29.64078	42226
29.64890	41313
29.65703	42697
29.66515	44097
29.67327	44757
29.68140	40547
29.68952	45303
29.69763	44888
29.70577	45634
29.71388	46089
29.72202	46187
29.73013	41589
29.73825	39459
29.74638	41666
29.75450	44730
29.76263	41555
29.77075	40216
29.77887	36426
29.78700	40307
29.79512	39088
29.80325	38100
29.81137	42103
29.81948	38293
29.82762	37176
29.83573	40757
29.84385	39303
29.85198	39031
29.86010	42382
29.86823	45357
29.87635	48565
29.88447	49044
29.89260	57340
29.90072	65680
29.90885	73658
29.91697	68336
29.92508	63098
29.93322	57650
29.94133	52821
29.94947	55285
29.95758	54457
29.96570	53594
29.97383	52280
29.98195	61466
29.99007	61795
29.99820	71590
30.00632	76575
30.01445	85849
30.02257	86347
30.03068	85590
30.03882	98420
30.04693	101387
30.05507	97576
30.06318	102335
30.07130	102293
30.07943	98729
30.08755	94679
30.09567	97120
30.10380	85882
30.11192	89957
30.12005	90389
30.12817	85232
30.13628	80786
30.14442	78902
30.15253	80849
30.16067	74610
30.16878	72764
30.17690	74165
30.18503	69821
30.19315	66558
30.20128	65271
30.20940	62745
30.21752	59371
30.22565	62231
30.23377	57322
30.24188	56134
30.25002	62553
30.25813	55792
30.26627	49424
30.27438	57393
30.28250	52801
30.29063	51629
30.29875	54380
30.30688	52971
30.31500	49486
30.32312	49613
30.33125	48944
30.33937	47228
30.34748	47407
30.35562	51772
30.36373	49625
30.37187	50032
30.37998	46734
30.38810	46083
30.39623	44834
30.40435	43289
30.41248	44618
30.42060	44290
30.42872	45776
30.43685	42868
30.44497	41497
30.45310	43276
30.46122	42005
30.46933	41075
30.47747	43687
30.48558	43225
30.49370	42636
30.50183	45771
30.50995	42470
30.51808	43990
30.52620	47889
30.53432	41129
30.54245	42257
30.55057	42004
30.55870	43607
30.56682	42332
30.57493	42335
30.58307	39799
30.59118	42836
30.59932	41315
30.60743	45479
30.61555	41367
30.62368	41288
30.63180	39386
30.63992	44328
30.64805	41533
30.65617	38179
30.66430	36894
30.67242	38882
30.68053	40376
30.68867	39474
30.69678	38834
30.70492	37399
30.71303	39026
30.72115	39032
30.72928	39611
30.73740	38604
30.74552	39272
30.75365	37999
30.76177	39330
30.76990	38401
30.77802	42966
30.78613	49570
30.79427	63582
30.80238	69428
30.81052	80881
30.81863	85388
30.82675	89805
30.83488	77876
30.84300	64155
30.85113	60016
30.85925	54265
30.86737	42758
30.87550	44259
30.88362	40201
30.89173	41625
30.89987	43113
30.90798	40679
30.91612	45041
30.92423	40111
30.93235	40273
30.94048	44463
30.94860	39300
30.95673	41750
30.96485	38743
30.97297	38342
30.98110	37607
30.98922	40026
30.99735	42397
31.00547	38210
31.01358	41459
31.02172	35338
31.02983	41807
31.03795	40642
31.04608	38302
31.05420	39733
31.06233	42907
31.07045	45354
31.07857	53439
31.08670	52859
31.09482	61013
31.10295	63875
31.11107	69710
31.11918	73251
31.12732	69475
31.13543	69413
31.14355	64303
31.15168	61995
31.15980	64256
31.16793	66282
31.17605	61676
31.18417	66691
31.19230	83220
31.20042	96202
31.20855	118199
31.21667	145132
31.22478	167135
31.23292	169436
31.24103	163378
31.24917	137305
31.25728	122337
31.26540	88607
31.27353	79297
31.28165	65937
31.28977	62619
31.29790	59199
31.30602	60609
31.31415	64942
31.32227	56846
31.33038	62840
31.33852	59518
31.34663	61225
31.35477	60486
31.36288	55508
31.37100	56727
31.37913	54852
31.38725	57302
31.39537	55559
31.40350	59497
31.41162	56216
31.41975	55597
31.42787	53321
31.43598	54096
31.44412	49228
31.45223	52381
31.46037	51365
31.46848	49161
31.47660	54689
31.48473	47778
31.49285	51987
31.50098	52207
31.50910	51994
31.51722	53016
31.52535	51224
31.53347	50078
31.54158	47979
31.54972	54731
31.55783	53691
31.56597	50150
31.57408	48656
31.58220	51545
31.59033	49306
31.59845	50482
31.60658	52206
31.61470	49862
31.62282	45475
31.63095	46090
31.63907	45255
31.64720	50887
31.65532	47474
31.66343	49360
31.67157	51543
31.67968	53897
31.68780	51080
31.69593	53344
31.70405	47657
31.71218	46520
31.72030	43781
31.72842	45825
31.73655	44165
31.74467	48782
31.75280	47661
31.76092	47658
31.76903	45909
31.77717	41713
31.78528	51373
31.79340	51836
31.80153	47329
31.80965	50157
31.81778	46348
31.82590	50131
31.83402	48985
31.84215	46039
31.85027	51258
31.85840	51958
31.86652	54546
31.87463	56110
31.88277	55643
31.89088	50971
31.89902	50870
31.90713	56347
31.91525	54091
31.92338	64303
31.93150	67811
31.93962	74271
31.94775	77036
31.95587	77321
31.96400	80504
31.97212	86389
31.98023	92539
31.98837	95027
31.99648	97638
32.00462	93641
32.01273	90702
32.02085	92863
32.02898	86964
32.03710	86945
32.04523	81258
32.05335	84288
32.06147	79214
32.06960	80343
32.07772	77371
32.08583	82986
32.09397	75673
32.10208	67214
32.11022	62681
32.11833	63659
32.12645	71133
32.13458	61260
32.14270	59845
32.15083	59238
32.15895	59738
32.16707	53741
32.17520	53012
32.18332	56274
32.19143	54398
32.19957	54714
32.20768	52761
32.21582	48527
32.22393	48837
32.23205	51516
32.24018	51266
32.24830	51927
32.25643	54488
32.26455	56432
32.27267	54183
32.28080	53715
32.28892	52344
32.29705	52411
32.30517	47808
32.31328	47743
32.32142	50574
32.32953	47069
32.33765	47905
32.34578	46829
32.35390	45918
32.36203	49516
32.37015	44339
32.37827	41614
32.38640	47055
32.39452	45820
32.40265	48021
32.41077	46956
32.41888	48020
32.42702	43557
32.43513	43880
32.44327	44138
32.45138	46939
32.45950	44325
32.46763	44547
32.47575	44063
32.48387	46671
32.49200	44088
32.50012	41166
32.50825	41162
32.51637	45189
32.52448	42459
32.53262	44897
32.54073	43041
32.54887	42468
32.55698	46569
32.56510	49919
32.57323	46809
32.58135	45526
32.58947	47850
32.59760	39738
32.60572	43405
32.61385	41944
32.62197	40795
32.63008	37968
32.63822	42610
32.64633	44278
32.65447	51954
32.66258	48067
32.67070	54862
32.67883	56370
32.68695	53121
32.69508	54743
32.70320	56076
32.71132	53025
32.71945	48202
32.72757	48044
32.73568	48100
32.74382	45609
32.75193	41496
32.76007	43102
32.76818	42280
32.77630	41581
32.78443	40388
32.79255	37675
32.80068	38981
32.80880	40804
32.81692	42674
32.82505	39320
32.83317	40054
32.84128	38892
32.84942	41496
32.85753	42616
32.86567	40563
32.87378	39224
32.88190	40614
32.89003	39756
32.89815	36013
32.90628	36414
32.91440	44617
32.92252	40625
32.93065	43419
32.93877	42540
32.94690	48780
32.95502	45669
32.96313	41981
32.97127	42364
32.97938	44341
32.98750	51553
32.99563	59217
33.00375	61875
33.01188	59593
33.02000	59097
33.02812	55958
33.03625	51173
33.04437	51558
33.05250	45335
33.06062	47590
33.06873	52178
33.07687	46327
33.08498	52919
33.09312	53860
33.10123	61364
33.10935	61582
33.11748	66029
33.12560	62641
33.13372	67430
33.14185	62622
33.14997	52220
33.15810	50497
33.16622	50435
33.17433	49629
33.18247	49419
33.19058	51064
33.19872	50836
33.20683	47736
33.21495	44221
33.22308	47049
33.23120	45462
33.23932	42548
33.24745	42241
33.25557	42014
33.26370	38289
33.27182	41159
33.27993	40661
33.28807	40557
33.29618	41476
33.30432	46083
33.31243	39917
33.32055	42300
33.32868	41870
33.33680	43821
33.34493	44196
33.35305	45802
33.36117	47879
33.36930	41061
33.37742	47876
33.38553	44727
33.39367	43303
33.40178	40250
33.40992	38701
33.41803	39380
33.42615	39369
33.43428	37328
33.44240	39603
33.45053	39608
33.45865	39520
33.46677	37705
33.47490	42189
33.48302	43337
33.49115	43104
33.49927	45797
33.50738	38896
33.51552	42489
33.52363	42023
33.53175	45639
33.53988	50805
33.54800	48596
33.55613	47383
33.56425	46716
33.57237	45514
33.58050	48999
33.58862	48184
33.59675	41665
33.60487	40621
33.61298	40497
33.62112	40507
33.62923	43169
33.63735	40386
33.64548	46946
33.65360	43532
33.66173	45636
33.66985	42617
33.67797	42462
33.68610	44324
33.69422	39458
33.70235	44148
33.71047	40444
33.71858	41297
33.72672	41687
33.73483	42318
33.74297	39327
33.75108	41456
33.75920	39793
33.76733	39928
33.77545	39476
33.78357	42394
33.79170	40583
33.79982	41451
33.80795	41969
33.81607	40612
33.82418	40415
33.83232	43258
33.84043	42905
33.84857	43760
33.85668	43600
33.86480	45915
33.87293	43803
33.88105	40855
33.88917	41306
33.89730	43416
33.90542	44667
33.91355	42011
33.92167	45951
33.92978	41630
33.93792	38696
33.94603	43746
33.95417	42738
33.96228	42375
33.97040	43042
33.97853	38574
33.98665	44048
33.99478	36937
34.00290	40104
34.01102	38759
34.01915	41460
34.02727	41187
34.03538	40161
34.04352	41091
34.05163	38073
34.05977	37891
34.06788	39901
34.07600	46368
34.08413	42577
34.09225	43390
34.10038	37096
34.10850	41318
34.11662	42701
34.12475	41966
34.13287	42434
34.14100	40299
34.14912	37180
34.15723	41598
34.16537	39615
34.17348	45356
34.18160	43467
34.18973	40808
34.19785	42256
34.20598	41427
34.21410	41517
34.22222	41993
34.23035	40837
34.23847	42161
34.24660	43099
34.25472	41383
34.26283	36849
34.27097	42382
34.27908	41930
34.28722	39856
34.29533	40860
34.30345	42603
34.31158	41574
34.31970	41198
34.32782	42408
34.33595	44420
34.34407	41222
34.35220	41032
34.36032	41387
34.36843	40766
34.37657	44847
34.38468	45014
34.39282	41585
34.40093	43306
34.40905	38755
34.41718	42834
34.42530	42828
34.43342	41992
34.44155	40700
34.44967	40530
34.45780	41483
34.46592	40444
34.47403	39426
34.48217	42035
34.49028	40107
34.49842	42604
34.50653	43153
34.51465	47146
34.52278	53960
34.53090	53040
34.53903	65285
34.54715	71892
34.55527	78867
34.56340	86185
34.57152	89102
34.57963	91029
34.58777	83954
34.59588	81554
34.60402	71896
34.61213	70368
34.62025	69542
34.62838	66141
34.63650	61376
34.64463	59886
34.65275	57964
34.66087	55395
34.66900	57026
34.67712	56548
34.68523	56800
34.69337	49883
34.70148	52657
34.70962	49840
34.71773	50039
34.72585	50374
34.73398	53026
34.74210	46075
34.75023	48814
34.75835	53083
34.76647	46439
34.77460	50445
34.78272	46147
34.79085	46401
34.79897	50589
34.80708	48063
34.81522	50730
34.82333	48168
34.83145	47605
34.83958	50790
34.84770	47707
34.85583	44142
34.86395	48631
34.87207	48030
34.88020	45403
34.88832	46084
34.89645	47667
34.90457	48974
34.91268	45832
34.92082	50040
34.92893	48371
34.93707	47027
34.94518	53846
34.95330	47756
34.96143	55225
34.96955	53147
34.97767	49112
34.98580	51153
34.99392	49945
35.00205	51940
35.01017	50745
35.01828	49351
35.02642	47203
35.03453	44082
35.04267	46251
35.05078	43745
35.05890	45557
35.06703	44317
35.07515	42623
35.08327	44636
35.09140	47680
35.09952	45146
35.10765	41977
35.11577	47145
35.12388	48433
35.13202	46558
35.14013	46066
35.14827	45071
35.15638	48290
35.16450	56317
35.17263	48203
35.18075	52465
35.18888	47522
35.19700	48941
35.20512	52439
35.21325	47536
35.22137	45836
35.22948	48075
35.23762	43569
35.24573	48022
35.25387	49262
35.26198	51206
35.27010	45911
35.27823	41776
35.28635	49543
35.29448	47276
35.30260	47419
35.31072	49372
35.31885	49085
35.32697	43679
35.33510	44481
35.34322	46531
35.35133	45278
35.35947	42527
35.36758	41997
35.37570	43690
35.38383	42620
35.39195	42696
35.40008	44412
35.40820	43400
35.41632	44708
35.42445	45984
35.43257	49722
35.44070	43859
35.44882	49703
35.45693	48244
35.46507	48245
35.47318	51302
35.48130	50477
35.48943	49338
35.49755	45694
35.50568	47953
35.51380	48901
35.52192	46473
35.53005	45691
35.53817	46818
35.54630	46048
35.55442	47414
35.56253	45649
35.57067	44805
35.57878	45254
35.58692	49879
35.59503	47250
35.60315	44061
35.61128	49238
35.61940	46601
35.62752	41029
35.63565	47156
35.64377	41530
35.65190	44657
35.66002	44723
35.66813	44388
35.67627	50665
35.68438	48170
35.69252	51356
35.70063	52897
35.70875	49546
35.71688	52792
35.72500	50194
35.73312	47155
35.74125	49732
35.74937	46246
35.75750	54618
35.76562	53421
35.77373	53736
35.78187	57336
35.78998	54680
35.79812	50005
35.80623	48465
35.81435	45949
35.82248	46381
35.83060	45674
35.83873	45397
35.84685	48500
35.85497	50567
35.86310	49909
35.87122	46535
35.87933	46720
35.88747	45454
35.89558	50151
35.90372	46171
35.91183	45781
35.91995	47392
35.92808	47504
35.93620	45178
35.94433	43902
35.95245	44449
35.96057	42267
35.96870	47414
35.97682	49872
35.98495	47018
35.99307	47303
36.00118	50785
36.00932	47392
36.01743	49845
36.02555	52142
36.03368	50919
36.04180	50159
36.04993	48491
36.05805	50744
36.06617	53688
36.07430	50259
36.08242	48931
36.09055	47562
36.09867	47697
36.10678	44879
36.11492	48808
36.12303	48851
36.13115	49914
36.13928	47735
36.14740	47283
36.15553	54750
36.16365	49584
36.17177	50018
36.17990	48216
36.18802	47674
36.19615	50682
36.20427	44553
36.21238	45474
36.22052	48945
36.22863	47937
36.23677	46107
36.24488	45079
36.25300	45565
36.26113	47051
36.26925	47326
36.27737	50732
36.28550	48962
36.29362	51326
36.30175	56198
36.30987	56250
36.31798	56428
36.32612	57830
36.33423	54171
36.34237	56611
36.35048	54044
36.35860	53921
36.36673	52037
36.37485	53044
36.38298	52648
36.39110	49456
36.39922	47747
36.40735	52556
36.41547	49781
36.42358	52830
36.43172	52902
36.43983	51312
36.44797	48007
36.45608	47723
36.46420	48325
36.47233	49036
36.48045	52497
36.48858	46114
36.49670	44033
36.50482	44459
36.51295	51088
36.52107	49860
36.52918	46622
36.53732	45325
36.54543	43257
36.55357	48564
36.56168	52624
36.56980	49013
36.57793	54953
36.58605	47783
36.59418	47783
36.60230	48453
36.61042	49447
36.61855	48809
36.62667	47606
36.63480	51035
36.64292	50791
36.65103	51373
36.65917	51072
36.66728	53925
36.67540	52042
36.68353	46083
36.69165	52933
36.69978	51190
36.70790	55508
36.71602	53969
36.72415	54340
36.73227	52813
36.74040	54396
36.74852	55963
36.75663	50311
36.76477	51166
36.77288	52514
36.78100	51242
36.78913	51966
36.79725	49579
36.80538	50586
36.81350	54579
36.82162	53442
36.82975	52573
36.83787	54127
36.84600	51479
36.85412	53303
36.86223	53227
36.87037	51823
36.87848	49369
36.88662	50163
36.89473	54103
36.90285	53853
36.91098	52151
36.91910	49969
36.92722	51124
36.93535	51141
36.94347	55475
36.95160	55802
36.95972	64860
36.96783	60856
36.97597	63825
36.98408	60487
36.99222	58913
37.00033	55838
37.00845	56208
37.01658	56325
37.02470	54912
37.03283	53015
37.04095	55770
37.04907	57292
37.05720	57422
37.06532	51422
37.07343	53275
37.08157	52261
37.08968	52755
37.09782	54110
37.10593	56061
37.11405	56089
37.12218	57925
37.13030	62512
37.13843	54254
37.14655	50826
37.15467	56294
37.16280	51822
37.17092	52594
37.17903	50772
37.18717	53061
37.19528	55567
37.20342	53077
37.21153	51174
37.21965	57062
37.22778	55002
37.23590	54952
37.24403	50518
37.25215	56792
37.26027	50367
37.26840	57062
37.27652	51337
37.28465	55003
37.29277	51769
37.30088	54215
37.30902	54930
37.31713	56360
37.32525	61727
37.33338	63130
37.34150	72497
37.34963	72825
37.35775	82600
37.36587	76652
37.37400	81951
37.38212	83614
37.39025	81715
37.39837	78663
37.40648	73873
37.41462	73758
37.42273	66784
37.43087	65199
37.43898	68845
37.44710	66580
37.45523	69596
37.46335	65458
37.47147	63888
37.47960	65073
37.48772	62827
