C:\MassHunter\GCMS\1\data\JTB-E02\BACandBLUE\JTB-E18-019-13.D Fri Jul 05 15:28:53 2019
Start of data points
2.09528,76514
2.10340,78486
2.11153,77187
2.11965,80049
2.12777,80400
2.13590,79579
2.14402,78677
2.15215,73511
2.16027,74580
2.16838,77333
2.17652,72554
2.18463,73665
2.19277,78220
2.20088,72314
2.20900,72139
2.21713,70682
2.22525,68504
2.23337,68926
2.24150,71181
2.24962,70700
2.25775,86235
2.26587,253033
2.27398,663270
2.28212,816662
2.29023,695643
2.29837,397112
2.30648,265063
2.31460,225763
2.32273,194670
2.33085,179374
2.33898,176901
2.34710,156511
2.35522,143757
2.36335,138728
2.37147,131081
2.37958,136298
2.38772,129677
2.39583,129132
2.40397,128419
2.41208,124598
2.42020,120244
2.42833,115921
2.43645,114249
2.44458,117891
2.45270,115697
2.46082,109593
2.46895,111914
2.47707,109565
2.48520,116851
2.49332,127925
2.50143,119582
2.50957,115464
2.51768,109265
2.52580,111527
2.53393,106260
2.54205,109417
2.55018,121626
2.55830,153890
2.56642,183001
2.57455,167762
2.58267,142663
2.59080,130764
2.59892,212592
2.60703,534937
2.61517,874279
2.62328,860192
2.63140,536204
2.63953,347641
2.64765,261454
2.65578,207827
2.66390,182199
2.67202,163933
2.68015,156193
2.68827,139678
2.69640,140275
2.70452,132560
2.71263,129691
2.72077,122299
2.72888,117515
2.73702,113010
2.74513,115406
2.75325,111629
2.76138,111080
2.76950,115123
2.77762,145543
2.78575,192217
2.79387,216979
2.80200,185905
2.81012,155647
2.81823,151916
2.82637,152003
2.83448,149058
2.84262,137030
2.85073,121206
2.85885,124596
2.86698,116152
2.87510,114352
2.88323,108980
2.89135,107832
2.89947,106690
2.90760,104548
2.91572,101900
2.92383,101908
2.93197,97208
2.94008,104500
2.94822,102215
2.95633,110325
2.96445,111288
2.97258,121281
2.98070,112007
2.98883,107762
2.99695,108060
3.00507,107076
3.01320,108793
3.02132,99794
3.02943,102228
3.03757,101176
3.04568,97566
3.05382,98244
3.06193,105450
3.07005,129378
3.07818,407372
3.08630,1497173
3.09443,3054473
3.10255,4399562
3.11067,5109217
3.11880,4813129
3.12692,3450607
3.13505,2313648
3.14317,1701808
3.15128,1319196
3.15942,1086151
3.16753,896150
3.17565,827015
3.18378,895159
3.19190,1132830
3.20003,1308028
3.20815,1172063
3.21627,893547
3.22440,732730
3.23252,624407
3.24065,546738
3.24877,479886
3.25688,441997
3.26502,398285
3.27313,371758
3.28125,419012
3.28938,795407
3.29750,2028016
3.30563,4026423
3.31375,5341656
3.32187,5005135
3.33000,3752732
3.33812,2658873
3.34625,1989172
3.35437,1582275
3.36248,1309164
3.37062,1109096
3.37873,954041
3.38687,853251
3.39498,766920
3.40310,713418
3.41123,645052
3.41935,582894
3.42747,553753
3.43560,536490
3.44372,514207
3.45185,479900
3.45997,466757
3.46808,477338
3.47622,467899
3.48433,445661
3.49247,426667
3.50058,395404
3.50870,382748
3.51683,366518
3.52495,382157
3.53308,368613
3.54120,375371
3.54932,364339
3.55745,358904
3.56557,360991
3.57368,385866
3.58182,396439
3.58993,376197
3.59807,349922
3.60618,350972
3.61430,342029
3.62243,346962
3.63055,336926
3.63868,335358
3.64680,334866
3.65492,359719
3.66305,676861
3.67117,1772786
3.67928,3202620
3.68742,3646999
3.69553,2794701
3.70367,1850747
3.71178,1324980
3.71990,1091617
3.72803,940749
3.73615,819362
3.74428,760736
3.75240,694666
3.76052,637470
3.76865,606143
3.77677,568705
3.78490,548916
3.79302,544771
3.80113,709361
3.80927,1155208
3.81738,1647112
3.82550,1716282
3.83363,1370269
3.84175,1022215
3.84988,830250
3.85800,731652
3.86612,646281
3.87425,611026
3.88237,549989
3.89050,522576
3.89862,491072
3.90673,478219
3.91487,502388
3.92298,573045
3.93112,649819
3.93923,744801
3.94735,1334196
3.95548,3348072
3.96360,6426888
3.97172,7996133
3.97985,6648090
3.98797,4678708
3.99610,6020133
4.00422,1.423349E+07
4.01233,2.603928E+07
4.02047,3.191279E+07
4.02858,2.645377E+07
4.03672,1.580659E+07
4.04483,8070628
4.05295,4723936
4.06108,3248994
4.06920,2454849
4.07732,1971733
4.08545,1633318
4.09357,1422513
4.10170,1252388
4.10982,1107773
4.11793,1014106
4.12607,947646
4.13418,892434
4.14232,900648
4.15043,896390
4.15855,869644
4.16668,817599
4.17480,762280
4.18293,719063
4.19105,672293
4.19917,694947
4.20730,1183526
4.21542,3296824
4.22353,7544608
4.23167,1.199915E+07
4.23978,1.43535E+07
4.24792,1.333588E+07
4.25603,9485262
4.26415,5988479
4.27228,4079766
4.28040,2966284
4.28853,2288307
4.29665,1902828
4.30477,1572155
4.31290,1361299
4.32102,1225842
4.32913,1110061
4.33727,1017527
4.34538,950265
4.35352,940092
4.36163,896820
4.36975,862417
4.37788,810367
4.38600,769726
4.39413,711829
4.40225,678719
4.41037,634200
4.41850,619631
4.42662,598944
4.43475,562625
4.44287,547315
4.45098,542073
4.45912,523005
4.46723,515246
4.47535,498231
4.48348,490130
4.49160,485304
4.49973,474350
4.50785,456759
4.51597,431457
4.52410,448542
4.53222,438846
4.54035,422160
4.54847,418594
4.55658,402235
4.56472,389773
4.57283,390725
4.58097,383945
4.58908,372229
4.59720,365653
4.60533,352602
4.61345,359925
4.62157,380546
4.62970,451844
4.63782,594548
4.64595,656211
4.65407,613661
4.66218,531985
4.67032,443985
4.67843,404183
4.68657,384503
4.69468,360095
4.70280,351601
4.71093,338609
4.71905,328121
4.72718,325127
4.73530,320916
4.74342,311910
4.75155,315984
4.75967,306833
4.76778,296164
4.77592,290596
4.78403,317061
4.79217,406016
4.80028,583538
4.80840,752503
4.81653,757545
4.82465,653346
4.83278,543488
4.84090,501065
4.84902,477582
4.85715,452362
4.86527,431601
4.87338,392290
4.88152,372470
4.88963,352240
4.89777,343142
4.90588,330815
4.91400,320748
4.92213,334919
4.93025,429130
4.93838,753732
4.94650,1585873
4.95462,2793813
4.96275,3782646
4.97087,3855434
4.97900,3179442
4.98712,2322943
4.99523,1686449
5.00337,1240794
5.01148,1012922
5.01960,875580
5.02773,891969
5.03585,1059554
5.04398,1220011
5.05210,1188249
5.06022,1009796
5.06835,865699
5.07647,741455
5.08460,665273
5.09272,621873
5.10083,586849
5.10897,558293
5.11708,527883
5.12520,501559
5.13333,481043
5.14145,466613
5.14958,457940
5.15770,465802
5.16582,485514
5.17395,485592
5.18207,488370
5.19020,456310
5.19832,427613
5.20643,446112
5.21457,439453
5.22268,433370
5.23082,428909
5.23893,422062
5.24705,404032
5.25518,377056
5.26330,374198
5.27142,343134
5.27955,331465
5.28767,328024
5.29580,319468
5.30392,311093
5.31203,321097
5.32017,310244
5.32828,330280
5.33642,349037
5.34453,357712
5.35265,355559
5.36078,330153
5.36890,320564
5.37703,303822
5.38515,302812
5.39327,311620
5.40140,310507
5.40952,314371
5.41763,294042
5.42577,293991
5.43388,287667
5.44202,292045
5.45013,282778
5.45825,290012
5.46638,286698
5.47450,274432
5.48263,263246
5.49075,263774
5.49887,266438
5.50700,267176
5.51512,272128
5.52323,285315
5.53137,283024
5.53948,274770
5.54762,259468
5.55573,259839
5.56385,263439
5.57198,267534
5.58010,267953
5.58823,262792
5.59635,255413
5.60447,244812
5.61260,250709
5.62072,241351
5.62885,254804
5.63697,255989
5.64508,261202
5.65322,257057
5.66133,251303
5.66945,252524
5.67758,267676
5.68570,298512
5.69383,321555
5.70195,331536
5.71007,320372
5.71820,280866
5.72632,258924
5.73445,248220
5.74257,248944
5.75068,239067
5.75882,230731
5.76693,228482
5.77507,218053
5.78318,227108
5.79130,217085
5.79943,216323
5.80755,214727
5.81567,213713
5.82380,205597
5.83192,214423
5.84005,221154
5.84817,219422
5.85628,225650
5.86442,217215
5.87253,215350
5.88067,207149
5.88878,213972
5.89690,198154
5.90503,200526
5.91315,176284
5.92127,157475
5.92940,155829
5.93752,156229
5.94565,164391
5.95377,174274
5.96188,196619
5.97002,222971
5.97813,245482
5.98627,280488
5.99438,292525
6.00250,284512
6.01063,257592
6.01875,233464
6.02688,212467
6.03500,194417
6.04312,183149
6.05125,169264
6.05937,160417
6.06748,154033
6.07562,159107
6.08373,147098
6.09187,150088
6.09998,148960
6.10810,149686
6.11623,158038
6.12435,183647
6.13248,245947
6.14060,334640
6.14872,409475
6.15685,400584
6.16497,339492
6.17308,269317
6.18122,229395
6.18933,213717
6.19747,205973
6.20558,198056
6.21370,195214
6.22183,191930
6.22995,187242
6.23808,185215
6.24620,190930
6.25432,186874
6.26245,189453
6.27057,187730
6.27870,181037
6.28682,178946
6.29493,185736
6.30307,186348
6.31118,190075
6.31930,203026
6.32743,215917
6.33555,238506
6.34368,251700
6.35180,243517
6.35992,219595
6.36805,203574
6.37617,206776
6.38430,210822
6.39242,199801
6.40053,205145
6.40867,200338
6.41678,203115
6.42492,196499
6.43303,198207
6.44115,200864
6.44928,195347
6.45740,187293
6.46552,196116
6.47365,196948
6.48177,195604
6.48990,193412
6.49802,198627
6.50613,194736
6.51427,197466
6.52238,194345
6.53052,199293
6.53863,204988
6.54675,201742
6.55488,200683
6.56300,207572
6.57112,208417
6.57925,221620
6.58737,227398
6.59550,217589
6.60362,208231
6.61173,213049
6.61987,202098
6.62798,211495
6.63612,210767
6.64423,203863
6.65235,224051
6.66048,259726
6.66860,297162
6.67673,313043
6.68485,292975
6.69297,271750
6.70110,234171
6.70922,233201
6.71733,229611
6.72547,207452
6.73358,192897
6.74172,186479
6.74983,177245
6.75795,162901
6.76608,156194
6.77420,161515
6.78233,147023
6.79045,145433
6.79857,140438
6.80670,147898
6.81482,143838
6.82295,140687
6.83107,142620
6.83918,139994
6.84732,159637
6.85543,173080
6.86355,195815
6.87168,194145
6.87980,165383
6.88793,144606
6.89605,121637
6.90417,107502
6.91230,100130
6.92042,97573
6.92855,95470
6.93667,92175
6.94478,95224
6.95292,92858
6.96103,92684
6.96915,104321
6.97728,118944
6.98540,128579
6.99353,116747
7.00165,113597
7.00977,101885
7.01790,92275
7.02602,96212
7.03415,92970
7.04227,88367
7.05038,89541
7.05852,86945
7.06663,85831
7.07477,88345
7.08288,86457
7.09100,82724
7.09913,82904
7.10725,81176
7.11537,80561
7.12350,81890
7.13162,83193
7.13975,101181
7.14787,128222
7.15598,175833
7.16412,219430
7.17223,230523
7.18037,196731
7.18848,165283
7.19660,148484
7.20473,193142
7.21285,359055
7.22098,712806
7.22910,1156864
7.23722,1341863
7.24535,1148787
7.25347,778759
7.26158,467752
7.26972,303348
7.27783,212537
7.28597,150277
7.29408,121475
7.30220,106545
7.31033,106080
7.31845,106332
7.32658,120828
7.33470,115694
7.34282,113846
7.35095,104849
7.35907,107852
7.36718,101538
7.37532,100688
7.38343,97043
7.39157,97651
7.39968,103511
7.40780,103714
7.41593,97093
7.42405,95452
7.43218,99528
7.44030,98656
7.44842,91508
7.45655,98319
7.46467,92252
7.47280,87486
7.48092,85171
7.48903,84182
7.49717,83986
7.50528,80931
7.51340,82251
7.52153,91852
7.52965,103839
7.53778,128238
7.54590,155293
7.55402,179668
7.56215,206308
7.57027,202139
7.57840,178924
7.58652,151791
7.59463,128531
7.60277,113714
7.61088,100923
7.61900,91977
7.62713,85213
7.63525,84913
7.64338,85401
7.65150,78167
7.65962,76666
7.66775,79887
7.67587,84691
7.68400,77261
7.69212,76953
7.70023,76968
7.70837,72189
7.71648,74550
7.72462,69212
7.73273,74963
7.74085,76399
7.74898,80306
7.75710,79423
7.76522,84868
7.77335,84809
7.78147,87022
7.78960,89991
7.79772,87181
7.80583,88673
7.81397,90983
7.82208,89787
7.83022,79864
7.83833,80797
7.84645,74002
7.85458,75146
7.86270,73289
7.87083,74026
7.87895,75341
7.88707,77357
7.89520,79731
7.90332,78873
7.91143,79857
7.91957,80600
7.92768,86579
7.93582,108385
7.94393,112970
7.95205,120099
7.96018,115143
7.96830,106200
7.97643,94138
7.98455,85248
7.99267,76649
8.00080,74891
8.00892,72837
8.01703,66957
8.02517,69553
8.03328,70741
8.04142,72590
8.04953,71933
8.05765,69313
8.06578,66333
8.07390,66030
8.08203,65411
8.09015,68828
8.09827,65229
8.10640,65158
8.11452,65900
8.12265,66924
8.13077,72300
8.13888,80851
8.14702,93587
8.15513,99743
8.16325,99345
8.17138,89483
8.17950,81444
8.18763,74178
8.19575,73022
8.20387,63195
8.21200,66360
8.22012,66810
8.22825,70943
8.23637,70181
8.24448,67694
8.25262,70453
8.26073,66448
8.26887,64919
8.27698,63562
8.28510,63800
8.29323,60980
8.30135,66196
8.30947,62947
8.31760,71541
8.32572,69626
8.33385,72264
8.34197,70088
8.35008,65320
8.35822,67160
8.36633,67092
8.37447,67879
8.38258,73210
8.39070,69020
8.39883,71069
8.40695,61201
8.41507,61770
8.42320,56675
8.43132,59168
8.43945,58065
8.44757,60921
8.45568,58363
8.46382,56564
8.47193,60084
8.48007,60523
8.48818,62606
8.49630,57255
8.50443,63637
8.51255,64636
8.52068,86313
8.52880,155472
8.53692,261709
8.54505,365402
8.55317,407473
8.56128,354105
8.56942,243544
8.57753,161565
8.58567,122313
8.59378,108766
8.60190,120734
8.61003,125705
8.61815,127240
8.62628,115945
8.63440,102835
8.64252,90215
8.65065,83175
8.65877,76591
8.66688,73809
8.67502,72370
8.68313,71671
8.69127,72800
8.69938,75603
8.70750,71454
8.71563,72536
8.72375,70573
8.73188,69686
8.74000,82841
8.74812,128330
8.75625,249378
8.76437,513737
8.77250,886166
8.78062,1226187
8.78873,1279984
8.79687,1091639
8.80498,771761
8.81310,479598
8.82123,302770
8.82935,234623
8.83748,205545
8.84560,198112
8.85372,192630
8.86185,184886
8.86997,177936
8.87810,167052
8.88622,145282
8.89433,142209
8.90247,138885
8.91058,138053
8.91872,130101
8.92683,136577
8.93495,137804
8.94308,147788
8.95120,152237
8.95932,143574
8.96745,134410
8.97557,132064
8.98370,122983
8.99182,124056
8.99993,120279
9.00807,116174
9.01618,112046
9.02432,110688
9.03243,108028
9.04055,100251
9.04868,98364
9.05680,96588
9.06492,95736
9.07305,101272
9.08117,98002
9.08930,96251
9.09742,98799
9.10553,101840
9.11367,114589
9.12178,113699
9.12992,117685
9.13803,104772
9.14615,106265
9.15428,99447
9.16240,93537
9.17053,96955
9.17865,93365
9.18677,89134
9.19490,85654
9.20302,84300
9.21113,85742
9.21927,84895
9.22738,86405
9.23552,87417
9.24363,84092
9.25175,86321
9.25988,78940
9.26800,84543
9.27613,81601
9.28425,80562
9.29237,76330
9.30050,73747
9.30862,77513
9.31675,75623
9.32487,75327
9.33298,75512
9.34112,75268
9.34923,70715
9.35735,72519
9.36548,72896
9.37360,74662
9.38173,75123
9.38985,74419
9.39797,77926
9.40610,80687
9.41422,80249
9.42235,96635
9.43047,94282
9.43858,108797
9.44672,102119
9.45483,102808
9.46295,94443
9.47108,84662
9.47920,83852
9.48733,77165
9.49545,78048
9.50357,82063
9.51170,90181
9.51982,93441
9.52795,100372
9.53607,98455
9.54418,92502
9.55232,78717
9.56043,70340
9.56857,66384
9.57668,61881
9.58480,59293
9.59293,64437
9.60105,63554
9.60917,60400
9.61730,58346
9.62542,55584
9.63355,47555
9.64167,49151
9.64978,47275
9.65792,48607
9.66603,51372
9.67417,50950
9.68228,48707
9.69040,51811
9.69853,46429
9.70665,46672
9.71477,44883
9.72290,45820
9.73102,45143
9.73915,46957
9.74727,43506
9.75538,45416
9.76352,44922
9.77163,45330
9.77977,48678
9.78788,44749
9.79600,44344
9.80413,44720
9.81225,46628
9.82038,44381
9.82850,40262
9.83662,45190
9.84475,45495
9.85287,53414
9.86098,48847
9.86912,51276
9.87723,49763
9.88537,50933
9.89348,49036
9.90160,47771
9.90973,45764
9.91785,48933
9.92598,60863
9.93410,76731
9.94222,104331
9.95035,148722
9.95847,175965
9.96660,184219
9.97472,174398
9.98283,149199
9.99097,124652
9.99908,108212
10.00720,92366
10.01533,82016
10.02345,72786
10.03158,66066
10.03970,65948
10.04782,66131
10.05595,62565
10.06407,63642
10.07220,57121
10.08032,59709
10.08843,61943
10.09657,62339
10.10468,56205
10.11282,61898
10.12093,55094
10.12905,58777
10.13718,62722
10.14530,59657
10.15342,55667
10.16155,57057
10.16967,57508
10.17780,53078
10.18592,53512
10.19403,52094
10.20217,49374
10.21028,52951
10.21842,55794
10.22653,52020
10.23465,53924
10.24278,57440
10.25090,66295
10.25902,97724
10.26715,185094
10.27527,413233
10.28340,836403
10.29152,1376383
10.29963,2002307
10.30777,2821387
10.31588,4191015
10.32402,6035861
10.33213,7596495
10.34025,7779342
10.34838,6550756
10.35650,4660329
10.36463,3264011
10.37275,2376006
10.38087,1813182
10.38900,1354703
10.39712,952301
10.40523,676458
10.41337,514657
10.42148,441687
10.42962,380211
10.43773,354790
10.44585,321642
10.45398,299037
10.46210,280871
10.47023,255392
10.47835,243364
10.48647,240886
10.49460,213337
10.50272,204170
10.51083,198522
10.51897,185566
10.52708,177752
10.53522,170942
10.54333,167151
10.55145,163726
10.55958,162683
10.56770,165807
10.57583,161686
10.58395,152788
10.59207,144773
10.60020,142069
10.60832,136960
10.61645,128529
10.62457,128271
10.63268,121544
10.64082,121162
10.64893,116221
10.65705,112137
10.66518,112507
10.67330,105479
10.68143,113466
10.68955,101954
10.69767,103381
10.70580,107600
10.71392,103651
10.72205,105830
10.73017,100617
10.73828,104105
10.74642,96318
10.75453,96543
10.76267,94732
10.77078,91363
10.77890,91128
10.78703,92286
10.79515,84607
10.80327,81517
10.81140,90762
10.81952,80064
10.82765,78473
10.83577,79777
10.84388,75211
10.85202,74169
10.86013,71286
10.86827,73091
10.87638,69779
10.88450,68988
10.89263,74835
10.90075,69865
10.90887,69380
10.91700,75387
10.92512,67094
10.93325,70802
10.94137,74420
10.94948,68147
10.95762,68448
10.96573,69406
10.97387,68830
10.98198,74306
10.99010,72594
10.99823,72557
11.00635,70334
11.01448,68694
11.02260,65144
11.03072,65872
11.03885,65253
11.04697,64303
11.05508,63363
11.06322,63108
11.07133,64270
11.07947,67571
11.08758,65497
11.09570,66378
11.10383,67406
11.11195,66503
11.12008,60524
11.12820,53873
11.13632,58050
11.14445,60229
11.15257,54872
11.16070,54196
11.16882,59008
11.17693,56711
11.18507,63813
11.19318,60842
11.20130,60027
11.20943,64992
11.21755,60140
11.22568,58141
11.23380,59024
11.24192,54095
11.25005,55144
11.25817,55291
11.26630,52433
11.27442,49727
11.28253,49638
11.29067,52480
11.29878,54446
11.30690,61634
11.31503,81262
11.32315,120518
11.33128,167520
11.33940,217881
11.34752,250492
11.35565,245882
11.36377,225129
11.37190,172414
11.38002,131133
11.38813,108165
11.39627,92748
11.40438,80010
11.41252,81154
11.42063,73878
11.42875,71453
11.43688,76736
11.44500,68829
11.45312,68775
11.46125,65373
11.46937,69067
11.47750,74092
11.48562,80834
11.49373,98330
11.50187,106403
11.50998,114173
11.51812,108767
11.52623,101189
11.53435,92885
11.54248,95489
11.55060,85998
11.55872,71935
11.56685,75437
11.57497,65235
11.58310,68718
11.59122,73915
11.59933,81159
11.60747,106343
11.61558,124350
11.62372,135398
11.63183,126942
11.63995,109954
11.64808,90008
11.65620,76261
11.66433,65670
11.67245,68608
11.68057,69255
11.68870,66969
11.69682,72649
11.70493,72585
11.71307,79366
11.72118,75849
11.72932,73143
11.73743,72764
11.74555,67519
11.75368,64555
11.76180,59969
11.76993,56885
11.77805,57111
11.78617,59006
11.79430,62742
11.80242,60082
11.81055,67972
11.81867,61079
11.82678,60381
11.83492,61671
11.84303,56937
11.85115,60536
11.85928,55287
11.86740,57002
11.87553,54555
11.88365,53771
11.89177,50975
11.89990,54661
11.90802,53734
11.91615,55767
11.92427,60850
11.93238,67687
11.94052,66675
11.94863,61779
11.95675,62514
11.96488,64301
11.97300,82516
11.98113,138560
11.98925,266985
11.99737,489622
12.00550,717135
12.01362,879792
12.02175,862645
12.02987,692290
12.03798,495413
12.04612,343335
12.05423,216272
12.06237,176426
12.07048,159183
12.07860,135667
12.08673,125283
12.09485,122029
12.10297,124367
12.11110,117883
12.11922,109050
12.12735,105608
12.13547,108053
12.14358,104294
12.15172,100782
12.15983,97576
12.16797,87122
12.17608,87750
12.18420,85666
12.19233,85961
12.20045,86608
12.20858,93948
12.21670,83333
12.22482,85217
12.23295,79430
12.24107,79286
12.24918,79466
12.25732,77462
12.26543,78467
12.27357,74199
12.28168,73193
12.28980,76769
12.29793,71004
12.30605,71269
12.31418,67878
12.32230,69363
12.33042,64737
12.33855,66160
12.34667,66551
12.35478,62915
12.36292,63150
12.37103,61307
12.37917,68034
12.38728,65691
12.39540,69243
12.40353,78825
12.41165,93027
12.41978,98819
12.42790,107410
12.43602,105320
12.44415,99170
12.45227,84133
12.46040,79932
12.46852,77291
12.47663,70932
12.48477,68559
12.49288,68313
12.50100,66693
12.50913,68305
12.51725,65241
12.52538,80330
12.53350,120710
12.54162,233193
12.54975,445042
12.55787,699554
12.56600,893866
12.57412,889101
12.58223,693744
12.59037,462801
12.59848,280094
12.60662,183366
12.61473,143943
12.62285,126912
12.63098,112143
12.63910,105039
12.64722,100114
12.65535,94549
12.66347,85671
12.67160,84331
12.67972,76852
12.68783,72405
12.69597,72582
12.70408,71111
12.71222,71547
12.72033,73629
12.72845,77956
12.73658,88722
12.74470,81854
12.75282,86890
12.76095,78503
12.76907,70542
12.77720,69902
12.78532,63221
12.79343,60963
12.80157,61870
12.80968,57495
12.81782,55553
12.82593,56983
12.83405,56212
12.84218,53860
12.85030,50889
12.85843,56349
12.86655,55103
12.87467,60544
12.88280,52106
12.89092,53777
12.89903,55336
12.90717,53110
12.91528,51911
12.92342,51205
12.93153,51700
12.93965,51983
12.94778,63678
12.95590,96601
12.96403,155319
12.97215,239232
12.98027,315567
12.98840,342876
12.99652,303160
13.00463,222829
13.01277,163777
13.02088,121167
13.02902,99365
13.03713,87822
13.04525,83776
13.05338,93059
13.06150,101095
13.06963,99881
13.07775,109632
13.08587,107741
13.09400,96996
13.10212,90291
13.11025,76762
13.11837,70762
13.12648,70904
13.13462,74457
13.14273,67948
13.15085,69047
13.15898,72827
13.16710,66795
13.17523,66705
13.18335,63501
13.19147,59374
13.19960,64335
13.20772,66748
13.21585,65014
13.22397,66226
13.23208,71219
13.24022,66168
13.24833,58191
13.25647,58504
13.26458,57267
13.27270,56206
13.28083,57852
13.28895,55169
13.29707,49049
13.30520,50187
13.31332,47623
13.32145,52429
13.32957,47428
13.33768,47743
13.34582,47580
13.35393,52029
13.36207,51097
13.37018,51323
13.37830,54595
13.38643,48259
13.39455,45883
13.40267,48466
13.41080,47988
13.41892,45293
13.42705,39960
13.43517,44100
13.44328,47369
13.45142,42221
13.45953,43441
13.46767,46633
13.47578,49634
13.48390,50847
13.49203,45432
13.50015,48951
13.50828,48738
13.51640,49225
13.52452,48414
13.53265,51281
13.54077,51690
13.54888,51193
13.55702,47577
13.56513,50693
13.57327,52069
13.58138,53807
13.58950,57832
13.59763,65578
13.60575,89635
13.61388,118166
13.62200,143605
13.63012,151413
13.63825,136896
13.64637,104662
13.65450,83061
13.66262,66788
13.67073,58298
13.67887,49208
13.68698,55936
13.69510,55411
13.70323,48483
13.71135,56452
13.71948,55682
13.72760,69064
13.73572,133142
13.74385,310344
13.75197,774378
13.76010,1636619
13.76822,2771238
13.77633,3748166
13.78447,4116305
13.79258,3609418
13.80070,2695046
13.80883,1782858
13.81695,1173534
13.82508,798131
13.83320,663802
13.84132,603448
13.84945,554194
13.85757,496201
13.86570,433381
13.87382,386413
13.88193,350974
13.89007,319569
13.89818,294814
13.90632,271602
13.91443,262927
13.92255,257496
13.93068,241988
13.93880,235032
13.94692,234082
13.95505,259869
13.96317,271376
13.97130,316545
13.97942,355643
13.98753,364806
13.99567,344798
14.00378,306997
14.01192,267234
14.02003,236181
14.02815,217934
14.03628,203095
14.04440,190202
14.05252,186217
14.06065,192609
14.06877,182741
14.07690,179755
14.08502,175418
14.09313,166133
14.10127,169826
14.10938,168514
14.11752,167240
14.12563,171047
14.13375,179959
14.14188,202821
14.15000,222313
14.15813,239157
14.16625,249322
14.17437,276151
14.18250,321046
14.19062,388663
14.19873,468343
14.20687,491381
14.21498,446445
14.22312,374170
14.23123,284335
14.23935,247156
14.24748,234282
14.25560,213707
14.26373,187403
14.27185,177165
14.27997,151746
14.28810,138261
14.29622,133398
14.30435,125991
14.31247,120656
14.32058,117685
14.32872,110210
14.33683,111927
14.34495,103830
14.35308,98257
14.36120,89991
14.36933,84978
14.37745,82232
14.38557,88357
14.39370,114144
14.40182,152398
14.40995,231836
14.41807,329751
14.42618,388608
14.43432,389943
14.44243,312983
14.45057,229428
14.45868,162890
14.46680,129001
14.47493,110418
14.48305,97627
14.49117,95452
14.49930,94687
14.50742,93330
14.51555,101872
14.52367,102525
14.53178,106804
14.53992,105068
14.54803,91704
14.55617,84971
14.56428,77526
14.57240,74521
14.58053,72847
14.58865,71048
14.59677,72813
14.60490,66206
14.61302,64678
14.62115,65162
14.62927,62444
14.63738,63784
14.64552,66539
14.65363,63622
14.66177,66496
14.66988,60372
14.67800,62200
14.68613,57227
14.69425,61538
14.70238,60122
14.71050,58023
14.71862,63096
14.72675,60670
14.73487,63196
14.74298,62157
14.75112,64514
14.75923,67912
14.76737,67536
14.77548,68773
14.78360,73562
14.79173,106769
14.79985,202904
14.80798,430874
14.81610,876522
14.82422,1410163
14.83235,1900436
14.84047,2001161
14.84858,1738643
14.85672,1283702
14.86483,842053
14.87297,529096
14.88108,361795
14.88920,274532
14.89733,217624
14.90545,196255
14.91358,167468
14.92170,151865
14.92982,143054
14.93795,130858
14.94607,124418
14.95420,125976
14.96232,126901
14.97043,131637
14.97857,127415
14.98668,125543
14.99480,114917
15.00293,104179
15.01105,104214
15.01918,92351
15.02730,90725
15.03542,83755
15.04355,86960
15.05167,83087
15.05980,80401
15.06792,78240
15.07603,75244
15.08417,74638
15.09228,73607
15.10042,69370
15.10853,70443
15.11665,70894
15.12478,68252
15.13290,71252
15.14102,80814
15.14915,83650
15.15727,79831
15.16540,72938
15.17352,72619
15.18163,70980
15.18977,62173
15.19788,63790
15.20602,54788
15.21413,56845
15.22225,56436
15.23038,53743
15.23850,52917
15.24662,57727
15.25475,64476
15.26287,56063
15.27100,58281
15.27912,54706
15.28723,51125
15.29537,48389
15.30348,46643
15.31162,50183
15.31973,51089
15.32785,49145
15.33598,46670
15.34410,46203
15.35223,43594
15.36035,45384
15.36847,44067
15.37660,48812
15.38472,52217
15.39283,61486
15.40097,69498
15.40908,76670
15.41722,85588
15.42533,81777
15.43345,83563
15.44158,72636
15.44970,64966
15.45783,61291
15.46595,53626
15.47407,59072
15.48220,65904
15.49032,77466
15.49845,78500
15.50657,91505
15.51468,93453
15.52282,89223
15.53093,84395
15.53905,85771
15.54718,78214
15.55530,74809
15.56343,72583
15.57155,63827
15.57967,56021
15.58780,48474
15.59592,47671
15.60405,44840
15.61217,45566
15.62028,45737
15.62842,43415
15.63653,46566
15.64465,43110
15.65278,50786
15.66090,46563
15.66903,45105
15.67715,43869
15.68527,45453
15.69340,45595
15.70152,46652
15.70965,43646
15.71777,45844
15.72588,47083
15.73402,45359
15.74213,49185
15.75027,57705
15.75838,69488
15.76650,97837
15.77463,150204
15.78275,199118
15.79087,238924
15.79900,239989
15.80712,207475
15.81525,168987
15.82337,131645
15.83148,99063
15.83962,83040
15.84773,69470
15.85587,67580
15.86398,62879
15.87210,60583
15.88023,58405
15.88835,57953
15.89647,60327
15.90460,55357
15.91272,52754
15.92085,60966
15.92897,60590
15.93708,59881
15.94522,80169
15.95333,96470
15.96147,130203
15.96958,179621
15.97770,213327
15.98583,226393
15.99395,218334
16.00208,182669
16.01020,148651
16.01832,126163
16.02645,111543
16.03457,104625
16.04268,96965
16.05082,90810
16.05893,82551
16.06707,77725
16.07518,67867
16.08330,66079
16.09143,65902
16.09955,60818
16.10768,63014
16.11580,61968
16.12392,63649
16.13205,63715
16.14017,58783
16.14830,61844
16.15642,66210
16.16453,63543
16.17267,57188
16.18078,61458
16.18890,56896
16.19703,54492
16.20515,59227
16.21328,55921
16.22140,57631
16.22952,55561
16.23765,56864
16.24577,59702
16.25390,57955
16.26202,58989
16.27013,52886
16.27827,55349
16.28638,56412
16.29450,57659
16.30263,57496
16.31075,58354
16.31888,55856
16.32700,54537
16.33512,61310
16.34325,66924
16.35137,101151
16.35950,121066
16.36762,172115
16.37573,217769
16.38387,235618
16.39198,225749
16.40012,183318
16.40823,148106
16.41635,112421
16.42448,91724
16.43260,81277
16.44072,76560
16.44885,94315
16.45697,114923
16.46510,173884
16.47322,236791
16.48133,306673
16.48947,337138
16.49758,308318
16.50572,231217
16.51383,177879
16.52195,128053
16.53008,98272
16.53820,89327
16.54633,82044
16.55445,76178
16.56257,74449
16.57070,72741
16.57882,76208
16.58693,75677
16.59507,85102
16.60318,96964
16.61132,112529
16.61943,117363
16.62755,122264
16.63568,111306
16.64380,101044
16.65193,86875
16.66005,72420
16.66817,68865
16.67630,63956
16.68442,67578
16.69253,60999
16.70067,56133
16.70878,62797
16.71692,59294
16.72503,57499
16.73315,54648
16.74128,51062
16.74940,52109
16.75753,50415
16.76565,51880
16.77377,50881
16.78190,51991
16.79002,51469
16.79815,44931
16.80627,46943
16.81438,48402
16.82252,45938
16.83063,47392
16.83875,48007
16.84688,48417
16.85500,46436
16.86313,46391
16.87125,45569
16.87937,48830
16.88750,45449
16.89562,48633
16.90375,44902
16.91187,46527
16.91998,43908
16.92812,44099
16.93623,42844
16.94435,40647
16.95248,46644
16.96060,42426
16.96873,47095
16.97685,41809
16.98497,46460
16.99310,44088
17.00122,44213
17.00935,43621
17.01747,44997
17.02558,45918
17.03372,49755
17.04183,51563
17.04997,51346
17.05808,56071
17.06620,62876
17.07433,66689
17.08245,62644
17.09057,72657
17.09870,82492
17.10682,93671
17.11495,111536
17.12307,113875
17.13118,115656
17.13932,111491
17.14743,101407
17.15557,95707
17.16368,79410
17.17180,71467
17.17993,60422
17.18805,54326
17.19618,47743
17.20430,50973
17.21242,48581
17.22055,46053
17.22867,46228
17.23678,45749
17.24492,47395
17.25303,45512
17.26117,44386
17.26928,48002
17.27740,46110
17.28553,47222
17.29365,44867
17.30178,44819
17.30990,45611
17.31802,52017
17.32615,54255
17.33427,62530
17.34238,68862
17.35052,75079
17.35863,77858
17.36677,80959
17.37488,73877
17.38300,70642
17.39113,65620
17.39925,60670
17.40738,59407
17.41550,57658
17.42362,60352
17.43175,56305
17.43987,52217
17.44800,54406
17.45612,50572
17.46423,51471
17.47237,52002
17.48048,46412
17.48860,49913
17.49673,45341
17.50485,45341
17.51298,46230
17.52110,42091
17.52922,46443
17.53735,43535
17.54547,49822
17.55360,55305
17.56172,67126
17.56983,105559
17.57797,168182
17.58608,263835
17.59422,408664
17.60233,570859
17.61045,717472
17.61858,754841
17.62670,642337
17.63482,494879
17.64295,378154
17.65107,318053
17.65920,289978
17.66732,284573
17.67543,271182
17.68357,234681
17.69168,203715
17.69982,169898
17.70793,145325
17.71605,115929
17.72418,107721
17.73230,90779
17.74042,83447
17.74855,82570
17.75667,76232
17.76480,73570
17.77292,75759
17.78103,81097
17.78917,96003
17.79728,134816
17.80542,212037
17.81353,348138
17.82165,516159
17.82978,659120
17.83790,695930
17.84603,616044
17.85415,483218
17.86227,346170
17.87040,263024
17.87852,199766
17.88663,171644
17.89477,144214
17.90288,126183
17.91102,116807
17.91913,105821
17.92725,100120
17.93538,92350
17.94350,92231
17.95163,85900
17.95975,85650
17.96787,84969
17.97600,82689
17.98412,75016
17.99225,72653
18.00037,70193
18.00848,75283
18.01662,76808
18.02473,77632
18.03285,87141
18.04098,96330
18.04910,107154
18.05723,162108
18.06535,302496
18.07347,595687
18.08160,1008640
18.08972,1483071
18.09785,1773110
18.10597,1773431
18.11408,1480952
18.12222,1149431
18.13033,799483
18.13845,601757
18.14658,478164
18.15470,412831
18.16283,350415
18.17095,321706
18.17907,288896
18.18720,266502
18.19532,246899
18.20345,237653
18.21157,258948
18.21968,310792
18.22782,396552
18.23593,463399
18.24407,486261
18.25218,512824
18.26030,529741
18.26843,530437
18.27655,517565
18.28467,495146
18.29280,479566
18.30092,459838
18.30905,445191
18.31717,443477
18.32528,439028
18.33342,438232
18.34153,423708
18.34967,421892
18.35778,419573
18.36590,418956
18.37403,421822
18.38215,417386
18.39027,455850
18.39840,491723
18.40652,576324
18.41465,654093
18.42277,726403
18.43088,748868
18.43902,708794
18.44713,624176
18.45527,596876
18.46338,595080
18.47150,609366
18.47963,647386
18.48775,652943
18.49588,630912
18.50400,565022
18.51212,495565
18.52025,454675
18.52837,401378
18.53648,389533
18.54462,357775
18.55273,348749
18.56087,336671
18.56898,333525
18.57710,327114
18.58523,325289
18.59335,312041
18.60148,322114
18.60960,317714
18.61772,307210
18.62585,304442
18.63397,301549
18.64210,292643
18.65022,292186
18.65833,284510
18.66647,279547
18.67458,280481
18.68270,273280
18.69083,265790
18.69895,266669
18.70708,267765
18.71520,261957
18.72332,259656
18.73145,256942
18.73957,247830
18.74770,245492
18.75582,243733
18.76393,242099
18.77207,233788
18.78018,235127
18.78830,231363
18.79643,227000
18.80455,225460
18.81268,224685
18.82080,226436
18.82892,219754
18.83705,214993
18.84517,220576
18.85330,219878
18.86142,210006
18.86953,206820
18.87767,212083
18.88578,207863
18.89392,205951
18.90203,199636
18.91015,200919
18.91828,199557
18.92640,210186
18.93452,202352
18.94265,204838
18.95077,205086
18.95890,200388
18.96702,207580
18.97513,201136
18.98327,193487
18.99138,191666
18.99952,185693
19.00763,184551
19.01575,182665
19.02388,179285
19.03200,184042
19.04013,175718
19.04825,172482
19.05637,171153
19.06450,179737
19.07262,189517
19.08073,207079
19.08887,236708
19.09698,276989
19.10512,305503
19.11323,310910
19.12135,309898
19.12948,273840
19.13760,247799
19.14573,217837
19.15385,198573
19.16197,191355
19.17010,184652
19.17822,175950
19.18633,166656
19.19447,164151
19.20258,165794
19.21072,156500
19.21883,158137
19.22695,159963
19.23508,153082
19.24320,150042
19.25133,153126
19.25945,146483
19.26757,149923
19.27570,157864
19.28382,155407
19.29195,161659
19.30007,166099
19.30818,161854
19.31632,162338
19.32443,160348
19.33255,149873
19.34068,157919
19.34880,164770
19.35693,179033
19.36505,204882
19.37317,219040
19.38130,230287
19.38942,219925
19.39755,203621
19.40567,178395
19.41378,157945
19.42192,148773
19.43003,148154
19.43815,149417
19.44628,154489
19.45440,155079
19.46253,161834
19.47065,176816
19.47877,196669
19.48690,242923
19.49502,291880
19.50315,308422
19.51127,318638
19.51938,290274
19.52752,230723
19.53563,184191
19.54377,163094
19.55188,146846
19.56000,141239
19.56813,139686
19.57625,127181
19.58437,118353
19.59250,120890
19.60062,122406
19.60875,115231
19.61687,118463
19.62498,121774
19.63312,123019
19.64123,136564
19.64937,165403
19.65748,192681
19.66560,224467
19.67373,253226
19.68185,270826
19.68998,266732
19.69810,252163
19.70622,237324
19.71435,217770
19.72247,191052
19.73058,172734
19.73872,160786
19.74683,147909
19.75497,138440
19.76308,135297
19.77120,127339
19.77933,126112
19.78745,133093
19.79558,129125
19.80370,139544
19.81182,136435
19.81995,134139
19.82807,122668
19.83620,119246
19.84432,126180
19.85243,163060
19.86057,296955
19.86868,636951
19.87680,1324691
19.88493,2446018
19.89305,3785240
19.90118,4834785
19.90930,5228924
19.91742,4731330
19.92555,3779994
19.93367,2610844
19.94180,1813472
19.94992,1304264
19.95803,1037097
19.96617,871229
19.97428,786911
19.98240,729270
19.99053,664818
19.99865,634513
20.00678,595207
20.01490,555051
20.02302,534393
20.03115,505355
20.03927,447832
20.04740,397661
20.05552,332096
20.06363,292301
20.07177,244068
20.07988,204715
20.08802,189800
20.09613,174086
20.10425,170736
20.11238,163401
20.12050,149553
20.12862,144446
20.13675,139837
20.14487,134606
20.15300,138031
20.16112,144818
20.16923,145910
20.17737,157806
20.18548,164064
20.19362,159150
20.20173,171847
20.20985,163431
20.21798,160450
20.22610,154376
20.23422,143122
20.24235,144069
20.25047,156479
20.25860,181107
20.26672,203946
20.27483,236940
20.28297,254073
20.29108,260032
20.29922,243482
20.30733,226905
20.31545,193051
20.32358,165332
20.33170,147466
20.33983,130761
20.34795,118757
20.35607,107157
20.36420,99526
20.37232,91543
20.38043,87886
20.38857,89268
20.39668,86294
20.40482,84537
20.41293,83236
20.42105,87703
20.42918,96863
20.43730,94761
20.44543,104159
20.45355,107753
20.46167,110610
20.46980,111010
20.47792,118868
20.48605,107195
20.49417,101119
20.50228,92979
20.51042,90317
20.51853,86520
20.52665,78111
20.53478,81174
20.54290,77092
20.55103,78795
20.55915,81646
20.56727,80049
20.57540,79894
20.58352,78384
20.59165,70822
20.59977,73581
20.60788,73794
20.61602,70823
20.62413,70985
20.63225,71650
20.64038,69835
20.64850,77343
20.65663,83708
20.66475,73645
20.67287,76030
20.68100,75583
20.68912,73122
20.69725,70969
20.70537,73215
20.71348,70533
20.72162,66641
20.72973,73459
20.73787,65286
20.74598,72207
20.75410,67219
20.76223,67712
20.77035,74042
20.77847,74950
20.78660,87096
20.79472,115184
20.80285,150182
20.81097,200038
20.81908,234045
20.82722,253533
20.83533,221980
20.84347,175219
20.85158,135524
20.85970,106116
20.86783,86183
20.87595,81855
20.88408,69883
20.89220,74265
20.90032,73171
20.90845,68134
20.91657,72056
20.92468,67746
20.93282,72520
20.94093,67040
20.94907,70281
20.95718,68168
20.96530,67158
20.97343,63376
20.98155,61786
20.98968,63762
20.99780,59679
21.00592,58342
21.01405,62649
21.02217,60804
21.03028,61800
21.03842,66601
21.04653,63793
21.05467,64261
21.06278,66269
21.07090,62129
21.07903,63538
21.08715,65340
21.09528,61054
21.10340,60789
21.11152,62325
21.11965,55520
21.12777,57732
21.13590,65925
21.14402,70044
21.15213,75153
21.16027,76739
21.16838,84017
21.17650,86469
21.18463,81574
21.19275,73828
21.20088,71221
21.20900,68202
21.21712,65436
21.22525,63040
21.23337,63557
21.24150,62301
21.24962,61047
21.25773,62616
21.26587,62355
21.27398,62319
21.28210,58741
21.29023,58138
21.29835,55297
21.30648,57854
21.31460,59132
21.32272,60068
21.33085,55997
21.33897,56799
21.34710,55605
21.35522,58234
21.36333,58578
21.37147,61053
21.37958,61171
21.38772,63406
21.39583,68353
21.40395,84169
21.41208,92358
21.42020,93729
21.42832,84792
21.43645,79989
21.44457,74413
21.45270,69407
21.46082,68783
21.46893,64916
21.47707,63828
21.48518,60278
21.49332,62485
21.50143,60392
21.50955,59703
21.51768,57762
21.52580,59698
21.53393,59976
21.54205,57042
21.55017,59593
21.55830,57075
21.56642,54808
21.57453,59299
21.58267,67040
21.59078,71070
21.59892,83658
21.60703,82303
21.61515,87524
21.62328,84795
21.63140,85510
21.63953,88697
21.64765,86262
21.65577,92051
21.66390,90689
21.67202,87763
21.68013,89592
21.68827,87045
21.69638,83450
21.70452,76783
21.71263,74448
21.72075,71815
21.72888,66151
21.73700,67148
21.74513,67448
21.75325,60038
21.76137,64645
21.76950,62815
21.77762,60165
21.78575,66845
21.79387,69487
21.80198,76569
21.81012,71739
21.81823,80905
21.82635,80937
21.83448,89357
21.84260,80025
21.85073,76584
21.85885,72401
21.86697,69375
21.87510,63674
21.88322,62728
21.89135,56447
21.89947,60401
21.90758,59650
21.91572,60498
21.92383,55114
21.93197,52091
21.94008,51944
21.94820,51715
21.95633,54245
21.96445,56959
21.97257,49009
21.98070,49090
21.98882,50573
21.99695,48186
22.00507,55003
22.01318,47630
22.02132,49315
22.02943,44449
22.03757,50129
22.04568,51356
22.05380,53573
22.06193,52609
22.07005,49875
22.07817,47835
22.08630,45830
22.09442,48216
22.10255,48336
22.11067,49085
22.11878,49564
22.12692,50531
22.13503,49560
22.14317,51413
22.15128,49803
22.15940,48043
22.16753,47851
22.17565,51649
22.18378,51225
22.19190,48715
22.20002,48280
22.20815,49047
22.21627,51557
22.22438,54608
22.23252,52808
22.24063,50576
22.24877,50539
22.25688,49561
22.26500,50575
22.27313,53662
22.28125,52287
22.28938,56317
22.29750,56682
22.30562,52775
22.31375,54591
22.32187,58541
22.33000,55404
22.33812,55421
22.34623,57903
22.35437,59089
22.36248,50221
22.37060,51850
22.37873,55382
22.38685,59998
22.39498,62949
22.40310,73957
22.41122,93879
22.41935,108754
22.42747,108254
22.43560,106984
22.44372,91120
22.45183,82730
22.45997,71397
22.46808,71825
22.47620,69957
22.48433,73638
22.49245,84759
22.50058,89540
22.50870,88267
22.51682,91356
22.52495,89156
22.53307,84020
22.54120,75114
22.54932,74206
22.55743,69513
22.56557,62968
22.57368,64167
22.58182,61636
22.58993,54698
22.59805,54773
22.60618,56902
22.61430,56769
22.62242,55862
22.63055,58457
22.63867,53553
22.64680,55257
22.65492,55175
22.66303,54515
22.67117,59198
22.67928,63687
22.68742,59980
22.69553,63451
22.70365,71485
22.71178,67478
22.71990,70852
22.72802,72538
22.73615,71292
22.74427,71584
22.75240,64090
22.76052,57964
22.76863,62091
22.77677,63554
22.78488,64749
22.79302,73297
22.80113,79587
22.80925,89116
22.81738,95338
22.82550,92894
22.83363,84444
22.84175,78349
22.84987,69495
22.85800,64075
22.86612,65657
22.87423,66500
22.88237,69103
22.89048,81378
22.89862,84898
22.90673,113671
22.91485,141551
22.92298,164636
22.93110,174952
22.93923,169753
22.94735,148817
22.95547,128909
22.96360,102539
22.97172,91607
22.97985,85766
22.98797,74052
22.99608,70644
23.00422,67952
23.01233,66558
23.02045,62805
23.02858,59456
23.03670,62085
23.04483,68226
23.05295,67256
23.06107,68491
23.06920,69706
23.07732,74240
23.08545,73064
23.09357,75601
23.10168,74993
23.10982,70063
23.11793,76648
23.12605,69997
23.13418,73279
23.14230,73473
23.15043,76260
23.15855,74066
23.16667,72959
23.17480,76243
23.18292,76025
23.19105,79004
23.19917,78829
23.20728,79505
23.21542,75761
23.22353,69915
23.23167,75449
23.23978,75048
23.24790,77597
23.25603,82150
23.26415,84170
23.27227,80725
23.28040,82894
23.28852,81409
23.29665,80371
23.30477,77170
23.31288,78823
23.32102,74497
23.32913,77789
23.33727,92614
23.34538,113291
23.35350,153988
23.36163,205559
23.36975,282980
23.37788,393775
23.38600,531444
23.39412,624541
23.40225,740581
23.41037,822479
23.41848,863896
23.42662,880760
23.43473,863828
23.44287,851363
23.45098,805330
23.45910,766500
23.46723,707200
23.47535,664671
23.48348,621798
23.49160,568204
23.49972,509617
23.50785,464224
23.51597,439264
23.52408,395629
23.53222,365533
23.54033,338151
23.54847,330756
23.55658,303977
23.56470,287077
23.57283,282866
23.58095,276734
23.58908,289216
23.59720,293394
23.60532,292542
23.61345,293848
23.62157,274179
23.62970,255622
23.63782,237543
23.64593,234633
23.65407,234998
23.66218,241941
23.67030,253208
23.67843,238263
23.68655,224100
23.69468,196335
23.70280,173257
23.71092,160811
23.71905,157378
23.72717,148955
23.73530,137590
23.74342,157849
23.75153,196546
23.75967,324655
23.76778,563790
23.77590,970854
23.78403,1429663
23.79215,1874293
23.80028,2090395
23.80840,2025918
23.81652,1761035
23.82465,1439970
23.83277,1127612
23.84090,912366
23.84902,718774
23.85713,587504
23.86527,504003
23.87338,434978
23.88152,384590
23.88963,348773
23.89775,321079
23.90588,309597
23.91400,273374
23.92212,267049
23.93025,246457
23.93837,233410
23.94650,228030
23.95462,210805
23.96273,196430
23.97087,192169
23.97898,174432
23.98712,180537
23.99523,188089
24.00335,230714
24.01148,348331
24.01960,525485
24.02773,729851
24.03585,903202
24.04397,942553
24.05210,808903
24.06022,593889
24.06833,414337
24.07647,279374
24.08458,198694
24.09272,158463
24.10083,146266
24.10895,136397
24.11708,134762
24.12520,133619
24.13333,128788
24.14145,131029
24.14957,123238
24.15770,121158
24.16582,121807
24.17393,122297
24.18207,116036
24.19018,117743
24.19832,122049
24.20643,115221
24.21455,107800
24.22268,108127
24.23080,106070
24.23893,103884
24.24705,102360
24.25517,92403
24.26330,93305
24.27142,88788
24.27955,90447
24.28767,90431
24.29578,83461
24.30392,86419
24.31203,84036
24.32015,82984
24.32828,85412
24.33640,81597
24.34453,82843
24.35265,90023
24.36077,90963
24.36890,106443
24.37702,124981
24.38515,155762
24.39327,164455
24.40138,160576
24.40952,140905
24.41763,116698
24.42577,98592
24.43388,81051
24.44200,83268
24.45013,79440
24.45825,79110
24.46637,88537
24.47450,90576
24.48262,96800
24.49075,104969
24.49887,103221
24.50698,106258
24.51512,105749
24.52323,105767
24.53137,118522
24.53948,143490
24.54760,182488
24.55573,210774
24.56385,214756
24.57197,234828
24.58010,225934
24.58822,229773
24.59635,229952
24.60447,221945
24.61258,226900
24.62072,218498
24.62883,234548
24.63697,224640
24.64508,218797
24.65320,220018
24.66133,228251
24.66945,227124
24.67758,219405
24.68570,221755
24.69382,217275
24.70195,221714
24.71007,218348
24.71818,211655
24.72632,220182
24.73443,213735
24.74257,212512
24.75068,219017
24.75880,205798
24.76693,204735
24.77505,212558
24.78318,217328
24.79130,209557
24.79942,201792
24.80755,201812
24.81567,198368
24.82378,203969
24.83192,216357
24.84003,239775
24.84817,252028
24.85628,286033
24.86440,344655
24.87253,415634
24.88065,501106
24.88878,565940
24.89690,609508
24.90502,581645
24.91315,475428
24.92127,378966
24.92940,267019
24.93752,189689
24.94563,151820
24.95377,121130
24.96188,112724
24.97000,98640
24.97813,95641
24.98625,89220
24.99438,87521
25.00250,83835
25.01062,85076
25.01875,88269
25.02687,81895
25.03500,80089
25.04312,76468
25.05123,74471
25.05937,81582
25.06748,76923
25.07562,75105
25.08373,79076
25.09185,91797
25.09998,121027
25.10810,208629
25.11622,418187
25.12435,794575
25.13247,1342989
25.14060,1890005
25.14872,2291418
25.15683,2253212
25.16497,1910225
25.17308,1329441
25.18122,811369
25.18933,475816
25.19745,281968
25.20558,181783
25.21370,137481
25.22183,115405
25.22995,111764
25.23807,116629
25.24620,133472
25.25432,165863
25.26243,194248
25.27057,221873
25.27868,232243
25.28682,218114
25.29493,194279
25.30305,156810
25.31118,129718
25.31930,108535
25.32743,106620
25.33555,116104
25.34367,139962
25.35180,180886
25.35992,237208
25.36803,267691
25.37617,294716
25.38428,313685
25.39242,326967
25.40053,324778
25.40865,333357
25.41678,349073
25.42490,337837
25.43303,344575
25.44115,337505
25.44927,348184
25.45740,349819
25.46552,347862
25.47365,354543
25.48177,342488
25.48988,337208
25.49802,338710
25.50613,342390
25.51425,328760
25.52238,337099
25.53050,333549
25.53863,317023
25.54675,322851
25.55487,313783
25.56300,314526
25.57112,318337
25.57925,315528
25.58737,312374
25.59548,303664
25.60362,312491
25.61173,311460
25.61985,299508
25.62798,304568
25.63610,300697
25.64423,297306
25.65235,293018
25.66047,282097
25.66860,284657
25.67672,282496
25.68485,271474
25.69297,266397
25.70108,264299
25.70922,265207
25.71733,266699
25.72547,251515
25.73358,251024
25.74170,255468
25.74983,250429
25.75795,236169
25.76607,237421
25.77420,244220
25.78232,241991
25.79045,235069
25.79857,243308
25.80668,244517
25.81482,231065
25.82293,242136
25.83107,245132
25.83918,256937
25.84730,270497
25.85543,253320
25.86355,261712
25.87168,248936
25.87980,228004
25.88792,220882
25.89605,202908
25.90417,210939
25.91228,197743
25.92042,206794
25.92853,195267
25.93667,185409
25.94478,182575
25.95290,190969
25.96103,185808
25.96915,183694
25.97728,182347
25.98540,173744
25.99352,173046
26.00165,174796
26.00977,169409
26.01788,166671
26.02602,164474
26.03413,164412
26.04227,158139
26.05038,158007
26.05850,163564
26.06663,157792
26.07475,155815
26.08288,158916
26.09100,156449
26.09912,157245
26.10725,150719
26.11537,154725
26.12350,150865
26.13162,153872
26.13973,146121
26.14787,151447
26.15598,141191
26.16410,147884
26.17223,142040
26.18035,140296
26.18848,142795
26.19660,136150
26.20472,130865
26.21285,132480
26.22097,134213
26.22910,128871
26.23722,130714
26.24533,124839
26.25347,126532
26.26158,124875
26.26972,122012
26.27783,115764
26.28595,120676
26.29408,118962
26.30220,116750
26.31032,113583
26.31845,111562
26.32657,113758
26.33470,114027
26.34282,110748
26.35093,109244
26.35907,107283
26.36718,110608
26.37532,114879
26.38343,111754
26.39155,112367
26.39968,117134
26.40780,118306
26.41592,111241
26.42405,109772
26.43217,105707
26.44030,102224
26.44842,100290
26.45653,97715
26.46467,100551
26.47278,104369
26.48092,100291
26.48903,101901
26.49715,93432
26.50528,89521
26.51340,92774
26.52153,86323
26.52965,81438
26.53777,89189
26.54590,81935
26.55402,83322
26.56213,85146
26.57027,85370
26.57838,80735
26.58652,81378
26.59463,84054
26.60275,79408
26.61088,75804
26.61900,81015
26.62713,77324
26.63525,81220
26.64337,78022
26.65150,82137
26.65962,83426
26.66773,86198
26.67587,79040
26.68398,80924
26.69212,80623
26.70023,78294
26.70835,73723
26.71648,79046
26.72460,77831
26.73273,71832
26.74085,73404
26.74897,78843
26.75710,70126
26.76522,70882
26.77335,72663
26.78147,73791
26.78958,76897
26.79772,81803
26.80583,81553
26.81395,77799
26.82208,71661
26.83020,73563
26.83833,74840
26.84645,72483
26.85457,70845
26.86270,68877
26.87082,68118
26.87895,64005
26.88707,65434
26.89518,64797
26.90332,65720
26.91143,65071
26.91957,64217
26.92768,62651
26.93580,64833
26.94393,63221
26.95205,64438
26.96017,67911
26.96830,72746
26.97642,85851
26.98455,114598
26.99267,151078
27.00078,226839
27.00892,287197
27.01703,360265
27.02517,433630
27.03328,454453
27.04140,449845
27.04953,414721
27.05765,378002
27.06577,328067
27.07390,272107
27.08202,230969
27.09015,201687
27.09827,180336
27.10638,169039
27.11452,156055
27.12263,149753
27.13077,144151
27.13888,135782
27.14700,129281
27.15513,118493
27.16325,114417
27.17138,110349
27.17950,113567
27.18762,116397
27.19575,106746
27.20387,102332
27.21198,103881
27.22012,99122
27.22823,100759
27.23637,92790
27.24448,89560
27.25260,85684
27.26073,85746
27.26885,85993
27.27698,81723
27.28510,75121
27.29322,80546
27.30135,73555
27.30947,68762
27.31760,75775
27.32572,73044
27.33383,68239
27.34197,67953
27.35008,72427
27.35820,72709
27.36633,70938
27.37445,72470
27.38258,71533
27.39070,69756
27.39882,66391
27.40695,67712
27.41507,63809
27.42320,67969
27.43132,64322
27.43943,63670
27.44757,60940
27.45568,66383
27.46380,59484
27.47193,58856
27.48005,62699
27.48818,64373
27.49630,60283
27.50442,61819
27.51255,63646
27.52067,61906
27.52880,63294
27.53692,66076
27.54503,61658
27.55317,60552
27.56128,63221
27.56942,66136
27.57753,70779
27.58565,73542
27.59378,77102
27.60190,87084
27.61002,83025
27.61815,78234
27.62627,73610
27.63440,65835
27.64252,58851
27.65063,59327
27.65877,60715
27.66688,56726
27.67502,58432
27.68313,61122
27.69125,66442
27.69938,60665
27.70750,68177
27.71563,56878
27.72375,54924
27.73187,53431
27.74000,51420
27.74812,49585
27.75623,48488
27.76437,52746
27.77248,54577
27.78062,56433
27.78873,57021
27.79685,58191
27.80498,55454
27.81310,55199
27.82123,53967
27.82935,54149
27.83747,56255
27.84560,51068
27.85372,54368
27.86183,55739
27.86997,53783
27.87808,51058
27.88622,50641
27.89433,53136
27.90245,49064
27.91058,50890
27.91870,48114
27.92683,49544
27.93495,49835
27.94307,51242
27.95120,49327
27.95932,48852
27.96745,48094
27.97557,46928
27.98368,48049
27.99182,49535
27.99993,51050
28.00805,53230
28.01618,50327
28.02430,53718
28.03243,59399
28.04055,65046
28.04867,69671
28.05680,69150
28.06492,68182
28.07305,67192
28.08117,64862
28.08928,60368
28.09742,65169
28.10553,56712
28.11365,55863
28.12178,56120
28.12990,54352
28.13803,49924
28.14615,46007
28.15427,47292
28.16240,48616
28.17052,51721
28.17865,50584
28.18677,55869
28.19488,62334
28.20302,70820
28.21113,73794
28.21927,80759
28.22738,78724
28.23550,77576
28.24363,70219
28.25175,66465
28.25987,59493
28.26800,55742
28.27612,51128
28.28425,53346
28.29237,54103
28.30048,59255
28.30862,60825
28.31673,69646
28.32487,83104
28.33298,95113
28.34110,110810
28.34923,120850
28.35735,142843
28.36548,153920
28.37360,171510
28.38172,176120
28.38985,184743
28.39797,197591
28.40608,192000
28.41422,190583
28.42233,179305
28.43047,168514
28.43858,161584
28.44670,150387
28.45483,143153
28.46295,129610
28.47108,121923
28.47920,116232
28.48732,113884
28.49545,99954
28.50357,95448
28.51168,96087
28.51982,89937
28.52793,86309
28.53607,88951
28.54418,83037
28.55230,77455
28.56043,75503
28.56855,77116
28.57668,74556
28.58480,72136
28.59292,69208
28.60105,72584
28.60917,69779
28.61730,74594
28.62542,72476
28.63353,66503
28.64167,72404
28.64978,68248
28.65790,73298
28.66603,71960
28.67415,73680
28.68228,69881
28.69040,67089
28.69852,66118
28.70665,64317
28.71477,61975
28.72290,60258
28.73102,61778
28.73913,70448
28.74727,72986
28.75538,84372
28.76352,89381
28.77163,88659
28.77975,91396
28.78788,74239
28.79600,65547
28.80412,72478
28.81225,67442
28.82037,66679
28.82850,64778
28.83662,68055
28.84473,63032
28.85287,65746
28.86098,63779
28.86912,63252
28.87723,68604
28.88535,66947
28.89348,77556
28.90160,75428
28.90972,74483
28.91785,76888
28.92597,67830
28.93410,67118
28.94222,60998
28.95033,63887
28.95847,63318
28.96658,65358
28.97472,65346
28.98283,55993
28.99095,52903
28.99908,54832
29.00720,56316
29.01533,51752
29.02345,52071
29.03157,50279
29.03970,53086
29.04782,54908
29.05593,56910
29.06407,52052
29.07218,52128
29.08032,51639
29.08843,55835
29.09655,57594
29.10468,56438
29.11280,54236
29.12093,51892
29.12905,51704
29.13717,51547
29.14530,51362
29.15342,52208
29.16153,51054
29.16967,55838
29.17778,52587
29.18592,64330
29.19403,73628
29.20215,79354
29.21028,92336
29.21840,99788
29.22653,94614
29.23465,96074
29.24277,91679
29.25090,93013
29.25902,91638
29.26715,98043
29.27527,100893
29.28338,88265
29.29152,84773
29.29963,76184
29.30775,64419
29.31588,63434
29.32400,54091
29.33213,49978
29.34025,50734
29.34837,46138
29.35650,45743
29.36462,47295
29.37275,50010
29.38087,47577
29.38898,50101
29.39712,49910
29.40523,46671
29.41337,51957
29.42148,56012
29.42960,54994
29.43773,53536
29.44585,52233
29.45397,54005
29.46210,49723
29.47022,50573
29.47835,50198
29.48647,48248
29.49458,52753
29.50272,50390
29.51083,50919
29.51897,51603
29.52708,53154
29.53520,51736
29.54333,43959
29.55145,47030
29.55958,44800
29.56770,47534
29.57582,47394
29.58395,41478
29.59207,43155
29.60018,46074
29.60832,43243
29.61643,43990
29.62457,43622
29.63268,44503
29.64080,45997
29.64893,48160
29.65705,47348
29.66518,44365
29.67330,48382
29.68142,49283
29.68955,49888
29.69767,48350
29.70578,54256
29.71392,51357
29.72203,52377
29.73017,50778
29.73828,45040
29.74640,45750
29.75453,44871
29.76265,45343
29.77078,45856
29.77890,41129
29.78702,41057
29.79515,45911
29.80327,41304
29.81140,42300
29.81952,41509
29.82763,44811
29.83577,45206
29.84388,42531
29.85200,44240
29.86013,47296
29.86825,50779
29.87638,55108
29.88450,63581
29.89262,79139
29.90075,83753
29.90887,88927
29.91700,79171
29.92512,75351
29.93323,64147
29.94137,58008
29.94948,54980
29.95760,59797
29.96573,68324
29.97385,69152
29.98198,76553
29.99010,79958
29.99822,85361
30.00635,92433
30.01447,96218
30.02260,100942
30.03072,104791
30.03883,105623
30.04697,110218
30.05508,111106
30.06322,109387
30.07133,108142
30.07945,108625
30.08758,106652
30.09570,105309
30.10382,105824
30.11195,100239
30.12007,89750
30.12820,98027
30.13632,87947
30.14443,88613
30.15257,83466
30.16068,82648
30.16882,73174
30.17693,83158
30.18505,75530
30.19318,80043
30.20130,75516
30.20943,71648
30.21755,74120
30.22567,72572
30.23380,64894
30.24192,64888
30.25003,61942
30.25817,64269
30.26628,61407
30.27442,56021
30.28253,60669
30.29065,58268
30.29878,58757
30.30690,56395
30.31503,56684
30.32315,53857
30.33127,57132
30.33940,55768
30.34752,54538
30.35563,53720
30.36377,54537
30.37188,53845
30.38002,57278
30.38813,54061
30.39625,53398
30.40438,47780
30.41250,50253
30.42063,54365
30.42875,50661
30.43687,49613
30.44500,49101
30.45312,48965
30.46125,48929
30.46937,44878
30.47748,51172
30.48562,47936
30.49373,46734
30.50185,49120
30.50998,49035
30.51810,45969
30.52623,46315
30.53435,50674
30.54247,44182
30.55060,47355
30.55872,45794
30.56685,45313
30.57497,47729
30.58308,45563
30.59122,47198
30.59933,48965
30.60747,47293
30.61558,51772
30.62370,46655
30.63183,48763
30.63995,48178
30.64807,45273
30.65620,44328
30.66432,43467
30.67245,45406
30.68057,42312
30.68868,42450
30.69682,43857
30.70493,42449
30.71307,41262
30.72118,44085
30.72930,44543
30.73743,45724
30.74555,43309
30.75367,43896
30.76180,43460
30.76992,49064
30.77805,58798
30.78617,73976
30.79428,90528
30.80242,111663
30.81053,122680
30.81867,131525
30.82678,125754
30.83490,115449
30.84303,97127
30.85115,93346
30.85928,85698
30.86740,80787
30.87552,84410
30.88365,86450
30.89177,84685
30.89988,87422
30.90802,86952
30.91613,82607
30.92427,82896
30.93238,84958
30.94050,88987
30.94863,84366
30.95675,84962
30.96488,86078
30.97300,82661
30.98112,87164
30.98925,84693
30.99737,86781
31.00548,85018
31.01362,86482
31.02173,92865
31.02987,87752
31.03798,92382
31.04610,89105
31.05423,89137
31.06235,87021
31.07048,93627
31.07860,91456
31.08672,95690
31.09485,99603
31.10297,107724
31.11110,107884
31.11922,107715
31.12733,97508
31.13547,89801
31.14358,87742
31.15170,86847
31.15983,88713
31.16795,88645
31.17608,91072
31.18420,99645
31.19232,108671
31.20045,127739
31.20857,155142
31.21670,180899
31.22482,183128
31.23293,195423
31.24107,175271
31.24918,153942
31.25732,130255
31.26543,110320
31.27355,92352
31.28168,88236
31.28980,82863
31.29792,85452
31.30605,73037
31.31417,76736
31.32230,82409
31.33042,72663
31.33853,79370
31.34667,81324
31.35478,75570
31.36292,75183
31.37103,78896
31.37915,75281
31.38728,79071
31.39540,74555
31.40352,79446
31.41165,74384
31.41977,79966
31.42790,75467
31.43602,68349
31.44413,69589
31.45227,66846
31.46038,66765
31.46852,65455
31.47663,66228
31.48475,67099
31.49288,71304
31.50100,67735
31.50913,66869
31.51725,68968
31.52537,69507
31.53350,62436
31.54162,68515
31.54973,65085
31.55787,72237
31.56598,62668
31.57412,66085
31.58223,63657
31.59035,63576
31.59848,63021
31.60660,63336
31.61473,62574
31.62285,63865
31.63097,63514
31.63910,64916
31.64722,63592
31.65535,65640
31.66347,66359
31.67158,67709
31.67972,65150
31.68783,65884
31.69595,64857
31.70408,64725
31.71220,62398
31.72033,57508
31.72845,60503
31.73657,58482
31.74470,56106
31.75282,55471
31.76095,51559
31.76907,57893
31.77718,57429
31.78532,53930
31.79343,54815
31.80155,56050
31.80968,57563
31.81780,58796
31.82593,57707
31.83405,55839
31.84217,62921
31.85030,56798
31.85842,57398
31.86655,58655
31.87467,56648
31.88278,61801
31.89092,65373
31.89903,66102
31.90717,74773
31.91528,86285
31.92340,90008
31.93153,89184
31.93965,95028
31.94777,97068
31.95590,103519
31.96402,106083
31.97215,105837
31.98027,104691
31.98838,107711
31.99652,106950
32.00463,103079
32.01277,104811
32.02088,100325
32.02900,105642
32.03713,97329
32.04525,96000
32.05338,93185
32.06150,91890
32.06962,89339
32.07775,89547
32.08587,83021
32.09398,81245
32.10212,76995
32.11023,73367
32.11837,68333
32.12648,63410
32.13460,67741
32.14273,66407
32.15085,66667
32.15898,63297
32.16710,61871
32.17522,60968
32.18335,59326
32.19147,61350
32.19958,64111
32.20772,62569
32.21583,56931
32.22397,60787
32.23208,58170
32.24020,55883
32.24833,60727
32.25645,59855
32.26458,62397
32.27270,62339
32.28082,61699
32.28895,60153
32.29707,64578
32.30520,55520
32.31332,57923
32.32143,51683
32.32957,55752
32.33768,53628
32.34580,55160
32.35393,56204
32.36205,54296
32.37018,50792
32.37830,55176
32.38642,54172
32.39455,52783
32.40267,51857
32.41080,55765
32.41892,53639
32.42703,50887
32.43517,49142
32.44328,48419
32.45140,50956
32.45953,50179
32.46765,52425
32.47578,49752
32.48390,50772
32.49202,51191
32.50015,49867
32.50827,50777
32.51640,49267
32.52452,50261
32.53263,48648
32.54077,52782
32.54888,47555
32.55702,48537
32.56513,48847
32.57325,48231
32.58138,48466
32.58950,46314
32.59762,45377
32.60575,47154
32.61387,48120
32.62200,52340
32.63012,52148
32.63823,56108
32.64637,66255
32.65448,64893
32.66262,64617
32.67073,65968
32.67885,57670
32.68698,55012
32.69510,53913
32.70323,53667
32.71135,51343
32.71947,51815
32.72760,49734
32.73572,50277
32.74383,49510
32.75197,45321
32.76008,49868
32.76822,48682
32.77633,42890
32.78445,47900
32.79258,46116
32.80070,48220
32.80883,42242
32.81695,47292
32.82507,43144
32.83320,44329
32.84132,43994
32.84943,45020
32.85757,48647
32.86568,47418
32.87382,46731
32.88193,44956
32.89005,47694
32.89818,50405
32.90630,49270
32.91443,48731
32.92255,49234
32.93067,47174
32.93880,47814
32.94692,52204
32.95505,49630
32.96317,48771
32.97128,52634
32.97942,55881
32.98753,59331
32.99565,63012
33.00378,66982
33.01190,69737
33.02003,70049
33.02815,67244
33.03627,55947
33.04440,55590
33.05252,53231
33.06065,50015
33.06877,55675
33.07688,58600
33.08502,61145
33.09313,61835
33.10127,65275
33.10938,65925
33.11750,71274
33.12563,69262
33.13375,65378
33.14187,63457
33.15000,59507
33.15812,56603
33.16625,52689
33.17437,49793
33.18248,49819
33.19062,51132
33.19873,47150
33.20687,48834
33.21498,46100
33.22310,46341
33.23123,47328
33.23935,47079
33.24747,46464
33.25560,48127
33.26372,46297
33.27185,48006
33.27997,49005
33.28808,46190
33.29622,50425
33.30433,45757
33.31247,46722
33.32058,48232
33.32870,45426
33.33683,45158
33.34495,48217
33.35308,47934
33.36120,50359
33.36932,50914
33.37745,48541
33.38557,45855
33.39368,48211
33.40182,47659
33.40993,45856
33.41807,46556
33.42618,44419
33.43430,43194
33.44243,46393
33.45055,47634
33.45868,46194
33.46680,45323
33.47492,47326
33.48305,45445
33.49117,49904
33.49928,42104
33.50742,46526
33.51553,47250
33.52367,47293
33.53178,50087
33.53990,48983
33.54803,56375
33.55615,54193
33.56428,56046
33.57240,55228
33.58052,55160
33.58865,48701
33.59677,49383
33.60490,45283
33.61302,43257
33.62113,48257
33.62927,44789
33.63738,48563
33.64550,45557
33.65363,50701
33.66175,52144
33.66988,48754
33.67800,48199
33.68612,50451
33.69425,47570
33.70237,46746
33.71050,46265
33.71862,44641
33.72673,45744
33.73487,43823
33.74298,45817
33.75112,44502
33.75923,44965
33.76735,44493
33.77548,43296
33.78360,45549
33.79172,42450
33.79985,43506
33.80797,45631
33.81610,44421
33.82422,45584
33.83233,46737
33.84047,44141
33.84858,46028
33.85672,46973
33.86483,50320
33.87295,45841
33.88108,42735
33.88920,46122
33.89733,47207
33.90545,52255
33.91357,48157
33.92170,46689
33.92982,47518
33.93793,47734
33.94607,44457
33.95418,47494
33.96232,44838
33.97043,46571
33.97855,45879
33.98668,42747
33.99480,48283
34.00293,45174
34.01105,46806
34.01917,53193
34.02730,46531
34.03542,49577
34.04353,42612
34.05167,50075
34.05978,44382
34.06792,49691
34.07603,44910
34.08415,46537
34.09228,52257
34.10040,44316
34.10853,43642
34.11665,46929
34.12477,46830
34.13290,47697
34.14102,49023
34.14915,45439
34.15727,43171
34.16538,44184
34.17352,46931
34.18163,46463
34.18975,47335
34.19788,45752
34.20600,47311
34.21413,48612
34.22225,44639
34.23037,45227
34.23850,48961
34.24662,45597
34.25475,45368
34.26287,42783
34.27098,42692
34.27912,45532
34.28723,44228
34.29535,45414
34.30348,47055
34.31160,46855
34.31973,48589
34.32785,45581
34.33597,53232
34.34410,47148
34.35222,48352
34.36035,44592
34.36847,48347
34.37658,46143
34.38472,46960
34.39283,43375
34.40097,44466
34.40908,45269
34.41720,46702
34.42533,46414
34.43345,46059
34.44157,44338
34.44970,46110
34.45782,44464
34.46595,46048
34.47407,45172
34.48218,46372
34.49032,51463
34.49843,47381
34.50657,60161
34.51468,66049
34.52280,72810
34.53093,77142
34.53905,88252
34.54718,92484
34.55530,91616
34.56342,95293
34.57155,89879
34.57967,90785
34.58778,84058
34.59592,79794
34.60403,72925
34.61217,71346
34.62028,65807
34.62840,64095
34.63653,67163
34.64465,65575
34.65278,59821
34.66090,58090
34.66902,60425
34.67715,56297
34.68527,56315
34.69338,53714
34.70152,52448
34.70963,58403
34.71777,54815
34.72588,55082
34.73400,57027
34.74213,54957
34.75025,52165
34.75838,49657
34.76650,55216
34.77462,51789
34.78275,55271
34.79087,58109
34.79900,56193
34.80712,52606
34.81523,51302
34.82337,51691
34.83148,54351
34.83960,53582
34.84773,59362
34.85585,54334
34.86398,50338
34.87210,46515
34.88022,51520
34.88835,52311
34.89647,54867
34.90460,53766
34.91272,53847
34.92083,54263
34.92897,53119
34.93708,55946
34.94522,59239
34.95333,55923
34.96145,59477
34.96958,61654
34.97770,63902
34.98582,61592
34.99395,59158
35.00207,56980
35.01020,58025
35.01832,53246
35.02643,49988
35.03457,47321
35.04268,48511
35.05082,50637
35.05893,50783
35.06705,49960
35.07518,46217
35.08330,48070
35.09142,47933
35.09955,48138
35.10767,52532
35.11580,48812
35.12392,56125
35.13203,51160
35.14017,53547
35.14828,45929
35.15642,52156
35.16453,52282
35.17265,52305
35.18078,47937
35.18890,50878
35.19703,48654
35.20515,46816
35.21327,48555
35.22140,49516
35.22952,48019
35.23763,45978
35.24577,44483
35.25388,50833
35.26202,46557
35.27013,52167
35.27825,51288
35.28638,50111
35.29450,53265
35.30263,49182
35.31075,49790
35.31887,49014
35.32700,46320
35.33512,45671
35.34323,48622
35.35137,49481
35.35948,47801
35.36762,53580
35.37573,47856
35.38385,47433
35.39198,50599
35.40010,53163
35.40823,46597
35.41635,49773
35.42447,54564
35.43260,50296
35.44072,52419
35.44885,52350
35.45697,53038
35.46508,56686
35.47322,54126
35.48133,52796
35.48945,54443
35.49758,52323
35.50570,52720
35.51383,51845
35.52195,49149
35.53007,49156
35.53820,49947
35.54632,50295
35.55445,49747
35.56257,47781
35.57068,55104
35.57882,51401
35.58693,51552
35.59507,52835
35.60318,52652
35.61130,47749
35.61943,49749
35.62755,48710
35.63567,47450
35.64380,52227
35.65192,48031
35.66005,52126
35.66817,51436
35.67628,49492
35.68442,50218
35.69253,52133
35.70067,49244
35.70878,47930
35.71690,46864
35.72503,51947
35.73315,52964
35.74127,49879
35.74940,55915
35.75752,53677
35.76565,53780
35.77377,54608
35.78188,51023
35.79002,51856
35.79813,50719
35.80627,52609
35.81438,48771
35.82250,52893
35.83063,47144
35.83875,49035
35.84688,44311
35.85500,51945
35.86312,48128
35.87125,52011
35.87937,50244
35.88748,48960
35.89562,50741
35.90373,51986
35.91187,50400
35.91998,49978
35.92810,49715
35.93623,50276
35.94435,45657
35.95248,48341
35.96060,49228
35.96872,50451
35.97685,54283
35.98497,51844
35.99310,46096
36.00122,49589
36.00933,51897
36.01747,51555
36.02558,52913
36.03370,54406
36.04183,55449
36.04995,55430
36.05808,54877
36.06620,52545
36.07432,47154
36.08245,51758
36.09057,51278
36.09870,47493
36.10682,49753
36.11493,55311
36.12307,50930
36.13118,50653
36.13930,55045
36.14743,49832
36.15555,52223
36.16368,54419
36.17180,53931
36.17992,50424
36.18805,50570
36.19617,48630
36.20430,49173
36.21242,46134
36.22053,52479
36.22867,51416
36.23678,49362
36.24492,47484
36.25303,44048
36.26115,50282
36.26928,52400
36.27740,58100
36.28552,59353
36.29365,60930
36.30177,66821
36.30990,69589
36.31802,63206
36.32613,58563
36.33427,58170
36.34238,59132
36.35052,59525
36.35863,66146
36.36675,59674
36.37488,65697
36.38300,65372
36.39112,68110
36.39925,70359
36.40737,74512
36.41550,65723
36.42362,72750
36.43173,69331
36.43987,66247
36.44798,76612
36.45612,69954
36.46423,68699
36.47235,70649
36.48048,70794
36.48860,74710
36.49673,68540
36.50485,69700
36.51297,70766
36.52110,72884
36.52922,69012
36.53733,69879
36.54547,73981
36.55358,71290
36.56172,68164
36.56983,71632
36.57795,73422
36.58608,70993
36.59420,73763
36.60233,73222
36.61045,70329
36.61857,69567
36.62670,71456
36.63482,69731
36.64295,73086
36.65107,73520
36.65918,68949
36.66732,69369
36.67543,72417
36.68355,71599
36.69168,68311
36.69980,69322
36.70793,67870
36.71605,68267
36.72417,70284
36.73230,68767
36.74042,67222
36.74855,69219
36.75667,68631
36.76478,65471
36.77292,70065
36.78103,63626
36.78915,65467
36.79728,63642
36.80540,64297
36.81353,67788
36.82165,66717
36.82977,66851
36.83790,65507
36.84602,67502
36.85415,65372
36.86227,71969
36.87038,62958
36.87852,64464
36.88663,63539
36.89477,61954
36.90288,61937
36.91100,65659
36.91913,65640
36.92725,65321
36.93537,72645
36.94350,72311
36.95162,75686
36.95975,78435
36.96787,81704
36.97598,82379
36.98412,76377
36.99223,75678
37.00037,71774
37.00848,72191
37.01660,69229
37.02473,67069
37.03285,68889
37.04098,63415
37.04910,65614
37.05722,64656
37.06535,64464
37.07347,63490
37.08158,62650
37.08972,63934
37.09783,64833
37.10597,64423
37.11408,60916
37.12220,66558
37.13033,64495
37.13845,64033
37.14658,63651
37.15470,60073
37.16282,64436
37.17095,63230
37.17907,66192
37.18718,67738
37.19532,65453
37.20343,63650
37.21157,60452
37.21968,60584
37.22780,63772
37.23593,61643
37.24405,65438
37.25218,61393
37.26030,58259
37.26842,62217
37.27655,61462
37.28467,62997
37.29280,66484
37.30092,66110
37.30903,73977
37.31717,82309
37.32528,85640
37.33340,94656
37.34153,99088
37.34965,99634
37.35778,95930
37.36590,94647
37.37402,90070
37.38215,88277
37.39027,84517
37.39840,76180
37.40652,79456
37.41463,77057
37.42277,76432
37.43088,76758
37.43902,78530
37.44713,72217
37.45525,80667
37.46338,71878
37.47150,72416
37.47962,73930
37.48775,70109
