Z:\data\JTB-E02\BACandBLUE\JTB-E02-190-12.D Tue Dec 11 15:32:06 2018
Start of data points
2.09533,85527
2.10347,88410
2.11158,86431
2.11970,83193
2.12783,89431
2.13595,81444
2.14408,87921
2.15220,82169
2.16032,91036
2.16845,85125
2.17657,88403
2.18470,82104
2.19282,80694
2.20093,75606
2.20907,77636
2.21718,74381
2.22530,74854
2.23343,73404
2.24155,72751
2.24968,69928
2.25780,83620
2.26592,307260
2.27405,774804
2.28217,1211353
2.29030,830162
2.29842,461164
2.30653,334156
2.31467,282457
2.32278,251649
2.33090,220671
2.33903,209148
2.34715,189259
2.35528,184443
2.36340,180030
2.37152,171816
2.37965,173965
2.38777,171462
2.39590,159751
2.40402,161399
2.41213,158928
2.42027,155039
2.42838,153875
2.43652,152870
2.44463,145139
2.45275,137892
2.46088,141881
2.46900,139466
2.47712,135899
2.48525,134258
2.49337,139194
2.50150,143570
2.50962,133307
2.51773,133782
2.52587,130462
2.53398,128308
2.54212,124647
2.55023,141537
2.55835,139748
2.56648,138616
2.57460,124396
2.58273,120628
2.59085,120289
2.59897,149746
2.60710,261765
2.61522,400510
2.62333,352965
2.63147,242012
2.63958,193452
2.64772,170472
2.65583,156236
2.66395,133646
2.67208,130430
2.68020,134606
2.68833,119406
2.69645,116067
2.70457,121300
2.71270,114752
2.72082,111006
2.72893,115167
2.73707,108556
2.74518,110131
2.75332,111326
2.76143,112564
2.76955,245294
2.77768,1006717
2.78580,2244425
2.79393,2550905
2.80205,1600907
2.81017,934575
2.81830,725625
2.82642,604395
2.83455,485354
2.84267,394232
2.85078,338438
2.85892,299919
2.86703,260537
2.87515,240526
2.88328,217755
2.89140,207468
2.89953,193298
2.90765,183059
2.91577,170312
2.92390,161352
2.93202,160419
2.94015,152748
2.94827,143477
2.95638,153869
2.96452,145818
2.97263,157253
2.98077,144039
2.98888,141431
2.99700,145753
3.00513,137964
3.01325,142223
3.02137,139230
3.02950,138385
3.03762,127219
3.04575,120534
3.05387,120449
3.06198,118693
3.07012,128439
3.07823,179514
3.08637,399746
3.09448,1015057
3.10260,2416912
3.11073,4287909
3.11885,4715722
3.12697,3269448
3.13510,2042911
3.14322,1437645
3.15135,1094808
3.15947,894245
3.16758,835257
3.17572,961750
3.18383,1960681
3.19197,4310460
3.20008,6271357
3.20820,5409960
3.21633,3624863
3.22445,2581199
3.23258,1983875
3.24070,1579708
3.24882,1317974
3.25695,1091753
3.26507,951155
3.27318,822140
3.28132,772616
3.28943,917493
3.29757,1766760
3.30568,3452214
3.31380,4894005
3.32193,4725849
3.33005,3542178
3.33818,2427300
3.34630,1768020
3.35442,1379695
3.36255,1145249
3.37067,995697
3.37878,874219
3.38692,788148
3.39503,714661
3.40317,656100
3.41128,616732
3.41940,581864
3.42753,560903
3.43565,574944
3.44378,585224
3.45190,556372
3.46002,581986
3.46815,742243
3.47627,917210
3.48440,902851
3.49252,678245
3.50063,537799
3.50877,459950
3.51688,404170
3.52500,403374
3.53313,436624
3.54125,488093
3.54938,507911
3.55750,446855
3.56562,387313
3.57375,358249
3.58187,327806
3.59000,311446
3.59812,293548
3.60623,286871
3.61437,288262
3.62248,291724
3.63062,297494
3.63873,312447
3.64685,326611
3.65498,753008
3.66310,4840034
3.67122,1.905776E+07
3.67935,3.797506E+07
3.68747,4.754825E+07
3.69560,4.350716E+07
3.70372,3.151865E+07
3.71183,2.187505E+07
3.71997,1.683905E+07
3.72808,1.373153E+07
3.73622,1.13335E+07
3.74433,9778065
3.75245,8412017
3.76058,7405037
3.76870,6516330
3.77683,5778286
3.78495,5177453
3.79307,4822380
3.80120,4490240
3.80932,4511816
3.81743,4799836
3.82557,4821061
3.83368,4394209
3.84182,3747095
3.84993,3368583
3.85805,3095401
3.86618,2848237
3.87430,2662393
3.88243,2506591
3.89055,2384211
3.89867,2241760
3.90680,2161164
3.91492,2205504
3.92303,2567612
3.93117,3016020
3.93928,3135453
3.94742,2770034
3.95553,2355200
3.96365,2216016
3.97178,2221209
3.97990,2062381
3.98803,1798212
3.99615,1649172
4.00427,1710085
4.01240,1995608
4.02052,2237426
4.02865,2043687
4.03677,1722027
4.04488,1449021
4.05302,1296590
4.06113,1209202
4.06925,1134003
4.07738,1100359
4.08550,1067123
4.09363,1041727
4.10175,1025640
4.10987,984277
4.11800,961678
4.12612,936867
4.13425,900302
4.14237,867461
4.15048,893839
4.15862,890021
4.16673,897908
4.17485,880865
4.18298,866051
4.19110,852561
4.19923,855228
4.20735,1380349
4.21547,4014965
4.22360,1.060029E+07
4.23172,1.979432E+07
4.23985,2.679913E+07
4.24797,3.189038E+07
4.25608,3.506198E+07
4.26422,3.510039E+07
4.27233,2.65618E+07
4.28047,1.434649E+07
4.28858,9175538
4.29670,7062416
4.30483,5711922
4.31295,4767255
4.32107,4032256
4.32920,3457787
4.33732,3026459
4.34545,2691262
4.35357,2460840
4.36168,2386509
4.36982,2481772
4.37793,2475466
4.38607,2261891
4.39418,1921150
4.40230,1645053
4.41043,1488877
4.41855,1360712
4.42668,1271121
4.43480,1193583
4.44292,1129560
4.45105,1047380
4.45917,1016922
4.46728,951966
4.47542,916069
4.48353,888493
4.49167,860349
4.49978,844034
4.50790,821424
4.51603,791083
4.52415,778921
4.53228,743436
4.54040,764340
4.54852,793524
4.55665,821053
4.56477,798346
4.57288,725816
4.58102,679289
4.58913,677914
4.59727,644346
4.60538,631159
4.61350,620039
4.62163,703663
4.62975,1007748
4.63788,1703802
4.64600,2470131
4.65412,2701662
4.66225,2213344
4.67037,1641814
4.67850,1281427
4.68662,1083794
4.69473,956804
4.70287,830024
4.71098,736939
4.71910,662986
4.72723,619116
4.73535,583346
4.74348,555994
4.75160,538613
4.75972,523129
4.76785,502545
4.77597,493403
4.78410,492684
4.79222,539055
4.80033,652927
4.80847,804022
4.81658,872829
4.82472,775637
4.83283,694607
4.84095,688700
4.84908,786978
4.85720,865439
4.86532,831461
4.87345,729078
4.88157,620077
4.88970,551239
4.89782,515779
4.90593,501755
4.91407,469067
4.92218,452977
4.93032,459465
4.93843,473429
4.94655,597010
4.95468,909490
4.96280,1440290
4.97092,1841875
4.97905,1942509
4.98717,1703242
4.99530,1358067
5.00342,1071021
5.01153,920843
5.01967,864533
5.02778,983815
5.03592,1366336
5.04403,1898115
5.05215,2177975
5.06028,1967193
5.06840,1595198
5.07653,1327773
5.08465,1123998
5.09277,1007222
5.10090,923210
5.10902,841237
5.11713,802036
5.12527,731231
5.13338,697868
5.14152,672039
5.14963,725820
5.15775,871385
5.16588,1161453
5.17400,1395786
5.18213,1391942
5.19025,1212748
5.19837,1097121
5.20650,1112617
5.21462,1239689
5.22273,1257490
5.23087,1126365
5.23898,946960
5.24712,828889
5.25523,726786
5.26335,639363
5.27148,593359
5.27960,508584
5.28773,476847
5.29585,467135
5.30397,447196
5.31210,435258
5.32022,419032
5.32835,434944
5.33647,446427
5.34458,472601
5.35272,472800
5.36083,453555
5.36895,421445
5.37708,403328
5.38520,400076
5.39333,440586
5.40145,500985
5.40957,568840
5.41770,525978
5.42582,474898
5.43395,434204
5.44207,417551
5.45018,450701
5.45832,531644
5.46643,601192
5.47457,572353
5.48268,502319
5.49080,427089
5.49893,376662
5.50705,353524
5.51517,358251
5.52330,349786
5.53142,348438
5.53955,346733
5.54767,362524
5.55578,466038
5.56392,740865
5.57203,1233349
5.58017,1660445
5.58828,1689046
5.59640,1367059
5.60453,990267
5.61265,701975
5.62077,532954
5.62890,465585
5.63702,421054
5.64515,388467
5.65327,372020
5.66138,352942
5.66952,351691
5.67763,352356
5.68577,390527
5.69388,448825
5.70200,503361
5.71013,523647
5.71825,504312
5.72638,453680
5.73450,392467
5.74262,354591
5.75075,329300
5.75887,318273
5.76698,300579
5.77512,291026
5.78323,295796
5.79137,281340
5.79948,288684
5.80760,280420
5.81573,272193
5.82385,275212
5.83198,281362
5.84010,271784
5.84822,264611
5.85635,268743
5.86447,274796
5.87260,266276
5.88072,260555
5.88883,256551
5.89697,260073
5.90508,275198
5.91320,282692
5.92133,323662
5.92945,360239
5.93758,349452
5.94570,329293
5.95382,343557
5.96195,401677
5.97007,496117
5.97820,639610
5.98632,835358
5.99443,1017301
6.00257,1118225
6.01068,1102655
6.01880,917552
6.02693,691156
6.03505,531823
6.04318,413711
6.05130,355159
6.05942,312741
6.06755,289607
6.07567,290444
6.08380,274697
6.09192,268187
6.10003,253879
6.10817,254395
6.11628,247423
6.12442,317518
6.13253,551358
6.14065,1073481
6.14878,1764068
6.15690,2078226
6.16502,1907926
6.17315,1388826
6.18127,963679
6.18940,719806
6.19752,609305
6.20563,534985
6.21377,470160
6.22188,418646
6.23002,400259
6.23813,401383
6.24625,389179
6.25438,424696
6.26250,478571
6.27063,513612
6.27875,509314
6.28687,460271
6.29500,407644
6.30312,368323
6.31123,341461
6.31937,341600
6.32748,343868
6.33562,349839
6.34373,373704
6.35185,367401
6.35998,352180
6.36810,321855
6.37623,320775
6.38435,320390
6.39247,320516
6.40060,309098
6.40872,317303
6.41683,298996
6.42497,290909
6.43308,291992
6.44122,287228
6.44933,305280
6.45745,305936
6.46558,325857
6.47370,330000
6.48183,323015
6.48995,304720
6.49807,306577
6.50620,306057
6.51432,302992
6.52245,300026
6.53057,314026
6.53868,308206
6.54682,319939
6.55493,311126
6.56305,366496
6.57118,594661
6.57930,1002846
6.58743,1452850
6.59555,1615084
6.60367,1368443
6.61180,922799
6.61992,628560
6.62805,448154
6.63617,357284
6.64428,315081
6.65242,283579
6.66053,260242
6.66865,259936
6.67678,262259
6.68490,250865
6.69303,230994
6.70115,211879
6.70927,211197
6.71740,202635
6.72552,201308
6.73365,197250
6.74177,195605
6.74988,193052
6.75802,191430
6.76613,188680
6.77427,185360
6.78238,195508
6.79050,181403
6.79863,173215
6.80675,176312
6.81487,170883
6.82300,162421
6.83112,167170
6.83925,160190
6.84737,173150
6.85548,179463
6.86362,203289
6.87173,206201
6.87987,233598
6.88798,238719
6.89610,223249
6.90423,202177
6.91235,178042
6.92048,154317
6.92860,152285
6.93672,142435
6.94485,137001
6.95297,131063
6.96108,138200
6.96922,140645
6.97733,164426
6.98547,188156
6.99358,193623
7.00170,189149
7.00983,181164
7.01795,161645
7.02608,165929
7.03420,162798
7.04232,156560
7.05045,153783
7.05857,156460
7.06668,184770
7.07482,239995
7.08293,325433
7.09107,417742
7.09918,467594
7.10730,442565
7.11543,369569
7.12355,296106
7.13168,235213
7.13980,219277
7.14792,222735
7.15605,254671
7.16417,307704
7.17230,399224
7.18042,770170
7.18853,1905451
7.19667,4346319
7.20478,7847376
7.21290,1.048091E+07
7.22103,1.042294E+07
7.22915,7673653
7.23728,4089781
7.24540,1706605
7.25352,645382
7.26165,320730
7.26977,229022
7.27790,198082
7.28602,193758
7.29413,189904
7.30227,196184
7.31038,192081
7.31852,186732
7.32663,208126
7.33475,202045
7.34288,240117
7.35100,297239
7.35912,368910
7.36725,388805
7.37537,363686
7.38350,312522
7.39162,265226
7.39973,218275
7.40787,192139
7.41598,179831
7.42412,164015
7.43223,154745
7.44035,156731
7.44848,145796
7.45660,147196
7.46472,152182
7.47285,158952
7.48097,162996
7.48910,160613
7.49722,154536
7.50533,150173
7.51347,142570
7.52158,148108
7.52972,157678
7.53783,227393
7.54595,405292
7.55408,916316
7.56220,1971229
7.57033,3646184
7.57845,5748206
7.58657,7577210
7.59470,8288526
7.60282,7623970
7.61093,5943826
7.61907,4083774
7.62718,2589880
7.63532,1578895
7.64343,1037109
7.65155,734870
7.65968,537504
7.66780,422928
7.67593,319523
7.68405,257684
7.69217,203492
7.70030,188106
7.70842,193974
7.71653,229823
7.72467,318170
7.73278,400600
7.74092,458358
7.74903,478749
7.75715,472965
7.76528,440254
7.77340,395259
7.78153,357685
7.78965,317717
7.79777,308730
7.80590,308700
7.81402,333432
7.82215,378915
7.83027,398320
7.83838,365820
7.84652,322603
7.85463,267752
7.86275,241911
7.87088,245304
7.87900,267868
7.88713,305274
7.89525,371975
7.90337,466727
7.91150,522407
7.91962,499383
7.92775,402139
7.93587,338018
7.94398,300938
7.95212,319576
7.96023,336499
7.96837,319790
7.97648,303090
7.98460,261078
7.99273,227516
8.00085,185180
8.00897,162373
8.01710,155182
8.02522,151232
8.03335,134285
8.04147,135682
8.04958,128297
8.05772,127236
8.06583,132938
8.07397,125876
8.08208,130033
8.09020,131985
8.09833,127919
8.10645,116896
8.11457,119783
8.12270,112075
8.13082,123743
8.13895,163703
8.14707,238448
8.15518,338861
8.16332,419225
8.17143,414418
8.17957,357619
8.18768,283243
8.19580,219457
8.20393,165470
8.21205,153419
8.22018,139492
8.22830,137885
8.23642,124828
8.24455,115062
8.25267,112409
8.26078,108678
8.26892,101550
8.27703,100456
8.28517,104574
8.29328,103609
8.30140,99512
8.30953,98296
8.31765,108296
8.32578,106594
8.33390,121360
8.34202,131633
8.35015,146086
8.35827,130057
8.36640,124155
8.37452,107626
8.38263,105962
8.39077,98530
8.39888,87914
8.40700,86087
8.41513,90559
8.42325,84410
8.43138,90709
8.43950,89836
8.44762,87692
8.45575,83510
8.46387,87085
8.47200,85010
8.48012,86018
8.48823,81671
8.49637,81203
8.50448,81176
8.51260,93126
8.52073,136186
8.52885,200126
8.53698,279762
8.54510,324889
8.55322,286120
8.56135,218282
8.56947,150754
8.57760,112929
8.58572,96129
8.59383,87957
8.60197,90662
8.61008,101698
8.61822,122730
8.62633,150234
8.63445,181777
8.64258,203951
8.65070,200142
8.65882,181965
8.66695,155183
8.67507,123022
8.68320,103987
8.69132,91965
8.69943,92871
8.70757,90739
8.71568,81689
8.72382,81948
8.73193,82430
8.74005,82402
8.74818,83327
8.75630,81350
8.76442,86684
8.77255,93656
8.78067,121780
8.78880,186909
8.79692,294873
8.80503,403358
8.81317,465477
8.82128,437145
8.82942,379059
8.83753,305281
8.84565,273604
8.85378,238438
8.86190,229739
8.87003,208464
8.87815,195464
8.88627,179106
8.89440,176878
8.90252,170346
8.91063,167248
8.91877,184489
8.92688,256531
8.93502,344485
8.94313,444788
8.95125,465282
8.95938,404094
8.96750,322759
8.97563,254027
8.98375,258821
8.99187,298844
9.00000,353065
9.00812,344280
9.01625,315803
9.02437,264012
9.03248,215034
9.04062,177709
9.04873,161155
9.05685,146907
9.06498,145280
9.07310,138796
9.08123,135367
9.08935,136354
9.09747,155663
9.10560,215428
9.11372,279387
9.12185,392534
9.12997,495278
9.13808,527110
9.14622,476622
9.15433,370833
9.16247,275775
9.17058,220271
9.17870,191814
9.18683,181538
9.19495,169471
9.20307,175793
9.21120,156622
9.21932,145401
9.22745,149752
9.23557,149202
9.24368,157670
9.25182,167246
9.25993,155637
9.26807,160231
9.27618,145185
9.28430,146107
9.29243,130799
9.30055,129483
9.30867,134704
9.31680,124749
9.32492,127919
9.33305,129249
9.34117,129643
9.34928,118474
9.35742,118823
9.36553,114879
9.37367,113176
9.38178,113741
9.38990,124731
9.39803,155115
9.40615,207800
9.41428,299306
9.42240,389438
9.43052,489108
9.43865,580228
9.44677,649413
9.45488,693375
9.46302,676702
9.47113,601265
9.47927,495175
9.48738,355658
9.49550,263807
9.50363,212718
9.51175,196325
9.51988,218702
9.52800,251316
9.53612,277967
9.54425,282282
9.55237,277696
9.56048,253222
9.56862,218138
9.57673,180121
9.58487,147428
9.59298,133844
9.60110,121284
9.60923,122884
9.61735,121292
9.62548,112229
9.63360,104743
9.64172,102789
9.64985,101571
9.65797,95116
9.66610,99891
9.67422,95467
9.68233,102398
9.69047,102262
9.69858,98870
9.70670,101046
9.71483,96363
9.72295,102899
9.73108,111073
9.73920,101439
9.74732,97598
9.75545,90074
9.76357,83385
9.77170,84697
9.77982,80981
9.78793,78336
9.79607,79914
9.80418,78041
9.81232,86122
9.82043,76017
9.82855,79176
9.83668,80880
9.84480,81780
9.85292,82177
9.86105,80149
9.86917,77351
9.87730,80727
9.88542,73600
9.89353,76296
9.90167,71749
9.90978,72753
9.91792,77456
9.92603,81303
9.93415,84238
9.94228,118943
9.95040,190127
9.95852,335462
9.96665,540346
9.97477,779656
9.98290,941218
9.99102,924793
9.99913,724632
10.00727,520496
10.01538,329735
10.02352,209379
10.03163,165837
10.03975,159701
10.04788,170624
10.05600,186382
10.06413,198323
10.07225,204415
10.08037,198002
10.08850,187895
10.09662,173041
10.10473,175551
10.11287,158439
10.12098,155770
10.12912,143648
10.13723,142848
10.14535,137281
10.15348,136558
10.16160,133187
10.16973,128856
10.17785,122321
10.18597,115752
10.19410,121262
10.20222,114933
10.21035,109883
10.21847,109460
10.22658,111249
10.23472,113300
10.24283,112172
10.25095,129706
10.25908,187244
10.26720,395900
10.27533,991073
10.28345,2337552
10.29157,4581761
10.29970,7530072
10.30782,1.097486E+07
10.31595,1.465611E+07
10.32407,1.898072E+07
10.33218,2.502025E+07
10.34032,3.204945E+07
10.34843,4.04627E+07
10.35655,4.795602E+07
10.36468,5.115599E+07
10.37280,4.526642E+07
10.38093,2.861242E+07
10.38905,1.505181E+07
10.39717,9367258
10.40530,6878887
10.41342,4911440
10.42155,3370719
10.42967,2354645
10.43778,1859142
10.44592,1651745
10.45403,1594992
10.46217,1607271
10.47028,1589803
10.47840,1452592
10.48653,1259098
10.49465,1032084
10.50277,890073
10.51090,761146
10.51902,684111
10.52715,631570
10.53527,585721
10.54338,568552
10.55152,543613
10.55963,517509
10.56777,499260
10.57588,499889
10.58400,497086
10.59213,474760
10.60025,468796
10.60837,420654
10.61650,394242
10.62462,380059
10.63275,364246
10.64087,350031
10.64898,329484
10.65712,317589
10.66523,310133
10.67337,306765
10.68148,284113
10.68960,276272
10.69773,295490
10.70585,297065
10.71398,299618
10.72210,313049
10.73022,315734
10.73835,308042
10.74647,293436
10.75458,274874
10.76272,274339
10.77083,256764
10.77897,238115
10.78708,232762
10.79520,229419
10.80333,232342
10.81145,247716
10.81958,261601
10.82770,289379
10.83582,297116
10.84395,284687
10.85207,259651
10.86020,227665
10.86832,206621
10.87643,193522
10.88457,182631
10.89268,185227
10.90080,182925
10.90893,175212
10.91705,173307
10.92518,163665
10.93330,181970
10.94142,180442
10.94955,167750
10.95767,165200
10.96580,162492
10.97392,158628
10.98203,162545
10.99017,162896
10.99828,166182
11.00640,174174
11.01453,186543
11.02265,200430
11.03078,221715
11.03890,218236
11.04702,208958
11.05515,189234
11.06327,184359
11.07140,177279
11.07952,190018
11.08763,226675
11.09577,261337
11.10388,283382
11.11202,272795
11.12013,264138
11.12825,238093
11.13638,214728
11.14450,190777
11.15262,160686
11.16075,149744
11.16887,153740
11.17700,147380
11.18512,141778
11.19323,137971
11.20137,126848
11.20948,118270
11.21762,112554
11.22573,109980
11.23385,104496
11.24198,96559
11.25010,95166
11.25823,92273
11.26635,84843
11.27447,88761
11.28260,90130
11.29072,83146
11.29883,87366
11.30697,115576
11.31508,199328
11.32322,468015
11.33133,1069049
11.33945,2164834
11.34758,3698296
11.35570,5216381
11.36383,6033173
11.37195,5776089
11.38007,4863198
11.38820,3700644
11.39632,2694678
11.40443,2061056
11.41257,1602662
11.42068,1299569
11.42882,1030452
11.43693,846396
11.44505,680710
11.45318,578489
11.46130,487335
11.46943,429264
11.47755,381823
11.48567,352457
11.49380,360169
11.50192,410936
11.51005,476121
11.51817,559535
11.52628,617922
11.53442,633037
11.54253,582521
11.55065,539861
11.55878,473894
11.56690,438202
11.57503,404545
11.58315,389598
11.59127,387617
11.59940,411110
11.60752,523696
11.61565,679790
11.62377,856170
11.63188,915425
11.64002,859999
11.64813,695649
11.65627,522311
11.66438,372620
11.67250,277318
11.68063,229405
11.68875,196026
11.69687,199370
11.70500,183639
11.71312,190669
11.72125,191620
11.72937,196099
11.73748,187048
11.74562,178083
11.75373,160823
11.76187,145223
11.76998,135474
11.77810,126456
11.78623,120234
11.79435,116995
11.80247,114713
11.81060,105718
11.81872,111395
11.82685,102825
11.83497,99414
11.84308,105845
11.85122,100418
11.85933,96790
11.86747,97789
11.87558,90592
11.88370,89856
11.89183,88640
11.89995,94475
11.90808,87755
11.91620,89010
11.92432,93302
11.93245,103346
11.94057,104349
11.94868,106734
11.95682,102387
11.96493,104470
11.97307,89070
11.98118,84437
11.98930,79418
11.99743,80425
12.00555,74712
12.01368,77720
12.02180,73409
12.02992,71936
12.03805,76605
12.04617,74861
12.05428,73638
12.06242,72729
12.07053,86390
12.07867,91014
12.08678,98561
12.09490,106769
12.10303,132498
12.11115,212646
12.11928,386137
12.12740,766097
12.13552,1388268
12.14365,2102016
12.15177,2706040
12.15990,2974909
12.16802,2585616
12.17613,1975277
12.18427,1402968
12.19238,1018453
12.20050,809780
12.20863,691208
12.21675,606923
12.22488,546544
12.23300,456445
12.24112,426276
12.24925,384958
12.25737,352486
12.26550,340222
12.27362,330582
12.28173,310832
12.28987,294457
12.29798,289465
12.30612,259915
12.31423,253153
12.32235,239444
12.33048,223854
12.33860,215296
12.34672,211075
12.35485,209269
12.36297,199898
12.37110,203403
12.37922,197591
12.38733,186837
12.39547,189983
12.40358,206760
12.41172,253918
12.41983,320997
12.42795,413387
12.43608,478945
12.44420,500475
12.45232,442112
12.46045,362478
12.46857,305038
12.47670,246736
12.48482,225275
12.49293,211160
12.50107,200403
12.50918,195622
12.51732,191317
12.52543,187679
12.53355,197187
12.54168,237043
12.54980,314626
12.55793,416536
12.56605,487149
12.57417,508661
12.58230,483718
12.59042,396431
12.59853,313939
12.60667,257955
12.61478,228374
12.62292,198499
12.63103,188059
12.63915,173948
12.64728,170938
12.65540,163914
12.66353,153886
12.67165,152246
12.67977,153113
12.68790,141492
12.69602,140578
12.70415,135554
12.71227,139027
12.72038,139455
12.72852,129664
12.73663,135979
12.74475,136593
12.75288,136805
12.76100,145336
12.76913,136066
12.77725,135508
12.78537,123435
12.79350,121212
12.80162,111355
12.80975,109778
12.81787,107188
12.82598,101663
12.83412,90260
12.84223,82182
12.85035,80016
12.85848,71475
12.86660,66817
12.87473,69635
12.88285,66921
12.89097,71975
12.89910,69366
12.90722,72177
12.91535,63371
12.92347,65328
12.93158,65368
12.93972,72775
12.94783,68194
12.95597,65959
12.96408,69273
12.97220,72067
12.98033,86242
12.98845,97833
12.99657,103462
13.00470,94942
13.01282,85811
13.02095,76030
13.02907,77080
13.03718,67390
13.04532,66205
13.05343,65655
13.06157,67209
13.06968,68729
13.07780,68517
13.08593,73826
13.09405,75992
13.10217,78795
13.11030,82290
13.11842,79203
13.12655,70815
13.13467,69304
13.14278,66159
13.15092,65547
13.15903,68568
13.16717,71046
13.17528,77190
13.18340,77033
13.19153,76050
13.19965,80113
13.20778,82764
13.21590,74406
13.22402,85499
13.23215,84326
13.24027,86393
13.24838,96832
13.25652,97412
13.26463,100528
13.27277,100523
13.28088,101641
13.28900,96788
13.29713,86523
13.30525,79522
13.31338,69564
13.32150,69626
13.32962,65059
13.33775,63994
13.34587,61815
13.35400,66411
13.36212,60344
13.37023,61547
13.37837,61848
13.38648,62272
13.39460,63030
13.40273,56636
13.41085,60677
13.41898,57286
13.42710,56642
13.43522,59788
13.44335,63966
13.45147,59794
13.45960,58819
13.46772,63174
13.47583,70135
13.48397,70710
13.49208,70018
13.50020,71974
13.50833,72390
13.51645,74478
13.52458,83552
13.53270,90205
13.54082,90100
13.54895,84064
13.55707,82568
13.56520,78413
13.57332,69585
13.58143,71246
13.58957,79550
13.59768,99836
13.60582,120840
13.61393,136081
13.62205,159915
13.63018,176999
13.63830,181950
13.64642,171997
13.65455,135210
13.66267,108675
13.67080,91380
13.67892,72123
13.68703,65355
13.69517,56122
13.70328,56965
13.71142,54117
13.71953,53136
13.72765,51595
13.73578,55105
13.74390,56407
13.75203,63869
13.76015,85053
13.76827,115278
13.77640,165986
13.78452,241826
13.79263,346911
13.80077,503555
13.80888,654751
13.81702,789655
13.82513,908770
13.83325,1060956
13.84138,1281374
13.84950,1522329
13.85763,1603591
13.86575,1527111
13.87387,1318615
13.88200,1026570
13.89012,742092
13.89823,526894
13.90637,372533
13.91448,283947
13.92262,234681
13.93073,179788
13.93885,160649
13.94698,132012
13.95510,126502
13.96323,114037
13.97135,114106
13.97947,102536
13.98760,99459
13.99572,96440
14.00385,99523
14.01197,103217
14.02008,106038
14.02822,101329
14.03633,107667
14.04445,96142
14.05258,83890
14.06070,81932
14.06883,79273
14.07695,81759
14.08507,78931
14.09320,77884
14.10132,76058
14.10945,69830
14.11757,72122
14.12568,65436
14.13382,66371
14.14193,71628
14.15005,81200
14.15818,81746
14.16630,99338
14.17443,111131
14.18255,124580
14.19067,127380
14.19880,125535
14.20692,131030
14.21505,150787
14.22317,168172
14.23128,196727
14.23942,213230
14.24753,246378
14.25567,261424
14.26378,310005
14.27190,328757
14.28003,321471
14.28815,283922
14.29627,242857
14.30440,190620
14.31252,175781
14.32065,148130
14.32877,133014
14.33688,133513
14.34502,122517
14.35313,122614
14.36127,116871
14.36938,116485
14.37750,110426
14.38563,106792
14.39375,105083
14.40188,105582
14.41000,122441
14.41812,162480
14.42625,219735
14.43437,271871
14.44248,295106
14.45062,270228
14.45873,239076
14.46687,186571
14.47498,162837
14.48310,146887
14.49123,150854
14.49935,150267
14.50748,159314
14.51560,142225
14.52372,136019
14.53185,118299
14.53997,106689
14.54810,106357
14.55622,91921
14.56433,95391
14.57247,90390
14.58058,86364
14.58870,79123
14.59683,78215
14.60495,75743
14.61308,71144
14.62120,61315
14.62932,62253
14.63745,65527
14.64557,59683
14.65370,61205
14.66182,61704
14.66993,59054
14.67807,56741
14.68618,57966
14.69430,56406
14.70243,56981
14.71055,54392
14.71868,52523
14.72680,58971
14.73492,61064
14.74305,65455
14.75117,65177
14.75930,69572
14.76742,77429
14.77553,76343
14.78367,86763
14.79178,107518
14.79992,205922
14.80803,575242
14.81615,1688962
14.82428,4110670
14.83240,8262097
14.84052,1.400932E+07
14.84865,1.99914E+07
14.85677,2.427723E+07
14.86490,2.556979E+07
14.87302,2.212942E+07
14.88113,1.469419E+07
14.88927,8251503
14.89738,4439387
14.90552,2797545
14.91363,2063248
14.92175,1709404
14.92988,1441955
14.93800,1317956
14.94612,1197842
14.95425,1078580
14.96237,997714
14.97050,916184
14.97862,842751
14.98673,788634
14.99487,772048
15.00298,705945
15.01112,662941
15.01923,636849
15.02735,613576
15.03548,567519
15.04360,552370
15.05173,536408
15.05985,497671
15.06797,479362
15.07610,460309
15.08422,433028
15.09233,417989
15.10047,404282
15.10858,389152
15.11672,382686
15.12483,373237
15.13295,384183
15.14108,415185
15.14920,468686
15.15733,533237
15.16545,557837
15.17357,494972
15.18170,393963
15.18982,300609
15.19795,227624
15.20607,178754
15.21418,153114
15.22232,144007
15.23043,131625
15.23855,126858
15.24668,120230
15.25480,116380
15.26293,113088
15.27105,113948
15.27917,109543
15.28730,99754
15.29542,103116
15.30355,100657
15.31167,96859
15.31978,96517
15.32792,93323
15.33603,90158
15.34415,91678
15.35228,90295
15.36040,83367
15.36853,87421
15.37665,94320
15.38477,99253
15.39290,96683
15.40102,108609
15.40915,101296
15.41727,104155
15.42538,97122
15.43352,94153
15.44163,87925
15.44977,79347
15.45788,87143
15.46600,90026
15.47413,103226
15.48225,148800
15.49037,236041
15.49850,396370
15.50662,609364
15.51475,826237
15.52287,957479
15.53098,1003191
15.53912,907273
15.54723,763258
15.55537,576316
15.56348,417856
15.57160,305937
15.57973,235852
15.58785,193761
15.59598,162112
15.60410,142017
15.61222,129596
15.62035,121848
15.62847,112638
15.63658,106412
15.64472,113296
15.65283,105260
15.66097,100154
15.66908,102368
15.67720,102744
15.68533,92926
15.69345,84947
15.70158,83863
15.70970,80812
15.71782,77872
15.72595,75226
15.73407,77083
15.74218,75644
15.75032,77387
15.75843,105322
15.76657,178342
15.77468,364104
15.78280,763719
15.79093,1335456
15.79905,1861678
15.80718,2232673
15.81530,2133473
15.82342,1642605
15.83155,1131472
15.83967,722074
15.84780,456230
15.85592,326074
15.86403,272795
15.87217,231913
15.88028,216162
15.88840,197940
15.89653,192143
15.90465,182662
15.91278,171672
15.92090,158817
15.92902,147409
15.93715,146072
15.94527,143205
15.95340,135697
15.96152,133721
15.96963,134409
15.97777,127107
15.98588,121152
15.99400,115430
16.00213,114528
16.01025,121912
16.01838,122844
16.02650,128144
16.03462,140337
16.04275,143630
16.05087,147532
16.05900,137188
16.06712,131765
16.07523,120408
16.08337,108184
16.09148,95439
16.09962,87744
16.10773,80351
16.11585,82699
16.12398,83868
16.13210,97571
16.14022,113514
16.14835,136652
16.15647,153193
16.16460,175802
16.17272,175679
16.18083,178447
16.18897,157816
16.19708,131459
16.20522,119394
16.21333,112116
16.22145,111839
16.22958,115724
16.23770,110865
16.24583,112070
16.25395,104469
16.26207,92364
16.27020,85938
16.27832,80467
16.28643,89033
16.29457,99286
16.30268,115128
16.31082,136772
16.31893,156929
16.32705,159942
16.33518,157932
16.34330,145252
16.35143,124365
16.35955,112910
16.36767,109725
16.37580,101299
16.38392,101420
16.39203,97617
16.40017,94894
16.40828,87256
16.41642,86854
16.42453,84090
16.43265,84719
16.44078,91794
16.44890,125391
16.45703,222131
16.46515,546784
16.47327,1329874
16.48140,2751176
16.48952,4525615
16.49765,6142182
16.50577,6601442
16.51388,5864893
16.52202,4296422
16.53013,2650394
16.53825,1539229
16.54638,924289
16.55450,653052
16.56263,507877
16.57075,436746
16.57887,393205
16.58700,360254
16.59512,336703
16.60325,312028
16.61137,295528
16.61948,275973
16.62762,263024
16.63573,244706
16.64387,230425
16.65198,211965
16.66010,193477
16.66823,188579
16.67635,191386
16.68447,171657
16.69260,169088
16.70072,164149
16.70885,158856
16.71697,142707
16.72508,141463
16.73322,124331
16.74133,118585
16.74947,108332
16.75758,119032
16.76570,144465
16.77383,174555
16.78195,202171
16.79007,201091
16.79820,185481
16.80632,148833
16.81445,123015
16.82257,99957
16.83068,85314
16.83882,79322
16.84693,77910
16.85507,76906
16.86318,74882
16.87130,74081
16.87943,74919
16.88755,70032
16.89568,68587
16.90380,66778
16.91192,68752
16.92005,65067
16.92817,65948
16.93628,72281
16.94442,78525
16.95253,69710
16.96067,68815
16.96878,72049
16.97690,69774
16.98503,76357
16.99315,68412
17.00128,70897
17.00940,72728
17.01752,72751
17.02565,78320
17.03377,78287
17.04190,94023
17.05002,108078
17.05813,131854
17.06627,168926
17.07438,191105
17.08250,191410
17.09063,160695
17.09875,136704
17.10688,109927
17.11500,96406
17.12312,92674
17.13125,96681
17.13937,99479
17.14750,104740
17.15562,109923
17.16373,109250
17.17187,106525
17.17998,99127
17.18810,89856
17.19623,94509
17.20435,92744
17.21248,77179
17.22060,76278
17.22872,72368
17.23685,67910
17.24497,69158
17.25310,70477
17.26122,76410
17.26933,80382
17.27747,84530
17.28558,77988
17.29372,74199
17.30183,67735
17.30995,63708
17.31808,76850
17.32620,92143
17.33432,125734
17.34245,184492
17.35057,241928
17.35870,305917
17.36682,326302
17.37493,323832
17.38307,290170
17.39118,262710
17.39932,224842
17.40743,213682
17.41555,188630
17.42368,192037
17.43180,192231
17.43992,191132
17.44805,189999
17.45617,186481
17.46430,166013
17.47242,163629
17.48053,145157
17.48867,132859
17.49678,122568
17.50492,119381
17.51303,111892
17.52115,111593
17.52928,112639
17.53740,109727
17.54553,104956
17.55365,104968
17.56177,117429
17.56990,164407
17.57802,292292
17.58613,626315
17.59427,1380742
17.60238,2654711
17.61052,4229936
17.61863,5560471
17.62675,6192275
17.63488,5809491
17.64300,4722403
17.65113,3287194
17.65925,2056711
17.66737,1235399
17.67550,760345
17.68362,519804
17.69175,392098
17.69987,323425
17.70798,275897
17.71612,257044
17.72423,237242
17.73235,226718
17.74048,221596
17.74860,196291
17.75673,195367
17.76485,180236
17.77297,172197
17.78110,156908
17.78922,139554
17.79735,124528
17.80547,116445
17.81358,112514
17.82172,113649
17.82983,108489
17.83795,115012
17.84608,125335
17.85420,147003
17.86233,185348
17.87045,256998
17.87857,319242
17.88670,338433
17.89482,337653
17.90295,280468
17.91107,218987
17.91918,166171
17.92732,128924
17.93543,106220
17.94357,97570
17.95168,90520
17.95980,81511
17.96793,83205
17.97605,80277
17.98417,77436
17.99230,74436
18.00042,77389
18.00855,75309
18.01667,90487
18.02478,123158
18.03292,175734
18.04103,274249
18.04917,391350
18.05728,532990
18.06540,677294
18.07353,1068966
18.08165,2034790
18.08978,3907039
18.09790,6561097
18.10602,9231223
18.11415,1.063459E+07
18.12227,1.054177E+07
18.13038,8827298
18.13852,6539611
18.14663,4793467
18.15477,3524484
18.16288,2749567
18.17100,2290233
18.17913,1984666
18.18725,1732527
18.19538,1559670
18.20350,1377905
18.21162,1209702
18.21975,1136666
18.22787,1026384
18.23598,934253
18.24412,850034
18.25223,825731
18.26037,789859
18.26848,713699
18.27660,635610
18.28473,584842
18.29285,499170
18.30098,392893
18.30910,317100
18.31722,247523
18.32535,188724
18.33347,159978
18.34160,144251
18.34972,151854
18.35783,139163
18.36597,133217
18.37408,126829
18.38220,124140
18.39033,125700
18.39845,114841
18.40658,114152
18.41470,121345
18.42282,136084
18.43095,157785
18.43907,191261
18.44720,262494
18.45532,337899
18.46343,484784
18.47157,753731
18.47968,1138829
18.48780,1627745
18.49593,2114113
18.50405,2284540
18.51218,2110481
18.52030,1673052
18.52842,1164324
18.53655,745212
18.54467,463140
18.55280,314938
18.56092,228582
18.56903,189090
18.57717,155353
18.58528,137700
18.59342,122342
18.60153,121030
18.60965,127140
18.61778,135632
18.62590,148965
18.63402,170127
18.64215,177109
18.65027,170076
18.65840,169859
18.66652,154656
18.67463,126853
18.68277,110372
18.69088,98412
18.69902,91858
18.70713,85455
18.71525,83602
18.72338,87939
18.73150,81855
18.73963,85777
18.74775,83554
18.75587,87743
18.76400,76623
18.77212,78645
18.78023,76953
18.78837,80828
18.79648,80755
18.80462,80599
18.81273,84636
18.82085,82597
18.82898,84465
18.83710,78432
18.84523,83877
18.85335,80417
18.86147,82545
18.86960,84366
18.87772,96999
18.88585,110926
18.89397,123164
18.90208,126630
18.91022,124020
18.91833,126616
18.92645,121513
18.93458,127437
18.94270,133545
18.95083,146155
18.95895,153299
18.96707,156881
18.97520,160148
18.98332,162607
18.99145,163055
18.99957,141991
19.00768,127248
19.01582,113169
19.02393,97565
19.03205,89391
19.04018,86250
19.04830,88885
19.05643,82456
19.06455,81188
19.07267,81277
19.08080,91772
19.08892,123449
19.09705,195316
19.10517,311183
19.11328,457316
19.12142,584609
19.12953,624277
19.13767,555954
19.14578,444344
19.15390,323243
19.16203,219763
19.17015,154672
19.17827,121067
19.18640,105460
19.19452,91148
19.20265,85256
19.21077,80189
19.21888,81995
19.22702,74829
19.23513,81116
19.24327,77639
19.25138,89955
19.25950,99780
19.26763,139624
19.27575,175192
19.28387,201685
19.29200,221566
19.30012,239564
19.30825,246493
19.31637,250399
19.32448,265994
19.33262,260437
19.34073,255113
19.34887,247830
19.35698,261732
19.36510,312683
19.37323,377259
19.38135,479453
19.38948,582179
19.39760,638287
19.40572,604391
19.41385,530354
19.42197,446632
19.43008,358835
19.43822,325468
19.44633,311442
19.45447,289337
19.46258,285188
19.47070,276602
19.47883,269023
19.48695,267143
19.49508,267645
19.50320,275924
19.51132,285005
19.51945,318546
19.52757,345032
19.53570,360264
19.54382,388254
19.55193,400240
19.56007,389610
19.56818,369869
19.57630,334879
19.58443,324806
19.59255,282917
19.60068,263154
19.60880,241388
19.61692,235103
19.62505,217749
19.63317,206129
19.64130,213545
19.64942,220589
19.65753,247283
19.66567,289380
19.67378,358440
19.68190,444323
19.69003,550999
19.69815,639417
19.70628,681034
19.71440,677008
19.72252,657983
19.73065,596831
19.73877,530636
19.74690,482593
19.75502,420329
19.76313,364513
19.77127,337425
19.77938,311883
19.78752,314348
19.79563,371057
19.80375,433519
19.81188,530824
19.82000,593176
19.82812,608159
19.83625,544369
19.84437,480968
19.85250,414980
19.86062,335676
19.86873,304218
19.87687,293875
19.88498,351205
19.89312,485326
19.90123,652358
19.90935,851211
19.91748,1029639
19.92560,1031377
19.93373,944269
19.94185,773513
19.94997,621612
19.95810,499092
19.96622,426824
19.97433,389509
19.98247,363119
19.99058,342376
19.99872,318470
20.00683,315179
20.01495,298705
20.02308,304794
20.03120,299019
20.03933,299893
20.04745,304775
20.05557,293403
20.06370,303560
20.07182,314022
20.07993,381063
20.08807,437272
20.09618,543305
20.10432,590372
20.11243,610069
20.12055,568775
20.12868,505741
20.13680,430024
20.14493,358615
20.15305,344228
20.16117,433213
20.16930,646636
20.17742,1023240
20.18555,1602509
20.19367,2376285
20.20178,3116243
20.20992,3560057
20.21803,3559446
20.22615,3230988
20.23428,2726330
20.24240,2149885
20.25053,1694021
20.25865,1553321
20.26677,1669482
20.27490,1957571
20.28302,2403345
20.29115,2683272
20.29927,2760075
20.30738,2616196
20.31552,2203771
20.32363,1723635
20.33175,1273521
20.33988,949768
20.34800,689582
20.35613,504557
20.36425,406213
20.37237,350585
20.38050,308069
20.38862,276649
20.39675,255308
20.40487,242685
20.41298,222243
20.42112,209631
20.42923,205124
20.43737,205503
20.44548,205812
20.45360,222139
20.46173,245083
20.46985,246137
20.47797,260683
20.48610,242136
20.49422,238122
20.50235,219639
20.51047,201418
20.51858,194136
20.52672,186691
20.53483,180339
20.54297,183654
20.55108,187979
20.55920,201910
20.56733,192011
20.57545,193565
20.58358,191240
20.59170,180953
20.59982,173824
20.60795,173924
20.61607,163969
20.62418,162649
20.63232,157797
20.64043,166176
20.64857,165161
20.65668,187636
20.66480,192343
20.67293,203365
20.68105,203921
20.68918,195257
20.69730,186281
20.70542,172883
20.71355,170219
20.72167,158539
20.72978,146590
20.73792,149274
20.74603,152004
20.75417,161376
20.76228,171755
20.77040,188810
20.77853,214315
20.78665,243975
20.79478,323484
20.80290,489754
20.81102,825844
20.81915,1416073
20.82727,2106445
20.83540,2667056
20.84352,2705143
20.85163,2397124
20.85977,1776194
20.86788,1165736
20.87600,707541
20.88413,442686
20.89225,333045
20.90038,261430
20.90850,246463
20.91662,238187
20.92475,257851
20.93287,287070
20.94100,317895
20.94912,341716
20.95723,364577
20.96537,368032
20.97348,336274
20.98162,301832
20.98973,256724
20.99785,210875
21.00598,188221
21.01410,174904
21.02222,168104
21.03035,164888
21.03847,170181
21.04660,182503
21.05472,175006
21.06283,172288
21.07097,168396
21.07908,161210
21.08722,163600
21.09533,150864
21.10345,153394
21.11158,141769
21.11970,139730
21.12782,147621
21.13595,150316
21.14407,182077
21.15220,258615
21.16032,397307
21.16843,566652
21.17657,732153
21.18468,818033
21.19282,778055
21.20093,673321
21.20905,520152
21.21718,406417
21.22530,320430
21.23343,260321
21.24155,229375
21.24967,205944
21.25780,180009
21.26592,170108
21.27403,153397
21.28217,149548
21.29028,142551
21.29842,136359
21.30653,131533
21.31465,134005
21.32278,122586
21.33090,128700
21.33903,124681
21.34715,129728
21.35527,122458
21.36340,119194
21.37152,127652
21.37963,134464
21.38777,142385
21.39588,161639
21.40402,203887
21.41213,264604
21.42025,337505
21.42838,394285
21.43650,417862
21.44463,399075
21.45275,353211
21.46087,289678
21.46900,245854
21.47712,223617
21.48525,202133
21.49337,186259
21.50148,170836
21.50962,154707
21.51773,148573
21.52585,131953
21.53398,131215
21.54210,128919
21.55023,129567
21.55835,129882
21.56647,120672
21.57460,129350
21.58272,133861
21.59085,153819
21.59897,183679
21.60708,221616
21.61522,241942
21.62333,230688
21.63147,223683
21.63958,204022
21.64770,202407
21.65583,201427
21.66395,220487
21.67207,255035
21.68020,295630
21.68832,330663
21.69645,355111
21.70457,362566
21.71268,339777
21.72082,305408
21.72893,239770
21.73707,196663
21.74518,167933
21.75330,150573
21.76143,147154
21.76955,131470
21.77767,136656
21.78580,125884
21.79392,126206
21.80205,128921
21.81017,124850
21.81828,130771
21.82642,132528
21.83453,125024
21.84267,134369
21.85078,142889
21.85890,166597
21.86703,178386
21.87515,181390
21.88328,185502
21.89140,179038
21.89952,167794
21.90765,159195
21.91577,157391
21.92388,155600
21.93202,155303
21.94013,138775
21.94827,130509
21.95638,126690
21.96450,116713
21.97263,105889
21.98075,100546
21.98888,94632
21.99700,89524
22.00512,92262
22.01325,90858
22.02137,102545
22.02950,102590
22.03762,109054
22.04573,120813
22.05387,133241
22.06198,139311
22.07010,143770
22.07823,140813
22.08635,133097
22.09448,122117
22.10260,118094
22.11072,110611
22.11885,99701
22.12697,100478
22.13510,102440
22.14322,96697
22.15133,88583
22.15947,93987
22.16758,88541
22.17570,87710
22.18383,89661
22.19195,100661
22.20008,90697
22.20820,89351
22.21632,88851
22.22445,86679
22.23257,90803
22.24070,93303
22.24882,103451
22.25693,104130
22.26507,109084
22.27318,117027
22.28132,123933
22.28943,137211
22.29755,151140
22.30568,159119
22.31380,166858
22.32192,175715
22.33005,166435
22.33817,149263
22.34630,141276
22.35442,131848
22.36253,125106
22.37067,120189
22.37878,107311
22.38692,116986
22.39503,136488
22.40315,180776
22.41128,271989
22.41940,418101
22.42753,587287
22.43565,708165
22.44377,781541
22.45190,746973
22.46002,612062
22.46813,474706
22.47627,350703
22.48438,261179
22.49252,224505
22.50063,235152
22.50875,288654
22.51688,336653
22.52500,355219
22.53313,391981
22.54125,387286
22.54937,356341
22.55750,318736
22.56562,266357
22.57373,237477
22.58187,192929
22.58998,171257
22.59812,155893
22.60623,134953
22.61435,127198
22.62248,116038
22.63060,110920
22.63873,99303
22.64685,103888
22.65497,113584
22.66310,112898
22.67122,122750
22.67935,133431
22.68747,135860
22.69558,155494
22.70372,179086
22.71183,242920
22.71995,317455
22.72808,407478
22.73620,471616
22.74433,469244
22.75245,426028
22.76057,361854
22.76870,297171
22.77682,257377
22.78495,250829
22.79307,274014
22.80118,352272
22.80932,477087
22.81743,623282
22.82555,765455
22.83368,821506
22.84180,789324
22.84993,669005
22.85805,551720
22.86617,426067
22.87430,368981
22.88242,330271
22.89055,352038
22.89867,378771
22.90678,423288
22.91492,443057
22.92303,452065
22.93117,470308
22.93928,515735
22.94740,530677
22.95553,527512
22.96365,451977
22.97177,394833
22.97990,286871
22.98802,223877
22.99615,174580
23.00427,145143
23.01238,126580
23.02052,117391
23.02863,110647
23.03677,103805
23.04488,95859
23.05300,92057
23.06113,102864
23.06925,107495
23.07738,120519
23.08550,120701
23.09362,130195
23.10175,126355
23.10987,130594
23.11798,121040
23.12612,113918
23.13423,108168
23.14237,98281
23.15048,93004
23.15860,91377
23.16673,94789
23.17485,89376
23.18298,96836
23.19110,86152
23.19922,89209
23.20735,83331
23.21547,79979
23.22358,74268
23.23172,76043
23.23983,81856
23.24797,83859
23.25608,98315
23.26420,124978
23.27233,161244
23.28045,203292
23.28858,214866
23.29670,219176
23.30482,199914
23.31295,164653
23.32107,142413
23.32920,121085
23.33732,119780
23.34543,136790
23.35357,183613
23.36168,249856
23.36980,348657
23.37793,421574
23.38605,484302
23.39418,490022
23.40230,446415
23.41042,370011
23.41855,294846
23.42667,214178
23.43480,175323
23.44292,153445
23.45103,142486
23.45917,129888
23.46728,117494
23.47542,112051
23.48353,107227
23.49165,109961
23.49978,100340
23.50790,102822
23.51602,97369
23.52415,95203
23.53227,87929
23.54040,94003
23.54852,104328
23.55663,110072
23.56477,115957
23.57288,137112
23.58102,178086
23.58913,219847
23.59725,297563
23.60538,403557
23.61350,513735
23.62162,564274
23.62975,560137
23.63787,482933
23.64600,370324
23.65412,279364
23.66223,210193
23.67037,179268
23.67848,151720
23.68662,142121
23.69473,138249
23.70285,130242
23.71098,116080
23.71910,111998
23.72723,105485
23.73535,96110
23.74347,91917
23.75160,92913
23.75972,90397
23.76783,96564
23.77597,132317
23.78408,218141
23.79222,391888
23.80033,646061
23.80845,938131
23.81658,1122490
23.82470,1130945
23.83283,1045951
23.84095,886233
23.84907,682831
23.85720,513924
23.86532,404840
23.87343,338592
23.88157,286732
23.88968,260980
23.89782,246075
23.90593,260621
23.91405,308346
23.92218,383587
23.93030,461404
23.93843,523146
23.94655,530217
23.95467,450122
23.96280,370737
23.97092,279745
23.97905,216058
23.98717,186488
23.99528,159108
24.00342,149094
24.01153,143328
24.01965,140179
24.02778,147387
24.03590,152668
24.04403,163496
24.05215,171998
24.06027,172002
24.06840,156003
24.07652,138869
24.08465,128218
24.09277,117555
24.10088,110123
24.10902,106557
24.11713,98341
24.12527,101204
24.13338,107865
24.14150,115880
24.14963,138821
24.15775,176686
24.16587,206554
24.17400,237440
24.18212,261665
24.19025,273766
24.19837,265305
24.20648,254066
24.21462,257428
24.22273,242641
24.23087,224464
24.23898,204491
24.24710,182743
24.25523,159720
24.26335,150354
24.27148,131717
24.27960,123591
24.28772,112937
24.29585,117847
24.30397,113813
24.31208,112595
24.32022,117620
24.32833,119797
24.33647,134153
24.34458,130565
24.35270,136420
24.36083,129320
24.36895,119404
24.37708,103279
24.38520,104981
24.39332,105217
24.40145,102031
24.40957,103285
24.41768,115129
24.42582,127444
24.43393,137954
24.44207,140921
24.45018,133337
24.45830,130162
24.46643,115985
24.47455,112977
24.48268,109829
24.49080,104943
24.49892,109341
24.50705,112727
24.51517,111779
24.52330,120012
24.53142,127970
24.53953,139794
24.54767,169821
24.55578,200838
24.56390,255251
24.57203,299376
24.58015,327045
24.58828,326688
24.59640,300659
24.60452,267680
24.61265,252402
24.62077,217576
24.62890,180802
24.63702,169475
24.64513,148427
24.65327,138562
24.66138,131908
24.66950,129476
24.67763,132337
24.68575,129310
24.69388,121784
24.70200,124377
24.71012,104540
24.71825,110093
24.72637,115817
24.73450,113000
24.74262,111834
24.75073,118836
24.75887,111615
24.76698,116325
24.77512,121037
24.78323,137261
24.79135,145212
24.79948,169636
24.80760,175579
24.81572,186616
24.82385,185854
24.83197,186382
24.84010,217178
24.84822,272361
24.85633,368290
24.86447,529609
24.87258,784733
24.88072,1135011
24.88883,1688401
24.89695,2375531
24.90508,2985497
24.91320,3412481
24.92133,3398221
24.92945,2828102
24.93757,2104379
24.94570,1342537
24.95382,828855
24.96193,510548
24.97007,313472
24.97818,218450
24.98632,180054
24.99443,154021
25.00255,146367
25.01068,128786
25.01880,128176
25.02693,126724
25.03505,128040
25.04317,122587
25.05130,130609
25.05942,127930
25.06753,124654
25.07567,118627
25.08378,127377
25.09192,131555
25.10003,149864
25.10815,202842
25.11628,400421
25.12440,992600
25.13253,2338994
25.14065,4984911
25.14877,8728382
25.15690,1.320401E+07
25.16502,1.638836E+07
25.17315,1.817254E+07
25.18127,1.641782E+07
25.18938,1.213098E+07
25.19752,8013760
25.20563,4644952
25.21375,2458969
25.22188,1320030
25.23000,706219
25.23813,450775
25.24625,349404
25.25437,361535
25.26250,449002
25.27062,620946
25.27875,801252
25.28687,947509
25.29498,1001478
25.30312,941760
25.31123,772701
25.31937,592717
25.32748,400569
25.33560,275169
25.34373,206655
25.35185,159900
25.35997,132750
25.36810,129677
25.37622,118246
25.38435,110973
25.39247,100394
25.40058,103713
25.40872,98996
25.41683,93296
25.42497,86206
25.43308,87533
25.44120,90131
25.44933,87759
25.45745,91200
25.46557,89015
25.47370,95003
25.48182,89766
25.48995,90998
25.49807,96592
25.50618,94395
25.51432,95855
25.52243,94764
25.53057,90447
25.53868,90956
25.54680,83850
25.55493,89193
25.56305,86522
25.57118,83022
25.57930,85231
25.58742,85192
25.59555,92313
25.60367,91465
25.61178,92203
25.61992,85567
25.62803,86871
25.63617,81212
25.64428,78230
25.65240,84623
25.66053,81737
25.66865,75882
25.67678,77793
25.68490,86352
25.69302,98562
25.70115,122754
25.70927,150143
25.71738,161271
25.72552,148085
25.73363,137617
25.74177,123519
25.74988,117512
25.75800,109267
25.76613,95969
25.77425,88860
25.78238,83375
25.79050,82669
25.79862,78039
25.80675,72605
25.81487,78620
25.82300,76612
25.83112,79084
25.83923,80475
25.84737,83646
25.85548,84046
25.86360,86630
25.87173,81268
25.87985,80135
25.88798,87654
25.89610,86668
25.90422,86902
25.91235,84054
25.92047,84681
25.92860,84430
25.93672,89254
25.94483,84091
25.95297,86963
25.96108,91618
25.96922,98106
25.97733,99096
25.98545,99237
25.99358,96705
26.00170,94794
26.00982,91801
26.01795,77946
26.02607,75630
26.03420,78182
26.04232,73163
26.05043,73886
26.05857,79981
26.06668,78031
26.07482,84931
26.08293,97460
26.09105,120716
26.09918,164949
26.10730,241543
26.11542,333042
26.12355,391268
26.13167,420214
26.13980,423353
26.14792,427967
26.15603,437426
26.16417,426414
26.17228,441817
26.18042,450000
26.18853,456579
26.19665,448947
26.20478,455270
26.21290,446389
26.22103,442638
26.22915,432231
26.23727,426228
26.24540,428558
26.25352,418333
26.26163,396702
26.26977,391199
26.27788,387624
26.28602,395427
26.29413,395323
26.30225,383824
26.31038,383698
26.31850,384526
26.32663,374368
26.33475,378147
26.34287,387328
26.35100,385678
26.35912,403945
26.36725,493853
26.37537,679519
26.38348,1002414
26.39162,1521733
26.39973,2181187
26.40785,2798097
26.41598,3166575
26.42410,3149829
26.43223,2823714
26.44035,2282245
26.44847,1694974
26.45660,1198438
26.46472,848520
26.47285,650645
26.48097,524841
26.48908,479786
26.49722,438272
26.50533,414687
26.51345,398857
26.52158,377125
26.52970,345905
26.53783,341757
26.54595,328572
26.55407,333013
26.56220,319759
26.57032,313882
26.57845,317893
26.58657,310799
26.59468,313684
26.60282,306245
26.61093,314042
26.61907,309016
26.62718,304028
26.63530,298592
26.64343,307845
26.65155,303843
26.65967,306786
26.66780,296677
26.67592,305378
26.68405,292839
26.69217,284226
26.70028,291386
26.70842,291738
26.71653,287003
26.72467,289619
26.73278,281026
26.74090,279093
26.74903,274211
26.75715,279451
26.76528,287887
26.77340,288463
26.78152,284536
26.78965,279138
26.79777,281748
26.80588,277786
26.81402,293745
26.82213,297262
26.83027,298163
26.83838,286015
26.84650,288462
26.85463,276109
26.86275,272337
26.87088,264882
26.87900,261591
26.88712,257483
26.89525,262265
26.90337,260066
26.91148,253871
26.91962,249314
26.92773,242643
26.93587,229640
26.94398,235831
26.95210,239970
26.96023,246158
26.96835,234789
26.97648,255085
26.98460,259939
26.99272,284610
27.00085,314734
27.00897,361600
27.01710,432091
27.02522,532740
27.03333,623122
27.04147,686604
27.04958,713642
27.05770,670036
27.06583,579298
27.07395,483826
27.08208,427967
27.09020,399087
27.09832,355607
27.10645,338012
27.11457,318554
27.12270,315731
27.13082,317364
27.13893,308146
27.14707,320837
27.15518,307384
27.16330,296762
27.17143,319131
27.17955,341560
27.18768,379405
27.19580,450230
27.20392,509535
27.21205,546550
27.22017,528253
27.22830,464375
27.23642,420672
27.24453,367685
27.25267,327108
27.26078,288985
27.26892,263995
27.27703,245354
27.28515,222590
27.29328,217853
27.30140,206421
27.30952,211064
27.31765,211677
27.32577,209794
27.33390,203051
27.34202,218080
27.35013,217109
27.35827,219565
27.36638,237289
27.37452,228855
27.38263,230020
27.39075,224910
27.39888,226309
27.40700,218732
27.41513,203751
27.42325,199677
27.43137,199399
27.43950,203821
27.44762,196199
27.45573,195908
27.46387,196744
27.47198,188400
27.48012,185793
27.48823,173326
27.49635,167754
27.50448,172748
27.51260,167490
27.52073,173509
27.52885,167207
27.53697,168548
27.54510,175788
27.55322,163393
27.56133,170920
27.56947,169603
27.57758,176352
27.58572,196889
27.59383,232271
27.60195,272137
27.61008,339197
27.61820,371416
27.62633,368095
27.63445,324494
27.64257,288528
27.65070,245966
27.65882,227430
27.66695,210324
27.67507,185500
27.68318,185850
27.69132,193118
27.69943,196742
27.70755,208937
27.71568,204262
27.72380,201034
27.73193,193679
27.74005,176813
27.74817,161684
27.75630,149088
27.76442,146239
27.77255,145284
27.78067,151628
27.78878,166068
27.79692,180176
27.80503,184238
27.81317,190332
27.82128,190819
27.82940,189796
27.83753,162311
27.84565,151037
27.85377,145564
27.86190,140002
27.87002,142992
27.87815,126869
27.88627,125556
27.89438,125668
27.90252,119738
27.91063,128200
27.91877,127756
27.92688,131512
27.93500,126986
27.94313,126771
27.95125,127142
27.95937,123111
27.96750,120252
27.97562,117641
27.98375,118483
27.99187,119392
27.99998,113722
28.00812,127481
28.01623,138175
28.02437,150604
28.03248,169542
28.04060,196908
28.04873,231407
28.05685,289723
28.06498,322432
28.07310,349285
28.08122,340946
28.08935,289874
28.09747,238486
28.10558,194334
28.11372,157918
28.12183,141184
28.12997,123620
28.13808,122854
28.14620,111263
28.15433,111347
28.16245,109486
28.17058,111374
28.17870,107951
28.18682,106896
28.19495,122388
28.20307,145798
28.21118,171775
28.21932,225976
28.22743,282938
28.23557,324143
28.24368,364942
28.25180,349873
28.25993,317620
28.26805,268362
28.27618,208837
28.28430,168584
28.29242,141336
28.30055,131541
28.30867,133597
28.31680,153350
28.32492,175765
28.33303,227820
28.34117,248058
28.34928,266710
28.35740,244607
28.36553,220496
28.37365,201636
28.38178,183507
28.38990,174863
28.39802,176552
28.40615,181011
28.41427,189724
28.42240,197332
28.43052,195231
28.43863,183123
28.44677,177745
28.45488,163032
28.46302,154613
28.47113,142876
28.47925,136719
28.48738,146970
28.49550,147720
28.50362,168365
28.51175,191426
28.51987,199884
28.52800,219040
28.53612,213997
28.54423,207809
28.55237,168462
28.56048,146511
28.56862,124972
28.57673,115784
28.58485,99846
28.59298,99365
28.60110,100488
28.60922,93553
28.61735,102618
28.62547,107168
28.63360,121329
28.64172,121862
28.64983,138271
28.65797,137893
28.66608,143079
28.67422,136892
28.68233,127082
28.69045,121401
28.69858,111788
28.70670,106299
28.71483,96204
28.72295,97384
28.73107,92640
28.73920,88387
28.74732,83113
28.75543,89632
28.76357,84340
28.77168,89999
28.77982,93466
28.78793,98617
28.79605,116304
28.80418,125066
28.81230,142439
28.82043,151926
28.82855,173042
28.83667,178411
28.84480,169294
28.85292,152372
28.86105,146482
28.86917,132772
28.87728,133592
28.88542,139461
28.89353,162261
28.90165,192337
28.90978,238825
28.91790,266051
28.92603,272118
28.93415,239126
28.94227,213105
28.95040,175894
28.95852,154001
28.96665,126315
28.97477,129220
28.98288,122722
28.99102,110284
28.99913,103511
29.00725,104975
29.01538,99199
29.02350,100157
29.03163,95492
29.03975,93372
29.04787,99967
29.05600,101373
29.06412,97932
29.07225,97062
29.08037,98824
29.08848,111193
29.09662,113917
29.10473,119081
29.11287,128233
29.12098,123852
29.12910,116460
29.13723,104284
29.14535,99181
29.15347,90623
29.16160,89730
29.16972,89830
29.17785,88309
29.18597,98971
29.19408,108675
29.20222,140207
29.21033,194114
29.21847,277696
29.22658,368225
29.23470,434093
29.24283,458729
29.25095,420738
29.25907,375105
29.26720,306872
29.27532,267877
29.28345,241787
29.29157,204792
29.29968,170845
29.30782,142852
29.31593,122220
29.32407,106894
29.33218,105825
29.34030,93326
29.34843,88957
29.35655,86411
29.36468,81638
29.37280,84908
29.38092,86255
29.38905,87633
29.39717,88176
29.40528,94777
29.41342,93001
29.42153,96319
29.42967,107151
29.43778,105109
29.44590,105355
29.45403,107199
29.46215,104641
29.47028,98901
29.47840,92460
29.48652,85191
29.49465,87598
29.50277,89694
29.51090,93959
29.51902,99066
29.52713,96695
29.53527,95017
29.54338,102184
29.55150,88681
29.55963,91835
29.56775,92086
29.57588,91743
29.58400,88255
29.59212,90844
29.60025,85381
29.60837,81275
29.61650,83167
29.62462,85787
29.63273,86421
29.64087,82607
29.64898,82583
29.65712,86463
29.66523,85477
29.67335,77702
29.68148,85637
29.68960,90998
29.69772,111771
29.70585,124580
29.71397,137575
29.72210,150416
29.73022,144535
29.73833,130854
29.74647,114940
29.75458,101029
29.76272,94447
29.77083,89115
29.77895,86982
29.78708,80581
29.79520,76624
29.80332,80874
29.81145,83816
29.81957,72480
29.82770,82102
29.83582,78435
29.84393,74025
29.85207,80574
29.86018,77951
29.86832,84355
29.87643,86508
29.88455,102279
29.89268,130844
29.90080,171705
29.90893,234328
29.91705,279560
29.92517,291433
29.93330,276743
29.94142,225094
29.94953,182458
29.95767,134524
29.96578,106789
29.97392,94020
29.98203,96224
29.99015,93117
29.99828,98774
30.00640,107761
30.01453,111730
30.02265,108915
30.03077,123207
30.03890,122885
30.04702,128863
30.05513,120873
30.06327,118224
30.07138,123057
30.07952,117156
30.08763,127691
30.09575,125556
30.10388,115856
30.11200,118142
30.12013,119617
30.12825,113283
30.13637,117699
30.14450,111392
30.15262,107314
30.16075,103585
30.16887,104049
30.17698,102692
30.18512,111519
30.19323,109686
30.20135,108025
30.20948,130585
30.21760,130280
30.22573,138578
30.23385,139191
30.24197,128901
30.25010,116813
30.25822,101267
30.26635,100263
30.27447,88053
30.28258,89474
30.29072,87837
30.29883,89965
30.30697,86440
30.31508,79178
30.32320,79917
30.33133,80376
30.33945,83312
30.34757,86025
30.35570,84484
30.36382,90893
30.37195,89616
30.38007,90025
30.38818,90613
30.39632,90691
30.40443,79555
30.41257,87246
30.42068,80241
30.42880,77207
30.43693,80239
30.44505,77835
30.45317,77631
30.46130,76551
30.46942,79278
30.47755,81098
30.48567,79651
30.49378,82908
30.50192,86224
30.51003,89058
30.51817,93202
30.52628,91886
30.53440,95709
30.54253,89719
30.55065,88797
30.55878,86868
30.56690,88370
30.57502,91855
30.58315,88502
30.59127,91221
30.59938,94168
30.60752,89231
30.61563,91195
30.62377,90699
30.63188,99064
30.64000,95800
30.64813,92881
30.65625,86367
30.66438,86258
30.67250,84699
30.68062,78041
30.68875,80966
30.69687,77258
30.70500,76648
30.71312,73147
30.72123,78383
30.72937,74382
30.73748,76388
30.74560,78345
30.75373,81932
30.76185,74826
30.76998,74767
30.77810,78393
30.78622,96059
30.79435,111146
30.80247,159392
30.81060,236026
30.81872,345247
30.82683,429873
30.83497,471655
30.84308,446169
30.85120,352055
30.85933,258157
30.86745,198212
30.87558,151791
30.88370,138827
30.89182,128619
30.89995,134544
30.90807,123261
30.91620,127452
30.92432,116163
30.93243,112062
30.94057,104011
30.94868,94411
30.95682,90778
30.96493,91305
30.97305,94658
30.98118,99720
30.98930,107117
30.99742,100572
31.00555,94190
31.01367,88520
31.02180,87757
31.02992,87229
31.03803,88917
31.04617,88492
31.05428,84247
31.06242,87843
31.07053,80966
31.07865,88331
31.08678,92056
31.09490,99193
31.10302,104579
31.11115,124621
31.11927,145690
31.12740,153901
31.13552,162656
31.14363,148269
31.15177,141695
31.15988,134553
31.16802,133988
31.17613,139538
31.18425,142000
31.19238,146807
31.20050,152871
31.20863,172001
31.21675,211110
31.22487,264988
31.23300,330173
31.24112,379249
31.24923,390325
31.25737,342935
31.26548,265521
31.27362,215357
31.28173,157348
31.28985,118797
31.29798,98470
31.30610,92662
31.31423,93368
31.32235,91100
31.33047,104981
31.33860,125043
31.34672,128692
31.35485,148060
31.36297,153332
31.37108,136240
31.37922,130373
31.38733,111439
31.39545,98748
31.40358,91492
31.41170,91844
31.41983,87759
31.42795,86781
31.43607,77777
31.44420,83706
31.45232,80254
31.46045,77940
31.46857,82649
31.47668,82053
31.48482,83511
31.49293,91998
31.50105,100811
31.50918,102265
31.51730,116047
31.52543,120112
31.53355,128838
31.54167,135846
31.54980,139129
31.55792,136514
31.56605,135464
31.57417,131358
31.58228,122304
31.59042,119040
31.59853,112199
31.60667,105785
31.61478,91506
31.62290,86922
31.63103,88618
31.63915,80724
31.64727,83763
31.65540,86261
31.66352,94535
31.67165,114302
31.67977,132964
31.68788,155751
31.69602,159165
31.70413,163719
31.71227,155068
31.72038,139985
31.72850,124329
31.73663,109515
31.74475,89285
31.75288,85795
31.76100,81923
31.76912,82074
31.77725,95778
31.78537,83370
31.79348,80083
31.80162,83959
31.80973,80899
31.81787,83162
31.82598,78757
31.83410,85007
31.84223,88842
31.85035,84564
31.85848,83852
31.86660,80678
31.87472,97385
31.88285,86118
31.89097,91925
31.89908,85584
31.90722,87364
31.91533,81569
31.92347,84828
31.93158,84674
31.93970,79040
31.94783,88073
31.95595,87424
31.96408,89470
31.97220,96351
31.98032,100602
31.98845,109708
31.99657,119428
32.00470,125624
32.01282,148640
32.02093,158332
32.02907,167423
32.03718,175131
32.04530,173767
32.05343,153840
32.06155,142082
32.06968,123984
32.07780,113084
32.08592,108413
32.09405,103540
32.10217,100102
32.11030,98233
32.11842,99996
32.12653,97486
32.13467,94330
32.14278,93804
32.15092,90774
32.15903,84175
32.16715,85059
32.17528,81817
32.18340,80446
32.19152,83573
32.19965,90034
32.20777,84276
32.21590,87770
32.22402,86992
32.23213,83432
32.24027,86258
32.24838,87109
32.25652,82136
32.26463,80600
32.27275,86584
32.28088,86588
32.28900,90985
32.29712,93769
32.30525,92903
32.31337,86447
32.32150,83212
32.32962,80724
32.33773,90117
32.34587,83248
32.35398,80544
32.36212,85978
32.37023,82042
32.37835,89540
32.38648,85097
32.39460,84254
32.40273,84017
32.41085,79293
32.41897,81062
32.42710,80511
32.43522,82187
32.44333,81770
32.45147,86020
32.45958,81079
32.46772,77807
32.47583,82037
32.48395,76600
32.49208,81051
32.50020,75055
32.50833,79551
32.51645,79192
32.52457,80800
32.53270,87502
32.54082,86836
32.54893,90178
32.55707,87724
32.56518,82162
32.57332,83543
32.58143,82510
32.58955,81542
32.59768,79527
32.60580,85329
32.61393,78714
32.62205,80890
32.63017,83218
32.63830,81407
32.64642,79239
32.65455,78582
32.66267,83966
32.67078,84024
32.67892,83864
32.68703,83105
32.69515,87395
32.70328,97997
32.71140,95370
32.71953,94476
32.72765,91420
32.73577,93516
32.74390,92406
32.75202,88667
32.76015,79897
32.76827,82305
32.77638,82287
32.78452,80510
32.79263,78811
32.80077,77921
32.80888,74943
32.81700,85292
32.82513,81700
32.83325,79926
32.84137,81835
32.84950,92808
32.85762,81863
32.86575,88012
32.87387,93422
32.88198,84172
32.89012,96954
32.89823,96090
32.90637,103243
32.91448,111327
32.92260,126256
32.93073,122202
32.93885,114914
32.94697,105367
32.95510,102494
32.96322,95583
32.97135,92467
32.97947,100833
32.98758,113965
32.99572,149463
33.00383,220207
33.01197,287914
33.02008,357736
33.02820,388502
33.03633,374895
33.04445,321706
33.05258,255251
33.06070,191098
33.06882,175633
33.07695,185952
33.08507,210266
33.09318,227893
33.10132,270004
33.10943,301264
33.11757,328615
33.12568,368537
33.13380,346900
33.14193,310109
33.15005,263002
33.15818,236728
33.16630,199103
33.17442,189335
33.18255,164479
33.19067,150516
33.19880,131766
33.20692,124812
33.21503,110171
33.22317,109726
33.23128,109559
33.23940,111839
33.24753,108947
33.25565,111368
33.26378,115432
33.27190,108384
33.28002,100044
33.28815,98354
33.29627,96146
33.30440,96606
33.31252,97185
33.32063,102507
33.32877,96682
33.33688,104058
33.34500,107170
33.35313,104501
33.36125,121419
33.36938,133847
33.37750,145201
33.38562,152158
33.39375,147688
33.40187,135571
33.41000,120710
33.41812,107737
33.42623,104994
33.43437,92582
33.44248,91275
33.45062,79241
33.45873,88673
33.46685,79273
33.47498,85008
33.48310,83625
33.49122,85263
33.49935,93185
33.50747,92177
33.51560,98573
33.52372,107474
33.53183,112387
33.53997,116941
33.54808,122232
33.55622,127477
33.56433,151882
33.57245,165009
33.58058,180799
33.58870,180673
33.59682,156079
33.60495,140484
33.61307,112728
33.62120,100307
33.62932,96921
33.63743,93529
33.64557,101679
33.65368,102373
33.66182,107866
33.66993,107966
33.67805,119024
33.68618,120361
33.69430,120361
33.70243,106684
33.71055,97050
33.71867,93235
33.72680,89945
33.73492,90864
33.74303,88000
33.75117,86134
33.75928,86274
33.76742,94526
33.77553,85222
33.78365,82775
33.79178,83190
33.79990,84455
33.80803,87429
33.81615,82365
33.82427,82599
33.83240,86322
33.84052,84552
33.84865,81980
33.85677,82944
33.86488,85987
33.87302,87265
33.88113,90937
33.88925,97277
33.89738,92558
33.90550,94852
33.91363,95812
33.92175,96963
33.92987,97683
33.93800,89956
33.94612,90941
33.95425,86199
33.96237,84618
33.97048,87447
33.97862,80309
33.98673,78871
33.99485,81016
34.00298,83750
34.01110,83977
34.01923,78784
34.02735,83067
34.03547,82425
34.04360,79415
34.05172,83633
34.05985,79980
34.06797,88640
34.07608,81091
34.08422,88318
34.09233,85516
34.10047,85074
34.10858,77241
34.11670,83037
34.12483,86179
34.13295,87074
34.14107,84447
34.14920,88554
34.15732,87361
34.16545,83664
34.17357,92623
34.18168,85888
34.18982,87756
34.19793,85934
34.20607,85151
34.21418,84560
34.22230,84328
34.23043,84151
34.23855,89441
34.24668,85254
34.25480,79988
34.26292,82050
34.27105,81003
34.27917,78941
34.28728,80199
34.29542,81581
34.30353,78893
34.31167,70987
34.31978,81248
34.32790,75769
34.33603,79541
34.34415,75119
34.35228,83160
34.36040,83990
34.36852,82954
34.37665,80146
34.38477,81583
34.39288,81070
34.40102,80124
34.40913,82635
34.41727,89767
34.42538,84292
34.43350,82145
34.44163,83577
34.44975,90012
34.45788,86970
34.46600,83294
34.47412,86518
34.48225,84653
34.49037,87129
34.49850,81211
34.50662,78082
34.51473,82566
34.52287,77907
34.53098,85148
34.53910,82991
34.54723,99301
34.55535,95152
34.56348,107018
34.57160,120188
34.57972,124088
34.58785,131875
34.59597,132641
34.60410,132445
34.61222,128595
34.62033,115104
34.62847,105352
34.63658,103782
34.64470,98910
34.65283,97921
34.66095,93625
34.66908,92554
34.67720,93382
34.68532,93390
34.69345,84463
34.70157,94351
34.70970,87393
34.71782,87835
34.72593,84893
34.73407,84606
34.74218,85807
34.75032,84489
34.75843,83911
34.76655,90548
34.77468,95251
34.78280,106071
34.79092,101720
34.79905,106018
34.80717,115297
34.81530,105928
34.82342,102774
34.83153,98986
34.83967,94949
34.84778,93398
34.85592,88592
34.86403,93948
34.87215,94399
34.88028,88804
34.88840,92951
34.89653,88314
34.90465,93170
34.91277,87476
34.92090,89957
34.92902,90937
34.93713,86049
34.94527,91408
34.95338,93188
34.96152,101409
34.96963,100845
34.97775,106288
34.98588,114787
34.99400,121431
35.00213,115730
35.01025,116267
35.01837,107986
35.02650,104900
35.03462,102042
35.04275,98180
35.05087,94582
35.05898,94459
35.06712,87660
35.07523,95940
35.08335,89756
35.09148,91262
35.09960,91329
35.10773,90534
35.11585,87585
35.12397,85775
35.13210,90364
35.14022,92785
35.14835,89963
35.15647,98127
35.16458,94558
35.17272,99330
35.18083,97752
35.18895,99758
35.19708,96028
35.20520,97957
35.21333,89211
35.22145,90824
35.22957,89990
35.23770,88588
35.24582,87237
35.25395,93466
35.26207,83219
35.27018,92769
35.27832,90768
35.28643,92189
35.29457,95254
35.30268,95881
35.31080,91912
35.31893,92430
35.32705,92680
35.33517,90001
35.34330,92129
35.35142,86293
35.35955,85193
35.36767,86101
35.37578,88233
35.38392,86931
35.39203,91377
35.40017,93078
35.40828,101460
35.41640,100744
35.42453,117534
35.43265,127248
35.44077,135437
35.44890,145285
35.45702,147091
35.46515,141197
35.47327,129971
35.48138,129177
35.48952,113210
35.49763,108704
35.50577,105212
35.51388,109208
35.52200,111310
35.53013,106895
35.53825,98522
35.54638,95721
35.55450,102858
35.56262,97059
35.57075,87619
35.57887,95633
35.58698,89559
35.59512,93084
35.60323,93778
35.61137,96754
35.61948,91964
35.62760,91408
35.63573,93391
35.64385,91335
35.65198,92369
35.66010,90857
35.66822,88972
35.67635,95925
35.68447,91095
35.69260,90791
35.70072,87952
35.70883,89249
35.71697,89111
35.72508,93880
35.73320,100631
35.74133,97779
35.74945,106552
35.75758,121514
35.76570,136634
35.77382,165469
35.78195,181912
35.79007,200076
35.79820,203787
35.80632,189783
35.81443,170059
35.82257,146509
35.83068,125425
35.83880,119114
35.84693,99166
35.85505,101645
35.86318,102732
35.87130,99337
35.87942,100950
35.88755,99012
35.89567,99005
35.90380,100565
35.91192,97229
35.92003,101773
35.92817,100184
35.93628,101618
35.94442,99681
35.95253,97030
35.96065,95661
35.96878,98461
35.97690,94795
35.98502,91214
35.99315,93753
36.00127,93993
36.00940,94438
36.01752,97474
36.02563,97456
36.03377,104604
36.04188,105811
36.05002,101258
36.05813,100356
36.06625,93784
36.07438,99343
36.08250,98960
36.09063,97170
36.09875,96998
36.10687,94296
36.11500,98768
36.12312,104123
36.13123,102841
36.13937,107588
36.14748,119693
36.15562,126163
36.16373,131733
36.17185,136691
36.17998,135439
36.18810,119526
36.19623,124128
36.20435,107889
36.21247,106507
36.22060,95544
36.22872,92268
36.23683,96621
36.24497,92357
36.25308,98980
36.26122,91020
36.26933,94221
36.27745,97172
36.28558,97491
36.29370,102249
36.30183,94860
36.30995,102286
36.31807,105708
36.32620,103377
36.33432,109099
36.34245,110156
36.35057,112337
36.35868,120555
36.36682,112699
36.37493,106768
36.38305,102005
36.39118,108343
36.39930,111759
36.40743,111227
36.41555,113459
36.42367,111198
36.43180,110870
36.43992,114030
36.44805,114087
36.45617,116662
36.46428,112071
36.47242,110487
36.48053,106656
36.48865,101819
36.49678,101164
36.50490,97435
36.51303,93931
36.52115,93375
36.52927,94608
36.53740,91913
36.54552,101471
36.55365,99292
36.56177,101212
36.56988,101951
36.57802,98296
36.58613,97297
36.59427,95677
36.60238,92412
36.61050,96490
36.61863,105837
36.62675,100508
36.63487,98604
36.64300,97179
36.65112,98154
36.65925,97424
36.66737,97834
36.67548,98237
36.68362,100482
36.69173,98759
36.69987,101226
36.70798,98520
36.71610,97134
36.72423,103358
36.73235,101587
36.74048,99464
36.74860,110406
36.75672,109079
36.76485,108141
36.77297,107886
36.78108,108437
36.78922,104192
36.79733,100884
36.80547,105011
36.81358,102667
36.82170,103919
36.82983,112639
36.83795,99918
36.84608,99012
36.85420,104156
36.86232,97137
36.87045,95586
36.87857,93776
36.88668,90293
36.89482,98753
36.90293,93701
36.91107,90802
36.91918,95664
36.92730,92446
36.93543,97735
36.94355,101114
36.95168,110029
36.95980,155575
36.96792,193883
36.97605,258803
36.98417,315845
36.99230,364627
37.00042,360967
37.00853,305227
37.01667,246468
37.02478,196596
37.03290,154039
37.04103,125592
37.04915,118187
37.05728,110494
37.06540,112340
37.07352,111625
37.08165,107993
37.08977,125880
37.09790,124919
37.10602,133699
37.11413,136989
37.12227,135122
37.13038,140830
37.13852,127029
37.14663,116759
37.15475,112823
37.16288,111470
37.17100,102552
37.17912,111128
37.18725,107647
37.19537,100480
37.20350,97264
37.21162,107208
37.21973,106552
37.22787,109464
37.23598,105792
37.24412,108908
37.25223,108200
37.26035,107315
37.26848,107542
37.27660,107893
37.28472,105619
37.29285,111399
37.30097,105820
37.30910,98614
37.31722,103266
37.32533,101551
37.33347,103003
37.34158,103447
37.34972,105482
37.35783,110289
37.36595,100544
37.37408,111598
37.38220,114404
37.39033,112369
37.39845,111325
37.40657,118564
37.41470,119533
37.42282,120983
37.43093,119337
37.43907,128193
37.44718,127209
37.45532,130943
37.46343,133112
37.47155,129376
37.47968,122945
37.48780,123894
