Z:\data\JTB-E02\BACandBLUE\JTB-E02-194-13.D Thu Dec 20 11:55:01 2018
Start of data points
2.09532,68172
2.10343,73889
2.11155,68059
2.11968,69813
2.12780,72387
2.13593,68325
2.14405,63631
2.15217,66457
2.16030,66245
2.16842,65000
2.17655,66911
2.18467,64950
2.19278,64391
2.20092,64982
2.20903,60696
2.21717,61175
2.22528,63936
2.23340,60180
2.24153,60497
2.24965,59055
2.25777,55623
2.26590,80196
2.27402,505348
2.28215,1733911
2.29027,1884960
2.29838,995829
2.30652,588406
2.31463,443649
2.32277,373950
2.33088,324468
2.33900,285881
2.34713,265015
2.35525,245108
2.36337,228869
2.37150,220870
2.37962,218455
2.38775,204981
2.39587,202489
2.40398,196844
2.41212,196641
2.42023,202814
2.42837,198838
2.43648,190210
2.44460,177521
2.45273,173852
2.46085,170577
2.46898,163375
2.47710,159636
2.48522,150468
2.49335,161337
2.50147,168252
2.50958,152339
2.51772,154783
2.52583,147714
2.53397,154699
2.54208,148059
2.55020,142772
2.55833,155338
2.56645,162198
2.57458,147770
2.58270,139088
2.59082,132761
2.59895,135824
2.60707,234779
2.61518,530228
2.62332,663640
2.63143,449484
2.63957,290477
2.64768,227999
2.65580,196605
2.66393,169908
2.67205,163044
2.68018,148690
2.68830,138002
2.69642,136877
2.70455,126167
2.71267,124655
2.72080,120823
2.72892,123958
2.73703,121077
2.74517,117438
2.75328,118775
2.76140,117267
2.76953,116202
2.77765,247377
2.78578,973240
2.79390,1757677
2.80202,1343471
2.81015,721252
2.81827,519283
2.82640,483565
2.83452,390783
2.84263,309087
2.85077,265081
2.85888,229257
2.86702,202776
2.87513,192509
2.88325,171522
2.89138,160882
2.89950,154996
2.90762,150949
2.91575,141170
2.92387,142763
2.93200,129884
2.94012,124408
2.94823,131501
2.95637,130648
2.96448,137283
2.97262,150158
2.98073,141873
2.98885,131948
2.99698,132550
3.00510,136174
3.01322,130357
3.02135,126235
3.02947,124186
3.03760,119848
3.04572,114858
3.05383,115993
3.06197,106804
3.07008,113452
3.07822,125123
3.08633,285294
3.09445,875166
3.10258,2139008
3.11070,4928598
3.11883,7025954
3.12695,5635181
3.13507,3439787
3.14320,2264711
3.15132,1690490
3.15943,1305717
3.16757,1101576
3.17568,1033600
3.18382,1291484
3.19193,2926162
3.20005,5826357
3.20818,6166882
3.21630,4302318
3.22443,2932742
3.23255,2305932
3.24067,1819556
3.24880,1482427
3.25692,1270516
3.26505,1074902
3.27317,931486
3.28128,806996
3.28942,796196
3.29753,1120264
3.30565,2432991
3.31378,4583931
3.32190,5815949
3.33003,5139180
3.33815,3803026
3.34627,2829588
3.35440,2194375
3.36252,1802899
3.37065,1523800
3.37877,1354464
3.38688,1200726
3.39502,1071808
3.40313,976059
3.41125,902924
3.41938,827852
3.42750,774709
3.43563,758893
3.44375,747884
3.45187,725252
3.46000,684463
3.46812,777426
3.47625,987548
3.48437,1068725
3.49248,879277
3.50062,684413
3.50873,574050
3.51687,515633
3.52498,507404
3.53310,498848
3.54123,543553
3.54935,576489
3.55747,564946
3.56560,476261
3.57372,431781
3.58185,410389
3.58997,388115
3.59808,379125
3.60622,366304
3.61433,350219
3.62247,367889
3.63058,373710
3.63870,359409
3.64683,367523
3.65495,395585
3.66307,1148032
3.67120,7265696
3.67932,2.421181E+07
3.68745,4.037303E+07
3.69557,4.237309E+07
3.70368,3.213325E+07
3.71182,2.130061E+07
3.71993,1.588209E+07
3.72807,1.272804E+07
3.73618,1.058617E+07
3.74430,8996064
3.75243,7769778
3.76055,6775327
3.76868,5970832
3.77680,5239094
3.78492,4715659
3.79305,4293661
3.80117,3990112
3.80928,3911594
3.81742,4193241
3.82553,4531946
3.83367,4331289
3.84178,3721680
3.84990,3218381
3.85803,2917161
3.86615,2715406
3.87428,2515107
3.88240,2324689
3.89052,2210583
3.89865,2092132
3.90677,1979912
3.91490,1914967
3.92302,2108316
3.93113,2565094
3.93927,2934905
3.94738,2708972
3.95550,2285294
3.96363,2129214
3.97175,2328996
3.97988,2315177
3.98800,1980150
3.99612,1655646
4.00425,1635114
4.01237,2099806
4.02050,2823922
4.02862,2943437
4.03673,2364341
4.04487,1717118
4.05298,1364359
4.06110,1185682
4.06923,1069189
4.07735,1019642
4.08548,997552
4.09360,944542
4.10172,929911
4.10985,897959
4.11797,872653
4.12610,829823
4.13422,799796
4.14233,798575
4.15047,826801
4.15858,832723
4.16672,847086
4.17483,829842
4.18295,809009
4.19108,780036
4.19920,767166
4.20732,806576
4.21545,1743740
4.22357,5610438
4.23170,1.382172E+07
4.23982,2.291247E+07
4.24793,2.97523E+07
4.25607,3.441671E+07
4.26418,3.742345E+07
4.27232,3.637734E+07
4.28043,2.459603E+07
4.28855,1.195062E+07
4.29668,8033854
4.30480,6086933
4.31293,4872272
4.32105,3905082
4.32917,3294917
4.33730,2827359
4.34542,2499582
4.35353,2238248
4.36167,2069298
4.36978,1993882
4.37792,1967762
4.38603,1872947
4.39415,1669998
4.40228,1456555
4.41040,1308848
4.41853,1190646
4.42665,1111307
4.43477,1055947
4.44290,983956
4.45102,940471
4.45913,900596
4.46727,848932
4.47538,816078
4.48352,796115
4.49163,770209
4.49975,750281
4.50788,742707
4.51600,716734
4.52413,690467
4.53225,670186
4.54037,664214
4.54850,664385
4.55662,691231
4.56475,680877
4.57287,644654
4.58098,625503
4.58912,580371
4.59723,568616
4.60535,557488
4.61348,555089
4.62160,576674
4.62973,669443
4.63785,1024798
4.64597,1617983
4.65410,2024730
4.66222,1878934
4.67035,1406963
4.67847,1016356
4.68658,845334
4.69472,742313
4.70283,671864
4.71095,609462
4.71908,552856
4.72720,513695
4.73533,489022
4.74345,484121
4.75157,466287
4.75970,465196
4.76782,446862
4.77595,444676
4.78407,425116
4.79218,448126
4.80032,502211
4.80843,624214
4.81657,732343
4.82468,733757
4.83280,647202
4.84093,596987
4.84905,649239
4.85717,730511
4.86530,754230
4.87342,695825
4.88155,593519
4.88967,528375
4.89778,487119
4.90592,454729
4.91403,436227
4.92217,422476
4.93028,430197
4.93840,434745
4.94653,573259
4.95465,957604
4.96278,1789257
4.97090,2733361
4.97902,3247526
4.98715,3044740
4.99527,2357396
5.00338,1770726
5.01152,1364636
5.01963,1163127
5.02777,1101966
5.03588,1329572
5.04400,1820207
5.05213,2227867
5.06025,2207019
5.06838,1863427
5.07650,1529215
5.08462,1339953
5.09275,1151579
5.10087,1041183
5.10898,978351
5.11712,913392
5.12523,842165
5.13337,794636
5.14148,747640
5.14960,744982
5.15773,807033
5.16585,982728
5.17398,1197447
5.18210,1273524
5.19022,1161739
5.19835,1015086
5.20647,975424
5.21460,1026878
5.22272,1068238
5.23083,1009346
5.23897,900766
5.24708,811720
5.25520,740563
5.26333,657122
5.27145,589267
5.27958,554442
5.28770,493227
5.29582,464795
5.30395,469460
5.31207,465213
5.32020,445836
5.32832,430982
5.33643,440943
5.34457,461410
5.35268,468517
5.36082,460858
5.36893,436227
5.37705,414993
5.38518,409072
5.39330,411763
5.40142,415042
5.40955,449266
5.41767,442308
5.42580,418829
5.43392,397024
5.44203,394930
5.45017,396047
5.45828,426283
5.46642,449429
5.47453,456379
5.48265,423013
5.49078,385190
5.49890,353925
5.50702,341844
5.51515,331900
5.52327,331611
5.53140,336218
5.53952,327179
5.54763,329011
5.55577,352067
5.56388,426630
5.57202,601024
5.58013,761979
5.58825,870400
5.59638,776366
5.60450,613082
5.61263,469162
5.62075,411557
5.62887,381329
5.63700,360350
5.64512,357279
5.65323,343584
5.66137,330464
5.66948,325823
5.67762,311666
5.68573,355395
5.69385,422653
5.70198,494531
5.71010,529694
5.71823,498291
5.72635,422618
5.73447,363117
5.74260,324705
5.75072,311491
5.75885,289879
5.76697,295278
5.77508,277000
5.78322,273130
5.79133,276071
5.79945,269273
5.80758,267658
5.81570,269226
5.82383,261088
5.83195,264612
5.84007,266154
5.84820,256571
5.85632,264710
5.86445,256130
5.87257,262353
5.88068,251548
5.88882,249394
5.89693,249868
5.90505,238984
5.91318,234038
5.92130,242682
5.92943,238947
5.93755,247874
5.94567,254103
5.95380,289159
5.96192,371421
5.97005,505834
5.97817,648737
5.98628,871935
5.99442,1107086
6.00253,1285493
6.01067,1258774
6.01878,1016829
6.02690,737505
6.03503,529614
6.04315,414737
6.05127,312608
6.05940,281256
6.06752,258591
6.07565,254282
6.08377,230759
6.09188,229678
6.10002,226862
6.10813,220757
6.11627,212956
6.12438,241854
6.13250,352356
6.14063,684573
6.14875,1175157
6.15687,1618119
6.16500,1627482
6.17312,1292590
6.18125,926374
6.18937,689387
6.19748,570084
6.20562,496154
6.21373,432424
6.22187,393113
6.22998,386141
6.23810,358859
6.24623,346953
6.25435,338301
6.26248,356936
6.27060,358867
6.27872,358839
6.28685,357235
6.29497,326367
6.30308,305116
6.31122,295028
6.31933,293722
6.32747,295981
6.33558,294517
6.34370,295846
6.35183,305284
6.35995,305390
6.36808,290861
6.37620,283750
6.38432,281952
6.39245,287532
6.40057,285292
6.40870,283489
6.41682,273992
6.42493,265287
6.43307,260104
6.44118,269475
6.44930,264898
6.45743,265798
6.46555,271770
6.47368,271811
6.48180,268676
6.48992,278780
6.49805,281040
6.50617,269414
6.51430,276140
6.52242,278140
6.53053,279248
6.53867,276729
6.54678,278877
6.55490,275755
6.56303,269922
6.57115,306361
6.57928,405869
6.58740,545135
6.59552,608845
6.60365,575454
6.61177,470152
6.61990,390820
6.62802,341561
6.63613,319584
6.64427,296638
6.65238,288572
6.66052,290237
6.66863,281196
6.67675,237821
6.68488,237339
6.69300,216025
6.70112,209054
6.70925,195013
6.71737,194939
6.72550,198685
6.73362,191426
6.74173,192741
6.74987,182727
6.75798,175558
6.76612,180507
6.77423,177314
6.78235,176728
6.79048,180716
6.79860,179619
6.80673,159333
6.81485,162257
6.82297,153144
6.83110,155829
6.83922,146926
6.84733,157131
6.85547,161185
6.86358,181154
6.87172,216365
6.87983,238414
6.88795,245874
6.89608,228585
6.90420,189876
6.91233,166032
6.92045,145231
6.92857,140263
6.93670,136394
6.94482,118900
6.95293,127381
6.96107,119047
6.96918,122172
6.97732,141015
6.98543,160071
6.99355,171765
7.00168,169054
7.00980,157641
7.01793,148908
7.02605,146920
7.03417,150988
7.04230,146795
7.05042,139472
7.05855,128898
7.06667,130578
7.07478,154889
7.08292,169778
7.09103,177878
7.09915,184283
7.10728,165466
7.11540,152194
7.12353,140308
7.13165,123893
7.13977,119089
7.14790,130165
7.15602,149500
7.16415,187701
7.17227,222451
7.18038,253097
7.18852,332252
7.19663,724156
7.20475,2090032
7.21288,4952942
7.22100,8646604
7.22913,1.114742E+07
7.23725,1.054864E+07
7.24537,7200700
7.25350,3655879
7.26162,1579024
7.26975,667735
7.27787,316684
7.28598,207029
7.29412,168833
7.30223,170978
7.31037,161428
7.31848,167117
7.32660,181518
7.33473,215366
7.34285,255256
7.35097,305876
7.35910,317141
7.36722,302062
7.37535,252154
7.38347,210422
7.39158,175492
7.39972,154798
7.40783,138228
7.41597,143054
7.42408,138323
7.43220,138940
7.44033,131834
7.44845,135324
7.45658,133797
7.46470,132504
7.47282,133013
7.48095,130797
7.48907,134456
7.49718,121084
7.50532,121885
7.51343,117899
7.52157,113488
7.52968,129139
7.53780,181987
7.54593,330325
7.55405,647769
7.56218,1189283
7.57030,1913661
7.57842,2604840
7.58655,2887683
7.59467,2725049
7.60280,2194146
7.61092,1522110
7.61903,960869
7.62717,567675
7.63528,358290
7.64340,250348
7.65153,197670
7.65965,171742
7.66778,152688
7.67590,135595
7.68402,126056
7.69215,120804
7.70027,112701
7.70840,106929
7.71652,111531
7.72463,111730
7.73277,113506
7.74088,131155
7.74900,139018
7.75713,136391
7.76525,138380
7.77338,138788
7.78150,130681
7.78962,121174
7.79775,124102
7.80587,135147
7.81400,152318
7.82212,182256
7.83023,194045
7.83837,189165
7.84648,162033
7.85462,141974
7.86273,124780
7.87085,119806
7.87898,128603
7.88710,139012
7.89522,177869
7.90335,192309
7.91147,209156
7.91960,213389
7.92772,191748
7.93583,182125
7.94397,188374
7.95208,211490
7.96022,244028
7.96833,248068
7.97645,234348
7.98458,215388
7.99270,188760
8.00082,158432
8.00895,128070
8.01707,112553
8.02520,105920
8.03332,102232
8.04143,101205
8.04957,99795
8.05768,101144
8.06582,99529
8.07393,99704
8.08205,90398
8.09018,95272
8.09830,101325
8.10643,100090
8.11455,91635
8.12267,89431
8.13080,98107
8.13892,112971
8.14703,167511
8.15517,241499
8.16328,312562
8.17142,329251
8.17953,292139
8.18765,232223
8.19578,176975
8.20390,140043
8.21203,124864
8.22015,111790
8.22827,109608
8.23640,101234
8.24452,95149
8.25265,93740
8.26077,89417
8.26888,98248
8.27702,89917
8.28513,87343
8.29325,83122
8.30138,82443
8.30950,85756
8.31763,85239
8.32575,87673
8.33387,96223
8.34200,92494
8.35012,93132
8.35825,93661
8.36637,88221
8.37448,83711
8.38262,82918
8.39073,81590
8.39885,77926
8.40698,81850
8.41510,75867
8.42323,77599
8.43135,74609
8.43947,81889
8.44760,75854
8.45572,73031
8.46385,74647
8.47197,73852
8.48008,69192
8.48822,67472
8.49633,68331
8.50447,69070
8.51258,71659
8.52070,81683
8.52883,114933
8.53695,170202
8.54507,244666
8.55320,301844
8.56132,282395
8.56945,213318
8.57757,148587
8.58568,105218
8.59382,88369
8.60193,88933
8.61007,100677
8.61818,125229
8.62630,154304
8.63443,166609
8.64255,172908
8.65068,163098
8.65880,133319
8.66692,117610
8.67505,88864
8.68317,84713
8.69128,78057
8.69942,74738
8.70753,75192
8.71567,75552
8.72378,70861
8.73190,69167
8.74003,74117
8.74815,66997
8.75628,71570
8.76440,74655
8.77252,105463
8.78065,185224
8.78877,386557
8.79688,694324
8.80502,1032027
8.81313,1193189
8.82127,1094107
8.82938,824782
8.83750,566182
8.84563,411462
8.85375,340698
8.86188,306092
8.87000,284832
8.87812,259844
8.88625,248221
8.89437,237639
8.90250,214811
8.91062,218478
8.91873,217180
8.92687,241760
8.93498,307244
8.94310,410172
8.95123,505520
8.95935,513724
8.96748,448533
8.97560,340766
8.98372,281729
8.99185,263697
8.99997,258298
9.00810,265293
9.01622,239402
9.02433,211263
9.03247,192043
9.04058,168184
9.04870,160608
9.05683,160765
9.06495,149301
9.07308,145966
9.08120,140487
9.08932,142420
9.09745,148802
9.10557,165926
9.11370,191813
9.12182,235691
9.12993,275337
9.13807,275984
9.14618,259833
9.15432,223667
9.16243,191494
9.17055,183420
9.17868,165011
9.18680,162062
9.19492,149119
9.20305,143305
9.21117,136905
9.21930,134954
9.22742,134812
9.23553,145007
9.24367,139890
9.25178,146275
9.25992,145289
9.26803,138063
9.27615,131361
9.28428,124101
9.29240,124411
9.30053,119706
9.30865,125512
9.31677,116483
9.32490,122046
9.33302,110592
9.34113,114560
9.34927,110692
9.35738,118301
9.36552,113851
9.37363,104710
9.38175,110390
9.38988,112286
9.39800,119080
9.40613,120751
9.41425,131438
9.42237,152369
9.43050,189589
9.43862,219793
9.44673,288868
9.45487,327602
9.46298,323546
9.47112,303418
9.47923,245603
9.48735,199129
9.49548,154352
9.50360,129014
9.51173,129851
9.51985,122961
9.52797,134990
9.53610,152813
9.54422,158190
9.55235,154378
9.56047,141602
9.56858,125330
9.57672,110159
9.58483,102693
9.59295,89589
9.60108,91028
9.60920,89918
9.61733,95094
9.62545,88812
9.63357,75717
9.64170,77603
9.64982,74827
9.65795,70906
9.66607,71265
9.67418,71367
9.68232,76165
9.69043,73044
9.69857,67935
9.70668,68116
9.71480,74879
9.72293,77701
9.73105,84586
9.73917,87538
9.74730,79466
9.75542,82197
9.76355,70366
9.77167,71218
9.77978,67203
9.78792,71978
9.79603,64678
9.80417,69362
9.81228,64416
9.82040,65988
9.82853,66315
9.83665,63974
9.84477,71908
9.85290,67917
9.86102,67447
9.86915,69306
9.87727,71022
9.88538,65039
9.89352,66179
9.90163,61527
9.90977,65271
9.91788,65269
9.92600,66573
9.93413,66375
9.94225,77531
9.95038,97560
9.95850,135959
9.96662,170938
9.97475,209330
9.98287,229256
9.99098,211405
9.99912,176271
10.00723,137669
10.01537,121030
10.02348,112402
10.03160,110233
10.03973,104857
10.04785,106594
10.05598,109292
10.06410,101155
10.07222,110299
10.08035,116727
10.08847,114227
10.09658,112899
10.10472,108978
10.11283,104605
10.12097,97708
10.12908,107573
10.13720,96540
10.14533,95496
10.15345,96045
10.16158,92487
10.16970,87924
10.17782,91556
10.18595,90371
10.19407,88609
10.20220,85719
10.21032,80318
10.21843,78901
10.22657,86319
10.23468,91202
10.24280,88843
10.25093,99621
10.25905,117128
10.26718,213412
10.27530,555502
10.28342,1440469
10.29155,3245551
10.29967,5999078
10.30780,9114472
10.31592,1.233255E+07
10.32403,1.597664E+07
10.33217,2.018519E+07
10.34028,2.622708E+07
10.34842,3.392232E+07
10.35653,4.239223E+07
10.36465,4.920234E+07
10.37278,5.119761E+07
10.38090,4.268544E+07
10.38902,2.344528E+07
10.39715,8809073
10.40527,3597283
10.41340,2051629
10.42152,1423380
10.42963,1081087
10.43777,875520
10.44588,771780
10.45402,697292
10.46213,694768
10.47025,675495
10.47838,658493
10.48650,599732
10.49462,563673
10.50275,507603
10.51087,464149
10.51900,417196
10.52712,385488
10.53523,380282
10.54337,368061
10.55148,387570
10.55962,366218
10.56773,367853
10.57585,362864
10.58398,350953
10.59210,360028
10.60023,353302
10.60835,322301
10.61647,306211
10.62460,282538
10.63272,269955
10.64083,260797
10.64897,249704
10.65708,240789
10.66522,238164
10.67333,226267
10.68145,219212
10.68958,228764
10.69770,216798
10.70583,225041
10.71395,231885
10.72207,229195
10.73020,232815
10.73832,227756
10.74645,226137
10.75457,211421
10.76268,203617
10.77082,200627
10.77893,188457
10.78705,175956
10.79518,185404
10.80330,170467
10.81143,167264
10.81955,173575
10.82767,177574
10.83580,183374
10.84392,167690
10.85205,162316
10.86017,156073
10.86828,147215
10.87642,140076
10.88453,140909
10.89265,138389
10.90078,138717
10.90890,134817
10.91703,138410
10.92515,135369
10.93327,131601
10.94140,135270
10.94952,127937
10.95765,127674
10.96577,127718
10.97388,127373
10.98202,135844
10.99013,125675
10.99827,132033
11.00638,127139
11.01450,129826
11.02263,126878
11.03075,126595
11.03887,136200
11.04700,129032
11.05512,121889
11.06325,117034
11.07137,120309
11.07948,119566
11.08762,128111
11.09573,134398
11.10387,139493
11.11198,138564
11.12010,138614
11.12823,128230
11.13635,112462
11.14448,101721
11.15260,101738
11.16072,98161
11.16885,96725
11.17697,96288
11.18508,91764
11.19322,92492
11.20133,98878
11.20947,91566
11.21758,97904
11.22570,93755
11.23383,89960
11.24195,84385
11.25008,79110
11.25820,82091
11.26632,73760
11.27445,73984
11.28257,69351
11.29068,71319
11.29882,79860
11.30693,83700
11.31507,120680
11.32318,198873
11.33130,391289
11.33943,722969
11.34755,1195826
11.35568,1606403
11.36380,1793121
11.37192,1684512
11.38005,1324459
11.38817,968666
11.39630,667229
11.40442,484407
11.41253,406350
11.42067,345735
11.42878,317360
11.43690,264750
11.44503,232224
11.45315,197774
11.46128,170788
11.46940,161780
11.47752,156881
11.48565,150454
11.49377,191870
11.50190,239158
11.51002,302971
11.51813,388076
11.52627,423819
11.53438,412578
11.54250,369860
11.55063,329272
11.55875,287114
11.56688,245362
11.57500,230988
11.58312,207591
11.59125,197790
11.59937,219934
11.60750,296811
11.61562,445371
11.62373,621701
11.63187,786355
11.63998,796786
11.64812,663440
11.65623,492007
11.66435,333213
11.67248,239537
11.68060,177911
11.68872,143226
11.69685,132379
11.70497,131188
11.71310,127300
11.72122,133289
11.72933,141304
11.73747,141493
11.74558,139089
11.75372,132874
11.76183,119796
11.76995,103986
11.77808,99076
11.78620,96591
11.79433,91592
11.80245,88202
11.81057,81891
11.81870,89022
11.82682,79976
11.83493,82870
11.84307,76906
11.85118,75535
11.85932,77225
11.86743,75851
11.87555,71484
11.88368,73108
11.89180,73455
11.89993,72743
11.90805,74205
11.91617,67787
11.92430,80491
11.93242,85171
11.94053,86787
11.94867,94261
11.95678,95092
11.96492,85059
11.97303,76960
11.98115,72747
11.98928,68567
11.99740,69222
12.00553,63163
12.01365,60119
12.02177,59951
12.02990,63888
12.03802,63403
12.04615,62490
12.05427,61589
12.06238,66731
12.07052,65093
12.07863,67398
12.08675,70384
12.09488,74648
12.10300,77205
12.11113,85731
12.11925,103340
12.12737,138574
12.13550,187008
12.14362,243370
12.15175,274126
12.15987,275783
12.16798,244871
12.17612,197676
12.18423,158431
12.19237,133335
12.20048,123633
12.20860,124801
12.21673,117113
12.22485,123472
12.23297,112836
12.24110,115016
12.24922,106949
12.25735,111840
12.26547,105583
12.27358,108758
12.28172,98966
12.28983,101299
12.29797,100002
12.30608,89899
12.31420,95877
12.32233,92713
12.33045,92166
12.33857,90104
12.34670,86658
12.35482,89517
12.36295,89914
12.37107,84948
12.37918,88467
12.38732,92454
12.39543,95526
12.40357,108955
12.41168,157475
12.41980,239162
12.42793,366497
12.43605,516135
12.44418,545260
12.45230,527398
12.46042,419731
12.46855,313613
12.47667,224971
12.48478,178361
12.49292,142128
12.50103,127992
12.50917,114342
12.51728,106110
12.52540,105679
12.53353,111040
12.54165,122955
12.54978,162123
12.55790,202257
12.56602,263571
12.57415,312670
12.58227,319320
12.59038,276210
12.59852,217780
12.60663,164770
12.61477,130658
12.62288,116441
12.63100,105684
12.63913,101439
12.64725,96182
12.65538,100458
12.66350,96674
12.67162,95304
12.67975,95345
12.68787,97449
12.69600,89907
12.70412,86833
12.71223,90897
12.72037,81253
12.72848,89045
12.73660,85576
12.74473,92626
12.75285,106293
12.76098,102145
12.76910,91816
12.77722,90724
12.78535,84442
12.79347,75850
12.80160,74396
12.80972,76481
12.81783,69068
12.82597,67700
12.83408,66940
12.84222,69531
12.85033,60911
12.85845,63505
12.86658,58416
12.87470,58967
12.88282,56844
12.89095,57361
12.89907,62101
12.90720,57029
12.91532,55541
12.92343,55456
12.93157,54254
12.93968,60549
12.94782,52044
12.95593,48777
12.96405,59925
12.97218,67298
12.98030,69426
12.98843,83096
12.99655,92091
13.00467,85230
13.01280,78978
13.02092,72542
13.02903,67915
13.03717,63755
13.04528,59657
13.05342,57278
13.06153,59952
13.06965,58723
13.07778,63803
13.08590,62560
13.09403,74769
13.10215,69678
13.11027,73721
13.11840,67696
13.12652,60630
13.13463,60815
13.14277,61356
13.15088,59984
13.15902,57810
13.16713,65970
13.17525,63441
13.18338,62433
13.19150,72688
13.19963,69729
13.20775,74979
13.21587,75569
13.22400,73969
13.23212,78130
13.24025,90975
13.24837,86394
13.25648,85303
13.26462,87407
13.27273,90267
13.28085,88632
13.28898,82605
13.29710,77338
13.30523,69059
13.31335,59120
13.32147,62505
13.32960,56990
13.33772,60524
13.34585,53307
13.35397,53842
13.36208,54302
13.37022,57002
13.37833,54942
13.38645,57346
13.39458,54713
13.40270,53752
13.41083,58198
13.41895,56778
13.42707,58012
13.43520,53652
13.44332,54697
13.45145,51861
13.45957,51768
13.46768,58204
13.47582,58428
13.48393,56982
13.49207,55560
13.50018,53528
13.50830,57904
13.51643,58282
13.52455,71994
13.53267,75361
13.54080,79332
13.54892,84162
13.55705,78816
13.56517,66210
13.57328,58775
13.58142,61670
13.58953,60614
13.59767,73439
13.60578,85832
13.61390,97828
13.62203,120086
13.63015,137343
13.63828,153486
13.64640,148047
13.65452,128821
13.66265,100409
13.67077,79027
13.67888,61991
13.68702,59035
13.69513,59623
13.70327,50561
13.71138,54381
13.71950,53885
13.72763,49777
13.73575,48886
13.74388,53387
13.75200,59128
13.76012,70700
13.76825,100210
13.77637,137108
13.78448,195437
13.79262,266249
13.80073,372002
13.80887,484297
13.81698,586375
13.82510,685765
13.83323,778706
13.84135,875906
13.84948,1004662
13.85760,1035780
13.86572,960803
13.87385,783580
13.88197,586790
13.89010,410885
13.89822,285321
13.90633,210561
13.91447,162885
13.92258,129825
13.93070,106444
13.93883,95212
13.94695,94056
13.95508,91327
13.96320,86243
13.97132,80527
13.97945,74251
13.98757,68283
13.99570,77958
14.00382,77812
14.01193,80567
14.02007,88633
14.02818,83982
14.03632,87175
14.04443,80404
14.05255,76006
14.06068,73481
14.06880,68989
14.07692,72560
14.08505,69327
14.09317,70241
14.10130,69974
14.10942,71567
14.11753,70082
14.12567,62019
14.13378,62350
14.14192,63523
14.15003,58941
14.15815,61075
14.16628,66967
14.17440,73198
14.18252,77230
14.19065,76498
14.19877,86971
14.20690,105649
14.21502,142253
14.22313,186577
14.23127,242772
14.23938,288167
14.24752,304933
14.25563,299689
14.26375,295610
14.27188,282266
14.28000,279338
14.28813,246622
14.29625,206503
14.30437,184151
14.31250,161677
14.32062,146717
14.32873,134121
14.33687,128893
14.34498,127001
14.35312,123603
14.36123,119114
14.36935,116768
14.37748,105453
14.38560,97799
14.39373,95918
14.40185,92293
14.40997,101941
14.41810,139585
14.42622,191709
14.43433,244444
14.44247,274169
14.45058,270332
14.45872,232425
14.46683,184719
14.47495,143333
14.48308,131852
14.49120,119838
14.49933,123147
14.50745,113769
14.51557,110541
14.52370,99160
14.53182,95464
14.53995,82516
14.54807,79171
14.55618,74619
14.56432,77625
14.57243,69233
14.58055,71668
14.58868,68485
14.59680,70663
14.60493,66236
14.61305,62046
14.62117,67805
14.62930,56639
14.63742,55257
14.64555,58358
14.65367,55037
14.66178,55917
14.66992,54629
14.67803,56356
14.68617,55150
14.69428,51396
14.70240,54575
14.71053,53458
14.71865,55004
14.72677,59681
14.73490,58530
14.74302,58521
14.75115,60369
14.75927,61858
14.76738,64728
14.77552,64504
14.78363,64393
14.79177,84010
14.79988,150476
14.80800,414204
14.81613,1283188
14.82425,3364568
14.83237,6935261
14.84050,1.201208E+07
14.84862,1.717918E+07
14.85675,2.095607E+07
14.86487,2.201146E+07
14.87298,1.878582E+07
14.88112,1.262811E+07
14.88923,6961965
14.89737,3752005
14.90548,2319548
14.91360,1659806
14.92173,1372468
14.92985,1157989
14.93798,1045075
14.94610,905644
14.95422,823328
14.96235,740449
14.97047,697553
14.97858,630983
14.98672,601683
14.99483,542340
15.00297,535161
15.01108,502939
15.01920,472996
15.02733,440594
15.03545,429772
15.04358,387830
15.05170,364077
15.05982,341043
15.06795,339167
15.07607,314640
15.08420,299434
15.09232,286618
15.10043,272679
15.10857,268902
15.11668,265507
15.12480,256128
15.13293,263461
15.14105,312576
15.14918,356272
15.15730,415574
15.16542,442650
15.17355,416632
15.18167,338344
15.18980,254552
15.19792,183878
15.20603,153839
15.21417,130127
15.22228,124904
15.23040,113438
15.23853,106166
15.24665,102434
15.25478,93568
15.26290,97243
15.27102,95118
15.27915,89703
15.28727,85082
15.29540,87408
15.30352,83627
15.31163,81557
15.31977,77772
15.32788,73036
15.33602,79739
15.34413,74853
15.35225,76590
15.36038,73823
15.36850,78130
15.37662,77859
15.38475,82254
15.39287,86919
15.40100,94326
15.40912,94397
15.41723,95751
15.42537,86161
15.43348,75838
15.44162,74987
15.44973,74294
15.45785,74644
15.46598,76324
15.47410,82398
15.48223,100490
15.49035,134719
15.49847,178806
15.50660,241624
15.51472,312853
15.52283,353127
15.53097,347221
15.53908,321594
15.54722,276374
15.55533,214598
15.56345,181062
15.57158,142128
15.57970,118898
15.58783,104506
15.59595,94971
15.60407,88668
15.61220,92078
15.62032,86705
15.62843,86683
15.63657,84551
15.64468,86260
15.65282,86809
15.66093,84706
15.66905,80522
15.67718,77027
15.68530,72922
15.69343,69900
15.70155,68603
15.70967,62658
15.71780,64534
15.72592,59425
15.73405,61384
15.74217,69324
15.75028,67517
15.75842,84772
15.76653,141195
15.77465,275677
15.78278,594549
15.79090,1099070
15.79903,1668651
15.80715,1973670
15.81527,1877224
15.82340,1504503
15.83152,1015167
15.83965,647400
15.84777,416305
15.85588,290009
15.86402,237027
15.87213,198904
15.88025,177248
15.88838,175127
15.89650,154977
15.90463,151066
15.91275,138475
15.92087,131301
15.92900,122470
15.93712,121722
15.94525,118810
15.95337,112797
15.96148,106243
15.96962,102360
15.97773,106792
15.98587,96263
15.99398,98506
16.00210,105002
16.01023,113923
16.01835,127963
16.02647,157677
16.03460,178077
16.04272,182324
16.05085,184327
16.05897,170160
16.06708,149088
16.07522,122006
16.08333,108385
16.09147,88807
16.09958,80010
16.10770,83727
16.11583,77692
16.12395,81896
16.13208,90369
16.14020,97788
16.14832,109299
16.15645,124158
16.16457,133233
16.17268,136204
16.18082,126764
16.18893,117394
16.19707,101746
16.20518,88915
16.21330,86853
16.22143,94076
16.22955,93825
16.23768,99406
16.24580,97482
16.25392,90189
16.26205,84753
16.27017,76903
16.27828,73894
16.28642,78640
16.29453,81061
16.30267,92408
16.31078,100051
16.31890,112801
16.32703,114307
16.33515,116098
16.34328,106523
16.35140,113407
16.35952,111318
16.36765,115261
16.37577,109316
16.38390,100713
16.39202,92141
16.40013,86492
16.40827,76848
16.41638,68525
16.42450,73070
16.43263,80105
16.44075,79877
16.44888,102902
16.45700,186080
16.46512,447265
16.47325,1070073
16.48137,2328043
16.48950,3939726
16.49762,5352120
16.50573,5750996
16.51387,5100886
16.52198,3680852
16.53012,2282649
16.53823,1282730
16.54635,780414
16.55448,531313
16.56260,413720
16.57072,350337
16.57885,310764
16.58697,287861
16.59510,259818
16.60322,246738
16.61133,230973
16.61947,212585
16.62758,194743
16.63572,179056
16.64383,173652
16.65195,162495
16.66008,150061
16.66820,140866
16.67632,143599
16.68445,141075
16.69257,136116
16.70070,122414
16.70882,122383
16.71693,115444
16.72507,105752
16.73318,100888
16.74132,99262
16.74943,94394
16.75755,96915
16.76568,125464
16.77380,151519
16.78193,178146
16.79005,181991
16.79817,159089
16.80630,133357
16.81442,107702
16.82253,92869
16.83067,79931
16.83878,75703
16.84692,68681
16.85503,69838
16.86315,66721
16.87128,64771
16.87940,61655
16.88753,66611
16.89565,65662
16.90377,64351
16.91190,58366
16.92002,62726
16.92813,62248
16.93627,63234
16.94438,61546
16.95252,65689
16.96063,61651
16.96875,62527
16.97688,64527
16.98500,65552
16.99313,57439
17.00125,63737
17.00937,65643
17.01750,70632
17.02562,68884
17.03375,72523
17.04187,80523
17.04998,96931
17.05812,127411
17.06623,142181
17.07435,169034
17.08248,167985
17.09060,152587
17.09873,125205
17.10685,100578
17.11497,82902
17.12310,79092
17.13122,73614
17.13935,80807
17.14747,80664
17.15558,78659
17.16372,82957
17.17183,75737
17.17997,77894
17.18808,74791
17.19620,72055
17.20433,70923
17.21245,64397
17.22057,66275
17.22870,63994
17.23682,66068
17.24495,63617
17.25307,64300
17.26118,63889
17.26932,64979
17.27743,65623
17.28557,63213
17.29368,63282
17.30180,64966
17.30993,59389
17.31805,65145
17.32618,81292
17.33430,98264
17.34242,135026
17.35055,178342
17.35867,208513
17.36678,211688
17.37492,214330
17.38303,193426
17.39117,176689
17.39928,159937
17.40740,154540
17.41553,144023
17.42365,145051
17.43178,133418
17.43990,131647
17.44802,136011
17.45615,127686
17.46427,118862
17.47238,114199
17.48052,106262
17.48863,97985
17.49677,96447
17.50488,96016
17.51300,90203
17.52113,87351
17.52925,88416
17.53738,89273
17.54550,89717
17.55362,84892
17.56175,104892
17.56987,139254
17.57800,253548
17.58612,562882
17.59423,1255333
17.60237,2486716
17.61048,3976611
17.61860,5177328
17.62673,5498944
17.63485,5208326
17.64298,4138718
17.65110,2717078
17.65922,1636694
17.66735,929936
17.67547,544337
17.68360,345575
17.69172,257370
17.69983,224583
17.70797,185299
17.71608,177287
17.72420,168425
17.73233,153799
17.74045,149856
17.74858,135623
17.75670,127638
17.76482,115621
17.77295,112184
17.78107,103354
17.78920,91955
17.79732,87557
17.80543,84548
17.81357,85342
17.82168,89800
17.82982,87828
17.83793,85398
17.84605,93323
17.85418,104824
17.86230,130685
17.87042,161929
17.87855,190203
17.88667,203820
17.89480,201260
17.90292,173584
17.91103,131126
17.91917,107779
17.92728,96228
17.93542,81188
17.94353,79197
17.95165,72129
17.95978,73530
17.96790,70938
17.97603,65886
17.98415,63803
17.99227,66397
18.00040,60314
18.00852,69800
18.01663,76411
18.02477,92175
18.03288,130287
18.04102,189966
18.04913,266871
18.05725,343989
18.06538,483964
18.07350,869619
18.08163,1822642
18.08975,3629118
18.09787,6410179
18.10600,9061480
18.11412,1.056268E+07
18.12223,1.029209E+07
18.13037,8678323
18.13848,6502236
18.14662,4637266
18.15473,3449599
18.16285,2720142
18.17098,2271028
18.17910,1926918
18.18723,1693068
18.19535,1418398
18.20347,1270967
18.21160,1121309
18.21972,1028060
18.22785,937257
18.23597,856862
18.24408,805375
18.25222,741254
18.26033,668558
18.26845,622555
18.27658,557922
18.28470,516321
18.29283,415837
18.30095,328750
18.30907,264069
18.31720,202673
18.32532,170618
18.33345,139099
18.34157,133288
18.34968,125228
18.35782,123709
18.36593,116154
18.37407,115892
18.38218,112152
18.39030,106549
18.39843,107488
18.40655,110647
18.41467,111162
18.42280,110868
18.43092,112556
18.43905,137136
18.44717,164221
18.45528,215759
18.46342,336287
18.47153,568218
18.47967,941161
18.48778,1458086
18.49590,1847199
18.50403,1974254
18.51215,1783872
18.52027,1389570
18.52840,953284
18.53652,596549
18.54465,354499
18.55277,220706
18.56088,162450
18.56902,127590
18.57713,113570
18.58527,104981
18.59338,103466
18.60150,100392
18.60963,98136
18.61775,107271
18.62588,113736
18.63400,120893
18.64212,118708
18.65025,122208
18.65837,122325
18.66648,107816
18.67462,92736
18.68273,88168
18.69087,84276
18.69898,75557
18.70710,76549
18.71523,75874
18.72335,75088
18.73148,73345
18.73960,67965
18.74772,70706
18.75585,65398
18.76397,69023
18.77208,68990
18.78022,63445
18.78833,62322
18.79647,65669
18.80458,68222
18.81270,71871
18.82083,68160
18.82895,68930
18.83708,70202
18.84520,71442
18.85332,68491
18.86145,62954
18.86957,70815
18.87770,70553
18.88582,69425
18.89393,71540
18.90207,71217
18.91018,72553
18.91830,78981
18.92643,80250
18.93455,86792
18.94268,104335
18.95080,147804
18.95892,215981
18.96705,281622
18.97517,324370
18.98330,341117
18.99142,360323
18.99953,338468
19.00767,325485
19.01578,301309
19.02392,281075
19.03203,263619
19.04015,259172
19.04828,250193
19.05640,263781
19.06452,254522
19.07265,257617
19.08077,260909
19.08890,269219
19.09702,280570
19.10513,310309
19.11327,336297
19.12138,374851
19.12952,375649
19.13763,356657
19.14575,324260
19.15388,293337
19.16200,275359
19.17012,272960
19.17825,248292
19.18637,241929
19.19450,243537
19.20262,243834
19.21073,240913
19.21887,234942
19.22698,241221
19.23512,236548
19.24323,236272
19.25135,242288
19.25948,235569
19.26760,237905
19.27573,238693
19.28385,233143
19.29197,248571
19.30010,254637
19.30822,264386
19.31633,257954
19.32447,258757
19.33258,260776
19.34072,260276
19.34883,241844
19.35695,261233
19.36508,294988
19.37320,358800
19.38133,458089
19.38945,549596
19.39757,578292
19.40570,536757
19.41382,484618
19.42195,391083
19.43007,347393
19.43818,298182
19.44632,281258
19.45443,267315
19.46255,256607
19.47068,260456
19.47880,250111
19.48693,261433
19.49505,247097
19.50317,261857
19.51130,271636
19.51942,308989
19.52755,349019
19.53567,378276
19.54378,405793
19.55192,411346
19.56003,379221
19.56815,344596
19.57628,305783
19.58440,265386
19.59253,242750
19.60065,240030
19.60877,213673
19.61690,210515
19.62502,205102
19.63315,205064
19.64127,206226
19.64938,225598
19.65752,296315
19.66563,408878
19.67377,585500
19.68188,776807
19.69000,948917
19.69813,1053384
19.70625,1023744
19.71437,907675
19.72250,771267
19.73062,649517
19.73875,552049
19.74687,472757
19.75498,414619
19.76312,357396
19.77123,331593
19.77937,305977
19.78748,282111
19.79560,300752
19.80373,333668
19.81185,361691
19.81997,376025
19.82810,381458
19.83622,352124
19.84435,317818
19.85247,291354
19.86058,257773
19.86872,244446
19.87683,266660
19.88497,356842
19.89308,486163
19.90120,718716
19.90933,947861
19.91745,1118238
19.92558,1119185
19.93370,983609
19.94182,824309
19.94995,636621
19.95807,489378
19.96618,429369
19.97432,375099
19.98243,339331
19.99057,335758
19.99868,317404
20.00680,290165
20.01493,290510
20.02305,280899
20.03118,277881
20.03930,265587
20.04742,258599
20.05555,247437
20.06367,250126
20.07180,240890
20.07992,254260
20.08803,278557
20.09617,295591
20.10428,317062
20.11240,314068
20.12053,296998
20.12865,278023
20.13678,249490
20.14490,225375
20.15302,222629
20.16115,235707
20.16927,277729
20.17740,363762
20.18552,485117
20.19363,626378
20.20177,759174
20.20988,831926
20.21800,833960
20.22613,763298
20.23425,640397
20.24238,537412
20.25050,467075
20.25862,466448
20.26675,523630
20.27487,685768
20.28300,841127
20.29112,1054639
20.29923,1251747
20.30737,1311660
20.31548,1213467
20.32362,1043577
20.33173,792602
20.33985,592796
20.34798,435068
20.35610,345477
20.36422,284448
20.37235,248974
20.38047,225077
20.38860,217476
20.39672,197258
20.40483,192327
20.41297,182490
20.42108,186188
20.42922,178589
20.43733,202925
20.44545,220890
20.45358,246333
20.46170,282359
20.46983,306013
20.47795,307823
20.48607,289378
20.49420,260793
20.50232,239614
20.51043,209768
20.51857,188075
20.52668,185655
20.53482,175475
20.54293,181619
20.55105,175508
20.55918,189693
20.56730,191105
20.57543,184133
20.58355,180801
20.59167,174164
20.59980,159629
20.60792,159470
20.61603,152991
20.62417,145960
20.63228,146555
20.64042,155567
20.64853,150224
20.65665,155298
20.66478,164393
20.67290,167712
20.68103,169650
20.68915,159811
20.69727,160534
20.70540,152346
20.71352,145567
20.72165,144397
20.72977,139913
20.73788,138173
20.74602,141633
20.75413,136830
20.76225,147079
20.77038,165931
20.77850,167079
20.78663,189664
20.79475,235191
20.80287,327596
20.81100,517540
20.81912,822003
20.82725,1206724
20.83537,1407415
20.84348,1436344
20.85162,1237385
20.85973,931235
20.86787,598422
20.87598,371442
20.88410,254131
20.89223,194258
20.90035,170314
20.90847,171539
20.91660,164653
20.92472,161784
20.93285,175426
20.94097,168545
20.94908,178354
20.95722,179262
20.96533,182366
20.97347,169812
20.98158,164447
20.98970,156197
20.99783,148295
21.00595,134833
21.01407,132424
21.02220,134176
21.03032,134349
21.03845,139417
21.04657,143208
21.05468,138795
21.06282,134691
21.07093,137230
21.07907,142079
21.08718,143958
21.09530,133849
21.10343,132452
21.11155,130892
21.11968,127952
21.12780,128353
21.13592,127367
21.14405,148656
21.15217,181782
21.16028,234493
21.16842,311146
21.17653,378309
21.18467,402943
21.19278,399674
21.20090,349765
21.20903,274065
21.21715,232698
21.22528,196922
21.23340,181650
21.24152,171393
21.24965,156849
21.25777,145697
21.26588,142410
21.27402,127656
21.28213,130506
21.29027,122978
21.29838,119373
21.30650,119959
21.31463,120399
21.32275,120965
21.33088,116568
21.33900,117408
21.34712,115190
21.35525,114493
21.36337,119027
21.37150,118009
21.37962,120945
21.38773,130464
21.39587,143412
21.40398,188664
21.41210,242094
21.42023,296069
21.42835,330303
21.43648,361527
21.44460,338395
21.45272,292780
21.46085,246604
21.46897,211034
21.47710,188824
21.48522,164212
21.49333,157945
21.50147,148911
21.50958,138275
21.51772,134237
21.52583,123316
21.53395,117510
21.54208,115400
21.55020,115472
21.55832,112947
21.56645,116470
21.57457,120150
21.58270,119094
21.59082,140067
21.59893,166696
21.60707,184782
21.61518,202834
21.62332,195895
21.63143,192113
21.63955,177766
21.64768,192273
21.65580,205231
21.66392,237366
21.67205,286380
21.68017,319855
21.68830,331478
21.69642,325932
21.70453,307364
21.71267,288660
21.72078,242563
21.72892,206091
21.73703,172340
21.74515,153756
21.75328,144279
21.76140,135269
21.76953,125083
21.77765,122954
21.78577,118900
21.79390,121182
21.80202,120873
21.81013,115915
21.81827,117001
21.82638,114060
21.83452,127428
21.84263,142848
21.85075,167726
21.85888,198613
21.86700,221858
21.87513,239302
21.88325,223249
21.89137,204793
21.89950,184219
21.90762,157902
21.91575,148552
21.92387,144233
21.93198,140407
21.94012,133992
21.94823,124140
21.95635,116524
21.96448,111887
21.97260,103876
21.98073,96967
21.98885,97539
21.99697,93472
22.00510,89474
22.01322,94618
22.02135,86240
22.02947,91771
22.03758,103095
22.04572,110577
22.05383,111514
22.06195,124179
22.07008,127352
22.07820,119529
22.08633,110317
22.09445,104773
22.10257,99323
22.11070,96840
22.11882,94754
22.12695,97371
22.13507,92128
22.14318,89053
22.15132,85002
22.15943,91785
22.16757,85018
22.17568,85927
22.18380,88551
22.19193,85643
22.20005,87085
22.20817,83983
22.21630,89718
22.22442,84378
22.23255,91515
22.24067,102212
22.24878,108830
22.25692,114902
22.26503,117393
22.27317,117943
22.28128,116034
22.28940,120025
22.29753,121170
22.30565,120467
22.31377,124764
22.32190,125688
22.33002,121003
22.33815,112439
22.34627,112971
22.35438,112860
22.36252,103905
22.37063,107402
22.37877,96809
22.38688,105627
22.39500,115782
22.40313,144196
22.41125,202182
22.41938,295640
22.42750,388338
22.43562,472531
22.44375,513946
22.45187,477082
22.45998,390252
22.46812,302443
22.47623,232028
22.48437,197642
22.49248,170554
22.50060,183993
22.50873,207346
22.51685,229592
22.52498,240763
22.53310,235680
22.54122,222243
22.54935,196654
22.55747,174894
22.56560,155215
22.57372,131741
22.58183,129062
22.58997,110904
22.59808,104657
22.60620,99648
22.61433,96867
22.62245,91546
22.63058,88287
22.63870,83273
22.64682,85778
22.65495,85605
22.66307,97836
22.67120,97091
22.67932,106457
22.68743,108682
22.69557,125014
22.70368,149060
22.71180,187343
22.71993,254755
22.72805,306967
22.73618,357989
22.74430,350080
22.75242,316156
22.76055,267577
22.76867,208647
22.77680,200558
22.78492,193656
22.79303,237955
22.80117,309443
22.80928,429203
22.81742,563726
22.82553,664210
22.83365,692350
22.84178,652181
22.84990,557694
22.85802,433901
22.86615,334100
22.87427,272333
22.88240,241689
22.89052,233094
22.89863,237214
22.90677,249948
22.91488,255899
22.92302,304932
22.93113,355046
22.93925,415690
22.94738,476076
22.95550,483890
22.96363,424990
22.97175,363400
22.97987,273601
22.98800,216116
22.99612,169814
23.00423,139415
23.01237,127536
23.02048,112019
23.02862,108367
23.03673,94902
23.04485,97823
23.05298,89261
23.06110,94958
23.06923,95785
23.07735,99581
23.08547,97057
23.09360,97919
23.10172,105050
23.10983,101687
23.11797,94079
23.12608,93727
23.13422,96117
23.14233,90398
23.15045,88598
23.15858,91332
23.16670,97625
23.17483,83404
23.18295,88490
23.19107,88711
23.19920,80758
23.20732,82331
23.21545,78461
23.22357,76456
23.23168,76542
23.23982,74448
23.24793,88188
23.25605,89417
23.26418,109993
23.27230,131096
23.28043,158644
23.28855,167737
23.29667,166397
23.30480,145794
23.31292,127394
23.32105,108974
23.32917,108635
23.33728,98082
23.34542,119144
23.35353,149736
23.36165,196072
23.36978,258430
23.37790,301475
23.38603,333000
23.39415,324444
23.40227,307770
23.41040,260003
23.41852,208305
23.42665,177348
23.43477,159417
23.44288,149277
23.45102,143268
23.45913,137872
23.46727,129290
23.47538,132451
23.48350,112413
23.49163,108957
23.49975,106707
23.50787,104277
23.51600,101087
23.52412,95554
23.53225,97567
23.54037,93565
23.54848,100572
23.55662,99241
23.56473,107327
23.57287,114040
23.58098,126629
23.58910,145757
23.59723,179111
23.60535,216749
23.61348,254229
23.62160,276839
23.62972,247896
23.63785,219305
23.64597,175679
23.65408,145259
23.66222,121400
23.67033,119217
23.67847,116457
23.68658,119550
23.69470,118076
23.70283,111432
23.71095,104404
23.71908,93182
23.72720,98271
23.73532,87026
23.74345,82749
23.75157,81180
23.75970,95143
23.76782,139765
23.77593,281257
23.78407,626981
23.79218,1244627
23.80030,2075987
23.80843,2779846
23.81655,3109740
23.82468,2976206
23.83280,2433767
23.84092,1860532
23.84905,1340948
23.85717,979580
23.86530,726784
23.87342,603095
23.88153,488736
23.88967,429749
23.89778,393615
23.90590,370458
23.91403,392746
23.92215,409094
23.93028,437719
23.93840,440921
23.94652,447737
23.95465,391148
23.96277,334904
23.97090,280638
23.97902,241483
23.98713,219292
23.99527,198730
24.00338,187256
24.01152,183323
24.01963,174144
24.02775,175762
24.03588,176996
24.04400,177644
24.05212,178194
24.06025,178127
24.06837,180461
24.07650,161586
24.08462,152182
24.09273,139232
24.10087,134350
24.10898,134015
24.11712,126298
24.12523,121691
24.13335,124599
24.14148,131140
24.14960,138072
24.15772,144973
24.16585,164226
24.17397,174444
24.18210,186598
24.19022,191339
24.19833,192171
24.20647,190215
24.21458,176339
24.22272,175600
24.23083,168196
24.23895,165923
24.24708,160456
24.25520,163897
24.26333,160777
24.27145,145934
24.27957,140102
24.28770,129082
24.29582,128688
24.30393,121696
24.31207,124511
24.32018,128385
24.32832,133941
24.33643,132959
24.34455,138674
24.35268,131259
24.36080,123980
24.36893,109870
24.37705,115929
24.38517,112177
24.39330,110346
24.40142,109630
24.40955,115621
24.41767,139419
24.42578,152821
24.43392,173671
24.44203,165828
24.45015,160353
24.45828,144009
24.46640,128466
24.47453,118287
24.48265,114166
24.49077,109483
24.49890,111174
24.50702,112578
24.51515,114148
24.52327,117581
24.53138,131004
24.53952,147965
24.54763,170895
24.55575,189944
24.56388,197000
24.57200,210922
24.58013,218466
24.58825,211214
24.59637,195234
24.60450,184459
24.61262,162999
24.62075,153053
24.62887,139895
24.63698,125962
24.64512,112883
24.65323,106046
24.66137,109965
24.66948,95369
24.67760,100802
24.68573,99987
24.69385,98133
24.70197,100109
24.71010,100255
24.71822,98238
24.72635,97615
24.73447,103823
24.74258,106699
24.75072,106644
24.75883,112474
24.76697,106434
24.77508,119020
24.78320,130432
24.79133,146964
24.79945,162381
24.80758,166893
24.81570,166779
24.82382,165938
24.83195,164677
24.84007,174193
24.84818,210243
24.85632,300260
24.86443,422876
24.87257,625532
24.88068,942838
24.88880,1420272
24.89693,2005329
24.90505,2569149
24.91318,2902326
24.92130,2747610
24.92942,2186776
24.93755,1595409
24.94567,1026151
24.95378,617225
24.96192,364397
24.97003,238115
24.97817,178701
24.98628,150238
24.99440,141444
25.00253,130926
25.01065,124878
25.01878,121577
25.02690,116626
25.03502,116962
25.04315,114261
25.05127,110946
25.05940,113531
25.06752,118738
25.07563,111362
25.08377,111806
25.09188,115811
25.10000,135761
25.10813,183702
25.11625,364607
25.12438,831201
25.13250,1979419
25.14062,4043625
25.14875,6947830
25.15687,1.015796E+07
25.16500,1.266188E+07
25.17312,1.316134E+07
25.18123,1.167651E+07
25.18937,8310255
25.19748,5064427
25.20560,2882060
25.21373,1515729
25.22185,797854
25.22998,449267
25.23810,304499
25.24622,260487
25.25435,278049
25.26247,343930
25.27060,461978
25.27872,578050
25.28683,642250
25.29497,678074
25.30308,603465
25.31122,498350
25.31933,373027
25.32745,267297
25.33558,209009
25.34370,156483
25.35182,141466
25.35995,125777
25.36807,116542
25.37620,108074
25.38432,102181
25.39243,95185
25.40057,92787
25.40868,93310
25.41682,87284
25.42493,87050
25.43305,82450
25.44118,84311
25.44930,87432
25.45743,86462
25.46555,84605
25.47367,85742
25.48180,84315
25.48992,83573
25.49803,89764
25.50617,95173
25.51428,97122
25.52242,95316
25.53053,93062
25.53865,90634
25.54678,91174
25.55490,93398
25.56303,103675
25.57115,115618
25.57927,110014
25.58740,102490
25.59552,97240
25.60363,89794
25.61177,88378
25.61988,85709
25.62802,81466
25.63613,78063
25.64425,81752
25.65238,73542
25.66050,77303
25.66863,76503
25.67675,76300
25.68487,81427
25.69300,81232
25.70112,87814
25.70925,84103
25.71737,87131
25.72548,90001
25.73362,88100
25.74173,87552
25.74985,83154
25.75798,81661
25.76610,85890
25.77423,80154
25.78235,76385
25.79047,69931
25.79860,73292
25.80672,78241
25.81485,70262
25.82297,73189
25.83108,70025
25.83922,80693
25.84733,78076
25.85547,79310
25.86358,79918
25.87170,75451
25.87983,73226
25.88795,72174
25.89607,70359
25.90420,68742
25.91232,68341
25.92045,72965
25.92857,72003
25.93668,73515
25.94482,75553
25.95293,91264
25.96107,122965
25.96918,178402
25.97730,239804
25.98543,303351
25.99355,330805
26.00167,328231
26.00980,347816
26.01792,356241
26.02605,350075
26.03417,354784
26.04228,347042
26.05042,353331
26.05853,351474
26.06667,355835
26.07478,364134
26.08290,387328
26.09103,356670
26.09915,374555
26.10728,387078
26.11540,390009
26.12352,382892
26.13165,376128
26.13977,385680
26.14788,386899
26.15602,385974
26.16413,375318
26.17227,381675
26.18038,399247
26.18850,385799
26.19663,380566
26.20475,370158
26.21288,369599
26.22100,368432
26.22912,367927
26.23725,370523
26.24537,361489
26.25350,367304
26.26162,353942
26.26973,338661
26.27787,343008
26.28598,332918
26.29410,334339
26.30223,334694
26.31035,339275
26.31848,331688
26.32660,334919
26.33472,331294
26.34285,317506
26.35097,318293
26.35910,328247
26.36722,328556
26.37533,332460
26.38347,368259
26.39158,405240
26.39970,457577
26.40783,521393
26.41595,529393
26.42408,536146
26.43220,506471
26.44032,477969
26.44845,426415
26.45657,395387
26.46470,354178
26.47282,335968
26.48093,336802
26.48907,318421
26.49718,321345
26.50532,321693
26.51343,315627
26.52155,306579
26.52968,292616
26.53780,280072
26.54592,283442
26.55405,277182
26.56217,263214
26.57030,265995
26.57842,271546
26.58653,266297
26.59467,275198
26.60278,259094
26.61092,259768
26.61903,251246
26.62715,269310
26.63528,259239
26.64340,255806
26.65152,259639
26.65965,256547
26.66777,253212
26.67590,256429
26.68402,257113
26.69213,249715
26.70027,243125
26.70838,245668
26.71652,246611
26.72463,240677
26.73275,234210
26.74088,243048
26.74900,238861
26.75713,234274
26.76525,235355
26.77337,243278
26.78150,234890
26.78962,225612
26.79773,226662
26.80587,232410
26.81398,228383
26.82212,230007
26.83023,227893
26.83835,236204
26.84648,234271
26.85460,227655
26.86273,226835
26.87085,228779
26.87897,219736
26.88710,216315
26.89522,215184
26.90335,206193
26.91147,214439
26.91958,202029
26.92772,201122
26.93583,200443
26.94395,201433
26.95208,199429
26.96020,198695
26.96833,210267
26.97645,224353
26.98457,243911
26.99270,319952
27.00082,467543
27.00895,738729
27.01707,1155201
27.02518,1723357
27.03332,2209890
27.04143,2439673
27.04955,2390798
27.05768,2040433
27.06580,1561978
27.07393,1223930
27.08205,916033
27.09017,728028
27.09830,632754
27.10642,544036
27.11455,494857
27.12267,456967
27.13078,423542
27.13892,407178
27.14703,389002
27.15517,371934
27.16328,361487
27.17140,359849
27.17953,359753
27.18765,362606
27.19577,374806
27.20390,398523
27.21202,407772
27.22015,376330
27.22827,363536
27.23638,330634
27.24452,308293
27.25263,286901
27.26077,271488
27.26888,264569
27.27700,243292
27.28513,239026
27.29325,227002
27.30138,220561
27.30950,218636
27.31762,208967
27.32575,222460
27.33387,207472
27.34198,215933
27.35012,212562
27.35823,206521
27.36637,212291
27.37448,217640
27.38260,211407
27.39073,216877
27.39885,205647
27.40698,210120
27.41510,202573
27.42322,194551
27.43135,182439
27.43947,185672
27.44758,179229
27.45572,182919
27.46383,179601
27.47197,178548
27.48008,178739
27.48820,180132
27.49633,170663
27.50445,168718
27.51258,155182
27.52070,166750
27.52882,159542
27.53695,161889
27.54507,157349
27.55320,156942
27.56132,159893
27.56943,169032
27.57757,169569
27.58568,191106
27.59380,209314
27.60193,253071
27.61005,277532
27.61818,300715
27.62630,290122
27.63442,260880
27.64255,236501
27.65067,200291
27.65880,176832
27.66692,167603
27.67503,156178
27.68317,153345
27.69128,152464
27.69940,145509
27.70753,150072
27.71565,151484
27.72378,144500
27.73190,142612
27.74002,141703
27.74815,130781
27.75627,128292
27.76440,124924
27.77252,131148
27.78063,126595
27.78877,134205
27.79688,145457
27.80502,150805
27.81313,142083
27.82125,142006
27.82938,141647
27.83750,134790
27.84562,130717
27.85375,128356
27.86187,129008
27.87000,124379
27.87812,130055
27.88623,129080
27.89437,121044
27.90248,118661
27.91062,128875
27.91873,127926
27.92685,123485
27.93498,117972
27.94310,118266
27.95123,121799
27.95935,119402
27.96747,115675
27.97560,113753
27.98372,109995
27.99183,106382
27.99997,115632
28.00808,120695
28.01622,120706
28.02433,121374
28.03245,136064
28.04058,133183
28.04870,144427
28.05683,153457
28.06495,163957
28.07307,166915
28.08120,165684
28.08932,148034
28.09743,140490
28.10557,132356
28.11368,123771
28.12182,118649
28.12993,115672
28.13805,117846
28.14618,105827
28.15430,109220
28.16243,97511
28.17055,98298
28.17867,97499
28.18680,103877
28.19492,107451
28.20305,129556
28.21117,156547
28.21928,198098
28.22742,243306
28.23553,289417
28.24365,303103
28.25178,290780
28.25990,266384
28.26803,225408
28.27615,185511
28.28427,150393
28.29240,126936
28.30052,112856
28.30865,111322
28.31677,128746
28.32488,150943
28.33302,176272
28.34113,190805
28.34927,214967
28.35738,243256
28.36550,264058
28.37363,300927
28.38175,344601
28.38987,375736
28.39800,386086
28.40612,390926
28.41425,388042
28.42237,363896
28.43048,341383
28.43862,318406
28.44673,286446
28.45487,254858
28.46298,219828
28.47110,194954
28.47923,190931
28.48735,186221
28.49547,173152
28.50360,166584
28.51172,167203
28.51985,162990
28.52797,161165
28.53608,152866
28.54422,140395
28.55233,142622
28.56047,129631
28.56858,127596
28.57670,121200
28.58483,124754
28.59295,117977
28.60108,122397
28.60920,118120
28.61732,115899
28.62545,113376
28.63357,121912
28.64168,119451
28.64982,121588
28.65793,130601
28.66607,133905
28.67418,128715
28.68230,131437
28.69043,133901
28.69855,129195
28.70668,122632
28.71480,116161
28.72292,112068
28.73105,111103
28.73917,98430
28.74728,100000
28.75542,94773
28.76353,97748
28.77167,98801
28.77978,105008
28.78790,107059
28.79603,121063
28.80415,133694
28.81228,150367
28.82040,160804
28.82852,160272
28.83665,165201
28.84477,149309
28.85290,134725
28.86102,126643
28.86913,124298
28.87727,121258
28.88538,125738
28.89350,142127
28.90163,157700
28.90975,181291
28.91788,209407
28.92600,193280
28.93412,180231
28.94225,149646
28.95037,132941
28.95850,118164
28.96662,115170
28.97473,96779
28.98287,101681
28.99098,101519
28.99912,101984
29.00723,92341
29.01535,99775
29.02348,91438
29.03160,90748
29.03972,86696
29.04785,91202
29.05597,88835
29.06410,90092
29.07222,95663
29.08033,94962
29.08847,97717
29.09658,101776
29.10472,110427
29.11283,111817
29.12095,115215
29.12908,105227
29.13720,99097
29.14533,97174
29.15345,91407
29.16157,89441
29.16970,93692
29.17782,94108
29.18593,103250
29.19407,109574
29.20218,133001
29.21032,177325
29.21843,236526
29.22655,292335
29.23468,336192
29.24280,330407
29.25093,305679
29.25905,256968
29.26717,205077
29.27530,170818
29.28342,148333
29.29153,125884
29.29967,116072
29.30778,98192
29.31592,91919
29.32403,91709
29.33215,88736
29.34028,87885
29.34840,82963
29.35653,82122
29.36465,78039
29.37277,85119
29.38090,81401
29.38902,84566
29.39715,80967
29.40527,83807
29.41338,79692
29.42152,89207
29.42963,86450
29.43775,95727
29.44588,94121
29.45400,93792
29.46213,89460
29.47025,86627
29.47837,83879
29.48650,88498
29.49462,79132
29.50275,80441
29.51087,92247
29.51898,90894
29.52712,98564
29.53523,100551
29.54335,94599
29.55148,97727
29.55960,90992
29.56773,88817
29.57585,85874
29.58397,85038
29.59210,82109
29.60022,80241
29.60835,79678
29.61647,77207
29.62458,78201
29.63272,78768
29.64083,86299
29.64897,82891
29.65708,82922
29.66520,75617
29.67333,82682
29.68145,80030
29.68957,94916
29.69770,98026
29.70582,105060
29.71395,113866
29.72207,118313
29.73018,108440
29.73832,100885
29.74643,93937
29.75457,87385
29.76268,79862
29.77080,78990
29.77893,77781
29.78705,75809
29.79518,71935
29.80330,68735
29.81142,74028
29.81955,76629
29.82767,73930
29.83578,74968
29.84392,71656
29.85203,81607
29.86017,74221
29.86828,72462
29.87640,81929
29.88453,88713
29.89265,108573
29.90078,145695
29.90890,179969
29.91702,218220
29.92515,219969
29.93327,204933
29.94138,168496
29.94952,132475
29.95763,102755
29.96577,95935
29.97388,93340
29.98200,81886
29.99013,92970
29.99825,110160
30.00638,119487
30.01450,132490
30.02262,152015
30.03075,169102
30.03887,178728
30.04700,192041
30.05512,199233
30.06323,201890
30.07137,208749
30.07948,199820
30.08760,197273
30.09573,187298
30.10385,169659
30.11198,171603
30.12010,157986
30.12822,154131
30.13635,141356
30.14447,139296
30.15260,130675
30.16072,124793
30.16883,127123
30.17697,121577
30.18508,119848
30.19322,116826
30.20133,120553
30.20945,106521
30.21758,111740
30.22570,103298
30.23382,111520
30.24195,106979
30.25007,104089
30.25820,98893
30.26632,91347
30.27443,93354
30.28257,89162
30.29068,86614
30.29882,89227
30.30693,82064
30.31505,90057
30.32318,80117
30.33130,84181
30.33942,85354
30.34755,84656
30.35567,89334
30.36380,86824
30.37192,86968
30.38003,85770
30.38817,91537
30.39628,86036
30.40442,85902
30.41253,76650
30.42065,77519
30.42878,80760
30.43690,78629
30.44503,73673
30.45315,76831
30.46127,76281
30.46940,72878
30.47752,78047
30.48563,77423
30.49377,75571
30.50188,73394
30.51002,74897
30.51813,76554
30.52625,78573
30.53438,79488
30.54250,80693
30.55063,72874
30.55875,76607
30.56687,79509
30.57500,76527
30.58312,76543
30.59123,74157
30.59937,78927
30.60748,78781
30.61562,76772
30.62373,76523
30.63185,74968
30.63998,74513
30.64810,74904
30.65623,71454
30.66435,75596
30.67247,72900
30.68060,68633
30.68872,67380
30.69685,66944
30.70497,63270
30.71308,71454
30.72122,67725
30.72933,67648
30.73745,72668
30.74558,70572
30.75370,66289
30.76183,72800
30.76995,73819
30.77807,77347
30.78620,88690
30.79432,101039
30.80245,135730
30.81057,185416
30.81868,263558
30.82682,318272
30.83493,327526
30.84307,307440
30.85118,242582
30.85930,180739
30.86743,138345
30.87555,107604
30.88367,91623
30.89180,84078
30.89992,80830
30.90805,76089
30.91617,80057
30.92428,75482
30.93242,71235
30.94053,75311
30.94867,72299
30.95678,68787
30.96490,76814
30.97303,74083
30.98115,73508
30.98927,69238
30.99740,77096
31.00552,75155
31.01365,73320
31.02177,69348
31.02988,70576
31.03802,75810
31.04613,75824
31.05427,72583
31.06238,78142
31.07050,72824
31.07863,71487
31.08675,81490
31.09488,85574
31.10300,91234
31.11112,105955
31.11925,118587
31.12737,135164
31.13548,129877
31.14362,121684
31.15173,112447
31.15987,111977
31.16798,113885
31.17610,120697
31.18423,116326
31.19235,133629
31.20048,129841
31.20860,156369
31.21672,186413
31.22485,238625
31.23297,285637
31.24110,323006
31.24922,318681
31.25733,293358
31.26547,236331
31.27358,164462
31.28170,131346
31.28983,98998
31.29795,97418
31.30608,89030
31.31420,88392
31.32232,85725
31.33045,90602
31.33857,101197
31.34670,111194
31.35482,116905
31.36293,110190
31.37107,109932
31.37918,104855
31.38730,97520
31.39543,81753
31.40355,74657
31.41168,79256
31.41980,76125
31.42792,74744
31.43605,75727
31.44417,73344
31.45230,74940
31.46042,74609
31.46853,74597
31.47667,77846
31.48478,72876
31.49292,74596
31.50103,73188
31.50915,76704
31.51728,85523
31.52540,83336
31.53352,83733
31.54165,89719
31.54977,85390
31.55790,84621
31.56602,89736
31.57413,85525
31.58227,76533
31.59038,78557
31.59852,72403
31.60663,73696
31.61475,70137
31.62288,77307
31.63100,75766
31.63912,74126
31.64725,74195
31.65537,79438
31.66350,81300
31.67162,91072
31.67973,99456
31.68787,109185
31.69598,118799
31.70412,114846
31.71223,113649
31.72035,97269
31.72848,93247
31.73660,82793
31.74473,77513
31.75285,74430
31.76097,69555
31.76910,72606
31.77722,68028
31.78533,68549
31.79347,72034
31.80158,70606
31.80972,72542
31.81783,71939
31.82595,73982
31.83408,73904
31.84220,71691
31.85033,76219
31.85845,76097
31.86657,79312
31.87470,84839
31.88282,83465
31.89095,82294
31.89907,85000
31.90718,81645
31.91532,83875
31.92343,74602
31.93155,81463
31.93968,76990
31.94780,84742
31.95593,96708
31.96405,102539
31.97217,115721
31.98030,121908
31.98842,136808
31.99655,141719
32.00467,154648
32.01278,158858
32.02092,159575
32.02903,157222
32.03715,150403
32.04528,148804
32.05340,134346
32.06153,122941
32.06965,112635
32.07777,104064
32.08590,103438
32.09402,103501
32.10215,98124
32.11027,98379
32.11838,101985
32.12652,95072
32.13463,99768
32.14277,92133
32.15088,85352
32.15900,86904
32.16713,89311
32.17525,80789
32.18337,80389
32.19150,76310
32.19962,79687
32.20775,77376
32.21587,73737
32.22398,75252
32.23212,79408
32.24023,73058
32.24837,77433
32.25648,72449
32.26460,74465
32.27273,76007
32.28085,74514
32.28898,76921
32.29710,76883
32.30522,78216
32.31335,75931
32.32147,74321
32.32958,71710
32.33772,71790
32.34583,77377
32.35397,74797
32.36208,69617
32.37020,75906
32.37833,73355
32.38645,70523
32.39458,74237
32.40270,67576
32.41082,71138
32.41895,76438
32.42707,67102
32.43518,68852
32.44332,69931
32.45143,69891
32.45957,68331
32.46768,66373
32.47580,72582
32.48393,68689
32.49205,77775
32.50018,67607
32.50830,66255
32.51642,66029
32.52455,73635
32.53267,72434
32.54080,71509
32.54892,69712
32.55703,66310
32.56517,71753
32.57328,67921
32.58140,64471
32.58953,66009
32.59765,66644
32.60578,70353
32.61390,65426
32.62202,69020
32.63015,67222
32.63827,72435
32.64640,67684
32.65452,63948
32.66263,67244
32.67077,68431
32.67888,76059
32.68702,79889
32.69513,82823
32.70325,92857
32.71138,95444
32.71950,85910
32.72762,85903
32.73575,87258
32.74387,81763
32.75200,77630
32.76012,72428
32.76823,71171
32.77637,71811
32.78448,72259
32.79262,68093
32.80073,67672
32.80885,69781
32.81698,69817
32.82510,67053
32.83322,66646
32.84135,69187
32.84947,65432
32.85760,67433
32.86572,66924
32.87383,71413
32.88197,75407
32.89008,74295
32.89822,84312
32.90633,86855
32.91445,87674
32.92258,92987
32.93070,99871
32.93883,96504
32.94695,91792
32.95507,84419
32.96320,75738
32.97132,74775
32.97943,76834
32.98757,86682
32.99568,102457
33.00382,133072
33.01193,165149
33.02005,187855
33.02818,206087
33.03630,184371
33.04443,164738
33.05255,131571
33.06067,122193
33.06880,122071
33.07692,119682
33.08503,126676
33.09317,143102
33.10128,139707
33.10942,146021
33.11753,157676
33.12565,156205
33.13378,165894
33.14190,153313
33.15003,149495
33.15815,133045
33.16627,125276
33.17440,118005
33.18252,109011
33.19065,97915
33.19877,91411
33.20688,91826
33.21502,81220
33.22313,80642
33.23125,79398
33.23938,81743
33.24750,78603
33.25563,83720
33.26375,77142
33.27187,78850
33.28000,78841
33.28812,73675
33.29625,70463
33.30437,74090
33.31248,72432
33.32062,77570
33.32873,70943
33.33687,70862
33.34498,73545
33.35310,79776
33.36123,83743
33.36935,87188
33.37747,94699
33.38560,102014
33.39372,101900
33.40185,87639
33.40997,85788
33.41808,80922
33.42622,74540
33.43433,75532
33.44247,77161
33.45058,70266
33.45870,63709
33.46683,64853
33.47495,68948
33.48307,70434
33.49120,70974
33.49932,72346
33.50745,72203
33.51557,73838
33.52368,75201
33.53182,78192
33.53993,77470
33.54807,82924
33.55618,101704
33.56430,108947
33.57243,120529
33.58055,127375
33.58868,123791
33.59680,116521
33.60492,98296
33.61305,89065
33.62117,78739
33.62928,67250
33.63742,72486
33.64553,72591
33.65367,72715
33.66178,78927
33.66990,82274
33.67803,84384
33.68615,84277
33.69428,85579
33.70240,78339
33.71052,73540
33.71865,73272
33.72677,68749
33.73490,70363
33.74302,65197
33.75113,69876
33.75927,67170
33.76738,76500
33.77550,65723
33.78363,66191
33.79175,65981
33.79988,68267
33.80800,62588
33.81612,67174
33.82425,61083
33.83237,63930
33.84050,68576
33.84862,67493
33.85673,69716
33.86487,68029
33.87298,71726
33.88110,73719
33.88923,74453
33.89735,76831
33.90548,75279
33.91360,81006
33.92172,76980
33.92985,76232
33.93797,70283
33.94610,67225
33.95422,69142
33.96233,73727
33.97047,69187
33.97858,69393
33.98672,72515
33.99483,66361
34.00295,67788
34.01108,67302
34.01920,68029
34.02732,68303
34.03545,61155
34.04357,67679
34.05170,66055
34.05982,66832
34.06793,67358
34.07607,65140
34.08418,66709
34.09232,63309
34.10043,66322
34.10855,66423
34.11668,67905
34.12480,66191
34.13292,68796
34.14105,64901
34.14917,68208
34.15730,72032
34.16542,70086
34.17353,67945
34.18167,66070
34.18978,63039
34.19792,65996
34.20603,66621
34.21415,62148
34.22228,60101
34.23040,63580
34.23853,64652
34.24665,62282
34.25477,61223
34.26290,61768
34.27102,64333
34.27913,64283
34.28727,62650
34.29538,65375
34.30352,65242
34.31163,64936
34.31975,62661
34.32788,63284
34.33600,63653
34.34413,60803
34.35225,62328
34.36037,62066
34.36850,62629
34.37662,66825
34.38475,65862
34.39287,68972
34.40098,63789
34.40912,61476
34.41723,67137
34.42535,68605
34.43348,63251
34.44160,62425
34.44973,67519
34.45785,71292
34.46597,70944
34.47410,63027
34.48222,67569
34.49035,69408
34.49847,70583
34.50658,66314
34.51472,63989
34.52283,66504
34.53097,65678
34.53908,70340
34.54720,73782
34.55533,82064
34.56345,91614
34.57157,97228
34.57970,101594
34.58782,109771
34.59595,119307
34.60407,119762
34.61218,109168
34.62032,103756
34.62843,101813
34.63657,93406
34.64468,82732
34.65280,87927
34.66093,86906
34.66905,83221
34.67717,85847
34.68530,82316
34.69342,78417
34.70155,82763
34.70967,72787
34.71778,72809
34.72592,76834
34.73403,76768
34.74217,73843
34.75028,77591
34.75840,72140
34.76653,72974
34.77465,76044
34.78278,74395
34.79090,76070
34.79902,81826
34.80715,80008
34.81527,75581
34.82338,75054
34.83152,73242
34.83963,74254
34.84777,73979
34.85588,72727
34.86400,72655
34.87213,71593
34.88025,70510
34.88838,75162
34.89650,71062
34.90462,73826
34.91275,70452
34.92087,74104
34.92898,72147
34.93712,68696
34.94523,72191
34.95337,73996
34.96148,74297
34.96960,77172
34.97773,80668
34.98585,84433
34.99398,89380
35.00210,86086
35.01022,89288
35.01835,82549
35.02647,81106
35.03460,73896
35.04272,73341
35.05083,72921
35.05897,72366
35.06708,73809
35.07520,73418
35.08333,78430
35.09145,71496
35.09958,70369
35.10770,71626
35.11582,69710
35.12395,69700
35.13207,71000
35.14020,71301
35.14832,74231
35.15643,74234
35.16457,75919
35.17268,75532
35.18082,76378
35.18893,81475
35.19705,80074
35.20518,74083
35.21330,81878
35.22142,71641
35.22955,69990
35.23767,72167
35.24580,69028
35.25392,70636
35.26203,69382
35.27017,72263
35.27828,69370
35.28642,72353
35.29453,77776
35.30265,74778
35.31078,76405
35.31890,72915
35.32702,71425
35.33515,66225
35.34327,66692
35.35140,63012
35.35952,69745
35.36763,67114
35.37577,68779
35.38388,69649
35.39202,67048
35.40013,72425
35.40825,70570
35.41638,74554
35.42450,71558
35.43263,75133
35.44075,81518
35.44887,80159
35.45700,78337
35.46512,79512
35.47323,80907
35.48137,77886
35.48948,85167
35.49762,81040
35.50573,78120
35.51385,79676
35.52198,78631
35.53010,73225
35.53823,75461
35.54635,71451
35.55447,69392
35.56260,77514
35.57072,69036
35.57885,72197
35.58697,71027
35.59508,69421
35.60322,70138
35.61133,73203
35.61945,69884
35.62758,65117
35.63570,73151
35.64383,68553
35.65195,71708
35.66007,68927
35.66820,72424
35.67632,68160
35.68445,70900
35.69257,73074
35.70068,77257
35.70882,73946
35.71693,79038
35.72505,77519
35.73318,80130
35.74130,80529
35.74943,82662
35.75755,88515
35.76567,96386
35.77380,104418
35.78192,110366
35.79005,116560
35.79817,115468
35.80628,108517
35.81442,95304
35.82253,89420
35.83067,82994
35.83878,79739
35.84690,75059
35.85503,77307
35.86315,72853
35.87127,73661
35.87940,74494
35.88752,75140
35.89565,78034
35.90377,74562
35.91188,74409
35.92002,71510
35.92813,77069
35.93627,74999
35.94438,76916
35.95250,73812
35.96063,71350
35.96875,73737
35.97687,72092
35.98500,80165
35.99312,72128
36.00125,70586
36.00937,73297
36.01748,77544
36.02562,75644
36.03373,72769
36.04187,79844
36.04998,77137
36.05810,78374
36.06623,83550
36.07435,80023
36.08248,76070
36.09060,81550
36.09872,71580
36.10685,71229
36.11497,73500
36.12308,77126
36.13122,72685
36.13933,77366
36.14747,80761
36.15558,81934
36.16370,82743
36.17183,87886
36.17995,88324
36.18808,84810
36.19620,80390
36.20432,82472
36.21245,81541
36.22057,75920
36.22870,72224
36.23682,66069
36.24493,73877
36.25307,70279
36.26118,73794
36.26930,75642
36.27743,76481
36.28555,73304
36.29368,77465
36.30180,70216
36.30992,73870
36.31805,76597
36.32617,75880
36.33430,83087
36.34242,84680
36.35053,93099
36.35867,88438
36.36678,87903
36.37490,86726
36.38303,85905
36.39115,80974
36.39928,81013
36.40740,84364
36.41552,80848
36.42365,89131
36.43177,81513
36.43990,81069
36.44802,85563
36.45613,89290
36.46427,79927
36.47238,77530
36.48052,80762
36.48863,73191
36.49675,71419
36.50488,72159
36.51300,69663
36.52112,77532
36.52925,72822
36.53737,77994
36.54550,70402
36.55362,78376
36.56173,74226
36.56987,75933
36.57798,78913
36.58612,73042
36.59423,74181
36.60235,74944
36.61048,76951
36.61860,75693
36.62673,71651
36.63485,75748
36.64297,73228
36.65110,70920
36.65922,73075
36.66733,78239
36.67547,75898
36.68358,75121
36.69172,78939
36.69983,74136
36.70795,76886
36.71608,76283
36.72420,79654
36.73233,72974
36.74045,72662
36.74857,78419
36.75670,82349
36.76482,78463
36.77293,78126
36.78107,73469
36.78918,72331
36.79732,77486
36.80543,76914
36.81355,73010
36.82168,77435
36.82980,71216
36.83793,73055
36.84605,73712
36.85417,72982
36.86230,72390
36.87042,68138
36.87855,73927
36.88667,68030
36.89478,70957
36.90292,70909
36.91103,73800
36.91915,70720
36.92728,78097
36.93540,75579
36.94353,86368
36.95165,81499
36.95977,100977
36.96790,116017
36.97602,144423
36.98415,166766
36.99227,181924
37.00038,181044
37.00852,157671
37.01663,131334
37.02477,112051
37.03288,100460
37.04100,83962
37.04913,85460
37.05725,84794
37.06537,81565
37.07350,85428
37.08162,84448
37.08975,81754
37.09787,86954
37.10598,86308
37.11412,89715
37.12223,92217
37.13037,86733
37.13848,87193
37.14660,82550
37.15473,86719
37.16285,80521
37.17097,82662
37.17910,83337
37.18722,79925
37.19535,75530
37.20347,75747
37.21158,82529
37.21972,82015
37.22783,80093
37.23597,78144
37.24408,82172
37.25220,76506
37.26033,81112
37.26845,83901
37.27658,80461
37.28470,79011
37.29282,79225
37.30095,80397
37.30907,76044
37.31718,71127
37.32532,78706
37.33343,78055
37.34157,81850
37.34968,81887
37.35780,83688
37.36593,83926
37.37405,89141
37.38218,95285
37.39030,94042
37.39842,101284
37.40655,106010
37.41467,100684
37.42278,102774
37.43092,95214
37.43903,95819
37.44717,96637
37.45528,100678
37.46340,97613
37.47153,93803
37.47965,96882
37.48778,93312
