C:\MassHunter\GCMS\1\data\20191125_ALKANES\JTB-E18-40-12.D Tue Nov 26 07:42:57 2019
Start of data points
2.09520,75508
2.10332,77026
2.11145,76512
2.11957,77957
2.12770,77468
2.13582,76680
2.14393,75679
2.15207,73152
2.16018,76863
2.16832,70763
2.17643,69236
2.18455,68958
2.19268,65729
2.20080,67020
2.20892,195376
2.21705,568312
2.22517,447029
2.23330,249587
2.24142,147881
2.24953,1071651
2.25767,8614424
2.26578,7.342214E+07
2.27392,8.601408E+07
2.28203,8.42413E+07
2.29015,8.577919E+07
2.29828,8.383205E+07
2.30640,8.598273E+07
2.31453,8.25883E+07
2.32265,7.309158E+07
2.33077,7.670478E+07
2.33890,1.097286E+08
2.34702,8.150038E+07
2.35513,6.126801E+07
2.36327,5.649724E+07
2.37138,5.642688E+07
2.37952,5.774337E+07
2.38763,5.94164E+07
2.39575,6.088247E+07
2.40388,6.234965E+07
2.41200,6.353055E+07
2.42013,6.483854E+07
2.42825,6.62563E+07
2.43637,6.781725E+07
2.44450,6.964325E+07
2.45262,7.143391E+07
2.46075,7.358287E+07
2.46887,7.634404E+07
2.47698,8.300794E+07
2.48512,1.11608E+08
2.49323,1.31166E+08
2.50135,1.213547E+08
2.50948,1.213796E+08
2.51760,1.214621E+08
2.52573,1.21602E+08
2.53385,1.21659E+08
2.54197,1.215872E+08
2.55010,1.217994E+08
2.55822,1.220548E+08
2.56635,1.223912E+08
2.57447,1.234988E+08
2.58258,1.242422E+08
2.59072,1.247599E+08
2.59883,1.25494E+08
2.60695,1.268326E+08
2.61508,1.290275E+08
2.62320,1.307268E+08
2.63133,1.209339E+08
2.63945,1.081445E+08
2.64757,1.068073E+08
2.65570,1.066628E+08
2.66382,1.0691E+08
2.67195,1.154627E+08
2.68007,1.328791E+08
2.68818,1.225484E+08
2.69632,1.021654E+08
2.70443,1.010982E+08
2.71257,1.008565E+08
2.72068,1.007105E+08
2.72880,1.005024E+08
2.73693,1.003733E+08
2.74505,1.002183E+08
2.75317,9.987328E+07
2.76130,9.968721E+07
2.76942,9.961383E+07
2.77755,9.928313E+07
2.78567,9.897218E+07
2.79378,9.872671E+07
2.80192,9.855575E+07
2.81003,9.831674E+07
2.81817,9.812652E+07
2.82628,9.799754E+07
2.83440,9.783283E+07
2.84253,9.758938E+07
2.85065,9.751413E+07
2.85877,9.737097E+07
2.86690,9.719967E+07
2.87502,9.721567E+07
2.88315,9.711344E+07
2.89127,9.70106E+07
2.89938,9.685242E+07
2.90752,9.666702E+07
2.91563,9.645479E+07
2.92377,9.643004E+07
2.93188,9.626171E+07
2.94000,9.638502E+07
2.94813,9.649237E+07
2.95625,9.612555E+07
2.96438,9.589289E+07
2.97250,9.55559E+07
2.98062,9.571498E+07
2.98875,9.70127E+07
2.99687,9.737305E+07
3.00498,9.709943E+07
3.01312,9.719866E+07
3.02123,9.766474E+07
3.02937,9.818572E+07
3.03748,9.870491E+07
3.04560,9.869018E+07
3.05373,9.906799E+07
3.06185,1.018237E+08
3.06998,1.141335E+08
3.07810,1.266631E+08
3.08622,1.349375E+08
3.09435,1.356619E+08
3.10247,1.061659E+08
3.11060,9.433561E+07
3.11872,9.389702E+07
3.12683,9.391018E+07
3.13497,9.323496E+07
3.14308,9.327043E+07
3.15120,9.302422E+07
3.15933,9.260973E+07
3.16745,9.245562E+07
3.17558,9.230386E+07
3.18370,9.20489E+07
3.19182,9.160379E+07
3.19995,9.176547E+07
3.20807,9.13647E+07
3.21620,9.112214E+07
3.22432,9.109772E+07
3.23243,9.066734E+07
3.24057,9.024566E+07
3.24868,9.021467E+07
3.25680,8.9814E+07
3.26493,8.996364E+07
3.27305,8.910777E+07
3.28118,8.883486E+07
3.28930,8.873184E+07
3.29742,8.889624E+07
3.30555,8.858832E+07
3.31367,8.816989E+07
3.32180,8.802719E+07
3.32992,8.788053E+07
3.33803,8.723081E+07
3.34617,8.73625E+07
3.35428,8.733114E+07
3.36242,8.733342E+07
3.37053,8.693047E+07
3.37865,8.689838E+07
3.38678,8.659724E+07
3.39490,8.569255E+07
3.40302,8.538096E+07
3.41115,8.537125E+07
3.41927,8.484681E+07
3.42740,8.419833E+07
3.43552,8.442184E+07
3.44363,8.38867E+07
3.45177,8.368794E+07
3.45988,8.36531E+07
3.46802,8.310358E+07
3.47613,8.275542E+07
3.48425,8.247166E+07
3.49238,8.208846E+07
3.50050,8.193536E+07
3.50863,8.129789E+07
3.51675,8.143282E+07
3.52487,8.146536E+07
3.53300,8.090154E+07
3.54112,8.078271E+07
3.54923,8.080146E+07
3.55737,8.032615E+07
3.56548,8.004677E+07
3.57362,8.023386E+07
3.58173,7.959633E+07
3.58985,7.973382E+07
3.59798,7.935822E+07
3.60610,7.944612E+07
3.61423,7.940762E+07
3.62235,7.851824E+07
3.63047,7.826429E+07
3.63860,7.791896E+07
3.64672,7.770305E+07
3.65483,7.685446E+07
3.66297,7.682179E+07
3.67108,7.688003E+07
3.67922,7.700361E+07
3.68733,7.640555E+07
3.69545,7.605488E+07
3.70358,7.565128E+07
3.71170,7.52606E+07
3.71983,7.533806E+07
3.72795,7.489663E+07
3.73607,7.49365E+07
3.74420,7.443413E+07
3.75232,7.439538E+07
3.76045,7.46733E+07
3.76857,7.459542E+07
3.77668,7.581117E+07
3.78482,7.588843E+07
3.79293,7.584944E+07
3.80105,7.523202E+07
3.80918,7.492854E+07
3.81730,7.418182E+07
3.82543,7.469394E+07
3.83355,7.896589E+07
3.84167,8.913474E+07
3.84980,1.036868E+08
3.85792,1.156714E+08
3.86605,1.231658E+08
3.87417,1.280516E+08
3.88228,1.318043E+08
3.89042,1.347165E+08
3.89853,1.334105E+08
3.90665,8.498504E+07
3.91478,7.166458E+07
3.92290,7.177089E+07
3.93103,7.090153E+07
3.93915,7.021109E+07
3.94727,7.024076E+07
3.95540,6.968641E+07
3.96352,6.93717E+07
3.97165,6.892974E+07
3.97977,6.918982E+07
3.98788,6.909247E+07
3.99602,6.799905E+07
4.00413,6.795759E+07
4.01227,6.75392E+07
4.02038,6.772038E+07
4.02850,6.758358E+07
4.03663,6.734255E+07
4.04475,6.680205E+07
4.05287,6.672035E+07
4.06100,6.644159E+07
4.06912,6.620714E+07
4.07725,6.58254E+07
4.08537,6.562484E+07
4.09348,6.549778E+07
4.10162,6.509649E+07
4.10973,6.470658E+07
4.11787,6.488311E+07
4.12598,6.451008E+07
4.13410,6.390179E+07
4.14223,6.43099E+07
4.15035,6.350125E+07
4.15848,6.333766E+07
4.16660,6.32972E+07
4.17472,6.330733E+07
4.18285,6.221678E+07
4.19097,6.234306E+07
4.19908,6.269144E+07
4.20722,6.18977E+07
4.21533,6.161218E+07
4.22347,6.134958E+07
4.23158,6.137248E+07
4.23970,6.13442E+07
4.24783,6.10035E+07
4.25595,6.055545E+07
4.26408,6.037378E+07
4.27220,6.019695E+07
4.28032,5.940148E+07
4.28845,5.939007E+07
4.29657,5.967272E+07
4.30468,5.849017E+07
4.31282,5.878491E+07
4.32093,5.876702E+07
4.32907,5.862156E+07
4.33718,5.830545E+07
4.34530,5.79847E+07
4.35343,5.750229E+07
4.36155,5.709652E+07
4.36968,5.706995E+07
4.37780,5.739709E+07
4.38592,5.647426E+07
4.39405,5.629832E+07
4.40217,5.61916E+07
4.41030,5.574815E+07
4.41842,5.559628E+07
4.42653,5.556873E+07
4.43467,5.567916E+07
4.44278,5.506805E+07
4.45090,5.559134E+07
4.45903,5.475032E+07
4.46715,5.476888E+07
4.47528,5.395046E+07
4.48340,5.38851E+07
4.49152,5.356778E+07
4.49965,5.34779E+07
4.50777,5.308842E+07
4.51590,5.316991E+07
4.52402,5.375646E+07
4.53213,5.294873E+07
4.54027,5.231732E+07
4.54838,5.2668E+07
4.55652,5.24523E+07
4.56463,5.234457E+07
4.57275,5.204615E+07
4.58088,5.18017E+07
4.58900,5.177977E+07
4.59712,5.189732E+07
4.60525,5.151721E+07
4.61337,5.096115E+07
4.62150,5.104113E+07
4.62962,5.082216E+07
4.63773,4.987692E+07
4.64587,5.030464E+07
4.65398,4.989224E+07
4.66212,4.989729E+07
4.67023,5.022055E+07
4.67835,4.969659E+07
4.68648,4.972363E+07
4.69460,4.921126E+07
4.70272,4.933294E+07
4.71085,4.871096E+07
4.71897,4.835547E+07
4.72710,4.831254E+07
4.73522,4.806583E+07
4.74333,4.849504E+07
4.75147,4.786274E+07
4.75958,4.747504E+07
4.76772,4.739858E+07
4.77583,4.711873E+07
4.78395,4.711288E+07
4.79208,4.686945E+07
4.80020,4.634948E+07
4.80833,4.595894E+07
4.81645,4.612504E+07
4.82457,4.642881E+07
4.83270,4.598616E+07
4.84082,4.592964E+07
4.84893,4.598836E+07
4.85707,4.556072E+07
4.86518,4.52449E+07
4.87332,4.539472E+07
4.88143,4.530996E+07
4.88955,4.558111E+07
4.89768,4.575719E+07
4.90580,4.54316E+07
4.91393,4.532791E+07
4.92205,4.49595E+07
4.93017,4.44649E+07
4.93830,4.435394E+07
4.94642,4.359207E+07
4.95453,4.382998E+07
4.96267,4.376415E+07
4.97078,4.329282E+07
4.97892,4.286369E+07
4.98703,4.323641E+07
4.99515,4.291788E+07
5.00328,4.25525E+07
5.01140,4.242857E+07
5.01953,4.236449E+07
5.02765,4.209697E+07
5.03577,4.243334E+07
5.04390,4.194932E+07
5.05202,4.19451E+07
5.06015,4.177198E+07
5.06827,4.178251E+07
5.07638,4.135681E+07
5.08452,4.097937E+07
5.09263,4.131502E+07
5.10075,4.139818E+07
5.10888,4.075244E+07
5.11700,4.069187E+07
5.12513,4.10965E+07
5.13325,4.068946E+07
5.14137,4.056839E+07
5.14950,4.051393E+07
5.15762,4.096192E+07
5.16575,4.155609E+07
5.17387,4.323612E+07
5.18198,4.386411E+07
5.19012,4.426197E+07
5.19823,4.457483E+07
5.20637,4.691175E+07
5.21448,5.147151E+07
5.22260,5.946623E+07
5.23073,6.969342E+07
5.23885,7.995383E+07
5.24697,8.90743E+07
5.25510,9.741419E+07
5.26322,1.04426E+08
5.27135,1.109278E+08
5.27947,1.168162E+08
5.28758,1.209685E+08
5.29572,1.245855E+08
5.30383,1.277868E+08
5.31197,1.297747E+08
5.32008,1.314157E+08
5.32820,1.254349E+08
5.33633,5.21828E+07
5.34445,3.939992E+07
5.35257,3.921255E+07
5.36070,3.916571E+07
5.36882,3.449587E+07
5.37695,1.003761E+07
5.38507,4389711
5.39318,4338246
5.40132,4330663
5.40943,4340859
5.41757,4389065
5.42568,4293143
5.43380,4028069
5.44193,3756101
5.45005,3485512
5.45818,3374164
5.46630,3187818
5.47442,2970475
5.48255,2860574
5.49067,2819259
5.49878,2754598
5.50692,2690737
5.51503,2621139
5.52317,2609488
5.53128,2537093
5.53940,2462915
5.54753,2431980
5.55565,2442281
5.56378,2360695
5.57190,2335397
5.58002,2226586
5.58815,2156467
5.59627,2088068
5.60440,2081183
5.61252,2049135
5.62063,2041270
5.62877,2078796
5.63688,2131212
5.64500,2117566
5.65313,2104408
5.66125,1992593
5.66938,1927909
5.67750,1817687
5.68562,1786323
5.69375,1726712
5.70187,1699245
5.71000,1699536
5.71812,1681286
5.72623,1643203
5.73437,1650338
5.74248,1613443
5.75060,1589918
5.75873,1595378
5.76685,1566020
5.77498,1490069
5.78310,1452600
5.79122,1413274
5.79935,1398123
5.80747,1365854
5.81560,1406676
5.82372,1404040
5.83183,1372885
5.83997,1343115
5.84808,1314341
5.85622,1278835
5.86433,1281789
5.87245,1233417
5.88058,1250014
5.88870,1212910
5.89682,1199889
5.90495,1169749
5.91307,1144595
5.92120,1125167
5.92932,1144882
5.93743,1179270
5.94557,1219473
5.95368,1247901
5.96182,1264328
5.96993,1271097
5.97805,1279435
5.98618,1357098
5.99430,1564188
6.00243,1798608
6.01055,1898564
6.01867,1697053
6.02680,1351078
6.03492,1136804
6.04303,1047061
6.05117,984230
6.05928,966295
6.06742,976247
6.07553,967229
6.08365,993980
6.09178,996594
6.09990,1000027
6.10803,990258
6.11615,976265
6.12427,934122
6.13240,903539
6.14052,897903
6.14863,861293
6.15677,860583
6.16488,868635
6.17302,859900
6.18113,875070
6.18925,888846
6.19738,916163
6.20550,917349
6.21363,935012
6.22175,917599
6.22987,898795
6.23800,890060
6.24612,854774
6.25425,838778
6.26237,816635
6.27048,776306
6.27862,728633
6.28673,660046
6.29485,618372
6.30298,611651
6.31110,621084
6.31923,657590
6.32735,686507
6.33547,688381
6.34360,678262
6.35172,707582
6.35985,732510
6.36797,744730
6.37608,723394
6.38422,699283
6.39233,665146
6.40045,650412
6.40858,615489
6.41670,605286
6.42483,576407
6.43295,552689
6.44107,553516
6.44920,538925
6.45732,546759
6.46545,545370
6.47357,527185
6.48168,540863
6.48982,526357
6.49793,523509
6.50607,522308
6.51418,516836
6.52230,507376
6.53043,503980
6.53855,503001
6.54667,485978
6.55480,500796
6.56292,495158
6.57105,522340
6.57917,538900
6.58728,559070
6.59542,569272
6.60353,550461
6.61167,531700
6.61978,508902
6.62790,486366
6.63603,463996
6.64415,454099
6.65228,461676
6.66040,449225
6.66852,437069
6.67665,432000
6.68477,438354
6.69288,418021
6.70102,424880
6.70913,422599
6.71727,411461
6.72538,404310
6.73350,420537
6.74163,412765
6.74975,403637
6.75788,403785
6.76600,395237
6.77412,405075
6.78225,405450
6.79037,415140
6.79848,426718
6.80662,410822
6.81473,402718
6.82287,386499
6.83098,383820
6.83910,377849
6.84723,371716
6.85535,410057
6.86348,458594
6.87160,525451
6.87972,617296
6.88785,734517
6.89597,780330
6.90410,753489
6.91222,668961
6.92033,581930
6.92847,495788
6.93658,450860
6.94470,430349
6.95283,407505
6.96095,406550
6.96908,410409
6.97720,386361
6.98532,369349
6.99345,347019
7.00157,355910
7.00970,354449
7.01782,346503
7.02593,333848
7.03407,339308
7.04218,338896
7.05032,330447
7.05843,317263
7.06655,318664
7.07468,315991
7.08280,319051
7.09092,316460
7.09905,321731
7.10717,320014
7.11530,319617
7.12342,320559
7.13153,331682
7.13967,332931
7.14778,340966
7.15592,329413
7.16403,340354
7.17215,327813
7.18028,328685
7.18840,329200
7.19652,332899
7.20465,324362
7.21277,312470
7.22090,276710
7.22902,226468
7.23713,174482
7.24527,158457
7.25338,162376
7.26152,284080
7.26963,619174
7.27775,1305938
7.28588,2619020
7.29400,4664521
7.30213,7515868
7.31025,1.163018E+07
7.31837,1.69635E+07
7.32650,2.34524E+07
7.33462,3.094569E+07
7.34273,3.94234E+07
7.35087,4.769161E+07
7.35898,5.454459E+07
7.36712,6.121212E+07
7.37523,6.737406E+07
7.38335,7.384574E+07
7.39148,7.944807E+07
7.39960,8.47511E+07
7.40773,8.955419E+07
7.41585,9.396226E+07
7.42397,9.869684E+07
7.43210,1.025556E+08
7.44022,1.058508E+08
7.44833,1.09276E+08
7.45647,1.128791E+08
7.46458,1.160176E+08
7.47272,1.182438E+08
7.48083,1.209894E+08
7.48895,1.213791E+08
7.49708,8.337467E+07
7.50520,8051210
7.51333,3983630
7.52145,3663483
7.52957,3497162
7.53770,3291526
7.54582,3117505
7.55395,2995246
7.56207,2871089
7.57018,2796734
7.57832,2671037
7.58643,2612099
7.59455,2514810
7.60268,2417466
7.61080,2364426
7.61893,2278411
7.62705,2246704
7.63517,2221236
7.64330,2129465
7.65142,2074634
7.65955,1990826
7.66767,1925086
7.67578,1896241
7.68392,1825907
7.69203,1819597
7.70017,1777950
7.70828,1756750
7.71640,1697370
7.72453,1663906
7.73265,1628658
7.74077,1576853
7.74890,1554494
7.75702,1475959
7.76515,1478342
7.77327,1457251
7.78138,1427407
7.78952,1391502
7.79763,1399412
7.80577,1370636
7.81388,1333065
7.82200,1285472
7.83013,1257622
7.83825,1233033
7.84638,1201003
7.85450,1202053
7.86262,1172922
7.87075,1156595
7.87887,1128322
7.88698,1099301
7.89512,1102121
7.90323,1100339
7.91137,1081214
7.91948,1088990
7.92760,1062299
7.93573,1012361
7.94385,996060
7.95198,962078
7.96010,955127
7.96822,956880
7.97635,934261
7.98447,920909
7.99258,894860
8.00072,878483
8.00883,851571
8.01697,855353
8.02508,835048
8.03320,845894
8.04133,817435
8.04945,819413
8.05758,815112
8.06570,810746
8.07382,809398
8.08195,795847
8.09007,753553
8.09820,751108
8.10632,755620
8.11443,732844
8.12257,730718
8.13068,735136
8.13880,717267
8.14693,714046
8.15505,702024
8.16318,707399
8.17130,701564
8.17942,688890
8.18755,706133
8.19567,690504
8.20380,673656
8.21192,643741
8.22003,640645
8.22817,630940
8.23628,628517
8.24440,632429
8.25253,633847
8.26065,614686
8.26878,626434
8.27690,621203
8.28502,630681
8.29315,633393
8.30127,639883
8.30940,643353
8.31752,626809
8.32563,619158
8.33377,580113
8.34188,558272
8.35002,536107
8.35813,530862
8.36625,534540
8.37438,518924
8.38250,526765
8.39062,523784
8.39875,514762
8.40687,515060
8.41500,513219
8.42312,502228
8.43123,486173
8.43937,487423
8.44748,489626
8.45562,493531
8.46373,483667
8.47185,489535
8.47998,467821
8.48810,468369
8.49623,462326
8.50435,452328
8.51247,437088
8.52060,442627
8.52872,435855
8.53683,435902
8.54497,434776
8.55308,444273
8.56122,440466
8.56933,452734
8.57745,468360
8.58558,460544
8.59370,446856
8.60183,444434
8.60995,439192
8.61807,422402
8.62620,429864
8.63432,435406
8.64243,426954
8.65057,423687
8.65868,418449
8.66682,406283
8.67493,401850
8.68305,388771
8.69118,395297
8.69930,393916
8.70743,388440
8.71555,375191
8.72367,385691
8.73180,392851
8.73992,416993
8.74805,435241
8.75617,428819
8.76428,382931
8.77242,332102
8.78053,268097
8.78865,215945
8.79678,202711
8.80490,202641
8.81303,236802
8.82115,299111
8.82927,362399
8.83740,421331
8.84552,425562
8.85365,390187
8.86177,329538
8.86988,280689
8.87802,234114
8.88613,207768
8.89427,196690
8.90238,179761
8.91050,168760
8.91863,161580
8.92675,154658
8.93487,150253
8.94300,138756
8.95112,134755
8.95925,124102
8.96737,127221
8.97548,120239
8.98362,123077
8.99173,124811
8.99987,124363
9.00798,123824
9.01610,123913
9.02423,123133
9.03235,119521
9.04047,116768
9.04860,112542
9.05672,114911
9.06485,112939
9.07297,109377
9.08108,112925
9.08922,111396
9.09733,121380
9.10547,127225
9.11358,136004
9.12170,145395
9.12983,153057
9.13795,156480
9.14608,157922
9.15420,154568
9.16232,150070
9.17045,143955
9.17857,132862
9.18668,131903
9.19482,130226
9.20293,125604
9.21107,127965
9.21918,123973
9.22730,121118
9.23543,118538
9.24355,118763
9.25168,109328
9.25980,108235
9.26792,109798
9.27605,113865
9.28417,112646
9.29228,117937
9.30042,111947
9.30853,104135
9.31667,102578
9.32478,97526
9.33290,96035
9.34103,96358
9.34915,95039
9.35728,100744
9.36540,93978
9.37352,100215
9.38165,97746
9.38977,101213
9.39790,100712
9.40602,100153
9.41413,98192
9.42227,101062
9.43038,101294
9.43850,97470
9.44663,95331
9.45475,95043
9.46288,94192
9.47100,97486
9.47912,95560
9.48725,105156
9.49537,98351
9.50350,109305
9.51162,113548
9.51973,124358
9.52787,130066
9.53598,139786
9.54412,158830
9.55223,196465
9.56035,232257
9.56848,264359
9.57660,275922
9.58472,268643
9.59285,250991
9.60097,209693
9.60910,168980
9.61722,153361
9.62533,125311
9.63347,111445
9.64158,104472
9.64972,103377
9.65783,98517
9.66595,100095
9.67408,95960
9.68220,105517
9.69032,108269
9.69845,100863
9.70657,100694
9.71470,101334
9.72282,94819
9.73093,89313
9.73907,90203
9.74718,92377
9.75532,94488
9.76343,89799
9.77155,97314
9.77968,90807
9.78780,99686
9.79593,102734
9.80405,101198
9.81217,98411
9.82030,97546
9.82842,97246
9.83653,99900
9.84467,101051
9.85278,100540
9.86092,96746
9.86903,93852
9.87715,95726
9.88528,95449
9.89340,84970
9.90153,93475
9.90965,94320
9.91777,93007
9.92590,94442
9.93402,96608
9.94215,98244
9.95027,96885
9.95838,114474
9.96652,170923
9.97463,309835
9.98275,651475
9.99088,1361120
9.99900,2643704
10.00713,4608601
10.01525,7455046
10.02337,1.123025E+07
10.03150,1.585941E+07
10.03962,2.137088E+07
10.04775,2.68802E+07
10.05587,3.284575E+07
10.06398,3.928152E+07
10.07212,4.462507E+07
10.08023,4.986919E+07
10.08835,5.418038E+07
10.09648,5.883954E+07
10.10460,6.35916E+07
10.11273,6.744068E+07
10.12085,7.143062E+07
10.12897,7.534747E+07
10.13710,7.893786E+07
10.14522,8.338927E+07
10.15335,8.661212E+07
10.16147,8.89915E+07
10.16958,9.246389E+07
10.17772,9.591826E+07
10.18583,9.869154E+07
10.19397,1.016478E+08
10.20208,1.041341E+08
10.21020,1.065364E+08
10.21833,1.089957E+08
10.22645,1.11107E+08
10.23457,1.132143E+08
10.24270,1.151572E+08
10.25082,1.149811E+08
10.25895,7.762706E+07
10.26707,7964629
10.27518,3416503
10.28332,3103857
10.29143,2917664
10.29957,2749125
10.30768,2578835
10.31580,2469445
10.32393,2359964
10.33205,2253453
10.34018,2199131
10.34830,2062263
10.35642,2004314
10.36455,1952800
10.37267,1859323
10.38078,1800258
10.38892,1756003
10.39703,1691730
10.40517,1641798
10.41328,1583000
10.42140,1557515
10.42953,1475216
10.43765,1437188
10.44578,1410220
10.45390,1414731
10.46202,1375190
10.47015,1350268
10.47827,1291988
10.48638,1250988
10.49452,1228316
10.50263,1205159
10.51077,1147075
10.51888,1141399
10.52700,1104334
10.53513,1082868
10.54325,1101345
10.55138,1050556
10.55950,1023773
10.56762,1001940
10.57575,969492
10.58387,969650
10.59200,955240
10.60012,939590
10.60823,909287
10.61637,879234
10.62448,856312
10.63260,855727
10.64073,826164
10.64885,822930
10.65698,796720
10.66510,784170
10.67322,763543
10.68135,751014
10.68947,742970
10.69760,745312
10.70572,730541
10.71383,714761
10.72197,710704
10.73008,711439
10.73820,699040
10.74633,686972
10.75445,697513
10.76258,697240
10.77070,705481
10.77882,714186
10.78695,739395
10.79507,750465
10.80320,764549
10.81132,790497
10.81943,752167
10.82757,733173
10.83568,686956
10.84382,635861
10.85193,602586
10.86005,561691
10.86818,539656
10.87630,533457
10.88442,525693
10.89255,527834
10.90067,521392
10.90880,502891
10.91692,493736
10.92503,484794
10.93317,460799
10.94128,430189
10.94942,368369
10.95753,318397
10.96565,251479
10.97378,202429
10.98190,165054
10.99003,146970
10.99815,140719
11.00627,141704
11.01440,134265
11.02252,131253
11.03063,117353
11.03877,105770
11.04688,100418
11.05502,101290
11.06313,99310
11.07125,100821
11.07938,100544
11.08750,98816
11.09563,100664
11.10375,96459
11.11187,91744
11.12000,91048
11.12812,88184
11.13623,91648
11.14437,90396
11.15248,90582
11.16062,93206
11.16873,98374
11.17685,105218
11.18498,108671
11.19310,112023
11.20123,114923
11.20935,106831
11.21747,103642
11.22560,94548
11.23372,91372
11.24185,89943
11.24997,93344
11.25808,92499
11.26622,103623
11.27433,102223
11.28245,99477
11.29058,103041
11.29870,107307
11.30683,107743
11.31495,116687
11.32307,127433
11.33120,142249
11.33932,154762
11.34745,164652
11.35557,151537
11.36368,142075
11.37182,134616
11.37993,127552
11.38807,120841
11.39618,114577
11.40430,109062
11.41243,108840
11.42055,102244
11.42867,101804
11.43680,101099
11.44492,105569
11.45305,97105
11.46117,89517
11.46928,93451
11.47742,97419
11.48553,95260
11.49367,95486
11.50178,101620
11.50990,108657
11.51803,120537
11.52615,118950
11.53427,113492
11.54240,116957
11.55052,110199
11.55865,115121
11.56677,118118
11.57488,109814
11.58302,119432
11.59113,127800
11.59927,125922
11.60738,130794
11.61550,133127
11.62363,126533
11.63175,122910
11.63988,119891
11.64800,111358
11.65612,110622
11.66425,108690
11.67237,106520
11.68048,102783
11.68862,114290
11.69673,126701
11.70487,137600
11.71298,140378
11.72110,151258
11.72923,144251
11.73735,128834
11.74548,126518
11.75360,126833
11.76172,123519
11.76985,133919
11.77797,137240
11.78608,147313
11.79422,143301
11.80233,149001
11.81047,144013
11.81858,150211
11.82670,130215
11.83483,132854
11.84295,130369
11.85108,140946
11.85920,149462
11.86732,168245
11.87545,163538
11.88357,158501
11.89170,147550
11.89982,132753
11.90793,125806
11.91607,121924
11.92418,113803
11.93230,114836
11.94043,123274
11.94855,113900
11.95668,102299
11.96480,100626
11.97292,94172
11.98105,92512
11.98917,85362
11.99730,91602
12.00542,94041
12.01353,101662
12.02167,102389
12.02978,115137
12.03792,116213
12.04603,118869
12.05415,120733
12.06228,124827
12.07040,132776
12.07852,138084
12.08665,143829
12.09477,146689
12.10290,141568
12.11102,129709
12.11913,126161
12.12727,121539
12.13538,129268
12.14352,127088
12.15163,131576
12.15975,136824
12.16788,127435
12.17600,119122
12.18413,108860
12.19225,101508
12.20037,93927
12.20850,90043
12.21662,82942
12.22473,89828
12.23287,80475
12.24098,86079
12.24912,88913
12.25723,91698
12.26535,93199
12.27348,103225
12.28160,105065
12.28973,110031
12.29785,109010
12.30597,103908
12.31410,102533
12.32222,93051
12.33033,90646
12.33847,86844
12.34658,81730
12.35472,80563
12.36283,78453
12.37095,75627
12.37908,73307
12.38720,70850
12.39533,78205
12.40345,75714
12.41157,73990
12.41970,80038
12.42782,85757
12.43595,111435
12.44407,161188
12.45218,230973
12.46032,314811
12.46843,350715
12.47655,350755
12.48468,287657
12.49280,218670
12.50093,153566
12.50905,109672
12.51717,89443
12.52530,81300
12.53342,82071
12.54155,76821
12.54967,76719
12.55778,77394
12.56592,77875
12.57403,76673
12.58215,79285
12.59028,80289
12.59840,82001
12.60653,84474
12.61465,82298
12.62277,87197
12.63090,89951
12.63902,83836
12.64715,82585
12.65527,89921
12.66338,97381
12.67152,107560
12.67963,123638
12.68777,135535
12.69588,143748
12.70400,158171
12.71213,166735
12.72025,162974
12.72837,173265
12.73650,157873
12.74462,141228
12.75275,129310
12.76087,114945
12.76898,106845
12.77712,94729
12.78523,91503
12.79337,87583
12.80148,93797
12.80960,80046
12.81773,77141
12.82585,82146
12.83398,78650
12.84210,83065
12.85022,88047
12.85835,83500
12.86647,88746
12.87458,89229
12.88272,88308
12.89083,90015
12.89897,87937
12.90708,85943
12.91520,88063
12.92333,82560
12.93145,83150
12.93958,93594
12.94770,95474
12.95582,97332
12.96395,105551
12.97207,98277
12.98018,112831
12.98832,115820
12.99643,131639
13.00457,203315
13.01268,326259
13.02080,609461
13.02893,1138026
13.03705,2010309
13.04518,3348001
13.05330,5321275
13.06142,8032958
13.06955,1.145655E+07
13.07767,1.541257E+07
13.08580,2.032299E+07
13.09392,2.535909E+07
13.10203,3.085657E+07
13.11017,3.604742E+07
13.11828,4.042578E+07
13.12640,4.51157E+07
13.13453,4.940467E+07
13.14265,5.368216E+07
13.15078,5.783247E+07
13.15890,6.18198E+07
13.16702,6.550293E+07
13.17515,6.783697E+07
13.18327,7.099464E+07
13.19140,7.45672E+07
13.19952,7.776234E+07
13.20763,8.098082E+07
13.21577,8.418465E+07
13.22388,8.706457E+07
13.23202,8.976898E+07
13.24013,9.237711E+07
13.24825,9.417899E+07
13.25638,9.749782E+07
13.26450,1.000924E+08
13.27262,1.020486E+08
13.28075,1.039413E+08
13.28887,1.055171E+08
13.29700,1.078492E+08
13.30512,1.098211E+08
13.31323,1.113679E+08
13.32137,1.12507E+08
13.32948,1.111938E+08
13.33762,6.832448E+07
13.34573,7044529
13.35385,2734939
13.36198,2377471
13.37010,2189022
13.37822,2047562
13.38635,1946236
13.39447,1837667
13.40260,1689000
13.41072,1605678
13.41883,1545024
13.42697,1460591
13.43508,1410859
13.44322,1342906
13.45133,1306850
13.45945,1246421
13.46758,1180836
13.47570,1166205
13.48383,1136102
13.49195,1078065
13.50007,1065337
13.50820,1031114
13.51632,997327
13.52443,982806
13.53257,933941
13.54068,924816
13.54882,882427
13.55693,853980
13.56505,844896
13.57318,834636
13.58130,786394
13.58943,774366
13.59755,739366
13.60567,684383
13.61380,608964
13.62192,528530
13.63003,436239
13.63817,355666
13.64628,269424
13.65442,208116
13.66253,161773
13.67065,135971
13.67878,123237
13.68690,108056
13.69503,108296
13.70315,99544
13.71127,100493
13.71940,96453
13.72752,89922
13.73565,89808
13.74377,91871
13.75188,93955
13.76002,96812
13.76813,107245
13.77625,105740
13.78438,109299
13.79250,112322
13.80063,109650
13.80875,109301
13.81687,104857
13.82500,101940
13.83312,100643
13.84125,100347
13.84937,112737
13.85748,119708
13.86562,131645
13.87373,139870
13.88187,136821
13.88998,140070
13.89810,115937
13.90623,104179
13.91435,87568
13.92247,89093
13.93060,83147
13.93872,85284
13.94685,90014
13.95497,87945
13.96308,90414
13.97122,84737
13.97933,89640
13.98747,97175
13.99558,91913
14.00370,98278
14.01183,99410
14.01995,101757
14.02807,96648
14.03620,105002
14.04432,100222
14.05245,100200
14.06057,95097
14.06868,94643
14.07682,92119
14.08493,85441
14.09307,87066
14.10118,83846
14.10930,88829
14.11743,90927
14.12555,100930
14.13368,113639
14.14180,129194
14.14992,167927
14.15805,230012
14.16617,314242
14.17428,386211
14.18242,415945
14.19053,392743
14.19867,338032
14.20678,254272
14.21490,191797
14.22303,143328
14.23115,110442
14.23928,93979
14.24740,93400
14.25552,95096
14.26365,88861
14.27177,95151
14.27990,90577
14.28802,88929
14.29613,81438
14.30427,79148
14.31238,82608
14.32050,83517
14.32863,85647
14.33675,86660
14.34488,92648
14.35300,89274
14.36112,98827
14.36925,95803
14.37737,93019
14.38550,91077
14.39362,88206
14.40173,88328
14.40987,82032
14.41798,80151
14.42610,83387
14.43423,77191
14.44235,71221
14.45048,74535
14.45860,66800
14.46672,72500
14.47485,69903
14.48297,72958
14.49110,71012
14.49922,71990
14.50733,70706
14.51547,78915
14.52358,80553
14.53172,76747
14.53983,79922
14.54795,84087
14.55608,80261
14.56420,83350
14.57232,80491
14.58045,68444
14.58857,68628
14.59670,67771
14.60482,64522
14.61293,64377
14.62107,65619
14.62918,71442
14.63732,65691
14.64543,63944
14.65355,65776
14.66168,59603
14.66980,62797
14.67792,63089
14.68605,63802
14.69417,63822
14.70230,69112
14.71042,77470
14.71853,89495
14.72667,99764
14.73478,98772
14.74292,91409
14.75103,82068
14.75915,72513
14.76728,73250
14.77540,68413
14.78353,65591
14.79165,76099
14.79977,83841
14.80790,76701
14.81602,84638
14.82413,84034
14.83227,93991
14.84038,107775
14.84852,130938
14.85663,145409
14.86475,176001
14.87288,205715
14.88100,232477
14.88913,265520
14.89725,307457
14.90537,339597
14.91350,390663
14.92162,419214
14.92975,471004
14.93787,499686
14.94598,490319
14.95412,472461
14.96223,438846
14.97035,406286
14.97848,357630
14.98660,306934
14.99473,280087
15.00285,245168
15.01097,209945
15.01910,184457
15.02722,157331
15.03535,133341
15.04347,127528
15.05158,110244
15.05972,101539
15.06783,96141
15.07595,85343
15.08408,81630
15.09220,69585
15.10033,69824
15.10845,71651
15.11657,68212
15.12470,72400
15.13282,75307
15.14095,68064
15.14907,76542
15.15718,84138
15.16532,94286
15.17343,108327
15.18157,124842
15.18968,133376
15.19780,134210
15.20593,124792
15.21405,125145
15.22217,118267
15.23030,134531
15.23842,133004
15.24655,145480
15.25467,139665
15.26278,142457
15.27092,139951
15.27903,126934
15.28717,126322
15.29528,114564
15.30340,107348
15.31153,99141
15.31965,100682
15.32778,88312
15.33590,83874
15.34402,82243
15.35215,75652
15.36027,70111
15.36838,67731
15.37652,66383
15.38463,63549
15.39277,59546
15.40088,60101
15.40900,68482
15.41713,64140
15.42525,62044
15.43338,62888
15.44150,57742
15.44962,58709
15.45775,57840
15.46587,57012
15.47398,71391
15.48212,67771
15.49023,65824
15.49837,68750
15.50648,64654
15.51460,68622
15.52273,64636
15.53085,71360
15.53898,65093
15.54710,66220
15.55522,60709
15.56335,59440
15.57147,61734
15.57960,54113
15.58772,57115
15.59583,50483
15.60397,52627
15.61208,50521
15.62020,46718
15.62833,53121
15.63645,50523
15.64458,54145
15.65270,60856
15.66082,61149
15.66895,63955
15.67707,67361
15.68520,64187
15.69332,65122
15.70143,56482
15.70957,52765
15.71768,56828
15.72582,65651
15.73393,66851
15.74205,69797
15.75018,66270
15.75830,68033
15.76642,63412
15.77455,57180
15.78267,62624
15.79080,50156
15.79892,51366
15.80703,54973
15.81517,51502
15.82328,51506
15.83142,48667
15.83953,54627
15.84765,52651
15.85578,51898
15.86390,54236
15.87202,51322
15.88015,50542
15.88827,54021
15.89640,49357
15.90452,51099
15.91263,49682
15.92077,51777
15.92888,56662
15.93702,55226
15.94513,55441
15.95325,56449
15.96138,55018
15.96950,58074
15.97763,58870
15.98575,57940
15.99387,63881
16.00200,63745
16.01012,65950
16.01823,71354
16.02637,76373
16.03448,74108
16.04262,68376
16.05073,66979
16.05885,68528
16.06698,70769
16.07510,74910
16.08323,83641
16.09135,85163
16.09947,81385
16.10760,81239
16.11572,84550
16.12383,108417
16.13197,154455
16.14008,260478
16.14822,453721
16.15633,764791
16.16445,1288846
16.17258,2067599
16.18070,3133953
16.18883,4784769
16.19695,7039977
16.20507,9956493
16.21320,1.326901E+07
16.22132,1.756819E+07
16.22945,2.216005E+07
16.23757,2.719523E+07
16.24568,3.166808E+07
16.25382,3.697628E+07
16.26193,4.067565E+07
16.27005,4.518554E+07
16.27818,4.988184E+07
16.28630,5.36236E+07
16.29443,5.734165E+07
16.30255,6.060547E+07
16.31067,6.378913E+07
16.31880,6.736849E+07
16.32692,7.090171E+07
16.33505,7.339933E+07
16.34317,7.609702E+07
16.35128,7.868922E+07
16.35942,8.153482E+07
16.36753,8.398331E+07
16.37567,8.761183E+07
16.38378,9.008342E+07
16.39190,9.208468E+07
16.40003,9.436018E+07
16.40815,9.636359E+07
16.41627,9.837719E+07
16.42440,1.003447E+08
16.43252,1.029264E+08
16.44065,1.054224E+08
16.44877,1.063217E+08
16.45688,1.069381E+08
16.46502,1.085409E+08
16.47313,1.106686E+08
16.48127,1.118776E+08
16.48938,1.096289E+08
16.49750,6.955499E+07
16.50563,8035990
16.51375,2142400
16.52187,1667294
16.53000,1436265
16.53812,1182610
16.54625,983972
16.55437,801928
16.56248,638238
16.57062,499981
16.57873,385398
16.58687,309279
16.59498,244797
16.60310,204489
16.61123,170018
16.61935,143764
16.62748,134475
16.63560,115663
16.64372,106707
16.65185,109991
16.65997,105898
16.66808,97718
16.67622,97877
16.68433,103412
16.69247,97035
16.70058,93723
16.70870,89666
16.71683,90940
16.72495,88625
16.73308,85318
16.74120,89739
16.74932,78579
16.75745,83204
16.76557,78367
16.77370,78730
16.78182,80280
16.78993,79314
16.79807,75424
16.80618,82713
16.81430,80439
16.82243,82371
16.83055,80988
16.83868,80082
16.84680,83076
16.85492,76241
16.86305,76981
16.87117,69437
16.87930,74771
16.88742,79305
16.89553,70647
16.90367,78716
16.91178,87066
16.91990,99274
16.92803,100039
16.93615,108044
16.94428,107791
16.95240,110850
16.96052,104052
16.96865,92718
16.97677,87741
16.98490,78622
16.99302,73978
17.00113,75446
17.00927,80254
17.01738,76476
17.02552,80836
17.03363,80431
17.04175,84768
17.04988,89910
17.05800,83181
17.06612,78081
17.07425,73476
17.08237,74631
17.09050,75749
17.09862,71019
17.10673,73694
17.11487,77552
17.12298,74604
17.13112,79058
17.13923,75897
17.14735,68142
17.15548,67453
17.16360,68549
17.17172,65961
17.17985,69912
17.18797,61565
17.19610,70912
17.20422,66734
17.21233,69638
17.22047,69239
17.22858,71779
17.23672,70893
17.24483,71172
17.25295,80922
17.26108,83369
17.26920,105273
17.27733,104331
17.28545,111419
17.29357,105815
17.30170,102171
17.30982,100750
17.31793,90035
17.32607,87017
17.33418,79148
17.34232,79747
17.35043,74528
17.35855,80432
17.36668,84423
17.37480,83701
17.38293,89729
17.39105,84234
17.39917,79586
17.40730,81997
17.41542,83692
17.42355,88054
17.43167,94623
17.43978,108481
17.44792,111369
17.45603,132102
17.46415,149787
17.47228,158835
17.48040,178615
17.48853,190495
17.49665,203727
17.50477,228028
17.51290,246644
17.52102,260586
17.52915,273555
17.53727,280272
17.54538,286167
17.55352,256816
17.56163,253027
17.56977,234714
17.57788,217000
17.58600,204912
17.59413,199104
17.60225,182328
17.61037,169607
17.61850,159459
17.62662,151007
17.63475,148083
17.64287,139348
17.65098,141014
17.65912,135093
17.66723,140282
17.67537,147049
17.68348,153690
17.69160,162722
17.69973,168642
17.70785,161321
17.71597,158465
17.72410,140371
17.73222,141485
17.74035,134227
17.74847,127261
17.75658,122231
17.76472,121445
17.77283,104235
17.78097,104726
17.78908,97079
17.79720,97203
17.80533,95607
17.81345,97704
17.82158,90889
17.82970,91954
17.83782,91342
17.84595,92275
17.85407,91465
17.86218,94105
17.87032,95142
17.87843,102361
17.88657,104620
17.89468,112268
17.90280,112173
17.91093,116140
17.91905,125799
17.92718,125244
17.93530,135289
17.94342,140974
17.95155,164820
17.95967,174409
17.96778,180605
17.97592,190949
17.98403,200504
17.99217,216375
18.00028,215765
18.00840,223942
18.01653,235795
18.02465,235028
18.03278,252582
18.04090,266808
18.04902,286111
18.05715,300266
18.06527,305240
18.07340,326181
18.08152,311561
18.08963,300157
18.09777,304280
18.10588,281447
18.11400,260694
18.12213,245058
18.13025,239465
18.13838,230404
18.14650,211740
18.15462,194286
18.16275,184743
18.17087,174426
18.17900,159060
18.18712,145463
18.19523,135862
18.20337,131899
18.21148,124987
18.21962,131492
18.22773,128366
18.23585,129699
18.24398,129887
18.25210,134728
18.26022,132565
18.26835,132091
18.27647,132212
18.28460,137159
18.29272,139318
18.30083,130913
18.30897,139737
18.31708,139439
18.32522,144841
18.33333,151815
18.34145,158723
18.34958,167261
18.35770,171614
18.36582,175252
18.37395,185195
18.38207,196951
18.39020,203897
18.39832,207974
18.40643,209921
18.41457,211589
18.42268,209604
18.43082,195498
18.43893,187872
18.44705,177795
18.45518,172439
18.46330,156616
18.47143,153334
18.47955,148721
18.48767,143353
18.49580,141732
18.50392,134795
18.51203,133847
18.52017,127005
18.52828,133065
18.53642,128923
18.54453,123499
18.55265,121920
18.56078,119587
18.56890,124022
18.57703,118489
18.58515,106739
18.59327,100906
18.60140,93586
18.60952,89591
18.61765,86994
18.62577,85027
18.63388,85935
18.64202,81124
18.65013,81561
18.65825,82117
18.66638,87497
18.67450,86234
18.68263,85127
18.69075,92404
18.69887,95645
18.70700,95748
18.71512,107706
18.72325,114624
18.73137,114496
18.73948,118319
18.74762,113941
18.75573,111638
18.76385,102311
18.77198,96346
18.78010,99000
18.78823,100457
18.79635,97769
18.80447,97692
18.81260,104207
18.82072,101355
18.82885,97765
18.83697,100707
18.84508,104407
18.85322,110678
18.86133,129374
18.86947,145054
18.87758,161446
18.88570,168918
18.89383,168546
18.90195,158837
18.91007,138968
18.91820,124996
18.92632,108960
18.93445,103279
18.94257,103304
18.95068,98537
18.95882,102901
18.96693,93728
18.97507,89112
18.98318,93740
18.99130,101664
18.99943,96912
19.00755,92523
19.01567,94044
19.02380,90748
19.03192,89171
19.04005,87838
19.04817,88746
19.05628,94147
19.06442,94103
19.07253,88719
19.08067,91089
19.08878,95254
19.09690,100437
19.10503,95151
19.11315,97062
19.12128,93938
19.12940,94901
19.13752,103598
19.14565,104588
19.15377,108537
19.16188,114869
19.17002,118740
19.17813,124840
19.18627,138882
19.19438,172142
19.20250,201337
19.21063,243589
19.21875,304375
19.22688,429270
19.23500,594024
19.24312,855720
19.25125,1210901
19.25937,1736144
19.26750,2493735
19.27562,3484241
19.28373,4758087
19.29187,6583152
19.29998,9283419
19.30810,1.248444E+07
19.31623,1.628927E+07
19.32435,2.065392E+07
19.33248,2.498801E+07
19.34060,2.938862E+07
19.34872,3.411465E+07
19.35685,3.929982E+07
19.36497,4.401106E+07
19.37310,4.836384E+07
19.38122,5.272685E+07
19.38933,5.587646E+07
19.39747,5.823382E+07
19.40558,6.169931E+07
19.41370,6.424086E+07
19.42183,6.835773E+07
19.42995,7.197862E+07
19.43808,7.421094E+07
19.44620,7.720314E+07
19.45432,7.997793E+07
19.46245,8.21489E+07
19.47057,8.579722E+07
19.47870,8.795524E+07
19.48682,8.993579E+07
19.49493,9.185482E+07
19.50307,9.422939E+07
19.51118,9.626026E+07
19.51932,9.772275E+07
19.52743,9.913584E+07
19.53555,1.017205E+08
19.54368,1.043247E+08
19.55180,1.054157E+08
19.55992,1.059242E+08
19.56805,1.080886E+08
19.57617,1.100478E+08
19.58430,1.114638E+08
19.59242,1.129195E+08
19.60053,1.081489E+08
19.60867,5.408569E+07
19.61678,5333270
19.62492,1043244
19.63303,666328
19.64115,519528
19.64928,418878
19.65740,353033
19.66553,307656
19.67365,267323
19.68177,253207
19.68990,224245
19.69802,208047
19.70613,192931
19.71427,183770
19.72238,183443
19.73052,177286
19.73863,175861
19.74675,168662
19.75488,172983
19.76300,167823
19.77113,161973
19.77925,155530
19.78737,156770
19.79550,154065
19.80362,154105
19.81173,150151
19.81987,149745
19.82798,144572
19.83612,147422
19.84423,151445
19.85235,146108
19.86048,142688
19.86860,148421
19.87673,135571
19.88485,137831
19.89297,137883
19.90110,137491
19.90922,131309
19.91735,129927
19.92547,132068
19.93358,120746
19.94172,125292
19.94983,136776
19.95795,139243
19.96608,150509
19.97420,156855
19.98233,161640
19.99045,185005
19.99857,174915
20.00670,181889
20.01482,185234
20.02295,181163
20.03107,185680
20.03918,211800
20.04732,228247
20.05543,243090
20.06355,248454
20.07168,246365
20.07980,234555
20.08793,219688
20.09605,206514
20.10417,204953
20.11230,202666
20.12042,206390
20.12855,203071
20.13667,194760
20.14478,192869
20.15292,192706
20.16103,173572
20.16917,157737
20.17728,160405
20.18540,153439
20.19353,155823
20.20165,149363
20.20977,150834
20.21790,155222
20.22602,152164
20.23415,161518
20.24227,159164
20.25038,155440
20.25852,155439
20.26663,155697
20.27477,156671
20.28288,161791
20.29100,160911
20.29913,158075
20.30725,160242
20.31538,148949
20.32350,150004
20.33162,140121
20.33975,134028
20.34787,127550
20.35598,122177
20.36412,118538
20.37223,115025
20.38037,109276
20.38848,110389
20.39660,110164
20.40473,110171
20.41285,106506
20.42098,115185
20.42910,113860
20.43722,113998
20.44535,120751
20.45347,116932
20.46158,117692
20.46972,121692
20.47783,126906
20.48597,123713
20.49408,123337
20.50220,122591
20.51033,121035
20.51845,127738
20.52658,122917
20.53470,123391
20.54282,124372
20.55095,127985
20.55907,128346
20.56720,133656
20.57532,135740
20.58343,145675
20.59157,143366
20.59968,146070
20.60780,149459
20.61593,153435
20.62405,152452
20.63218,150096
20.64030,145817
20.64842,136267
20.65655,132021
20.66467,125973
20.67280,120906
20.68092,116725
20.68903,114304
20.69717,113949
20.70528,114693
20.71342,105085
20.72153,109148
20.72965,111163
20.73778,114409
20.74590,116285
20.75402,118004
20.76215,122778
20.77027,131228
20.77840,134557
20.78652,135056
20.79463,132074
20.80277,134485
20.81088,135868
20.81902,128229
20.82713,123542
20.83525,118548
20.84338,113716
20.85150,110843
20.85962,106055
20.86775,104323
20.87587,110346
20.88400,101601
20.89212,101097
20.90023,109713
20.90837,108057
20.91648,107636
20.92462,111537
20.93273,109954
20.94085,117516
20.94898,117865
20.95710,114192
20.96523,114470
20.97335,116493
20.98147,111924
20.98960,130473
20.99772,132345
21.00583,138230
21.01397,152774
21.02208,171305
21.03022,186333
21.03833,201249
21.04645,213790
21.05458,249351
21.06270,281729
21.07083,299877
21.07895,325222
21.08707,344672
21.09520,347133
21.10332,338411
21.11145,332299
21.11957,336354
21.12768,328307
21.13582,333816
21.14393,301903
21.15205,278910
21.16018,257444
21.16830,223732
21.17643,200300
21.18455,179075
21.19267,169212
21.20080,150343
21.20892,140269
21.21705,133636
21.22517,117969
21.23328,115777
21.24142,115892
21.24953,105780
21.25765,104632
21.26578,106868
21.27390,101063
21.28203,105374
21.29015,104935
21.29827,108508
21.30640,101388
21.31452,109341
21.32265,105044
21.33077,106821
21.33888,111501
21.34702,107546
21.35513,110982
21.36327,117035
21.37138,112818
21.37950,122523
21.38763,126566
21.39575,133986
21.40387,137323
21.41200,139911
21.42012,147588
21.42825,158865
21.43637,171316
21.44448,176321
21.45262,171728
21.46073,165929
21.46887,166160
21.47698,158198
21.48510,150977
21.49323,138063
21.50135,128986
21.50947,126439
21.51760,126392
21.52572,119848
21.53385,124119
21.54197,133661
21.55008,138556
21.55822,141427
21.56633,147051
21.57447,139912
21.58258,131685
21.59070,129915
21.59883,101705
21.60695,104804
21.61508,94913
21.62320,101945
21.63132,87925
21.63945,93149
21.64757,89155
21.65568,80795
21.66382,92039
21.67193,89597
21.68007,89388
21.68818,87970
21.69630,88602
21.70443,83530
21.71255,81689
21.72068,87209
21.72880,88532
21.73692,86296
21.74505,87354
21.75317,86614
21.76130,85897
21.76942,83140
21.77753,83609
21.78567,88914
21.79378,83698
21.80190,84208
21.81003,81934
21.81815,78158
21.82628,80193
21.83440,81853
21.84252,78601
21.85065,79657
21.85877,76845
21.86690,82801
21.87502,83260
21.88313,79100
21.89127,80959
21.89938,79715
21.90750,85994
21.91563,89444
21.92375,93452
21.93188,87677
21.94000,98954
21.94812,92200
21.95625,96643
21.96437,91796
21.97250,90230
21.98062,82267
21.98873,86560
21.99687,87703
22.00498,91387
22.01312,88178
22.02123,87648
22.02935,85660
22.03748,88088
22.04560,84742
22.05372,82535
22.06185,89087
22.06997,85940
22.07810,82588
22.08622,85089
22.09433,88545
22.10247,90177
22.11058,89574
22.11872,91087
22.12683,101149
22.13495,98359
22.14308,102959
22.15120,109457
22.15933,116909
22.16745,125633
22.17557,136839
22.18370,159839
22.19182,197926
22.19993,252952
22.20807,334223
22.21618,467237
22.22432,633478
22.23243,871793
22.24055,1162139
22.24868,1550356
22.25680,2169290
22.26493,2973596
22.27305,4087300
22.28117,5594019
22.28930,7540389
22.29742,1.022952E+07
22.30553,1.355824E+07
22.31367,1.740805E+07
22.32178,2.176199E+07
22.32992,2.601115E+07
22.33803,2.989245E+07
22.34615,3.483602E+07
22.35428,3.913078E+07
22.36240,4.350599E+07
22.37053,4.776925E+07
22.37865,5.217994E+07
22.38677,5.494336E+07
22.39490,5.834406E+07
22.40302,6.328109E+07
22.41115,6.534167E+07
22.41927,6.752339E+07
22.42738,7.028762E+07
22.43552,7.32637E+07
22.44363,7.693502E+07
22.45175,8.039286E+07
22.45988,8.296063E+07
22.46800,8.513953E+07
22.47613,8.722492E+07
22.48425,8.84505E+07
22.49237,9.009531E+07
22.50050,9.321983E+07
22.50862,9.603339E+07
22.51675,9.814758E+07
22.52487,1.00005E+08
22.53298,1.019223E+08
22.54112,1.031934E+08
22.54923,1.049465E+08
22.55735,1.057715E+08
22.56548,1.089077E+08
22.57360,1.114214E+08
22.58173,1.126175E+08
22.58985,1.151048E+08
22.59797,1.158034E+08
22.60610,9.628727E+07
22.61422,2.320809E+07
22.62235,2550518
22.63047,966478
22.63858,670501
22.64672,504006
22.65483,432968
22.66297,359440
22.67108,323559
22.67920,279948
22.68733,259304
22.69545,232787
22.70357,212074
22.71170,197164
22.71982,178714
22.72795,170560
22.73607,168445
22.74418,169170
22.75232,154938
22.76043,155785
22.76857,149138
22.77668,142997
22.78480,139706
22.79293,138935
22.80105,137768
22.80918,134648
22.81730,142140
22.82542,140958
22.83355,145622
22.84167,148428
22.84978,148494
22.85792,155890
22.86603,174992
22.87417,181539
22.88228,197329
22.89040,211908
22.89853,226766
22.90665,233024
22.91478,232207
22.92290,226695
22.93102,211400
22.93915,186450
22.94727,176768
22.95540,166695
22.96352,164925
22.97163,151108
22.97977,150374
22.98788,140677
22.99600,133763
23.00413,133231
23.01225,130086
23.02038,129898
23.02850,131942
23.03662,130666
23.04475,133677
23.05287,133537
23.06100,123546
23.06912,111912
23.07723,109661
23.08537,114533
23.09348,111909
23.10160,114447
23.10973,115642
23.11785,124657
23.12598,120970
23.13410,134734
23.14222,148688
23.15035,159461
23.15847,172919
23.16660,197853
23.17472,227307
23.18283,261689
23.19097,326771
23.19908,367845
23.20722,406803
23.21533,418889
23.22345,398885
23.23158,366597
23.23970,297498
23.24782,242806
23.25595,189261
23.26407,170232
23.27220,148095
23.28032,145589
23.28843,145627
23.29657,157709
23.30468,178092
23.31282,176150
23.32093,170996
23.32905,155165
23.33718,135922
23.34530,123001
23.35342,107404
23.36155,98768
23.36967,95673
23.37780,93018
23.38592,101199
23.39403,113129
23.40217,127170
23.41028,146324
23.41842,162504
23.42653,172448
23.43465,182172
23.44278,169114
23.45090,153435
23.45903,141343
23.46715,135383
23.47527,130237
23.48340,128704
23.49152,132863
23.49963,132045
23.50777,140114
23.51588,139856
23.52402,136905
23.53213,132175
23.54025,126355
23.54838,117070
23.55650,114429
23.56463,115221
23.57275,106327
23.58087,102921
23.58900,93302
23.59712,92545
23.60525,84382
23.61337,93460
23.62148,88614
23.62962,91419
23.63773,88643
23.64585,95288
23.65398,91647
23.66210,91537
23.67023,89033
23.67835,95764
23.68647,100773
23.69460,105577
23.70272,105224
23.71085,106496
23.71897,103427
23.72708,104824
23.73522,98658
23.74333,97306
23.75145,107119
23.75958,106359
23.76770,104851
23.77583,100513
23.78395,101270
23.79207,95961
23.80020,95563
23.80832,92331
23.81645,86854
23.82457,85539
23.83268,82976
23.84082,83660
23.84893,80350
23.85707,81346
23.86518,86071
23.87330,79495
23.88143,81437
23.88955,78669
23.89767,81179
23.90580,81604
23.91392,87294
23.92205,91168
23.93017,90684
23.93828,97030
23.94642,101353
23.95453,104688
23.96267,114872
23.97078,116300
23.97890,118141
23.98703,111807
23.99515,110276
24.00328,101925
24.01140,101792
24.01952,109579
24.02765,114126
24.03577,105956
24.04388,108909
24.05202,106549
24.06013,106585
24.06827,92045
24.07638,92178
24.08450,84173
24.09263,84310
24.10075,84804
24.10888,89372
24.11700,92248
24.12512,104170
24.13325,111983
24.14137,128341
24.14948,141021
24.15762,154013
24.16573,177613
24.17387,189871
24.18198,211056
24.19010,227480
24.19823,253098
24.20635,277454
24.21448,332469
24.22260,365000
24.23072,395962
24.23885,422635
24.24697,419171
24.25510,403543
24.26322,396138
24.27133,371430
24.27947,349033
24.28758,321632
24.29570,295080
24.30383,267313
24.31195,260586
24.32008,255741
24.32820,246311
24.33632,252136
24.34445,263125
24.35257,289705
24.36070,298059
24.36882,299855
24.37693,295450
24.38507,268214
24.39318,234120
24.40130,206159
24.40943,180735
24.41755,153271
24.42568,136681
24.43380,122269
24.44192,108027
24.45005,102557
24.45817,97264
24.46630,90215
24.47442,90162
24.48253,82456
24.49067,82284
24.49878,78942
24.50692,86945
24.51503,77627
24.52315,79225
24.53128,76732
24.53940,71105
24.54752,65659
24.55565,68674
24.56377,64198
24.57190,66228
24.58002,67583
24.58813,63082
24.59627,68611
24.60438,62749
24.61252,65841
24.62063,66312
24.62875,69020
24.63688,67839
24.64500,70553
24.65313,69350
24.66125,76205
24.66937,79249
24.67750,79868
24.68562,81960
24.69373,79713
24.70187,82646
24.70998,82471
24.71812,80553
24.72623,80321
24.73435,85444
24.74248,80235
24.75060,85465
24.75873,85309
24.76685,91943
24.77497,89242
24.78310,91014
24.79122,85679
24.79933,89476
24.80747,83289
24.81558,84637
24.82372,91387
24.83183,89240
24.83995,90730
24.84808,92823
24.85620,96097
24.86433,113405
24.87245,121034
24.88057,129295
24.88870,130782
24.89682,124384
24.90495,114640
24.91307,104314
24.92118,93743
24.92932,93039
24.93743,85276
24.94555,83348
24.95368,88821
24.96180,91938
24.96993,98314
24.97805,107099
24.98617,114848
24.99430,125022
25.00242,136083
25.01055,150930
25.01867,175621
25.02678,192246
25.03492,225865
25.04303,255267
25.05117,289205
25.05928,353696
25.06740,412310
25.07553,523739
25.08365,667420
25.09177,855339
25.09990,1122399
25.10802,1412107
25.11615,1819718
25.12427,2346220
25.13238,2973681
25.14052,3880032
25.14863,5086234
25.15677,6735950
25.16488,8776807
25.17300,1.156649E+07
25.18113,1.456017E+07
25.18925,1.816059E+07
25.19737,2.17408E+07
25.20550,2.576825E+07
25.21362,3.006029E+07
25.22175,3.461712E+07
25.22987,3.938426E+07
25.23798,4.349029E+07
25.24612,4.742352E+07
25.25423,5.0756E+07
25.26237,5.382045E+07
25.27048,5.774544E+07
25.27860,6.209944E+07
25.28673,6.515766E+07
25.29485,6.68398E+07
25.30298,7.106618E+07
25.31110,7.53252E+07
25.31922,7.691127E+07
25.32735,7.993379E+07
25.33547,8.212708E+07
25.34358,8.543326E+07
25.35172,8.741582E+07
25.35983,8.982439E+07
25.36797,9.14329E+07
25.37608,9.386914E+07
25.38420,9.650349E+07
25.39233,9.811337E+07
25.40045,1.003811E+08
25.40858,1.043003E+08
25.41670,1.062306E+08
25.42482,1.06859E+08
25.43295,1.092166E+08
25.44107,1.119921E+08
25.44920,1.137154E+08
25.45732,1.16615E+08
25.46543,1.183476E+08
25.47357,1.173589E+08
25.48168,9.577361E+07
25.48980,2.493899E+07
25.49793,3197961
25.50605,1240241
25.51418,869956
25.52230,695960
25.53042,560171
25.53855,475365
25.54667,421650
25.55480,362533
25.56292,329694
25.57103,301391
25.57917,273484
25.58728,248233
25.59540,231162
25.60353,222893
25.61165,210036
25.61978,199762
25.62790,197633
25.63602,188159
25.64415,179861
25.65227,175693
25.66040,170056
25.66852,159251
25.67663,151444
25.68477,148029
25.69288,141923
25.70102,145481
25.70913,139750
25.71725,131707
25.72538,130275
25.73350,123415
25.74162,124026
25.74975,117759
25.75787,118330
25.76600,120814
25.77412,116494
25.78223,113024
25.79037,114878
25.79848,115500
25.80662,117979
25.81473,120357
25.82285,116880
25.83098,108845
25.83910,114843
25.84722,112159
25.85535,120191
25.86347,121961
25.87160,116557
25.87972,114835
25.88783,116194
25.89597,112269
25.90408,118030
25.91222,114850
25.92033,113445
25.92845,112356
25.93658,108854
25.94470,108175
25.95283,108878
25.96095,104915
25.96907,111326
25.97720,108715
25.98532,103217
25.99343,112814
26.00157,112091
26.00968,108851
26.01782,106373
26.02593,104624
26.03405,108474
26.04218,102948
26.05030,103370
26.05843,102283
26.06655,95756
26.07467,99077
26.08280,106692
26.09092,104499
26.09905,113404
26.10717,126444
26.11528,135738
26.12342,151599
26.13153,179891
26.13965,218109
26.14778,240112
26.15590,255135
26.16403,256586
26.17215,230192
26.18027,215108
26.18840,189390
26.19652,194439
26.20465,200561
26.21277,224087
26.22088,244039
26.22902,287714
26.23713,310557
26.24525,350320
26.25338,374301
26.26150,384228
26.26963,385488
26.27775,381353
26.28587,355103
26.29400,342431
26.30212,306219
26.31025,275555
26.31837,251031
26.32648,227012
26.33462,198438
26.34273,176804
26.35087,156383
26.35898,142946
26.36710,130052
26.37523,122727
26.38335,115150
26.39147,111878
26.39960,117508
26.40772,108804
26.41585,104750
26.42397,108687
26.43208,112227
26.44022,116129
26.44833,115550
26.45647,120735
26.46458,126132
26.47270,136600
26.48083,145167
26.48895,162147
26.49708,169776
26.50520,184188
26.51332,178529
26.52145,167631
26.52957,159522
26.53768,154757
26.54582,142125
26.55393,132865
26.56207,119325
26.57018,114557
26.57830,121725
26.58643,118733
26.59455,120244
26.60268,127896
26.61080,142923
26.61892,150035
26.62705,159422
26.63517,171159
26.64328,192561
26.65142,214761
26.65953,235179
26.66767,265930
26.67578,295714
26.68390,353434
26.69203,402588
26.70015,474101
26.70828,533925
26.71640,579846
26.72452,619553
26.73265,660271
26.74077,619051
26.74890,596087
26.75702,559944
26.76513,530864
26.77327,495211
26.78138,476281
26.78950,468021
26.79763,476056
26.80575,471594
26.81388,473615
26.82200,458316
26.83012,445623
26.83825,416058
26.84637,369473
26.85450,337879
26.86262,292022
26.87073,259912
26.87887,214242
26.88698,191096
26.89510,171298
26.90323,144720
26.91135,122898
26.91948,119769
26.92760,106077
26.93572,102798
26.94385,100088
26.95197,95667
26.96010,95315
26.96822,104087
26.97633,106136
26.98447,105229
26.99258,108096
27.00072,105416
27.00883,109068
27.01695,111637
27.02508,108996
27.03320,110848
27.04132,115804
27.04945,122608
27.05757,120244
27.06570,119449
27.07382,131001
27.08193,140244
27.09007,144329
27.09818,147620
27.10632,168525
27.11443,178454
27.12255,191017
27.13068,214325
27.13880,245772
27.14693,259631
27.15505,268296
27.16317,273918
27.17130,266097
27.17942,247250
27.18753,239426
27.19567,212020
27.20378,186772
27.21192,174372
27.22003,146193
27.22815,131228
27.23628,115413
27.24440,105566
27.25253,92103
27.26065,91030
27.26877,81754
27.27690,75775
27.28502,83932
27.29313,75111
27.30127,77525
27.30938,72641
27.31752,76757
27.32563,75376
27.33375,77749
27.34188,77879
27.35000,80760
27.35813,81480
27.36625,77238
27.37437,81282
27.38250,81466
27.39062,85517
27.39875,83326
27.40687,80187
27.41498,87421
27.42312,86171
27.43123,82012
27.43935,83967
27.44748,77874
27.45560,77163
27.46373,75172
27.47185,70276
27.47997,64333
27.48810,66019
27.49622,64396
27.50435,60135
27.51247,66967
27.52058,64661
27.52872,65265
27.53683,62155
27.54497,64337
27.55308,66497
27.56120,72897
27.56933,73048
27.57745,71875
27.58557,79666
27.59370,84608
27.60182,81743
27.60995,91606
27.61807,94957
27.62618,98589
27.63432,111411
27.64243,109820
27.65057,111347
27.65868,109419
27.66680,120341
27.67493,131704
27.68305,142304
27.69117,149445
27.69930,160373
27.70742,170298
27.71555,183182
27.72367,190030
27.73178,208030
27.73992,228881
27.74803,264731
27.75617,285595
27.76428,321473
27.77240,363209
27.78053,431226
27.78865,486576
27.79678,555944
27.80490,656472
27.81302,787262
27.82115,979979
27.82927,1174863
27.83738,1410840
27.84552,1699351
27.85363,1988445
27.86177,2418499
27.86988,2870953
27.87800,3404673
27.88613,4037899
27.89425,4841526
27.90238,5999346
27.91050,7546196
27.91862,9696535
27.92675,1.220902E+07
27.93487,1.51164E+07
27.94300,1.835371E+07
27.95112,2.204098E+07
27.95923,2.720466E+07
27.96737,3.1743E+07
27.97548,3.52814E+07
27.98360,3.936687E+07
27.99173,4.245873E+07
27.99985,4.68052E+07
28.00798,5.133143E+07
28.01610,5.500481E+07
28.02422,5.976745E+07
28.03235,6.268376E+07
28.04047,6.692953E+07
28.04860,6.94783E+07
28.05672,7.303719E+07
28.06483,7.628743E+07
28.07297,7.866751E+07
28.08108,8.106819E+07
28.08920,8.4668E+07
28.09733,8.718102E+07
28.10545,8.818691E+07
28.11358,9.062082E+07
28.12170,9.34001E+07
28.12982,9.647464E+07
28.13795,9.869123E+07
28.14607,1.023126E+08
28.15420,1.046269E+08
28.16232,1.069153E+08
28.17043,1.091481E+08
28.17857,1.114273E+08
28.18668,1.125634E+08
28.19482,1.157391E+08
28.20293,1.181732E+08
28.21105,1.202629E+08
28.21918,1.20578E+08
28.22730,1.054261E+08
28.23542,3.589019E+07
28.24355,4972680
28.25167,1843234
28.25980,1344269
28.26792,1148136
28.27603,1026048
28.28417,964311
28.29228,916423
28.30042,866288
28.30853,830978
28.31665,762307
28.32478,731123
28.33290,678194
28.34103,613848
28.34915,578051
28.35727,507928
28.36540,456212
28.37352,406098
28.38163,367259
28.38977,323819
28.39788,288854
28.40602,267877
28.41413,232531
28.42225,228062
28.43038,213719
28.43850,201978
28.44663,189009
28.45475,184044
28.46287,173281
28.47100,167854
28.47912,169751
28.48723,169164
28.49537,168361
28.50348,157924
28.51162,158058
28.51973,156999
28.52785,155477
28.53598,158516
28.54410,164156
28.55223,167757
28.56035,171603
28.56847,177216
28.57660,181753
28.58472,192456
28.59285,207273
28.60097,210012
28.60908,220816
28.61722,227393
28.62533,231140
28.63345,231733
28.64158,254323
28.64970,269306
28.65783,302534
28.66595,320693
28.67407,338010
28.68220,349115
28.69032,368616
28.69845,388521
28.70657,426208
28.71468,463625
28.72282,523884
28.73093,587474
28.73905,656334
28.74718,678608
28.75530,733602
28.76343,743114
28.77155,730979
28.77967,681556
28.78780,625349
28.79592,528174
28.80405,450892
28.81217,389346
28.82028,363247
28.82842,361750
28.83653,398436
28.84467,436467
28.85278,490800
28.86090,517193
28.86903,513085
28.87715,493211
28.88527,453668
28.89340,408581
28.90152,343388
28.90965,301716
28.91777,269850
28.92588,250985
28.93402,236963
28.94213,230145
28.95027,230750
28.95838,235175
28.96650,248444
28.97463,259936
28.98275,263823
28.99088,252913
28.99900,246009
29.00712,220374
29.01525,198776
29.02337,177790
29.03148,158696
29.03962,146992
29.04773,142510
29.05587,142991
29.06398,157173
29.07210,157142
29.08023,161927
29.08835,163469
29.09648,154978
29.10460,161819
29.11272,146691
29.12085,145676
29.12897,145023
29.13708,151407
29.14522,151214
29.15333,159874
29.16147,165564
29.16958,170296
29.17770,175585
29.18583,175887
29.19395,176559
29.20208,184199
29.21020,196435
29.21832,219705
29.22645,235191
29.23457,253211
29.24270,282126
29.25082,315034
29.25893,359199
29.26707,420791
29.27518,489472
29.28330,558326
29.29143,627645
29.29955,727750
29.30768,802037
29.31580,861447
29.32392,856890
29.33205,799874
29.34017,674126
29.34830,553542
29.35642,419791
29.36453,337948
29.37267,253721
29.38078,188314
29.38892,152452
29.39703,132635
29.40515,115612
29.41328,111110
29.42140,107032
29.42952,100911
29.43765,102202
29.44577,102547
29.45390,102269
29.46202,97971
29.47013,100010
29.47827,101960
29.48638,107121
29.49452,103801
29.50263,98448
29.51075,100519
29.51888,100411
29.52700,95929
29.53512,98046
29.54325,95809
29.55137,99048
29.55950,99395
29.56762,98353
29.57573,98387
29.58387,99154
29.59198,105816
29.60012,99733
29.60823,102090
29.61635,96660
29.62448,101547
29.63260,103668
29.64073,108380
29.64885,118065
29.65697,116541
29.66510,129139
29.67322,140739
29.68133,148887
29.68947,165861
29.69758,182926
29.70572,211822
29.71383,262651
29.72195,278341
29.73008,324027
29.73820,353663
29.74633,364629
29.75445,357046
29.76257,356002
29.77070,317472
29.77882,273853
29.78693,236338
29.79507,210443
29.80318,186261
29.81132,190204
29.81943,194604
29.82755,209917
29.83568,220802
29.84380,232381
29.85193,237040
29.86005,239920
29.86817,231881
29.87630,210827
29.88442,191211
29.89255,163846
29.90067,146224
29.90878,128066
29.91692,108711
29.92503,103166
29.93315,101304
29.94128,98005
29.94940,98749
29.95753,104789
29.96565,117325
29.97377,121846
29.98190,132094
29.99002,140835
29.99815,150270
30.00627,153042
30.01438,149335
30.02252,156348
30.03063,154130
30.03877,147637
30.04688,147874
30.05500,147656
30.06313,158439
30.07125,151578
30.07937,157674
30.08750,155098
30.09562,149714
30.10375,152225
30.11187,151061
30.11998,146773
30.12812,147999
30.13623,153001
30.14437,153402
30.15248,162500
30.16060,174112
30.16873,181505
30.17685,194026
30.18497,225972
30.19310,254830
30.20122,287129
30.20935,321107
30.21747,348997
30.22558,396403
30.23372,422387
30.24183,433120
30.24997,425756
30.25808,419919
30.26620,399779
30.27433,386320
30.28245,376691
30.29058,368853
30.29870,367437
30.30682,377947
30.31495,389912
30.32307,411868
30.33118,450899
30.33932,483641
30.34743,510572
30.35557,550671
30.36368,600837
30.37180,663265
30.37993,723075
30.38805,780582
30.39618,824081
30.40430,901524
30.41242,953543
30.42055,1016538
30.42867,1080771
30.43680,1180545
30.44492,1289912
30.45303,1467329
30.46117,1599102
30.46928,1782314
30.47740,1961368
30.48553,2125624
30.49365,2298259
30.50178,2587276
30.50990,2798125
30.51802,3279814
30.52615,4142008
30.53427,5332337
30.54240,6921444
30.55052,9103195
30.55863,1.171034E+07
30.56677,1.447906E+07
30.57488,1.828974E+07
30.58300,2.278349E+07
30.59113,2.670829E+07
30.59925,3.115623E+07
30.60738,3.502101E+07
30.61550,4.003431E+07
30.62362,4.423507E+07
30.63175,4.924044E+07
30.63987,5.304201E+07
30.64800,5.658372E+07
30.65612,6.09904E+07
30.66423,6.546242E+07
30.67237,6.89419E+07
30.68048,7.065239E+07
30.68862,7.449194E+07
30.69673,7.804075E+07
30.70485,8.143743E+07
30.71298,8.387911E+07
30.72110,8.587217E+07
30.72922,8.939371E+07
30.73735,9.314036E+07
30.74547,9.529909E+07
30.75360,9.806441E+07
30.76172,1.000449E+08
30.76983,1.031083E+08
30.77797,1.049817E+08
30.78608,1.081283E+08
30.79422,1.111518E+08
30.80233,1.13609E+08
30.81045,1.158899E+08
30.81858,1.18643E+08
30.82670,1.196195E+08
30.83483,1.213907E+08
30.84295,1.220659E+08
30.85107,1.150657E+08
30.85920,5.851065E+07
30.86732,9290216
30.87543,2525438
30.88357,1631987
30.89168,1344908
30.89982,1128634
30.90793,980483
30.91605,878314
30.92418,785038
30.93230,716996
30.94043,632309
30.94855,575362
30.95667,548827
30.96480,509782
30.97292,487812
30.98103,450976
30.98917,432971
30.99728,408450
31.00542,375885
31.01353,343928
31.02165,325249
31.02978,312737
31.03790,303455
31.04603,295877
31.05415,293994
31.06227,306924
31.07040,299807
31.07852,282396
31.08665,282254
31.09477,272568
31.10288,262187
31.11102,248337
31.11913,244065
31.12725,243441
31.13538,239600
31.14350,251675
31.15163,252471
31.15975,269030
31.16787,277394
31.17600,296338
31.18412,300195
31.19225,303763
31.20037,301147
31.20848,292710
31.21662,282629
31.22473,280863
31.23285,270977
31.24098,263587
31.24910,253175
31.25723,236084
31.26535,229914
31.27347,215846
31.28160,217164
31.28972,207991
31.29785,202471
31.30597,191649
31.31408,186414
31.32222,177154
31.33033,181564
31.33847,183850
31.34658,182396
31.35470,188218
31.36283,188771
31.37095,203748
31.37907,223974
31.38720,220780
31.39532,237180
31.40345,250452
31.41157,287046
31.41968,323359
31.42782,357628
31.43593,393673
31.44407,418771
31.45218,420177
31.46030,404793
31.46843,366485
31.47655,346521
31.48468,300743
31.49280,256682
31.50092,225650
31.50905,199304
31.51717,183114
31.52528,174938
31.53342,163017
31.54153,163181
31.54967,169726
31.55778,173322
31.56590,180874
31.57403,197662
31.58215,207124
31.59028,217653
31.59840,219793
31.60652,206802
31.61465,208327
31.62277,184152
31.63088,185218
31.63902,194398
31.64713,196461
31.65527,222174
31.66338,228204
31.67150,238100
31.67963,223626
31.68775,223503
31.69588,192766
31.70400,167604
31.71212,162610
31.72025,145012
31.72837,134240
31.73650,131479
31.74462,129570
31.75273,127721
31.76087,124621
31.76898,125042
31.77710,123450
31.78523,119098
31.79335,112685
31.80148,116623
31.80960,111339
31.81772,113206
31.82585,112507
31.83397,116556
31.84210,115708
31.85022,115653
31.85833,125288
31.86647,133206
31.87458,142696
31.88272,153959
31.89083,162175
31.89895,173004
31.90708,177209
31.91520,176200
31.92332,172086
31.93145,156147
31.93957,155459
31.94770,138735
31.95582,125221
31.96393,114662
31.97207,111267
31.98018,108955
31.98832,103489
31.99643,97110
32.00455,102973
32.01268,98686
32.02080,96687
32.02892,98737
32.03705,100563
32.04517,97108
32.05330,102161
32.06142,111041
32.06953,101928
32.07767,98251
32.08578,104022
32.09392,104728
32.10203,92070
32.11015,94134
32.11828,94435
32.12640,92428
32.13453,91480
32.14265,94677
32.15077,96159
32.15890,97280
32.16702,95497
32.17513,100554
32.18327,98666
32.19138,101779
32.19952,110479
32.20763,113964
32.21575,122042
32.22388,127444
32.23200,127169
32.24013,131429
32.24825,118370
32.25637,122873
32.26450,118761
32.27262,116281
32.28073,114935
32.28887,115588
32.29698,119269
32.30512,127235
32.31323,140299
32.32135,155017
32.32948,171897
32.33760,181247
32.34573,194443
32.35385,185974
32.36197,173519
32.37010,168385
32.37822,169605
32.38635,174089
32.39447,173873
32.40258,187070
32.41072,184067
32.41883,184079
32.42695,183221
32.43508,167972
32.44320,154105
32.45133,147382
32.45945,147369
32.46757,147749
32.47570,148592
32.48382,150678
32.49195,155343
32.50007,167189
32.50818,164789
32.51632,171615
32.52443,185673
32.53257,188673
32.54068,193590
32.54880,188667
32.55693,194622
32.56505,200091
32.57317,204581
32.58130,207461
32.58942,212193
32.59755,211049
32.60567,225893
32.61378,224653
32.62192,234549
32.63003,234515
32.63817,253272
32.64628,261744
32.65440,275082
32.66253,284813
32.67065,295960
32.67877,301765
32.68690,306480
32.69502,315293
32.70315,321945
32.71127,334635
32.71938,356703
32.72752,365232
32.73563,376061
32.74377,378374
32.75188,390933
32.76000,405085
32.76813,427568
32.77625,418209
32.78438,459784
32.79250,449223
32.80062,472432
32.80875,487829
32.81687,497851
32.82498,523013
32.83312,528154
32.84123,549952
32.84937,561066
32.85748,602167
32.86560,619556
32.87373,657006
32.88185,672012
32.88998,680336
32.89810,706199
32.90622,749414
32.91435,753868
32.92247,818692
32.93060,853086
32.93872,895701
32.94683,909776
32.95497,957884
32.96308,1019867
32.97120,1066392
32.97933,1130634
32.98745,1218285
32.99558,1302180
33.00370,1369369
33.01182,1464956
33.01995,1650849
33.02807,1910659
33.03620,2461911
33.04432,3316634
33.05243,4620644
33.06057,6460892
33.06868,8673128
33.07680,1.164221E+07
33.08493,1.511562E+07
33.09305,1.918689E+07
33.10118,2.356599E+07
33.10930,2.821908E+07
33.11742,3.261289E+07
33.12555,3.669169E+07
33.13367,4.143079E+07
33.14180,4.568966E+07
33.14992,4.974949E+07
33.15803,5.404218E+07
33.16617,5.897057E+07
33.17428,6.308834E+07
33.18242,6.756171E+07
33.19053,7.045777E+07
33.19865,7.392491E+07
33.20678,7.800125E+07
33.21490,8.265848E+07
33.22302,8.376576E+07
33.23115,8.644077E+07
33.23927,8.904782E+07
33.24740,9.183154E+07
33.25552,9.556673E+07
33.26363,9.748007E+07
33.27177,1.005544E+08
33.27988,1.034937E+08
33.28802,1.069081E+08
33.29613,1.107501E+08
33.30425,1.139275E+08
33.31238,1.166026E+08
33.32050,1.171795E+08
33.32862,1.183439E+08
33.33675,1.21412E+08
33.34487,1.248005E+08
33.35300,1.254901E+08
33.36112,1.206265E+08
33.36923,8.287902E+07
33.37737,1.729182E+07
33.38548,3649420
33.39362,1954490
33.40173,1486070
33.40985,1222429
33.41798,1044238
33.42610,908077
33.43423,817316
33.44235,746654
33.45047,671861
33.45860,619630
33.46672,587698
33.47483,544536
33.48297,509339
33.49108,479504
33.49922,440810
33.50733,403592
33.51545,393473
33.52358,365837
33.53170,344497
33.53983,330002
33.54795,314218
33.55607,312066
33.56420,296908
33.57232,297240
33.58045,279970
33.58857,275169
33.59668,269757
33.60482,266553
33.61293,254594
33.62105,253380
33.62918,251764
33.63730,240182
33.64543,242358
33.65355,240716
33.66167,230580
33.66980,220046
33.67792,226056
33.68605,212077
33.69417,208739
33.70228,213683
33.71042,206389
33.71853,206095
33.72667,196974
33.73478,189632
33.74290,192090
33.75103,186977
33.75915,181639
33.76727,185433
33.77540,182456
33.78352,174379
33.79165,180390
33.79977,176219
33.80788,169922
33.81602,178043
33.82413,167728
33.83227,170240
33.84038,166353
33.84850,166018
33.85663,167898
33.86475,160024
33.87287,154367
33.88100,151912
33.88912,151214
33.89725,154509
33.90537,149739
33.91348,153579
33.92162,152821
33.92973,157015
33.93787,149547
33.94598,153159
33.95410,150702
33.96223,144669
33.97035,149404
33.97848,139866
33.98660,144119
33.99472,144798
34.00285,141853
34.01097,135670
34.01908,134097
34.02722,129934
34.03533,123012
34.04347,127109
34.05158,133104
34.05970,130100
34.06783,133264
34.07595,124936
34.08408,131242
34.09220,128239
34.10032,130363
34.10845,135174
34.11657,130453
34.12468,150564
34.13282,152351
34.14093,158467
34.14907,164847
34.15718,173832
34.16530,169776
34.17343,164610
34.18155,169173
34.18968,161078
34.19780,157048
34.20592,156326
34.21405,151872
34.22217,150983
34.23030,146495
34.23842,143407
34.24653,139806
34.25467,146081
34.26278,141625
34.27090,133060
34.27903,135080
34.28715,135766
34.29528,130122
34.30340,132878
34.31152,127912
34.31965,130351
34.32777,139078
34.33590,143150
34.34402,142349
34.35213,151623
34.36027,152457
34.36838,154266
34.37652,158009
34.38463,155452
34.39275,162817
34.40088,160616
34.40900,159067
34.41712,161148
34.42525,165502
34.43337,160636
34.44150,159337
34.44962,161233
34.45773,163035
34.46587,156886
34.47398,165390
34.48212,164798
34.49023,165306
34.49835,164724
34.50648,163852
34.51460,158853
34.52272,151017
34.53085,153426
34.53897,148067
34.54710,154067
34.55522,151086
34.56333,150666
34.57147,153542
34.57958,150508
34.58772,152885
34.59583,156275
34.60395,156750
34.61208,159316
34.62020,156424
34.62833,161515
34.63645,162367
34.64457,163420
34.65270,161731
34.66082,166500
34.66893,171658
34.67707,173084
34.68518,177487
34.69332,183761
34.70143,181983
34.70955,184682
34.71768,188433
34.72580,187092
34.73393,191553
34.74205,210607
34.75017,208848
34.75830,215000
34.76642,211200
34.77455,214639
34.78267,227018
34.79078,222029
34.79892,216557
34.80703,217732
34.81515,211526
34.82328,223029
34.83140,221794
34.83953,230324
34.84765,230821
34.85577,229221
34.86390,228935
34.87202,241605
34.88015,233263
34.88827,242020
34.89638,241637
34.90452,245044
34.91263,248485
34.92075,249648
34.92888,263806
34.93700,260989
34.94513,267129
34.95325,282675
34.96137,287216
34.96950,298270
34.97762,295785
34.98575,306643
34.99387,300657
35.00198,292121
35.01012,302193
35.01823,307708
35.02637,300364
35.03448,306105
35.04260,301156
35.05073,310744
35.05885,322821
35.06697,321867
35.07510,345784
35.08322,346048
35.09135,354759
35.09947,358601
35.10758,365513
35.11572,362387
35.12383,360798
35.13197,373479
35.14008,369800
35.14820,390962
35.15633,387660
35.16445,386813
35.17257,383808
35.18070,384692
35.18882,390648
35.19695,397330
35.20507,389770
35.21318,409193
35.22132,405280
35.22943,408038
35.23757,415224
35.24568,422580
35.25380,438213
35.26193,459445
35.27005,486916
35.27818,512801
35.28630,550534
35.29442,552857
35.30255,568495
35.31067,566854
35.31878,574269
35.32692,555151
35.33503,552139
35.34317,538536
35.35128,536722
35.35940,560164
35.36753,603990
35.37565,605282
35.38378,662699
35.39190,656631
35.40002,686283
35.40815,734814
35.41627,802183
35.42440,908198
35.43252,1109356
35.44063,1492135
35.44877,2102233
35.45688,3191481
35.46500,4605319
35.47313,6769746
35.48125,9215422
35.48938,1.224264E+07
35.49750,1.615914E+07
35.50562,2.010309E+07
35.51375,2.530977E+07
35.52187,2.954919E+07
35.53000,3.382576E+07
35.53812,3.861482E+07
35.54623,4.219038E+07
35.55437,4.819869E+07
35.56248,5.311642E+07
35.57060,5.715488E+07
35.57873,6.087547E+07
35.58685,6.444773E+07
35.59498,6.970699E+07
35.60310,7.237896E+07
35.61122,7.560141E+07
35.61935,8.077586E+07
35.62747,8.547309E+07
35.63560,8.581379E+07
35.64372,8.984592E+07
35.65183,9.367573E+07
35.65997,9.624116E+07
35.66808,9.896716E+07
35.67622,1.029598E+08
35.68433,1.062479E+08
35.69245,1.0915E+08
35.70058,1.103928E+08
35.70870,1.150704E+08
35.71682,1.184248E+08
35.72495,1.204951E+08
35.73307,1.222721E+08
35.74120,1.233497E+08
35.74932,1.260963E+08
35.75743,1.278336E+08
35.76557,1.254275E+08
35.77368,9.461082E+07
35.78182,2.490633E+07
35.78993,5137492
35.79805,2519813
35.80618,1865742
35.81430,1519572
35.82243,1297696
35.83055,1138983
35.83867,1009333
35.84680,926863
35.85492,850285
35.86303,763700
35.87117,723788
35.87928,662844
35.88742,625115
35.89553,588550
35.90365,567620
35.91178,548811
35.91990,509670
35.92803,487184
35.93615,465857
35.94427,447703
35.95240,437501
35.96052,407545
35.96863,398829
35.97677,386293
35.98488,384040
35.99302,383120
36.00113,357926
36.00925,351822
36.01738,353058
36.02550,339821
36.03363,335787
36.04175,330719
36.04987,329693
36.05800,339380
36.06612,328245
36.07425,330855
36.08237,332391
36.09048,330924
36.09862,325622
36.10673,326935
36.11485,320975
36.12298,329015
36.13110,332098
36.13923,330482
36.14735,328945
36.15547,323345
36.16360,327702
36.17172,312995
36.17985,307075
36.18797,297585
36.19608,290418
36.20422,273709
36.21233,273777
36.22045,271280
36.22858,276754
36.23670,270411
36.24483,265492
36.25295,266286
36.26107,257258
36.26920,250859
36.27732,247963
36.28545,235888
36.29357,244722
36.30168,250307
36.30982,250284
36.31793,252492
36.32607,258466
36.33418,266787
36.34230,262419
36.35043,256106
36.35855,258267
36.36667,251465
36.37480,256979
36.38292,250485
36.39105,240776
36.39917,241596
36.40728,246662
36.41542,237824
36.42353,238316
36.43167,227108
36.43978,230704
36.44790,227366
36.45603,227187
36.46415,240281
36.47228,237071
36.48040,252000
36.48852,250763
36.49665,250868
36.50477,254603
36.51288,251997
36.52102,253264
36.52913,252464
36.53727,261682
36.54538,275423
36.55350,277401
36.56163,282080
36.56975,284250
36.57788,278247
36.58600,278578
36.59412,282631
36.60225,275473
36.61037,272320
36.61848,269644
36.62662,264082
36.63473,259404
36.64287,254934
36.65098,253371
36.65910,242992
36.66723,242375
36.67535,244339
36.68348,237450
36.69160,242609
36.69972,260136
36.70785,267515
36.71597,270163
36.72410,286445
36.73222,296411
36.74033,307679
36.74847,328747
36.75658,355012
36.76470,399787
36.77283,424030
36.78095,468318
36.78908,478276
36.79720,480759
36.80532,469214
36.81345,473077
36.82157,456347
36.82970,452333
36.83782,442477
36.84593,427566
36.85407,418091
36.86218,401848
36.87032,378169
36.87843,362015
36.88655,345045
36.89468,334832
36.90280,310430
36.91092,314522
36.91905,289407
36.92717,285417
36.93530,287371
36.94342,277624
36.95153,278251
36.95967,282245
36.96778,283651
36.97592,283727
36.98403,277162
36.99215,288575
37.00028,304809
37.00840,315491
37.01652,334227
37.02465,358461
37.03277,383649
37.04090,412813
37.04902,437415
37.05713,426438
37.06527,441690
37.07338,432062
37.08152,414192
37.08963,411364
37.09775,398311
37.10588,409705
37.11400,407852
37.12213,410007
37.13025,429048
37.13837,436168
37.14650,452470
37.15462,480755
37.16273,489780
37.17087,485503
37.17898,491502
37.18712,495655
37.19523,503231
37.20335,489742
37.21148,499106
37.21960,483636
37.22773,493004
37.23585,508474
37.24397,491555
37.25210,504077
37.26022,504802
37.26835,491461
37.27647,507742
37.28458,499944
37.29272,503626
37.30083,522130
37.30895,530690
37.31708,524287
37.32520,537716
37.33333,540609
37.34145,548669
37.34957,546930
37.35770,551930
37.36582,575619
37.37395,582046
37.38207,596713
37.39018,600043
37.39832,603676
37.40643,623822
37.41455,613618
37.42268,632893
37.43080,654095
37.43893,660595
37.44705,683061
37.45517,685330
37.46330,669896
37.47142,675423
37.47955,655434
37.48767,625946
