C:\MassHunter\GCMS\1\data\JTB-E18\BURNOFFS\JTB-E18-04.D Wed Aug 21 15:46:05 2019
Start of data points
2.09537	152354
2.10350	160204
2.11162	169531
2.11973	160775
2.12787	155177
2.13598	138437
2.14412	130878
2.15223	124224
2.16035	107262
2.16848	104217
2.17660	95984
2.18472	87914
2.19285	88393
2.20097	84529
2.20910	81168
2.21722	72864
2.22533	78118
2.23347	68630
2.24158	72327
2.24972	66371
2.25783	69152
2.26595	68952
2.27408	66836
2.28220	70378
2.29033	67359
2.29845	66828
2.30657	69303
2.31470	65913
2.32282	66071
2.33093	62399
2.33907	63797
2.34718	63849
2.35532	65772
2.36343	72690
2.37155	61769
2.37968	61567
2.38780	59304
2.39593	60608
2.40405	60483
2.41217	66131
2.42030	59516
2.42842	59739
2.43655	56833
2.44467	64824
2.45278	58433
2.46092	62322
2.46903	63585
2.47715	55278
2.48528	60070
2.49340	62068
2.50153	55518
2.50965	55410
2.51777	58433
2.52590	58225
2.53402	65523
2.54215	59032
2.55027	55789
2.55838	57977
2.56652	54926
2.57463	56194
2.58277	56728
2.59088	63532
2.59900	56545
2.60713	58683
2.61525	58440
2.62337	57738
2.63150	57949
2.63962	56366
2.64775	58185
2.65587	56761
2.66398	58143
2.67212	59565
2.68023	57384
2.68837	57227
2.69648	62754
2.70460	54762
2.71273	60763
2.72085	61025
2.72897	58387
2.73710	58529
2.74522	55430
2.75335	57660
2.76147	59573
2.76958	61629
2.77772	60201
2.78583	60572
2.79397	53666
2.80208	57982
2.81020	57519
2.81833	59213
2.82645	57914
2.83458	57912
2.84270	59141
2.85082	57744
2.85895	56919
2.86707	56954
2.87518	57646
2.88332	58676
2.89143	59848
2.89957	60310
2.90768	56675
2.91580	59194
2.92393	56920
2.93205	57988
2.94018	57651
2.94830	62044
2.95642	56117
2.96455	60463
2.97267	58857
2.98078	57862
2.98892	57475
2.99703	59295
3.00517	58970
3.01328	57066
3.02140	59506
3.02953	60320
3.03765	62546
3.04578	59501
3.05390	55972
3.06202	57760
3.07015	60326
3.07827	57689
3.08640	59433
3.09452	56531
3.10263	57034
3.11077	58534
3.11888	57362
3.12700	57032
3.13513	54338
3.14325	58680
3.15138	56115
3.15950	58141
3.16762	60132
3.17575	63620
3.18387	64338
3.19200	58712
3.20012	58655
3.20823	61674
3.21637	58893
3.22448	58421
3.23260	59760
3.24073	56610
3.24885	58755
3.25698	60572
3.26510	60929
3.27322	60857
3.28135	58422
3.28947	56879
3.29760	60553
3.30572	57934
3.31383	60135
3.32197	59596
3.33008	59082
3.33822	56909
3.34633	59713
3.35445	58267
3.36258	59761
3.37070	55486
3.37882	57160
3.38695	56918
3.39507	56679
3.40320	56154
3.41132	56590
3.41943	57926
3.42757	58338
3.43568	58535
3.44382	56480
3.45193	57632
3.46005	57673
3.46818	55580
3.47630	57918
3.48443	57296
3.49255	53782
3.50067	53017
3.50880	59706
3.51692	57198
3.52503	56799
3.53317	62394
3.54128	50453
3.54942	54901
3.55753	51138
3.56565	55743
3.57378	57658
3.58190	56267
3.59003	52996
3.59815	54414
3.60627	56573
3.61440	55756
3.62252	56097
3.63065	58837
3.63877	53403
3.64688	59119
3.65502	55516
3.66313	61086
3.67125	55317
3.67938	60149
3.68750	56516
3.69563	54705
3.70375	57561
3.71187	58791
3.72000	62899
3.72812	56377
3.73625	56089
3.74437	56151
3.75248	54780
3.76062	52844
3.76873	54422
3.77685	56725
3.78498	59134
3.79310	55328
3.80123	56325
3.80935	53627
3.81747	55368
3.82560	52154
3.83372	55449
3.84185	54644
3.84997	54904
3.85808	53972
3.86622	55176
3.87433	56219
3.88247	53902
3.89058	52453
3.89870	54866
3.90683	53745
3.91495	60301
3.92307	56838
3.93120	55436
3.93932	55673
3.94745	58306
3.95557	52197
3.96368	52823
3.97182	56894
3.97993	55727
3.98807	59227
3.99618	54267
4.00430	53329
4.01243	59425
4.02055	55169
4.02867	54131
4.03680	59457
4.04492	53818
4.05305	54507
4.06117	53241
4.06928	54371
4.07742	55358
4.08553	50809
4.09367	54361
4.10178	50502
4.10990	57163
4.11803	56348
4.12615	55349
4.13428	54172
4.14240	54085
4.15052	55683
4.15865	57263
4.16677	55266
4.17488	51747
4.18302	52094
4.19113	57212
4.19927	53571
4.20738	50779
4.21550	53666
4.22363	64828
4.23175	54089
4.23988	56042
4.24800	57499
4.25612	53172
4.26425	54550
4.27237	54943
4.28050	50958
4.28862	57037
4.29673	54629
4.30487	51249
4.31298	52195
4.32110	53422
4.32923	52720
4.33735	53077
4.34548	54243
4.35360	55337
4.36172	52648
4.36985	52382
4.37797	52955
4.38610	50658
4.39422	50899
4.40233	54781
4.41047	54937
4.41858	54038
4.42670	53924
4.43483	54986
4.44295	54796
4.45108	56065
4.45920	55569
4.46732	54581
4.47545	55442
4.48357	54045
4.49170	60889
4.49982	55181
4.50793	55533
4.51607	50775
4.52418	55337
4.53232	55010
4.54043	54941
4.54855	52101
4.55668	50201
4.56480	55387
4.57292	55133
4.58105	53268
4.58917	58422
4.59730	53612
4.60542	60447
4.61353	52851
4.62167	57058
4.62978	56022
4.63792	60067
4.64603	57290
4.65415	50976
4.66228	56799
4.67040	61310
4.67853	54416
4.68665	66283
4.69477	57807
4.70290	58628
4.71102	57891
4.71913	58365
4.72727	57191
4.73538	56697
4.74352	60019
4.75163	58650
4.75975	57848
4.76788	54403
4.77600	57882
4.78413	58340
4.79225	63629
4.80037	56161
4.80850	55534
4.81662	58237
4.82473	56010
4.83287	62294
4.84098	55464
4.84912	57157
4.85723	55492
4.86535	59154
4.87348	63107
4.88160	58532
4.88973	56955
4.89785	57687
4.90597	54497
4.91410	56803
4.92222	60071
4.93035	55943
4.93847	58708
4.94658	58908
4.95472	60233
4.96283	59766
4.97095	56255
4.97908	58539
4.98720	58828
4.99533	58865
5.00345	58295
5.01157	67261
5.01970	55065
5.02782	56622
5.03595	57826
5.04407	56075
5.05218	61148
5.06032	56195
5.06843	57826
5.07655	59549
5.08468	55888
5.09280	58749
5.10093	54533
5.10905	56919
5.11717	57365
5.12530	57657
5.13342	55490
5.14155	58260
5.14967	56543
5.15778	58727
5.16592	56984
5.17403	58914
5.18217	56203
5.19028	56010
5.19840	56710
5.20653	54712
5.21465	61131
5.22277	55308
5.23090	55156
5.23902	56515
5.24715	61021
5.25527	57222
5.26338	53843
5.27152	54123
5.27963	52354
5.28777	58858
5.29588	52291
5.30400	55725
5.31213	53076
5.32025	50672
5.32838	54880
5.33650	53502
5.34462	54476
5.35275	53909
5.36087	54236
5.36898	51016
5.37712	53223
5.38523	53132
5.39337	49668
5.40148	53142
5.40960	53752
5.41773	51216
5.42585	52136
5.43398	53735
5.44210	51468
5.45022	51976
5.45835	53766
5.46647	51358
5.47458	51710
5.48272	51696
5.49083	52062
5.49897	52485
5.50708	51636
5.51520	51974
5.52333	49716
5.53145	53461
5.53958	52120
5.54770	48560
5.55582	56218
5.56395	49921
5.57207	52315
5.58020	48592
5.58832	52714
5.59643	53260
5.60457	50515
5.61268	53700
5.62080	52340
5.62893	50832
5.63705	51030
5.64518	55037
5.65330	53757
5.66142	54306
5.66955	47272
5.67767	53521
5.68580	48838
5.69392	50519
5.70203	55134
5.71017	53795
5.71828	51463
5.72642	51757
5.73453	54004
5.74265	51363
5.75078	57422
5.75890	51441
5.76702	50451
5.77515	54220
5.78327	53216
5.79140	55398
5.79952	54452
5.80763	55165
5.81577	52632
5.82388	54540
5.83202	51651
5.84013	49200
5.84825	54615
5.85638	53204
5.86450	51232
5.87262	53317
5.88075	50087
5.88887	52502
5.89700	54479
5.90512	47147
5.91323	44149
5.92137	43212
5.92948	46385
5.93762	42233
5.94573	41452
5.95385	42498
5.96198	44099
5.97010	43011
5.97823	41781
5.98635	42770
5.99447	41098
6.00260	41721
6.01072	41347
6.01883	46139
6.02697	42693
6.03508	43800
6.04322	45173
6.05133	41669
6.05945	41441
6.06758	42496
6.07570	45269
6.08383	42849
6.09195	42433
6.10007	43879
6.10820	45197
6.11632	41251
6.12445	41952
6.13257	44717
6.14068	41713
6.14882	42276
6.15693	41004
6.16505	40977
6.17318	41013
6.18130	44281
6.18943	42808
6.19755	42043
6.20567	40466
6.21380	42088
6.22192	44695
6.23005	40513
6.23817	41401
6.24628	43225
6.25442	42107
6.26253	40548
6.27065	43360
6.27878	42707
6.28690	41091
6.29503	40204
6.30315	41490
6.31127	37737
6.31940	42235
6.32752	41451
6.33565	42682
6.34377	40566
6.35188	44563
6.36002	44312
6.36813	43352
6.37627	43609
6.38438	40208
6.39250	39424
6.40063	41177
6.40875	41992
6.41687	42712
6.42500	43064
6.43312	39771
6.44125	41522
6.44937	40048
6.45748	38814
6.46562	36896
6.47373	39370
6.48187	42007
6.48998	41886
6.49810	41225
6.50623	40803
6.51435	40107
6.52247	45615
6.53060	41893
6.53872	45380
6.54685	41852
6.55497	43484
6.56308	39532
6.57122	38588
6.57933	39821
6.58747	41182
6.59558	38496
6.60370	40476
6.61183	40212
6.61995	38340
6.62808	38896
6.63620	41749
6.64432	40744
6.65245	41649
6.66057	42318
6.66868	40142
6.67682	44186
6.68493	39050
6.69307	41752
6.70118	40348
6.70930	40772
6.71743	41206
6.72555	40826
6.73368	40034
6.74180	38848
6.74992	39528
6.75805	40781
6.76617	39108
6.77430	42247
6.78242	41392
6.79053	38561
6.79867	40094
6.80678	41635
6.81490	39970
6.82303	44989
6.83115	37767
6.83928	41829
6.84740	40084
6.85552	39297
6.86365	36449
6.87177	34056
6.87990	34812
6.88802	35578
6.89613	36099
6.90427	37372
6.91238	33974
6.92050	34499
6.92863	34366
6.93675	34032
6.94488	32450
6.95300	35665
6.96112	33858
6.96925	35346
6.97737	40139
6.98550	32337
6.99362	34334
7.00173	37856
7.00987	34888
7.01798	37784
7.02612	33355
7.03423	33638
7.04235	39062
7.05048	36251
7.05860	34224
7.06672	35120
7.07485	36979
7.08297	34301
7.09110	39923
7.09922	33084
7.10733	34916
7.11547	33341
7.12358	36644
7.13172	36195
7.13983	32444
7.14795	33125
7.15608	38503
7.16420	33002
7.17233	34828
7.18045	32835
7.18857	32486
7.19670	35959
7.20482	35302
7.21293	33492
7.22107	35277
7.22918	34393
7.23732	34361
7.24543	32945
7.25355	34962
7.26168	36561
7.26980	34537
7.27793	34468
7.28605	35394
7.29417	33969
7.30230	32581
7.31042	33065
7.31853	35698
7.32667	33717
7.33478	31823
7.34292	33905
7.35103	36501
7.35915	36467
7.36728	33824
7.37540	31115
7.38353	36961
7.39165	34085
7.39977	33995
7.40790	33876
7.41602	30389
7.42415	31776
7.43227	30859
7.44038	31713
7.44852	33020
7.45663	33007
7.46475	34523
7.47288	30989
7.48100	35733
7.48913	34340
7.49725	33860
7.50537	35287
7.51350	32167
7.52162	32894
7.52975	35672
7.53787	33967
7.54598	33450
7.55412	33600
7.56223	34457
7.57035	31950
7.57848	34834
7.58660	31646
7.59473	34504
7.60285	36973
7.61097	34826
7.61910	35161
7.62722	36385
7.63535	31395
7.64347	31341
7.65158	33475
7.65972	30627
7.66783	31460
7.67597	31756
7.68408	32224
7.69220	33523
7.70033	32794
7.70845	32030
7.71657	33763
7.72470	33892
7.73282	34923
7.74095	35387
7.74907	32609
7.75718	35839
7.76532	33997
7.77343	34324
7.78157	34479
7.78968	30972
7.79780	31078
7.80593	31546
7.81405	32489
7.82218	30977
7.83030	30472
7.83842	32333
7.84655	29673
7.85467	31755
7.86278	32546
7.87092	32857
7.87903	32971
7.88717	32478
7.89528	33008
7.90340	32095
7.91153	31145
7.91965	32235
7.92778	32247
7.93590	33040
7.94402	30841
7.95215	33514
7.96027	34493
7.96838	31568
7.97652	34156
7.98463	33817
7.99277	30445
8.00088	32711
8.00900	34044
8.01713	33051
8.02525	36356
8.03338	32579
8.04150	32831
8.04962	32628
8.05775	31339
8.06587	30519
8.07400	34809
8.08212	31473
8.09023	34830
8.09837	34725
8.10648	33415
8.11460	33274
8.12273	30392
8.13085	31196
8.13898	33031
8.14710	32469
8.15522	33229
8.16335	34150
8.17147	31872
8.17960	30959
8.18772	35600
8.19583	32297
8.20397	31364
8.21208	32507
8.22022	27621
8.22833	31012
8.23645	29540
8.24458	35986
8.25270	31442
8.26082	32710
8.26895	31368
8.27707	31310
8.28520	33746
8.29332	33034
8.30143	33681
8.30957	30884
8.31768	30017
8.32582	35419
8.33393	29555
8.34205	32847
8.35018	32163
8.35830	34034
8.36642	33305
8.37455	36171
8.38267	32437
8.39080	34378
8.39892	31627
8.40703	30399
8.41517	32796
8.42328	32403
8.43142	33584
8.43953	31748
8.44765	32734
8.45578	32964
8.46390	30909
8.47203	30514
8.48015	31766
8.48827	30519
8.49640	30672
8.50452	28956
8.51263	31855
8.52077	32550
8.52888	32299
8.53702	31048
8.54513	33204
8.55325	32352
8.56138	30451
8.56950	32183
8.57763	30783
8.58575	30791
8.59387	30741
8.60200	31701
8.61012	34708
8.61823	32924
8.62637	30678
8.63448	30062
8.64262	31254
8.65073	30437
8.65885	32071
8.66698	35652
8.67510	31290
8.68323	31707
8.69135	34096
8.69947	34591
8.70760	34034
8.71572	37213
8.72385	34246
8.73197	34774
8.74008	36689
8.74822	38063
8.75633	39570
8.76445	38054
8.77258	32246
8.78070	34738
8.78883	36784
8.79695	36877
8.80507	35338
8.81320	35533
8.82132	33446
8.82945	39718
8.83757	36561
8.84568	34876
8.85382	35287
8.86193	33397
8.87007	33768
8.87818	36980
8.88630	33465
8.89443	35217
8.90255	35429
8.91067	34523
8.91880	34506
8.92692	36224
8.93505	33770
8.94317	34544
8.95128	35571
8.95942	35464
8.96753	33281
8.97567	37102
8.98378	34218
8.99190	37222
9.00003	35064
9.00815	31889
9.01628	37274
9.02440	32839
9.03252	35460
9.04065	34395
9.04877	36191
9.05688	33419
9.06502	34332
9.07313	33550
9.08127	34224
9.08938	33187
9.09750	34870
9.10563	35656
9.11375	37351
9.12188	31958
9.13000	37215
9.13812	31882
9.14625	36621
9.15437	34896
9.16248	34098
9.17062	34061
9.17873	35016
9.18687	33292
9.19498	35893
9.20310	35008
9.21123	34347
9.21935	39604
9.22748	36876
9.23560	34251
9.24372	34666
9.25185	34353
9.25997	32258
9.26810	35261
9.27622	35945
9.28433	33682
9.29247	34467
9.30058	36299
9.30870	35327
9.31683	32424
9.32495	38238
9.33308	35452
9.34120	36308
9.34932	33579
9.35745	37642
9.36557	32241
9.37370	32136
9.38182	33114
9.38993	34821
9.39807	32111
9.40618	38365
9.41430	31909
9.42243	35498
9.43055	32748
9.43868	32474
9.44680	33423
9.45492	32532
9.46305	32355
9.47117	32368
9.47930	37027
9.48742	34306
9.49553	33376
9.50367	35237
9.51178	32773
9.51992	35755
9.52803	33965
9.53615	30812
9.54428	33252
9.55240	31957
9.56052	33502
9.56865	32519
9.57677	30464
9.58490	31205
9.59302	29047
9.60113	32494
9.60927	34348
9.61738	30980
9.62552	32763
9.63363	29361
9.64175	29777
9.64988	27497
9.65800	27801
9.66613	31492
9.67425	30225
9.68237	30384
9.69050	30777
9.69862	29180
9.70673	30137
9.71487	27340
9.72298	32302
9.73112	30809
9.73923	29731
9.74735	31466
9.75548	30525
9.76360	32494
9.77173	32938
9.77985	30531
9.78797	33113
9.79610	29507
9.80422	30770
9.81233	31801
9.82047	34432
9.82858	28820
9.83672	29544
9.84483	30652
9.85295	29266
9.86108	34580
9.86920	28812
9.87733	29692
9.88545	27704
9.89357	32408
9.90170	31822
9.90982	29059
9.91795	28461
9.92607	32135
9.93418	36355
9.94232	30294
9.95043	29860
9.95855	29188
9.96668	29565
9.97480	29034
9.98293	29616
9.99105	29397
9.99917	27518
10.00730	32935
10.01542	31262
10.02355	31837
10.03167	32174
10.03978	32954
10.04792	34175
10.05603	30707
10.06417	29693
10.07228	28626
10.08040	29794
10.08853	29895
10.09665	31377
10.10477	31908
10.11290	32887
10.12102	31475
10.12915	29011
10.13727	28564
10.14538	33080
10.15352	30398
10.16163	29197
10.16977	28641
10.17788	28835
10.18600	30281
10.19413	30045
10.20225	33246
10.21037	29727
10.21850	27780
10.22662	31673
10.23475	29447
10.24287	30739
10.25098	31213
10.25912	30680
10.26723	32353
10.27537	33250
10.28348	30320
10.29160	29067
10.29973	30540
10.30785	30480
10.31598	29621
10.32410	27050
10.33222	30250
10.34035	29798
10.34847	28197
10.35658	28338
10.36472	29082
10.37283	31507
10.38097	32267
10.38908	30474
10.39720	29158
10.40533	32175
10.41345	34468
10.42158	30452
10.42970	30460
10.43782	29638
10.44595	29624
10.45407	31664
10.46218	30129
10.47032	31158
10.47843	31068
10.48657	28155
10.49468	27092
10.50280	30383
10.51093	29989
10.51905	30859
10.52718	30361
10.53530	30916
10.54342	28898
10.55155	31430
10.55967	29121
10.56780	28637
10.57592	28949
10.58403	26877
10.59217	30141
10.60028	30369
10.60840	34278
10.61653	32201
10.62465	28788
10.63278	27956
10.64090	29977
10.64902	32597
10.65715	29892
10.66527	30885
10.67340	27336
10.68152	30977
10.68963	26506
10.69777	30811
10.70588	27622
10.71402	32117
10.72213	29626
10.73025	27360
10.73838	30868
10.74650	32033
10.75462	29239
10.76275	31476
10.77087	26652
10.77900	34647
10.78712	30297
10.79523	31540
10.80337	27789
10.81148	29902
10.81962	29176
10.82773	28778
10.83585	29287
10.84398	26868
10.85210	32508
10.86022	29835
10.86835	29288
10.87647	31892
10.88460	27434
10.89272	30233
10.90083	30184
10.90897	30481
10.91708	28617
10.92522	31418
10.93333	29032
10.94145	28767
10.94958	29639
10.95770	31759
10.96583	32311
10.97395	31179
10.98207	34762
10.99020	27777
10.99832	30282
11.00643	31834
11.01457	29253
11.02268	28209
11.03082	34344
11.03893	29415
11.04705	29925
11.05518	30673
11.06330	30769
11.07143	27865
11.07955	28225
11.08767	27521
11.09580	31824
11.10392	31834
11.11205	28201
11.12017	27433
11.12828	26333
11.13642	30216
11.14453	30104
11.15265	26920
11.16078	28506
11.16890	35116
11.17703	30807
11.18515	28711
11.19327	30512
11.20140	29203
11.20952	29690
11.21765	28560
11.22577	30906
11.23388	30746
11.24202	32153
11.25013	33598
11.25825	32924
11.26638	31935
11.27450	29594
11.28263	30867
11.29075	32688
11.29887	28767
11.30700	28675
11.31512	30047
11.32325	31155
11.33137	29800
11.33948	30215
11.34762	31519
11.35573	36238
11.36387	28763
11.37198	31070
11.38010	29114
11.38823	30966
11.39635	30389
11.40447	29614
11.41260	32734
11.42072	29064
11.42885	28058
11.43697	28197
11.44508	30007
11.45322	34887
11.46133	27751
11.46947	31618
11.47758	31204
11.48570	28023
11.49383	30613
11.50195	26727
11.51008	28157
11.51820	35661
11.52632	29442
11.53445	30861
11.54257	31817
11.55068	29132
11.55882	29234
11.56693	30921
11.57507	30566
11.58318	29407
11.59130	31081
11.59943	31541
11.60755	28807
11.61568	28920
11.62380	27021
11.63192	27392
11.64005	28241
11.64817	30274
11.65628	31580
11.66442	31356
11.67253	35006
11.68067	28546
11.68878	30017
11.69690	30334
11.70503	30262
11.71315	27127
11.72128	32723
11.72940	30810
11.73752	31185
11.74565	31824
11.75377	29492
11.76190	30472
11.77002	29432
11.77813	33917
11.78627	31494
11.79438	31241
11.80250	27353
11.81063	29823
11.81875	29926
11.82688	28548
11.83500	28782
11.84312	30205
11.85125	30901
11.85937	25763
11.86750	27282
11.87562	30617
11.88373	32785
11.89187	30149
11.89998	31927
11.90810	31427
11.91623	26943
11.92435	29162
11.93248	29388
11.94060	28918
11.94872	32905
11.95685	28553
11.96497	29796
11.97310	31154
11.98122	27793
11.98933	29162
11.99747	32587
12.00558	29283
12.01372	27813
12.02183	28883
12.02995	29350
12.03808	31885
12.04620	30808
12.05432	28973
12.06245	31289
12.07057	28248
12.07870	28627
12.08682	26465
12.09493	27810
12.10307	30874
12.11118	27227
12.11932	30510
12.12743	28779
12.13555	28243
12.14368	29136
12.15180	28608
12.15993	27503
12.16805	29947
12.17617	30733
12.18430	29893
12.19242	32410
12.20053	27232
12.20867	29385
12.21678	31647
12.22492	30790
12.23303	30361
12.24115	33505
12.24928	31037
12.25740	30249
12.26553	28336
12.27365	32652
12.28177	31394
12.28990	31514
12.29802	29594
12.30613	31395
12.31427	32362
12.32238	31573
12.33052	27175
12.33863	31962
12.34675	32384
12.35488	31098
12.36300	30138
12.37113	29171
12.37925	32018
12.38737	29072
12.39550	30365
12.40362	32462
12.41175	29318
12.41987	28051
12.42798	30825
12.43612	30155
12.44423	30294
12.45235	32284
12.46048	29831
12.46860	31354
12.47673	27757
12.48485	28832
12.49297	28819
12.50110	29943
12.50922	30355
12.51735	30338
12.52547	31693
12.53358	29960
12.54172	28282
12.54983	30360
12.55797	29098
12.56608	33037
12.57420	33250
12.58233	27117
12.59045	30380
12.59857	29266
12.60670	27876
12.61482	31376
12.62295	29106
12.63107	29043
12.63918	29588
12.64732	32414
12.65543	26569
12.66357	29753
12.67168	28898
12.67980	29362
12.68793	29708
12.69605	27839
12.70417	30124
12.71230	31913
12.72042	31261
12.72855	33087
12.73667	29157
12.74478	28742
12.75292	29898
12.76103	30664
12.76917	28208
12.77728	28795
12.78540	29929
12.79353	27872
12.80165	26558
12.80978	27746
12.81790	26507
12.82602	30142
12.83415	35117
12.84227	31633
12.85038	30593
12.85852	28697
12.86663	29117
12.87477	31425
12.88288	29468
12.89100	29245
12.89913	29110
12.90725	28937
12.91538	32963
12.92350	28879
12.93162	27873
12.93975	27704
12.94787	29399
12.95598	27722
12.96412	30656
12.97223	28774
12.98037	30043
12.98848	32514
12.99660	33844
13.00473	29302
13.01285	34042
13.02098	31552
13.02910	30153
13.03722	28999
13.04535	31391
13.05347	30111
13.06160	30437
13.06972	30848
13.07783	31034
13.08597	27451
13.09408	29557
13.10220	29903
13.11033	29122
13.11845	33212
13.12658	33912
13.13470	28857
13.14282	30111
13.15095	33960
13.15907	27266
13.16720	29371
13.17532	31687
13.18343	28416
13.19157	29857
13.19968	28744
13.20782	28637
13.21593	30401
13.22405	30823
13.23218	29786
13.24030	32755
13.24842	29385
13.25655	28361
13.26467	29831
13.27280	29091
13.28092	31609
13.28903	31940
13.29717	30577
13.30528	29091
13.31342	29261
13.32153	28815
13.32965	30529
13.33778	29118
13.34590	33516
13.35402	36457
13.36215	31079
13.37027	31808
13.37840	30448
13.38652	32508
13.39463	30280
13.40277	29820
13.41088	29996
13.41902	29423
13.42713	31037
13.43525	29666
13.44338	33190
13.45150	27313
13.45963	29755
13.46775	30811
13.47587	29384
13.48400	30065
13.49212	29860
13.50023	32307
13.50837	32039
13.51648	31782
13.52462	34327
13.53273	30613
13.54085	30009
13.54898	27625
13.55710	30479
13.56523	30597
13.57335	28352
13.58147	29636
13.58960	28808
13.59772	28582
13.60585	28485
13.61397	29480
13.62208	33601
13.63022	32676
13.63833	30026
13.64645	28513
13.65458	28259
13.66270	33200
13.67083	31926
13.67895	30432
13.68707	27485
13.69520	33539
13.70332	32984
13.71145	30847
13.71957	29029
13.72768	30968
13.73582	32146
13.74393	29668
13.75205	33095
13.76018	28900
13.76830	31015
13.77643	31735
13.78455	31934
13.79267	37029
13.80080	34267
13.80892	29571
13.81705	29074
13.82517	33180
13.83328	26973
13.84142	30806
13.84953	32691
13.85767	28093
13.86578	36090
13.87390	29884
13.88203	32955
13.89015	29225
13.89827	31848
13.90640	29534
13.91452	26496
13.92265	28942
13.93077	28441
13.93888	30636
13.94702	30348
13.95513	29646
13.96327	30931
13.97138	30716
13.97950	32744
13.98763	29672
13.99575	26892
14.00387	31540
14.01200	31758
14.02012	36194
14.02825	30474
14.03637	34604
14.04448	29814
14.05262	30887
14.06073	29926
14.06887	32612
14.07698	29494
14.08510	30571
14.09323	32920
14.10135	28518
14.10948	32594
14.11760	29161
14.12572	30162
14.13385	29295
14.14197	30326
14.15008	29981
14.15822	30162
14.16633	34175
14.17447	33189
14.18258	32773
14.19070	32793
14.19883	36343
14.20695	33620
14.21508	35405
14.22320	37637
14.23132	35335
14.23945	31587
14.24757	34284
14.25570	34133
14.26382	34476
14.27193	37109
14.28007	30813
14.28818	34595
14.29630	35224
14.30443	33945
14.31255	38056
14.32068	32030
14.32880	34870
14.33692	30007
14.34505	36521
14.35317	31279
14.36130	31942
14.36942	33117
14.37753	30646
14.38567	31907
14.39378	30815
14.40192	28896
14.41003	30252
14.41815	32641
14.42628	35450
14.43440	31431
14.44252	28027
14.45065	28671
14.45877	33784
14.46690	32624
14.47502	32777
14.48313	32880
14.49127	32486
14.49938	30684
14.50752	30477
14.51563	30445
14.52375	28970
14.53188	32012
14.54000	30717
14.54812	29690
14.55625	31851
14.56437	30523
14.57250	30822
14.58062	33982
14.58873	29821
14.59687	32629
14.60498	28099
14.61312	36612
14.62123	30729
14.62935	32776
14.63748	31202
14.64560	29598
14.65373	32326
14.66185	33585
14.66997	33088
14.67810	30115
14.68622	28090
14.69433	30803
14.70247	29575
14.71058	30523
14.71872	30290
14.72683	32955
14.73495	33655
14.74308	34320
14.75120	33226
14.75933	29212
14.76745	34913
14.77557	31453
14.78370	32175
14.79182	28144
14.79993	30302
14.80807	31023
14.81618	29784
14.82432	31730
14.83243	34840
14.84055	28567
14.84868	28957
14.85680	32943
14.86493	29642
14.87305	29828
14.88117	31532
14.88930	30440
14.89742	32701
14.90555	30105
14.91367	30772
14.92178	33100
14.92992	27993
14.93803	29651
14.94615	27333
14.95428	30975
14.96240	30806
14.97053	27426
14.97865	31189
14.98677	31713
14.99490	32844
15.00302	30903
15.01115	32356
15.01927	33822
15.02738	34389
15.03552	31584
15.04363	29802
15.05177	28153
15.05988	30511
15.06800	32835
15.07613	33252
15.08425	31234
15.09237	31487
15.10050	34803
15.10862	32936
15.11675	32257
15.12487	30209
15.13298	32463
15.14112	32510
15.14923	29561
15.15737	32275
15.16548	34240
15.17360	30045
15.18173	27801
15.18985	32510
15.19797	30039
15.20610	32799
15.21422	32587
15.22235	31886
15.23047	34992
15.23858	35075
15.24672	32099
15.25483	31118
15.26297	29156
15.27108	30791
15.27920	31177
15.28733	29508
15.29545	29758
15.30358	31022
15.31170	30504
15.31982	31719
15.32795	31150
15.33607	30056
15.34418	33589
15.35232	30829
15.36043	32330
15.36857	30511
15.37668	30880
15.38480	31966
15.39293	32309
15.40105	28476
15.40918	30641
15.41730	31069
15.42542	28845
15.43355	29653
15.44167	30892
15.44980	31720
15.45792	32140
15.46603	30814
15.47417	30333
15.48228	29223
15.49040	33783
15.49853	32364
15.50665	32660
15.51478	29243
15.52290	29607
15.53102	32228
15.53915	33574
15.54727	31856
15.55540	31192
15.56352	29470
15.57163	31083
15.57977	28550
15.58788	27655
15.59600	33229
15.60413	31932
15.61225	29261
15.62038	30248
15.62850	32163
15.63662	32410
15.64475	33252
15.65287	31416
15.66100	30837
15.66912	30464
15.67723	33927
15.68537	31728
15.69348	36264
15.70162	32761
15.70973	27656
15.71785	29226
15.72598	33551
15.73410	29932
15.74222	32901
15.75035	31021
15.75847	33501
15.76660	32936
15.77472	33908
15.78283	31112
15.79097	29420
15.79908	33916
15.80722	34045
15.81533	32814
15.82345	32958
15.83158	35730
15.83970	32355
15.84782	35271
15.85595	30692
15.86407	32071
15.87220	34468
15.88032	31247
15.88843	30605
15.89657	34899
15.90468	31544
15.91282	30219
15.92093	30132
15.92905	34654
15.93718	31432
15.94530	31861
15.95343	31892
15.96155	31552
15.96967	37436
15.97780	30677
15.98592	32829
15.99403	29315
16.00217	29564
16.01028	30687
16.01842	30524
16.02653	32244
16.03465	30061
16.04278	31091
16.05090	28471
16.05903	31100
16.06715	35379
16.07527	34628
16.08340	33681
16.09152	33626
16.09965	33079
16.10777	30543
16.11588	31784
16.12402	34315
16.13213	34601
16.14025	32782
16.14838	31133
16.15650	32219
16.16463	30012
16.17275	35635
16.18087	30597
16.18900	34389
16.19712	32076
16.20525	29944
16.21337	30799
16.22148	32993
16.22962	33653
16.23773	30639
16.24585	32939
16.25398	35934
16.26210	31091
16.27023	31542
16.27835	33767
16.28647	32593
16.29460	33073
16.30272	37404
16.31085	33040
16.31897	32125
16.32708	31667
16.33522	33701
16.34333	33749
16.35147	31648
16.35958	33783
16.36770	31800
16.37583	32205
16.38395	33004
16.39207	33772
16.40020	33763
16.40832	31212
16.41645	36073
16.42457	33256
16.43268	32846
16.44082	31849
16.44893	34203
16.45707	31707
16.46518	30588
16.47330	35573
16.48143	35015
16.48955	33044
16.49768	31251
16.50580	34530
16.51392	31947
16.52205	33160
16.53017	29388
16.53828	33295
16.54642	32634
16.55453	34379
16.56267	34716
16.57078	31989
16.57890	32663
16.58703	32590
16.59515	33552
16.60328	32081
16.61140	33208
16.61952	32641
16.62765	33691
16.63577	32269
16.64388	36611
16.65202	34142
16.66013	31600
16.66827	36532
16.67638	32896
16.68450	34308
16.69263	34039
16.70075	33625
16.70888	32014
16.71700	31918
16.72512	35616
16.73325	36782
16.74137	32035
16.74950	29500
16.75762	32533
16.76573	34042
16.77387	30776
16.78198	31622
16.79010	32396
16.79823	35637
16.80635	30394
16.81448	33540
16.82260	33667
16.83072	32626
16.83885	36040
16.84697	31736
16.85510	36186
16.86322	34200
16.87133	35883
16.87947	33799
16.88758	32722
16.89572	33356
16.90383	34615
16.91195	32748
16.92008	30604
16.92820	33942
16.93632	29858
16.94445	30891
16.95257	35808
16.96070	33068
16.96882	33108
16.97693	32275
16.98507	35822
16.99318	32602
17.00132	33632
17.00943	32709
17.01755	33617
17.02568	33006
17.03380	32607
17.04192	33340
17.05005	31345
17.05817	34563
17.06630	38027
17.07442	34701
17.08253	33979
17.09067	34783
17.09878	31733
17.10692	34030
17.11503	35317
17.12315	37493
17.13128	33467
17.13940	35057
17.14753	32590
17.15565	35103
17.16377	31864
17.17190	32946
17.18002	35930
17.18813	33281
17.19627	32533
17.20438	35317
17.21252	34134
17.22063	33004
17.22875	35866
17.23688	31958
17.24500	32970
17.25313	32227
17.26125	31674
17.26937	33286
17.27750	35617
17.28562	33101
17.29373	35094
17.30187	33099
17.30998	34738
17.31812	30195
17.32623	34953
17.33435	33078
17.34248	37161
17.35060	33386
17.35873	31903
17.36685	35561
17.37497	35230
17.38310	34218
17.39122	33325
17.39935	32691
17.40747	32665
17.41558	31028
17.42372	32867
17.43183	37577
17.43995	30346
17.44808	34352
17.45620	38996
17.46433	33742
17.47245	34967
17.48057	34801
17.48870	34375
17.49682	32004
17.50495	32673
17.51307	34628
17.52118	32655
17.52932	36055
17.53743	32877
17.54557	34134
17.55368	32297
17.56180	34732
17.56993	34209
17.57805	34356
17.58617	33027
17.59430	33771
17.60242	31876
17.61055	32952
17.61867	34248
17.62678	31520
17.63492	32216
17.64303	32591
17.65117	32935
17.65928	30491
17.66740	34752
17.67553	34785
17.68365	32175
17.69177	34286
17.69990	35121
17.70802	34405
17.71615	32435
17.72427	38622
17.73238	34821
17.74052	36142
17.74863	34106
17.75677	37227
17.76488	33442
17.77300	34908
17.78113	35189
17.78925	34216
17.79738	34244
17.80550	37089
17.81362	32786
17.82175	34852
17.82987	35684
17.83798	35974
17.84612	32333
17.85423	32535
17.86237	38534
17.87048	33788
17.87860	35490
17.88673	35015
17.89485	31378
17.90298	34727
17.91110	36399
17.91922	35933
17.92735	34650
17.93547	33598
17.94360	35509
17.95172	34773
17.95983	34887
17.96797	35319
17.97608	33588
17.98420	35256
17.99233	32491
18.00045	32479
18.00858	35364
18.01670	34135
18.02482	35481
18.03295	32048
18.04107	38031
18.04920	36495
18.05732	33784
18.06543	34405
18.07357	34478
18.08168	35666
18.08980	33857
18.09793	34775
18.10605	37243
18.11418	31878
18.12230	33258
18.13042	34106
18.13855	32400
18.14667	32572
18.15480	33505
18.16292	35458
18.17103	37440
18.17917	34330
18.18728	33343
18.19542	37212
18.20353	33853
18.21165	34160
18.21978	36736
18.22790	35040
18.23602	32439
18.24415	35587
18.25227	33701
18.26040	34698
18.26852	33424
18.27663	35020
18.28477	33168
18.29288	39090
18.30102	34026
18.30913	39180
18.31725	35702
18.32538	35625
18.33350	37571
18.34162	32982
18.34975	36023
18.35787	37502
18.36600	34639
18.37412	32626
18.38223	36364
18.39037	34495
18.39848	35194
18.40662	34170
18.41473	32419
18.42285	31634
18.43098	33162
18.43910	40127
18.44723	36495
18.45535	36122
18.46347	32809
18.47160	33577
18.47972	34322
18.48783	37445
18.49597	37763
18.50408	38379
18.51222	36029
18.52033	35619
18.52845	41277
18.53658	38418
18.54470	36657
18.55283	33604
18.56095	34521
18.56907	36361
18.57720	33767
18.58532	35109
18.59345	36168
18.60157	33013
18.60968	35204
18.61782	34407
18.62593	35861
18.63405	31769
18.64218	35446
18.65030	36653
18.65843	34496
18.66655	35694
18.67467	34406
18.68280	33986
18.69092	34292
18.69905	35871
18.70717	34997
18.71528	34107
18.72342	36745
18.73153	35267
18.73965	35135
18.74778	35292
18.75590	32819
18.76403	36362
18.77215	34650
18.78027	35326
18.78840	34969
18.79652	35283
18.80465	36436
18.81277	36146
18.82088	34483
18.82902	36263
18.83713	33060
18.84527	34874
18.85338	36977
18.86150	31773
18.86963	35499
18.87775	35517
18.88587	39307
18.89400	35755
18.90212	36865
18.91025	34942
18.91837	39182
18.92648	34947
18.93462	34062
18.94273	31614
18.95087	35105
18.95898	36219
18.96710	35638
18.97523	35023
18.98335	37625
18.99148	36140
18.99960	33291
19.00772	34995
19.01585	36645
19.02397	36272
19.03208	40202
19.04022	38679
19.04833	32352
19.05647	36372
19.06458	39258
19.07270	36578
19.08083	36117
19.08895	33497
19.09708	36186
19.10520	34574
19.11332	34354
19.12145	36102
19.12957	37070
19.13768	35429
19.14582	35602
19.15393	35389
19.16207	37176
19.17018	33895
19.17830	32937
19.18643	35666
19.19455	34315
19.20268	33854
19.21080	36133
19.21892	35605
19.22705	38233
19.23517	39378
19.24330	34775
19.25142	38095
19.25953	36208
19.26767	37109
19.27578	37021
19.28390	36576
19.29203	36998
19.30015	35025
19.30828	36126
19.31640	33949
19.32452	35908
19.33265	39195
19.34077	35048
19.34890	33852
19.35702	36085
19.36513	35728
19.37327	32793
19.38138	34164
19.38950	34028
19.39763	36184
19.40575	41399
19.41388	35537
19.42200	35415
19.43012	36686
19.43825	35336
19.44637	30792
19.45450	37704
19.46262	37793
19.47073	38074
19.47887	37677
19.48698	38815
19.49512	41083
19.50323	42238
19.51135	41124
19.51948	38328
19.52760	35818
19.53572	36528
19.54385	38838
19.55197	37064
19.56010	35371
19.56822	33168
19.57633	34101
19.58447	37456
19.59258	35057
19.60072	35042
19.60883	36613
19.61695	35896
19.62508	39323
19.63320	35881
19.64133	36445
19.64945	37575
19.65757	37430
19.66570	35845
19.67382	37823
19.68193	34645
19.69007	41147
19.69818	40379
19.70632	41568
19.71443	34928
19.72255	38280
19.73068	35857
19.73880	34095
19.74693	36625
19.75505	36657
19.76317	35689
19.77130	38577
19.77942	37896
19.78755	33795
19.79567	34203
19.80378	34585
19.81192	36297
19.82003	35160
19.82815	36994
19.83628	34870
19.84440	32857
19.85253	36339
19.86065	36704
19.86877	37511
19.87690	36143
19.88502	32194
19.89315	35144
19.90127	41053
19.90938	36051
19.91752	33752
19.92563	34326
19.93375	40438
19.94188	34115
19.95000	38932
19.95813	35319
19.96625	33497
19.97437	38083
19.98250	35482
19.99062	37901
19.99875	33883
20.00687	33136
20.01498	39172
20.02312	31356
20.03123	34781
20.03937	36003
20.04748	33483
20.05560	34727
20.06373	35849
20.07185	37577
20.07997	37557
20.08810	35482
20.09622	39939
20.10435	34862
20.11247	38186
20.12058	33174
20.12872	39583
20.13683	38238
20.14497	39606
20.15308	38999
20.16120	36852
20.16933	37975
20.17745	33040
20.18557	35555
20.19370	34651
20.20182	34890
20.20995	37143
20.21807	38260
20.22618	36632
20.23432	34582
20.24243	37081
20.25057	37597
20.25868	39571
20.26680	38337
20.27493	46760
20.28305	39497
20.29118	41865
20.29930	40999
20.30742	39068
20.31555	34942
20.32367	38354
20.33178	37521
20.33992	35729
20.34803	39348
20.35617	40454
20.36428	37532
20.37240	37283
20.38053	39462
20.38865	35876
20.39678	39425
20.40490	34954
20.41302	36228
20.42115	36959
20.42927	38479
20.43740	39902
20.44552	39371
20.45363	37189
20.46177	37108
20.46988	36148
20.47800	33982
20.48613	37188
20.49425	35703
20.50238	35390
20.51050	36547
20.51862	38312
20.52675	37093
20.53487	34227
20.54300	36160
20.55112	40296
20.55923	41377
20.56737	38645
20.57548	35963
20.58360	36051
20.59173	35989
20.59985	39028
20.60798	35851
20.61610	37412
20.62422	36624
20.63235	35292
20.64047	41323
20.64860	38641
20.65672	37190
20.66483	35255
20.67297	40516
20.68108	40286
20.68922	36147
20.69733	35057
20.70545	38691
20.71358	36412
20.72170	36639
20.72982	42224
20.73795	38028
20.74607	39501
20.75420	39001
20.76232	39585
20.77043	36868
20.77857	37717
20.78668	39036
20.79482	38678
20.80293	35234
20.81105	36560
20.81918	36208
20.82730	36522
20.83543	35961
20.84355	35310
20.85167	38706
20.85980	38244
20.86792	36351
20.87603	36809
20.88417	34882
20.89228	38404
20.90042	43427
20.90853	36765
20.91665	38070
20.92478	36253
20.93290	37891
20.94103	38767
20.94915	39271
20.95727	38009
20.96540	39854
20.97352	39133
20.98163	40487
20.98977	35507
20.99788	38017
21.00602	37602
21.01413	35760
21.02225	37111
21.03038	36892
21.03850	39075
21.04663	36444
21.05475	44400
21.06287	37500
21.07100	38813
21.07912	36219
21.08725	38065
21.09537	38517
21.10348	42173
21.11162	38473
21.11973	37562
21.12785	38193
21.13598	37497
21.14410	39565
21.15223	34344
21.16035	39805
21.16847	41955
21.17660	38262
21.18472	39342
21.19285	37620
21.20097	35844
21.20908	40866
21.21722	36978
21.22533	39265
21.23345	42277
21.24158	39632
21.24970	35727
21.25783	38362
21.26595	35557
21.27407	36977
21.28220	39720
21.29032	40275
21.29845	40162
21.30657	37209
21.31468	38083
21.32282	35294
21.33093	40647
21.33907	36240
21.34718	36252
21.35530	36262
21.36343	40277
21.37155	34040
21.37967	36363
21.38780	37894
21.39592	37563
21.40405	37673
21.41217	38116
21.42028	36383
21.42842	39517
21.43653	38985
21.44467	37529
21.45278	40446
21.46090	34109
21.46903	37388
21.47715	40441
21.48528	38469
21.49340	39587
21.50152	38374
21.50965	38333
21.51777	38852
21.52588	37215
21.53402	37875
21.54213	36093
21.55027	42999
21.55838	36195
21.56650	39050
21.57463	35061
21.58275	38585
21.59088	36712
21.59900	39483
21.60712	38123
21.61525	38704
21.62337	42210
21.63148	39640
21.63962	41177
21.64773	39722
21.65587	38444
21.66398	39863
21.67210	35110
21.68023	40471
21.68835	38589
21.69648	40046
21.70460	37736
21.71272	39404
21.72085	37174
21.72897	41282
21.73710	38090
21.74522	39044
21.75333	37703
21.76147	44154
21.76958	40243
21.77770	38943
21.78583	37635
21.79395	39237
21.80208	39664
21.81020	37832
21.81832	36620
21.82645	39098
21.83457	41942
21.84270	39889
21.85082	37104
21.85893	39554
21.86707	38269
21.87518	39025
21.88332	42167
21.89143	39086
21.89955	41657
21.90768	38323
21.91580	40784
21.92392	39414
21.93205	39570
21.94017	36393
21.94830	37890
21.95642	38771
21.96453	38484
21.97267	39187
21.98078	37995
21.98892	38150
21.99703	38513
22.00515	46271
22.01328	39085
22.02140	43561
22.02952	43680
22.03765	40582
22.04577	38320
22.05390	37019
22.06202	37318
22.07013	39265
22.07827	36201
22.08638	38127
22.09452	38732
22.10263	40681
22.11075	41407
22.11888	38368
22.12700	38740
22.13513	42343
22.14325	38057
22.15137	39019
22.15950	38534
22.16762	39047
22.17573	36913
22.18387	38033
22.19198	35811
22.20012	36881
22.20823	41209
22.21635	44321
22.22448	37414
22.23260	39820
22.24073	39221
22.24885	41836
22.25697	39876
22.26510	39783
22.27322	40864
22.28135	38995
22.28947	38114
22.29758	38118
22.30572	35093
22.31383	37833
22.32195	40375
22.33008	42294
22.33820	41175
22.34633	39020
22.35445	38195
22.36257	38025
22.37070	40878
22.37882	40239
22.38695	37360
22.39507	41290
22.40318	39953
22.41132	40251
22.41943	42678
22.42755	38317
22.43568	34382
22.44380	37682
22.45193	37821
22.46005	38381
22.46817	40779
22.47630	40982
22.48442	40614
22.49255	37910
22.50067	36146
22.50878	42273
22.51692	37346
22.52503	39188
22.53317	41330
22.54128	42520
22.54940	40064
22.55753	36763
22.56565	40743
22.57377	39927
22.58190	43756
22.59002	36990
22.59815	39709
22.60627	39539
22.61438	39263
22.62252	42169
22.63063	38523
22.63877	41137
22.64688	42903
22.65500	41846
22.66313	39517
22.67125	40622
22.67937	39637
22.68750	39617
22.69562	42358
22.70375	38160
22.71187	39584
22.71998	40490
22.72812	40979
22.73623	40821
22.74437	39833
22.75248	39361
22.76060	40063
22.76873	38140
22.77685	39267
22.78498	39860
22.79310	39230
22.80122	38559
22.80935	43564
22.81747	41288
22.82558	39615
22.83372	41406
22.84183	39282
22.84997	40111
22.85808	40660
22.86620	40424
22.87433	40541
22.88245	40415
22.89058	40814
22.89870	43496
22.90682	35611
22.91495	41280
22.92307	37530
22.93120	40845
22.93932	40183
22.94743	40543
22.95557	39537
22.96368	41115
22.97180	41270
22.97993	43370
22.98805	41430
22.99618	42881
23.00430	41180
23.01242	41777
23.02055	41206
23.02867	40576
23.03680	43303
23.04492	42906
23.05303	40486
23.06117	39303
23.06928	46232
23.07740	39853
23.08553	43208
23.09365	43103
23.10178	42944
23.10990	43613
23.11802	39961
23.12615	40474
23.13427	43364
23.14240	45811
23.15052	40976
23.15863	46569
23.16677	42071
23.17488	43006
23.18302	41163
23.19113	44115
23.19925	41284
23.20738	41621
23.21550	45462
23.22362	46504
23.23175	43528
23.23987	43679
23.24800	45676
23.25612	46422
23.26423	43077
23.27237	42678
23.28048	43417
23.28862	42125
23.29673	42210
23.30485	42929
23.31298	42687
23.32110	42640
23.32923	47345
23.33735	47611
23.34547	43975
23.35360	44711
23.36172	42212
23.36983	43762
23.37797	44869
23.38608	46835
23.39422	43863
23.40233	43511
23.41045	46195
23.41858	45280
23.42670	44020
23.43483	45317
23.44295	47015
23.45107	45222
23.45920	44145
23.46732	49552
23.47543	45712
23.48357	43212
23.49168	47459
23.49982	45545
23.50793	50326
23.51605	46865
23.52418	44870
23.53230	47027
23.54043	47548
23.54855	45917
23.55667	52855
23.56480	49716
23.57292	51464
23.58105	50744
23.58917	50059
23.59728	48723
23.60542	49794
23.61353	52307
23.62165	51178
23.62978	56326
23.63790	52817
23.64603	53194
23.65415	53376
23.66227	50856
23.67040	52446
23.67852	46920
23.68665	52925
23.69477	51370
23.70288	51732
23.71102	48937
23.71913	53005
23.72725	50267
23.73538	50839
23.74350	51253
23.75163	47749
23.75975	50010
23.76787	51264
23.77600	47826
23.78412	48576
23.79225	52174
23.80037	47207
23.80848	53389
23.81662	47647
23.82473	50335
23.83287	44635
23.84098	45560
23.84910	47826
23.85723	44100
23.86535	45956
23.87347	42149
23.88160	43543
23.88972	45455
23.89785	45848
23.90597	48636
23.91408	44928
23.92222	43583
23.93033	43396
23.93847	42191
23.94658	43259
23.95470	48538
23.96283	44131
23.97095	39453
23.97908	44116
23.98720	46566
23.99532	43522
24.00345	40165
24.01157	45067
24.01968	43862
24.02782	41629
24.03593	42369
24.04407	44939
24.05218	40525
24.06030	43847
24.06843	42049
24.07655	43036
24.08468	41205
24.09280	43284
24.10092	40274
24.10905	40500
24.11717	38878
24.12528	46921
24.13342	39780
24.14153	43763
24.14967	42005
24.15778	42481
24.16590	41613
24.17403	43493
24.18215	42492
24.19028	44749
24.19840	39484
24.20652	39161
24.21465	41703
24.22277	43641
24.23090	42908
24.23902	40376
24.24713	41030
24.25527	41074
24.26338	41205
24.27150	44093
24.27963	42408
24.28775	38345
24.29588	40484
24.30400	39862
24.31212	41568
24.32025	42899
24.32837	43549
24.33650	40991
24.34462	38397
24.35273	44442
24.36087	39372
24.36898	42040
24.37712	40905
24.38523	42585
24.39335	43635
24.40148	38070
24.40960	40091
24.41772	40192
24.42585	39961
24.43397	39012
24.44210	46122
24.45022	42292
24.45833	44398
24.46647	38325
24.47458	41983
24.48272	40116
24.49083	41835
24.49895	44092
24.50708	40705
24.51520	44659
24.52332	43432
24.53145	39319
24.53957	41158
24.54770	40237
24.55582	40742
24.56393	40451
24.57207	38393
24.58018	42112
24.58832	44324
24.59643	42987
24.60455	40547
24.61268	40409
24.62080	42803
24.62893	38130
24.63705	42696
24.64517	39611
24.65330	39834
24.66142	40535
24.66953	42685
24.67767	39606
24.68578	41422
24.69392	37040
24.70203	41852
24.71015	41142
24.71828	37324
24.72640	43946
24.73453	39528
24.74265	40633
24.75077	39772
24.75890	40187
24.76702	40154
24.77515	38324
24.78327	40923
24.79138	39379
24.79952	39845
24.80763	40891
24.81575	40938
24.82388	40210
24.83200	38137
24.84013	39536
24.84825	40290
24.85637	39789
24.86450	42250
24.87262	41304
24.88075	43032
24.88887	42053
24.89698	39638
24.90512	38184
24.91323	42235
24.92135	42857
24.92948	40546
24.93760	41408
24.94573	38696
24.95385	36516
24.96197	39472
24.97010	38367
24.97822	41812
24.98635	46034
24.99447	44530
25.00258	40493
25.01072	40370
25.01883	40436
25.02697	40288
25.03508	42266
25.04320	45143
25.05133	43445
25.05945	43573
25.06757	40861
25.07570	37009
25.08382	41706
25.09195	39924
25.10007	37771
25.10818	39306
25.11632	40591
25.12443	42963
25.13257	43858
25.14068	39162
25.14880	41627
25.15693	41555
25.16505	38395
25.17318	41618
25.18130	41536
25.18942	39467
25.19755	39162
25.20567	37760
25.21378	38388
25.22192	38850
25.23003	38734
25.23817	38856
25.24628	39737
25.25440	37812
25.26253	44252
25.27065	38652
25.27878	44268
25.28690	39393
25.29502	41072
25.30315	43262
25.31127	41765
25.31938	42236
25.32752	42209
25.33563	40689
25.34377	39979
25.35188	39869
25.36000	39036
25.36813	39059
25.37625	43138
25.38438	39519
25.39250	42025
25.40062	42074
25.40875	38766
25.41687	44088
25.42500	41002
25.43312	40279
25.44123	40345
25.44937	43673
25.45748	41661
25.46560	42847
25.47373	39702
25.48185	38938
25.48998	42023
25.49810	42091
25.50622	40836
25.51435	42598
25.52247	42314
25.53060	40605
25.53872	40427
25.54683	40095
25.55497	42621
25.56308	39805
25.57120	40259
25.57933	40948
25.58745	41788
25.59558	39464
25.60370	39857
25.61182	40669
25.61995	41989
25.62807	42585
25.63620	38593
25.64432	37652
25.65243	38936
25.66057	41167
25.66868	39451
25.67682	37063
25.68493	37710
25.69305	39322
25.70118	39838
25.70930	39791
25.71742	41877
25.72555	41455
25.73367	44687
25.74180	42975
25.74992	39109
25.75803	41157
25.76617	40735
25.77428	38462
25.78242	39808
25.79053	36171
25.79865	45525
25.80678	40370
25.81490	42781
25.82303	41585
25.83115	41203
25.83927	40527
25.84740	41951
25.85552	42487
25.86363	42105
25.87177	42431
25.87988	41354
25.88802	41256
25.89613	42337
25.90425	35949
25.91238	45599
25.92050	38930
25.92863	41384
25.93675	42483
25.94487	42255
25.95300	41940
25.96112	41070
25.96923	43335
25.97737	43359
25.98548	40768
25.99362	40723
26.00173	41375
26.00985	40842
26.01798	39708
26.02610	39169
26.03423	42809
26.04235	41371
26.05047	43244
26.05860	40367
26.06672	40593
26.07485	40120
26.08297	41963
26.09108	41616
26.09922	43961
26.10733	44077
26.11545	47030
26.12358	37907
26.13170	43473
26.13983	42584
26.14795	42910
26.15607	43868
26.16420	42497
26.17232	42833
26.18045	39757
26.18857	42020
26.19668	41906
26.20482	43741
26.21293	40300
26.22107	42756
26.22918	45537
26.23730	42128
26.24543	45574
26.25355	41561
26.26167	43107
26.26980	42564
26.27792	43589
26.28605	41670
26.29417	46288
26.30228	40411
26.31042	48443
26.31853	43757
26.32667	42541
26.33478	42395
26.34290	44746
26.35103	41863
26.35915	41989
26.36727	39331
26.37540	41677
26.38352	42085
26.39165	41147
26.39977	41194
26.40788	40870
26.41602	41299
26.42413	42097
26.43227	40503
26.44038	44512
26.44850	41792
26.45663	44630
26.46475	43001
26.47288	44614
26.48100	43583
26.48912	44005
26.49725	39712
26.50537	44165
26.51348	41425
26.52162	45905
26.52973	43678
26.53787	42067
26.54598	42150
26.55410	42057
26.56223	40860
26.57035	46376
26.57848	42723
26.58660	43852
26.59472	43128
26.60285	45177
26.61097	42669
26.61908	43264
26.62722	43024
26.63533	44800
26.64347	43433
26.65158	42166
26.65970	44442
26.66783	42243
26.67595	46701
26.68408	44805
26.69220	44921
26.70032	44656
26.70845	42757
26.71657	45857
26.72470	45242
26.73282	45684
26.74093	46958
26.74907	46151
26.75718	42443
26.76530	45708
26.77343	44203
26.78155	46309
26.78968	50392
26.79780	43879
26.80592	42651
26.81405	42897
26.82217	51307
26.83030	44808
26.83842	45825
26.84653	44608
26.85467	50567
26.86278	42517
26.87092	49144
26.87903	43578
26.88715	46335
26.89528	44658
26.90340	44991
26.91152	48085
26.91965	45138
26.92777	44244
26.93590	46827
26.94402	51202
26.95213	48816
26.96027	49844
26.96838	46149
26.97652	46162
26.98463	48916
26.99275	48525
27.00088	47623
27.00900	45300
27.01712	49186
27.02525	48495
27.03337	50144
27.04150	51333
27.04962	48086
27.05773	49428
27.06587	44592
27.07398	51134
27.08212	45845
27.09023	50842
27.09835	46449
27.10648	45331
27.11460	46678
27.12273	46965
27.13085	46110
27.13897	46209
27.14710	47299
27.15522	49942
27.16333	47532
27.17147	43840
27.17958	44610
27.18772	46101
27.19583	48640
27.20395	45073
27.21208	45798
27.22020	45338
27.22833	46033
27.23645	46843
27.24457	50987
27.25270	47960
27.26082	46220
27.26895	50571
27.27707	47265
27.28518	44726
27.29332	45264
27.30143	44582
27.30955	48956
27.31768	46702
27.32580	47726
27.33393	49221
27.34205	46066
27.35017	46654
27.35830	47004
27.36642	47051
27.37455	46819
27.38267	46044
27.39078	47094
27.39892	51367
27.40703	49457
27.41515	44660
27.42328	50275
27.43140	48802
27.43953	47909
27.44765	44982
27.45577	45335
27.46390	51705
27.47202	52424
27.48015	50369
27.48827	45544
27.49638	46474
27.50452	46929
27.51263	46499
27.52077	50658
27.52888	47513
27.53700	47481
27.54513	46244
27.55325	46390
27.56137	50697
27.56950	46715
27.57762	52171
27.58575	49882
27.59387	49761
27.60198	47806
27.61012	50384
27.61823	51809
27.62637	48665
27.63448	49612
27.64260	49915
27.65073	47946
27.65885	49643
27.66698	49167
27.67510	52406
27.68322	48820
27.69135	52787
27.69947	48321
27.70758	51059
27.71572	48167
27.72383	50252
27.73197	53060
27.74008	48673
27.74820	50583
27.75633	51721
27.76445	45864
27.77258	49450
27.78070	50179
27.78882	48416
27.79695	48556
27.80507	50420
27.81318	50438
27.82132	50932
27.82943	47884
27.83757	51025
27.84568	52647
27.85380	55171
27.86193	51692
27.87005	51402
27.87818	50469
27.88630	45906
27.89442	50580
27.90255	53326
27.91067	48980
27.91880	49071
27.92692	49440
27.93503	46743
27.94317	53539
27.95128	54349
27.95940	51186
27.96753	54042
27.97565	53282
27.98378	47195
27.99190	48429
28.00002	49872
28.00815	52016
28.01627	51240
28.02440	53979
28.03252	53072
28.04063	53515
28.04877	49336
28.05688	50063
28.06500	49827
28.07313	48666
28.08125	49663
28.08938	50046
28.09750	50577
28.10562	51077
28.11375	54338
28.12187	50423
28.13000	54070
28.13812	53353
28.14623	51933
28.15437	53806
28.16248	54193
28.17062	50464
28.17873	51301
28.18685	53973
28.19498	48337
28.20310	51474
28.21122	53544
28.21935	53553
28.22747	50120
28.23560	50512
28.24372	49818
28.25183	54967
28.25997	52649
28.26808	51796
28.27622	51320
28.28433	50353
28.29245	50125
28.30058	51279
28.30870	51538
28.31683	49932
28.32495	53576
28.33307	54834
28.34120	60324
28.34932	54479
28.35743	56753
28.36557	51673
28.37368	50874
28.38182	56466
28.38993	53016
28.39805	55885
28.40618	51520
28.41430	53901
28.42243	51261
28.43055	51135
28.43867	51732
28.44680	55642
28.45492	54805
28.46303	57198
28.47117	57812
28.47928	51349
28.48742	49161
28.49553	50267
28.50365	54742
28.51178	54813
28.51990	53934
28.52803	54228
28.53615	56426
28.54427	55254
28.55240	56096
28.56052	54950
28.56865	60305
28.57677	57997
28.58488	54656
28.59302	58373
28.60113	54086
28.60925	56369
28.61738	54830
28.62550	52839
28.63363	55595
28.64175	58523
28.64987	59520
28.65800	54221
28.66612	54617
28.67425	56643
28.68237	56272
28.69048	54247
28.69862	55881
28.70673	59544
28.71487	58790
28.72298	56771
28.73110	57100
28.73923	55254
28.74735	60975
28.75547	56549
28.76360	58061
28.77172	55775
28.77985	54607
28.78797	55067
28.79608	54388
28.80422	56958
28.81233	60979
28.82047	56895
28.82858	55476
28.83670	54358
28.84483	57561
28.85295	62366
28.86107	60574
28.86920	57406
28.87732	56055
28.88545	55013
28.89357	56417
28.90168	59340
28.90982	56104
28.91793	55781
28.92607	53323
28.93418	53938
28.94230	54229
28.95043	52620
28.95855	60547
28.96668	62386
28.97480	58316
28.98292	56421
28.99105	58971
28.99917	58665
29.00728	55493
29.01542	57926
29.02353	59951
29.03167	55806
29.03978	55666
29.04790	59381
29.05603	58460
29.06415	58392
29.07228	63762
29.08040	55563
29.08852	62572
29.09665	61128
29.10477	55584
29.11288	58270
29.12102	59085
29.12913	59226
29.13727	59602
29.14538	58754
29.15350	65525
29.16163	56934
29.16975	61406
29.17788	61792
29.18600	57554
29.19412	64909
29.20225	57267
29.21037	58364
29.21850	62146
29.22662	60472
29.23473	58999
29.24287	60940
29.25098	57748
29.25910	62796
29.26723	59746
29.27535	61926
29.28348	59144
29.29160	56906
29.29972	60919
29.30785	59800
29.31597	59543
29.32410	59156
29.33222	60320
29.34033	63628
29.34847	60637
29.35658	63788
29.36472	60206
29.37283	60500
29.38095	58802
29.38908	62491
29.39720	63189
29.40532	62169
29.41345	63873
29.42157	61947
29.42970	61346
29.43782	65542
29.44593	62042
29.45407	61035
29.46218	64310
29.47032	58518
29.47843	63883
29.48655	62181
29.49468	67850
29.50280	62711
29.51093	65334
29.51905	61094
29.52717	60970
29.53530	61934
29.54342	59330
29.55153	63311
29.55967	60852
29.56778	62868
29.57592	61164
29.58403	62041
29.59215	60461
29.60028	64073
29.60840	62001
29.61653	60457
29.62465	62711
29.63277	62245
29.64090	62185
29.64902	62340
29.65713	61846
29.66527	65627
29.67338	61968
29.68152	65908
29.68963	60529
29.69775	63257
29.70588	63201
29.71400	65315
29.72213	67822
29.73025	62400
29.73837	65603
29.74650	65940
29.75462	66126
29.76275	63547
29.77087	65219
29.77898	60306
29.78712	64356
29.79523	63441
29.80335	63317
29.81148	65327
29.81960	68284
29.82773	61318
29.83585	62575
29.84397	62095
29.85210	64186
29.86022	62319
29.86835	69100
29.87647	69417
29.88458	70175
29.89272	68649
29.90083	66991
29.90895	68364
29.91708	66620
29.92520	67239
29.93333	65887
29.94145	67135
29.94957	64545
29.95770	72186
29.96582	70677
29.97395	73122
29.98207	67325
29.99018	67339
29.99832	67758
30.00643	67798
30.01457	70360
30.02268	63019
30.03080	69385
30.03893	63961
30.04705	68607
30.05517	70290
30.06330	68295
30.07142	66179
30.07955	72009
30.08767	70667
30.09578	66767
30.10392	70526
30.11203	66453
30.12017	70938
30.12828	66978
30.13640	71135
30.14453	69876
30.15265	66169
30.16078	68154
30.16890	68251
30.17702	71245
30.18515	74253
30.19327	70602
30.20138	68405
30.20952	70020
30.21763	65560
30.22577	71665
30.23388	68930
30.24200	68783
30.25013	72657
30.25825	69762
30.26638	68885
30.27450	68924
30.28262	71811
30.29075	69182
30.29887	70010
30.30698	70527
30.31512	68151
30.32323	68304
30.33137	71613
30.33948	68306
30.34760	72485
30.35573	71489
30.36385	70151
30.37198	68191
30.38010	72884
30.38822	71378
30.39635	71827
30.40447	68636
30.41260	69887
30.42072	67076
30.42883	69881
30.43697	66800
30.44508	69022
30.45320	66639
30.46133	68602
30.46945	71817
30.47758	68378
30.48570	69950
30.49382	73088
30.50195	72086
30.51007	75665
30.51820	69246
30.52632	70262
30.53443	71000
30.54257	71822
30.55068	67654
30.55882	68360
30.56693	72575
30.57505	77033
30.58318	73310
30.59130	74874
30.59942	73115
30.60755	74118
30.61567	70422
30.62380	77220
30.63192	75558
30.64003	81006
30.64817	74566
30.65628	76369
30.66442	72100
30.67253	74518
30.68065	79270
30.68878	76917
30.69690	74057
30.70502	75727
30.71315	74049
30.72127	75249
30.72940	71014
30.73752	71628
30.74563	73983
30.75377	75293
30.76188	73860
30.77002	75212
30.77813	74558
30.78625	75148
30.79438	74176
30.80250	73040
30.81063	72664
30.81875	77916
30.82687	74033
30.83500	75819
30.84312	73580
30.85123	75672
30.85937	73807
30.86748	77799
30.87562	72412
30.88373	75618
30.89185	78102
30.89998	75412
30.90810	76475
30.91623	77874
30.92435	74081
30.93247	73558
30.94060	79417
30.94872	75129
30.95683	79941
30.96497	78494
30.97308	74418
30.98122	77356
30.98933	74264
30.99745	81256
31.00558	76201
31.01370	77366
31.02183	75726
31.02995	77380
31.03807	76600
31.04620	73643
31.05432	77881
31.06245	75317
31.07057	82791
31.07868	77786
31.08682	79402
31.09493	81744
31.10305	83095
31.11118	81837
31.11930	77950
31.12743	83620
31.13555	76773
31.14367	78935
31.15180	76709
31.15992	82409
31.16805	84973
31.17617	80765
31.18428	82132
31.19242	79572
31.20053	85812
31.20867	80147
31.21678	81868
31.22490	82576
31.23303	77423
31.24115	80500
31.24927	80126
31.25740	74709
31.26552	81763
31.27365	80745
31.28177	78502
31.28988	76931
31.29802	79670
31.30613	82521
31.31427	79092
31.32238	86815
31.33050	85408
31.33863	83188
31.34675	80528
31.35487	80197
31.36300	80160
31.37112	81215
31.37925	83948
31.38737	81600
31.39548	81936
31.40362	84194
31.41173	79368
31.41987	80158
31.42798	82848
31.43610	82224
31.44423	81684
31.45235	83087
31.46048	86119
31.46860	81195
31.47672	82555
31.48485	82971
31.49297	80041
31.50108	83291
31.50922	81755
31.51733	81962
31.52547	77653
31.53358	82482
31.54170	85615
31.54983	87806
31.55795	85176
31.56608	83637
31.57420	81740
31.58232	87153
31.59045	85532
31.59857	84932
31.60670	83133
31.61482	86399
31.62293	81596
31.63107	84758
31.63918	90667
31.64730	84463
31.65543	87434
31.66355	82919
31.67168	84963
31.67980	87089
31.68792	85485
31.69605	88228
31.70417	89928
31.71230	85143
31.72042	85714
31.72853	87881
31.73667	85778
31.74478	85368
31.75290	87774
31.76103	82909
31.76915	89788
31.77728	90406
31.78540	90959
31.79352	87550
31.80165	89354
31.80977	84174
31.81790	91276
31.82602	87508
31.83413	87233
31.84227	88693
31.85038	89040
31.85852	88230
31.86663	93469
31.87475	89652
31.88288	88718
31.89100	91570
31.89912	91989
31.90725	89659
31.91537	85789
31.92350	87356
31.93162	90990
31.93973	89650
31.94787	97943
31.95598	92296
31.96412	90116
31.97223	90246
31.98035	92228
31.98848	96918
31.99660	97581
32.00472	93179
32.01285	95690
32.02097	94797
32.02910	91653
32.03722	92745
32.04533	91198
32.05347	97663
32.06158	98485
32.06972	90087
32.07783	94923
32.08595	91314
32.09408	95726
32.10220	94177
32.11033	93781
32.11845	97422
32.12657	100978
32.13470	92846
32.14282	94845
32.15093	94030
32.15907	97395
32.16718	97512
32.17532	95730
32.18343	95969
32.19155	93468
32.19968	94579
32.20780	100680
32.21593	97020
32.22405	97516
32.23217	93749
32.24030	96642
32.24842	93724
32.25655	95105
32.26467	95872
32.27278	95759
32.28092	97036
32.28903	98922
32.29715	98910
32.30528	96307
32.31340	97393
32.32153	95498
32.32965	97388
32.33777	95335
32.34590	99247
32.35402	100995
32.36215	98882
32.37027	101988
32.37838	100157
32.38652	97984
32.39463	98761
32.40275	101931
32.41088	96810
32.41900	100422
32.42713	94618
32.43525	105675
32.44337	99786
32.45150	97634
32.45962	99634
32.46775	97220
32.47587	99192
32.48398	99408
32.49212	101554
32.50023	101343
32.50837	97421
32.51648	103511
32.52460	104552
32.53273	102764
32.54085	102803
32.54897	100113
32.55710	105050
32.56522	99978
32.57335	104364
32.58147	102316
32.58958	107032
32.59772	105069
32.60583	103085
32.61397	106565
32.62208	94523
32.63020	106184
32.63833	104377
32.64645	100959
32.65458	99647
32.66270	96875
32.67082	105921
32.67895	101709
32.68707	100663
32.69518	105690
32.70332	101096
32.71143	101934
32.71957	101654
32.72768	106372
32.73580	102500
32.74393	106491
32.75205	111235
32.76018	108262
32.76830	106141
32.77642	102527
32.78455	110005
32.79267	104755
32.80078	103968
32.80892	105871
32.81703	103722
32.82517	108951
32.83328	108059
32.84140	107792
32.84953	107005
32.85765	103746
32.86578	105191
32.87390	107994
32.88202	108203
32.89015	106337
32.89827	106808
32.90640	109904
32.91452	108482
32.92263	111020
32.93077	110345
32.93888	110461
32.94700	113426
32.95513	110430
32.96325	108441
32.97138	110000
32.97950	107385
32.98762	108300
32.99575	109684
33.00387	112036
33.01200	109642
33.02012	110315
33.02823	105383
33.03637	111844
33.04448	111026
33.05262	108761
33.06073	112887
33.06885	115852
33.07698	114224
33.08510	110021
33.09322	110082
33.10135	113132
33.10947	111756
33.11760	112725
33.12572	113080
33.13383	113039
33.14197	112512
33.15008	115143
33.15822	114610
33.16633	121372
33.17445	114109
33.18258	119451
33.19070	112256
33.19882	114792
33.20695	119976
33.21507	114206
33.22320	116661
33.23132	118048
33.23943	117628
33.24757	113812
33.25568	112581
33.26382	115662
33.27193	115979
33.28005	113548
33.28818	114114
33.29630	114402
33.30443	116693
33.31255	120829
33.32067	117298
33.32880	117295
33.33692	115112
33.34503	110787
33.35317	118414
33.36128	119978
33.36942	124205
33.37753	123307
33.38565	122892
33.39378	120691
33.40190	116083
33.41003	123505
33.41815	126024
33.42627	119010
33.43440	117771
33.44252	113441
33.45063	116693
33.45877	118767
33.46688	121927
33.47502	118594
33.48313	121348
33.49125	117126
33.49938	115664
33.50750	118707
33.51563	121053
33.52375	121779
33.53187	121502
33.54000	118241
33.54812	121063
33.55625	121905
33.56437	116180
33.57248	120508
33.58062	119898
33.58873	124204
33.59685	120626
33.60498	126104
33.61310	122068
33.62123	121697
33.62935	124688
33.63747	127900
33.64560	125000
33.65372	125372
33.66185	124959
33.66997	118174
33.67808	124218
33.68622	119479
33.69433	129179
33.70247	127254
33.71058	120597
33.71870	125466
33.72683	121447
33.73495	128037
33.74307	129254
33.75120	127669
33.75932	124728
33.76745	124799
33.77557	129172
33.78368	128459
33.79182	127571
33.79993	131929
33.80807	127224
33.81618	126023
33.82430	132298
33.83243	129132
33.84055	132962
33.84867	134172
33.85680	135819
33.86492	135448
33.87305	133507
33.88117	137897
33.88928	134423
33.89742	137503
33.90553	131857
33.91367	134288
33.92178	130039
33.92990	138190
33.93803	137138
33.94615	132969
33.95428	135204
33.96240	135139
33.97052	137625
33.97865	138359
33.98677	136318
33.99488	136539
34.00302	135934
34.01113	144978
34.01927	137971
34.02738	138364
34.03550	139928
34.04363	141334
34.05175	144531
34.05988	141485
34.06800	138775
34.07612	142418
34.08425	142818
34.09237	140245
34.10050	139908
34.10862	140708
34.11673	140733
34.12487	138544
34.13298	146050
34.14110	143971
34.14923	144596
34.15735	145496
34.16548	142658
34.17360	144523
34.18172	146230
34.18985	138655
34.19797	146403
34.20610	145473
34.21422	143968
34.22233	147022
34.23047	142098
34.23858	151133
34.24670	148945
34.25483	148146
34.26295	147799
34.27108	146600
34.27920	147623
34.28732	149711
34.29545	144391
34.30357	144292
34.31170	143695
34.31982	149737
34.32793	145591
34.33607	146549
34.34418	141574
34.35232	146201
34.36043	151009
34.36855	146574
34.37668	144116
34.38480	150480
34.39292	147682
34.40105	150692
34.40917	149120
34.41730	145947
34.42542	146951
34.43353	145328
34.44167	149758
34.44978	144437
34.45792	147998
34.46603	145017
34.47415	146872
34.48228	147281
34.49040	144303
34.49852	145761
34.50665	147710
34.51477	151160
34.52290	155719
34.53102	150252
34.53913	150007
34.54727	148468
34.55538	150138
34.56352	155737
34.57163	150502
34.57975	152644
34.58788	151780
34.59600	154871
34.60413	150946
34.61225	155357
34.62037	151464
34.62850	152696
34.63662	152816
34.64473	158142
34.65287	153005
34.66098	148880
34.66912	154388
34.67723	157861
34.68535	157311
34.69348	157279
34.70160	155151
34.70973	149612
34.71785	156529
34.72597	162019
34.73410	153675
34.74222	158471
34.75035	158651
34.75847	158547
34.76658	161651
34.77472	161446
34.78283	163327
34.79095	159600
34.79908	157498
34.80720	162138
34.81533	167526
34.82345	162896
34.83157	165849
34.83970	162492
34.84782	157810
34.85595	160642
34.86407	162575
34.87218	163280
34.88032	161283
34.88843	159311
34.89657	160289
34.90468	159001
34.91280	163811
34.92093	168453
34.92905	166831
34.93717	169727
34.94530	162447
34.95342	169026
34.96155	166862
34.96967	165224
34.97778	166198
34.98592	160434
34.99403	167018
35.00217	170033
35.01028	166629
35.01840	171390
35.02653	167381
35.03465	168486
35.04277	166677
35.05090	169280
35.05902	170236
35.06715	171719
35.07527	167247
35.08338	170719
35.09152	173448
35.09963	171543
35.10777	172270
35.11588	172381
35.12400	166321
35.13213	170138
35.14025	172295
35.14838	172712
35.15650	171765
35.16462	166038
35.17275	174784
35.18087	170129
35.18898	173622
35.19712	173722
35.20523	170471
35.21337	174300
35.22148	184118
35.22960	171685
35.23773	174399
35.24585	177881
35.25398	180463
35.26210	182415
35.27022	178354
35.27835	178092
35.28647	178076
35.29458	175930
35.30272	174125
35.31083	190647
35.31897	181557
35.32708	183217
35.33520	178498
35.34333	176407
35.35145	175866
35.35958	173364
35.36770	180619
35.37582	183590
35.38395	184164
35.39207	183059
35.40020	184609
35.40832	183651
35.41643	181305
35.42457	180513
35.43268	183542
35.44080	180934
35.44893	189111
35.45705	185065
35.46518	186113
35.47330	181783
35.48142	185694
35.48955	191529
35.49767	183175
35.50580	192697
35.51392	189847
35.52203	191724
35.53017	187418
35.53828	195360
35.54640	196404
35.55453	192409
35.56265	197167
35.57078	192826
35.57890	192679
35.58702	196235
35.59515	193710
35.60327	197113
35.61140	194986
35.61952	192612
35.62763	187837
35.63577	199596
35.64388	196595
35.65202	197951
35.66013	202537
35.66825	196679
35.67638	188957
35.68450	200487
35.69262	196790
35.70075	197512
35.70887	198022
35.71700	201066
35.72512	203795
35.73323	194509
35.74137	199151
35.74948	203561
35.75762	202321
35.76573	201909
35.77385	200649
35.78198	207713
35.79010	205699
35.79823	200552
35.80635	204260
35.81447	203669
35.82260	197747
35.83072	204038
35.83883	212736
35.84697	207941
35.85508	214844
35.86322	205475
35.87133	202420
35.87945	210312
35.88758	211915
35.89570	207314
35.90383	210828
35.91195	208068
35.92007	203601
35.92820	209464
35.93632	212441
35.94445	204174
35.95257	209697
35.96068	207815
35.96882	209015
35.97693	212100
35.98505	210956
35.99318	212547
36.00130	210346
36.00943	218038
36.01755	210613
36.02567	207828
36.03380	210071
36.04192	211252
36.05005	215906
36.05817	212882
36.06628	218081
36.07442	220244
36.08253	213038
36.09065	210876
36.09878	215740
36.10690	209944
36.11503	215934
36.12315	214884
36.13127	211350
36.13940	215134
36.14752	220508
36.15565	219433
36.16377	219863
36.17188	222773
36.18002	215599
36.18813	218142
36.19627	216965
36.20438	208198
36.21250	222662
36.22063	216614
36.22875	218291
36.23687	216266
36.24500	211317
36.25312	218049
36.26125	212653
36.26937	215459
36.27748	219683
36.28562	226309
36.29373	219152
36.30187	223117
36.30998	226335
36.31810	226203
36.32623	227872
36.33435	216785
36.34247	221473
36.35060	225459
36.35872	225678
36.36685	224268
36.37497	226090
36.38308	230418
36.39122	222962
36.39933	233072
36.40747	225560
36.41558	235755
36.42370	234887
36.43183	231083
36.43995	243168
36.44808	236464
36.45620	228660
36.46432	228478
36.47245	230659
36.48057	236113
36.48868	232146
36.49682	222510
36.50493	228996
36.51307	229102
36.52118	228935
36.52930	226893
36.53743	231133
36.54555	233806
36.55368	232711
36.56180	229182
36.56992	228253
36.57805	232494
36.58617	238168
36.59430	232648
36.60242	229391
36.61053	237786
36.61867	236131
36.62678	239986
36.63490	242776
36.64303	243385
36.65115	242991
36.65928	234328
36.66740	240640
36.67552	239327
36.68365	243090
36.69177	247479
36.69990	244230
36.70802	248147
36.71613	252397
36.72427	242935
36.73238	246881
36.74050	249490
36.74863	249451
36.75675	250858
36.76488	249177
36.77300	251459
36.78112	261564
36.78925	252004
36.79737	245466
36.80550	248091
36.81362	251740
36.82173	259846
36.82987	248241
36.83798	253244
36.84612	244654
36.85423	250705
36.86235	256740
36.87048	256264
36.87860	255264
36.88672	255480
36.89485	251971
36.90297	258952
36.91110	254379
36.91922	252791
36.92733	258699
36.93547	254565
36.94358	255158
36.95172	255351
36.95983	259720
36.96795	262421
36.97608	260333
36.98420	267270
36.99233	254907
37.00045	264988
37.00857	264511
37.01670	259350
37.02482	260006
37.03293	256054
37.04107	268121
37.04918	266303
37.05732	264792
37.06543	266835
37.07355	268424
37.08168	262523
37.08980	275027
37.09793	261349
37.10605	264807
37.11417	272157
37.12230	266159
37.13042	260234
37.13853	269015
37.14667	269290
37.15478	270966
37.16292	262798
37.17103	267093
37.17915	264552
37.18728	266995
37.19540	272177
37.20353	272385
37.21165	262888
37.21977	270672
37.22790	270487
37.23602	279051
37.24415	270846
37.25227	276058
37.26038	270729
37.26852	273660
37.27663	270998
37.28475	270144
37.29288	272973
37.30100	270773
37.30913	272279
37.31725	272524
37.32537	269551
37.33350	273652
37.34162	271204
37.34975	273317
37.35787	271078
37.36598	277305
37.37412	277902
37.38223	264522
37.39035	270915
37.39848	275866
37.40660	277113
37.41473	278480
37.42285	280363
37.43097	279473
37.43910	279943
37.44722	275794
37.45535	283229
37.46347	276587
37.47158	280124
37.47972	286753
37.48783	273814
