C:\MassHunter\GCMS\1\data\JTB-E02\BACandBLUE\JTB-E18-016-04.D Thu Jun 27 08:47:25 2019
Start of data points
2.09530	23903
2.10342	24904
2.11155	26320
2.11967	26937
2.12778	28763
2.13592	34473
2.14403	35875
2.15217	33366
2.16028	37904
2.16840	37075
2.17653	40126
2.18465	38039
2.19277	38701
2.20090	36357
2.20902	34266
2.21715	35387
2.22527	32353
2.23338	37302
2.24152	32473
2.24963	31900
2.25777	30091
2.26588	48485
2.27400	584209
2.28213	2932232
2.29025	2633015
2.29837	953147
2.30650	472233
2.31462	338879
2.32275	303738
2.33087	267463
2.33898	242233
2.34712	220897
2.35523	174854
2.36337	169191
2.37148	146641
2.37960	139074
2.38773	147937
2.39585	128788
2.40398	126387
2.41210	121721
2.42022	121269
2.42835	119400
2.43647	110058
2.44458	106498
2.45272	120228
2.46083	114922
2.46897	96954
2.47708	91658
2.48520	90241
2.49333	111558
2.50145	144645
2.50958	118706
2.51770	102467
2.52582	97294
2.53395	91884
2.54207	86331
2.55020	90260
2.55832	90053
2.56643	91111
2.57457	83904
2.58268	78033
2.59080	75850
2.59893	76020
2.60705	73872
2.61518	81628
2.62330	92933
2.63142	82233
2.63955	74223
2.64767	77351
2.65580	69030
2.66392	71544
2.67203	69699
2.68017	67858
2.68828	67172
2.69640	63827
2.70453	67199
2.71265	63035
2.72078	62964
2.72890	60563
2.73702	59865
2.74515	59842
2.75327	59136
2.76140	57843
2.76952	55872
2.77763	58136
2.78577	57395
2.79388	60235
2.80202	57933
2.81013	56820
2.81825	55678
2.82638	56286
2.83450	56421
2.84262	56937
2.85075	55287
2.85887	52427
2.86700	57088
2.87512	54734
2.88323	54811
2.89137	58660
2.89948	52662
2.90762	60170
2.91573	53432
2.92385	52284
2.93198	51773
2.94010	50530
2.94823	51000
2.95635	51164
2.96447	53468
2.97260	51230
2.98072	50672
2.98883	50959
2.99697	49460
3.00508	48299
3.01322	50542
3.02133	49424
3.02945	48072
3.03758	45630
3.04570	48531
3.05383	48949
3.06195	50652
3.07007	47156
3.07820	46774
3.08632	45037
3.09443	45397
3.10257	58352
3.11068	86271
3.11882	103643
3.12693	97027
3.13505	78368
3.14318	75053
3.15130	66624
3.15943	59819
3.16755	55024
3.17567	55137
3.18380	55852
3.19192	57776
3.20005	54752
3.20817	55123
3.21628	51095
3.22442	50816
3.23253	49371
3.24065	51597
3.24878	50314
3.25690	48500
3.26503	50746
3.27315	46579
3.28127	60650
3.28940	198561
3.29752	1201909
3.30565	4492960
3.31377	9324534
3.32188	1.119143E+07
3.33002	9203028
3.33813	6471616
3.34627	4588185
3.35438	3512475
3.36250	2794239
3.37063	2305065
3.37875	1975182
3.38687	1687280
3.39500	1492973
3.40312	1316247
3.41125	1195837
3.41937	1088348
3.42748	1007914
3.43562	938637
3.44373	882153
3.45187	852836
3.45998	781225
3.46810	733215
3.47623	711037
3.48435	678977
3.49247	658242
3.50060	632044
3.50872	606562
3.51685	578753
3.52497	558022
3.53308	523933
3.54122	523723
3.54933	509155
3.55747	493059
3.56558	482988
3.57370	465855
3.58183	449804
3.58995	447329
3.59808	438578
3.60620	430773
3.61432	416220
3.62245	407793
3.63057	411579
3.63868	403033
3.64682	392664
3.65493	375472
3.66307	368599
3.67118	374161
3.67930	364823
3.68743	356216
3.69555	356630
3.70368	345385
3.71180	347483
3.71992	336513
3.72805	329728
3.73617	321727
3.74428	318172
3.75242	315221
3.76053	302594
3.76867	310210
3.77678	295601
3.78490	297707
3.79303	308004
3.80115	292789
3.80928	296236
3.81740	289108
3.82552	296219
3.83365	288555
3.84177	279370
3.84990	283169
3.85802	272421
3.86613	271465
3.87427	271494
3.88238	250046
3.89050	263572
3.89863	255136
3.90675	256541
3.91488	252499
3.92300	252759
3.93112	249082
3.93925	250093
3.94737	246307
3.95550	244449
3.96362	241819
3.97173	238289
3.97987	237097
3.98798	244313
3.99612	231236
4.00423	236262
4.01235	228354
4.02048	232377
4.02860	241758
4.03672	239632
4.04485	230875
4.05297	231397
4.06110	231650
4.06922	228377
4.07733	215469
4.08547	210871
4.09358	217373
4.10172	210841
4.10983	210464
4.11795	211163
4.12608	206817
4.13420	222290
4.14232	222736
4.15045	261625
4.15857	273044
4.16670	261032
4.17482	242349
4.18293	232010
4.19107	215683
4.19918	208973
4.20732	204856
4.21543	201439
4.22355	209331
4.23168	213518
4.23980	232852
4.24793	238234
4.25605	217512
4.26417	218299
4.27230	210110
4.28042	206317
4.28853	197779
4.29667	194511
4.30478	192825
4.31292	194104
4.32103	188597
4.32915	190957
4.33728	189611
4.34540	192578
4.35353	185720
4.36165	186841
4.36977	182264
4.37790	180209
4.38602	184125
4.39415	187846
4.40227	181179
4.41038	182629
4.41852	180005
4.42663	178353
4.43475	174053
4.44288	170663
4.45100	175112
4.45913	178150
4.46725	163028
4.47537	166400
4.48350	170111
4.49162	169283
4.49975	158975
4.50787	167235
4.51598	169885
4.52412	158327
4.53223	165844
4.54035	158019
4.54848	164354
4.55660	163726
4.56473	167818
4.57285	160139
4.58097	158753
4.58910	154264
4.59722	158015
4.60535	160932
4.61347	148069
4.62158	157249
4.62972	157033
4.63783	159119
4.64597	150642
4.65408	155068
4.66220	151672
4.67033	153166
4.67845	147157
4.68657	150270
4.69470	149205
4.70282	152608
4.71095	143211
4.71907	152352
4.72718	147718
4.73532	147990
4.74343	156563
4.75157	141878
4.75968	144691
4.76780	150034
4.77593	142949
4.78405	141439
4.79217	144535
4.80030	143915
4.80842	144879
4.81655	141541
4.82467	140422
4.83278	142748
4.84092	135332
4.84903	141844
4.85717	145566
4.86528	147158
4.87340	144530
4.88153	138442
4.88965	139019
4.89778	139011
4.90590	139531
4.91402	142009
4.92215	140694
4.93027	180034
4.93838	352779
4.94652	1029763
4.95463	2551636
4.96277	4589416
4.97088	5966942
4.97900	5817632
4.98713	4596072
4.99525	3251097
5.00338	2268535
5.01150	1722660
5.01962	1344432
5.02775	1136294
5.03587	964071
5.04400	872309
5.05212	761477
5.06023	712775
5.06837	642776
5.07648	612155
5.08460	567007
5.09273	539359
5.10085	506621
5.10898	502613
5.11710	478553
5.12522	457614
5.13335	447942
5.14147	424829
5.14960	414290
5.15772	412301
5.16583	399939
5.17397	391664
5.18208	375599
5.19020	370943
5.19833	379200
5.20645	360692
5.21458	348862
5.22270	347144
5.23082	364200
5.23895	386432
5.24707	431145
5.25520	428323
5.26332	407212
5.27143	381614
5.27957	319232
5.28768	332826
5.29582	306010
5.30393	302101
5.31205	296979
5.32018	302118
5.32830	291968
5.33642	288331
5.34455	280683
5.35267	281878
5.36080	286858
5.36892	271247
5.37703	262212
5.38517	264908
5.39328	267049
5.40142	260815
5.40953	257874
5.41765	253896
5.42578	253303
5.43390	239392
5.44203	251494
5.45015	234108
5.45827	240970
5.46640	247401
5.47452	239777
5.48263	240680
5.49077	233861
5.49888	227745
5.50702	226774
5.51513	233661
5.52325	227343
5.53138	232281
5.53950	220587
5.54763	222726
5.55575	219093
5.56387	217009
5.57200	218606
5.58012	220581
5.58823	215253
5.59637	210944
5.60448	208273
5.61262	217758
5.62073	216536
5.62885	224656
5.63698	225643
5.64510	225063
5.65323	233511
5.66135	227451
5.66947	215798
5.67760	232053
5.68572	236148
5.69385	258475
5.70197	265637
5.71008	246471
5.71822	233318
5.72633	219884
5.73445	210283
5.74258	209186
5.75070	198681
5.75883	194916
5.76695	207624
5.77507	195556
5.78320	190481
5.79132	197869
5.79945	190407
5.80757	184321
5.81568	188234
5.82382	185699
5.83193	184557
5.84005	177113
5.84818	185275
5.85630	188451
5.86443	186058
5.87255	182383
5.88067	182920
5.88880	173256
5.89692	173636
5.90505	169537
5.91317	153735
5.92128	130795
5.92942	125484
5.93753	112068
5.94567	118311
5.95378	118565
5.96190	115263
5.97003	117786
5.97815	116712
5.98627	130671
5.99440	127578
6.00252	126960
6.01065	123009
6.01877	123301
6.02688	113196
6.03502	116125
6.04313	115921
6.05127	115090
6.05938	119648
6.06750	112374
6.07563	111404
6.08375	112671
6.09188	114593
6.10000	112240
6.10812	114287
6.11625	108878
6.12437	113505
6.13248	112718
6.14062	116561
6.14873	119140
6.15687	117055
6.16498	120428
6.17310	119145
6.18123	123508
6.18935	119842
6.19748	123273
6.20560	128994
6.21372	122426
6.22185	125913
6.22997	131159
6.23810	126457
6.24622	130034
6.25433	129133
6.26247	129478
6.27058	129595
6.27870	137338
6.28683	137278
6.29495	136643
6.30308	139086
6.31120	137896
6.31932	144312
6.32745	136655
6.33557	140878
6.34370	145097
6.35182	143935
6.35993	142409
6.36807	144619
6.37618	146063
6.38430	148530
6.39243	147697
6.40055	147405
6.40868	146735
6.41680	149783
6.42492	154311
6.43305	150181
6.44117	151936
6.44930	161444
6.45742	151855
6.46553	160783
6.47367	164045
6.48178	164273
6.48992	163255
6.49803	162914
6.50615	162605
6.51428	156267
6.52240	163244
6.53052	162861
6.53865	145235
6.54677	133238
6.55490	131543
6.56302	125986
6.57113	125616
6.57927	120764
6.58738	119405
6.59552	111790
6.60363	113320
6.61175	116747
6.61988	118173
6.62800	112963
6.63612	108916
6.64425	110175
6.65237	110698
6.66050	115286
6.66862	109907
6.67673	107664
6.68487	108356
6.69298	102572
6.70112	106588
6.70923	103279
6.71735	105036
6.72548	100603
6.73360	104391
6.74173	100450
6.74985	100351
6.75797	97462
6.76610	101895
6.77422	104358
6.78233	102945
6.79047	98706
6.79858	102022
6.80672	96968
6.81483	100074
6.82295	95974
6.83108	98171
6.83920	93064
6.84733	93573
6.85545	91035
6.86357	74672
6.87170	64980
6.87982	55773
6.88795	52774
6.89607	57186
6.90418	52094
6.91232	55557
6.92043	51615
6.92855	52410
6.93668	49009
6.94480	51475
6.95293	50815
6.96105	52785
6.96917	55246
6.97730	50743
6.98542	50308
6.99355	49741
7.00167	53618
7.00978	53131
7.01792	54324
7.02603	53557
7.03415	55093
7.04228	52520
7.05040	52532
7.05853	51284
7.06665	56602
7.07477	54840
7.08290	49182
7.09102	49347
7.09915	55177
7.10727	49969
7.11538	52496
7.12352	51346
7.13163	52860
7.13977	50797
7.14788	53700
7.15600	51957
7.16413	54599
7.17225	53962
7.18037	53190
7.18850	51543
7.19662	52463
7.20475	51803
7.21287	59448
7.22098	58212
7.22912	51209
7.23723	52071
7.24537	53776
7.25348	48217
7.26160	51731
7.26973	52036
7.27785	50495
7.28598	47658
7.29410	52487
7.30222	46677
7.31035	52660
7.31847	52065
7.32658	46073
7.33472	51200
7.34283	50142
7.35097	49110
7.35908	51427
7.36720	48825
7.37533	49945
7.38345	52521
7.39158	52703
7.39970	51686
7.40782	52975
7.41595	56005
7.42407	48441
7.43218	52959
7.44032	53947
7.44843	63017
7.45657	59649
7.46468	64088
7.47280	61237
7.48093	61762
7.48905	57787
7.49718	51831
7.50530	51098
7.51342	53648
7.52155	52301
7.52967	48557
7.53780	52609
7.54592	49339
7.55403	53027
7.56217	51469
7.57028	51406
7.57840	50350
7.58653	50263
7.59465	50867
7.60278	51495
7.61090	48334
7.61902	52440
7.62715	47725
7.63527	48567
7.64340	46165
7.65152	50429
7.65963	50023
7.66777	51327
7.67588	48354
7.68400	51242
7.69213	47941
7.70025	49173
7.70838	48060
7.71650	45409
7.72462	47052
7.73275	46947
7.74087	47939
7.74900	46760
7.75712	46314
7.76523	47401
7.77337	48751
7.78148	44257
7.78962	47063
7.79773	46090
7.80585	47804
7.81398	46284
7.82210	45802
7.83022	48374
7.83835	45766
7.84647	43954
7.85460	46714
7.86272	42408
7.87083	43190
7.87897	42628
7.88708	44568
7.89522	43407
7.90333	40779
7.91145	46332
7.91958	42634
7.92770	42540
7.93583	41620
7.94395	47852
7.95207	42359
7.96020	42865
7.96832	42458
7.97643	45176
7.98457	47091
7.99268	47499
8.00082	47039
8.00893	44312
8.01705	46318
8.02518	40187
8.03330	45636
8.04143	45258
8.04955	40672
8.05767	43086
8.06580	42080
8.07392	45689
8.08203	42493
8.09017	46189
8.09828	40045
8.10642	41156
8.11453	44778
8.12265	43329
8.13078	42364
8.13890	44586
8.14703	42493
8.15515	40753
8.16327	43041
8.17140	46497
8.17952	46606
8.18765	44724
8.19577	47038
8.20388	44352
8.21202	42022
8.22013	41211
8.22825	41964
8.23638	44689
8.24450	39645
8.25263	40206
8.26075	36645
8.26887	42377
8.27700	41450
8.28512	39442
8.29325	41490
8.30137	41104
8.30948	41518
8.31762	44488
8.32573	42091
8.33387	42415
8.34198	43158
8.35010	48989
8.35823	45117
8.36635	48200
8.37447	48159
8.38260	41301
8.39072	39509
8.39885	43777
8.40697	40520
8.41508	41334
8.42322	43413
8.43133	39311
8.43947	41401
8.44758	42747
8.45570	42615
8.46383	37938
8.47195	37749
8.48007	40378
8.48820	41074
8.49632	40648
8.50445	42749
8.51257	43660
8.52068	43679
8.52882	47037
8.53693	45724
8.54507	47498
8.55318	46583
8.56130	44131
8.56943	41471
8.57755	44220
8.58568	53191
8.59380	242269
8.60192	573806
8.61005	394985
8.61817	155542
8.62628	96439
8.63442	77106
8.64253	71743
8.65067	64695
8.65878	59934
8.66690	59977
8.67503	59432
8.68315	56227
8.69128	55127
8.69940	58940
8.70752	56470
8.71565	55219
8.72377	61016
8.73190	57719
8.74002	54543
8.74813	62758
8.75627	79809
8.76438	164314
8.77250	382373
8.78063	800736
8.78875	1375359
8.79688	1754493
8.80500	1784596
8.81312	1441089
8.82125	1028947
8.82937	710314
8.83750	544763
8.84562	439303
8.85373	363828
8.86187	311486
8.86998	294902
8.87810	261269
8.88623	246928
8.89435	226454
8.90248	213937
8.91060	200206
8.91872	190865
8.92685	188894
8.93497	179232
8.94310	174871
8.95122	169038
8.95933	158460
8.96747	160730
8.97558	155377
8.98372	156881
8.99183	426241
8.99995	2043966
9.00808	3461733
9.01620	2468078
9.02432	1409406
9.03245	966292
9.04057	756426
9.04870	626467
9.05682	538297
9.06493	457531
9.07307	403092
9.08118	352258
9.08932	329641
9.09743	294537
9.10555	275828
9.11368	256886
9.12180	243142
9.12992	228403
9.13805	220006
9.14617	206372
9.15430	196071
9.16242	189374
9.17053	185135
9.17867	180675
9.18678	176749
9.19492	168262
9.20303	175966
9.21115	165354
9.21928	160078
9.22740	156680
9.23553	152413
9.24365	143033
9.25177	143503
9.25990	139093
9.26802	135715
9.27613	134989
9.28427	131102
9.29238	125415
9.30052	127522
9.30863	120036
9.31675	124869
9.32488	121399
9.33300	125791
9.34113	117403
9.34925	117609
9.35737	115965
9.36550	115970
9.37362	114320
9.38175	116250
9.38987	113147
9.39798	113756
9.40612	105935
9.41423	119703
9.42235	131165
9.43048	127402
9.43860	114331
9.44673	108389
9.45485	105786
9.46297	106068
9.47110	95684
9.47922	162540
9.48735	592498
9.49547	1592970
9.50358	1998876
9.51172	1471530
9.51983	923127
9.52795	654068
9.53608	523893
9.54420	431896
9.55233	360866
9.56045	311135
9.56857	268904
9.57670	236351
9.58482	212890
9.59295	195900
9.60107	177995
9.60918	169627
9.61732	150227
9.62543	141288
9.63357	135855
9.64168	125899
9.64980	112726
9.65793	116241
9.66605	111995
9.67417	103041
9.68230	99391
9.69042	102137
9.69855	90569
9.70667	94925
9.71478	90895
9.72292	82918
9.73103	79936
9.73917	84442
9.74728	78575
9.75540	77310
9.76353	78305
9.77165	83584
9.77978	76301
9.78790	77664
9.79602	73424
9.80415	71358
9.81227	70813
9.82038	73038
9.82852	74231
9.83663	69454
9.84477	69154
9.85288	70633
9.86100	70237
9.86913	70099
9.87725	70088
9.88538	68337
9.89350	70037
9.90162	66283
9.90975	65060
9.91787	65580
9.92598	73087
9.93412	82068
9.94223	79636
9.95037	73039
9.95848	69516
9.96660	62859
9.97473	61530
9.98285	63800
9.99098	72303
9.99910	78638
10.00722	83369
10.01535	84342
10.02347	82759
10.03160	84148
10.03972	75856
10.04783	83098
10.05597	73946
10.06408	76415
10.07220	70755
10.08033	70180
10.08845	74016
10.09658	69432
10.10470	64999
10.11282	64563
10.12095	61664
10.12907	61917
10.13720	65924
10.14532	63142
10.15343	65646
10.16157	65025
10.16968	70912
10.17780	71044
10.18593	73321
10.19405	78897
10.20218	85860
10.21030	90635
10.21842	97525
10.22655	102948
10.23467	102943
10.24280	113999
10.25092	114371
10.25903	89782
10.26717	89117
10.27528	82844
10.28342	76095
10.29153	76132
10.29965	80254
10.30778	80247
10.31590	80781
10.32402	79083
10.33215	81518
10.34027	80623
10.34840	77772
10.35652	76517
10.36463	72036
10.37277	74485
10.38088	69061
10.38902	67981
10.39713	70293
10.40525	66137
10.41338	69534
10.42150	65555
10.42963	66162
10.43775	64778
10.44587	65431
10.45400	66355
10.46212	68280
10.47023	61139
10.47837	67063
10.48648	62997
10.49462	60701
10.50273	63532
10.51085	62145
10.51898	65204
10.52710	61701
10.53523	63890
10.54335	61292
10.55147	62210
10.55960	59777
10.56772	57491
10.57585	59232
10.58397	57936
10.59208	59470
10.60022	57780
10.60833	56341
10.61645	59904
10.62458	60974
10.63270	56500
10.64083	62298
10.64895	57977
10.65707	56637
10.66520	61169
10.67332	59559
10.68145	56861
10.68957	55640
10.69768	56700
10.70582	56554
10.71393	57533
10.72205	54474
10.73018	55571
10.73830	54666
10.74643	56397
10.75455	56425
10.76267	54838
10.77080	55316
10.77892	58898
10.78705	58835
10.79517	58452
10.80328	56275
10.81142	54665
10.81953	48938
10.82767	54740
10.83578	50292
10.84390	55033
10.85203	54196
10.86015	54578
10.86827	55563
10.87640	51472
10.88452	49487
10.89265	51656
10.90077	50157
10.90888	52455
10.91702	52986
10.92513	49947
10.93327	52907
10.94138	51615
10.94950	50187
10.95763	53993
10.96575	52684
10.97387	53072
10.98200	57167
10.99012	57214
10.99825	50311
11.00637	52673
11.01448	51324
11.02262	53977
11.03073	52272
11.03887	51512
11.04698	52077
11.05510	61203
11.06323	97910
11.07135	210327
11.07948	378470
11.08760	518884
11.09572	488327
11.10385	372836
11.11197	265397
11.12008	204390
11.12822	172086
11.13633	143305
11.14447	122335
11.15258	113801
11.16070	104246
11.16883	101196
11.17695	95895
11.18508	102860
11.19320	102722
11.20132	101392
11.20945	98819
11.21757	94368
11.22570	90167
11.23382	82127
11.24193	74892
11.25007	67656
11.25818	69540
11.26630	60875
11.27443	65038
11.28255	60286
11.29068	60031
11.29880	57289
11.30692	58735
11.31505	59441
11.32317	56669
11.33130	55509
11.33942	55819
11.34753	56506
11.35567	51564
11.36378	53482
11.37190	52349
11.38003	51123
11.38815	52275
11.39628	53901
11.40440	52905
11.41252	54996
11.42065	49424
11.42877	53397
11.43690	50712
11.44502	45774
11.45313	54734
11.46127	51120
11.46938	53712
11.47752	50381
11.48563	49401
11.49375	53258
11.50188	50708
11.51000	53118
11.51812	50758
11.52625	49770
11.53437	52272
11.54250	48544
11.55062	52649
11.55873	50080
11.56687	49255
11.57498	48178
11.58312	50768
11.59123	46826
11.59935	48510
11.60748	49939
11.61560	54492
11.62373	45794
11.63185	46570
11.63997	47853
11.64810	48377
11.65622	47535
11.66433	46694
11.67247	45408
11.68058	44978
11.68872	48520
11.69683	48374
11.70495	49344
11.71308	49178
11.72120	55997
11.72933	50112
11.73745	52220
11.74557	51687
11.75370	51965
11.76182	54857
11.76993	55316
11.77807	55255
11.78618	54264
11.79432	52532
11.80243	51444
11.81055	50976
11.81868	50527
11.82680	48406
11.83493	47389
11.84305	48484
11.85117	46740
11.85930	52094
11.86742	47972
11.87555	46425
11.88367	48127
11.89178	46933
11.89992	51113
11.90803	46681
11.91615	45975
11.92428	47210
11.93240	49148
11.94053	45857
11.94865	51297
11.95677	46020
11.96490	50219
11.97302	45004
11.98115	50070
11.98927	48489
11.99738	51714
12.00552	49514
12.01363	50060
12.02175	51477
12.02988	51503
12.03800	49951
12.04613	50121
12.05425	47793
12.06237	47398
12.07050	45686
12.07862	51441
12.08675	51236
12.09487	47647
12.10298	44474
12.11112	46755
12.11923	48187
12.12737	46793
12.13548	49611
12.14360	52379
12.15173	45672
12.15985	51548
12.16797	49160
12.17610	49413
12.18422	49786
12.19235	50564
12.20047	46676
12.20858	47734
12.21672	47185
12.22483	47602
12.23297	46757
12.24108	45117
12.24920	45748
12.25733	47867
12.26545	47412
12.27358	49018
12.28170	51034
12.28982	49484
12.29795	49416
12.30607	44786
12.31418	54444
12.32232	54203
12.33043	49342
12.33857	49634
12.34668	46371
12.35480	48140
12.36293	46560
12.37105	46503
12.37918	48668
12.38730	50312
12.39542	49815
12.40355	44933
12.41167	42918
12.41978	46573
12.42792	54364
12.43603	48541
12.44417	50264
12.45228	47513
12.46040	49040
12.46853	48121
12.47665	49309
12.48478	50967
12.49290	47776
12.50102	47012
12.50915	44304
12.51727	46106
12.52540	45670
12.53352	46692
12.54163	45260
12.54977	47295
12.55788	49010
12.56600	51532
12.57413	48440
12.58225	46570
12.59038	48595
12.59850	44542
12.60662	47719
12.61475	48252
12.62287	44757
12.63100	44412
12.63912	46887
12.64723	42308
12.65537	44095
12.66348	42445
12.67162	45856
12.67973	47137
12.68785	42817
12.69598	44665
12.70410	47793
12.71222	42373
12.72035	46899
12.72847	45326
12.73660	48961
12.74472	47646
12.75283	46764
12.76097	47697
12.76908	50339
12.77722	49418
12.78533	51278
12.79345	46655
12.80158	47686
12.80970	44767
12.81782	45617
12.82595	46247
12.83407	44816
12.84220	43591
12.85032	41945
12.85843	40639
12.86657	44912
12.87468	48489
12.88282	44214
12.89093	43882
12.89905	41342
12.90718	42550
12.91530	43384
12.92343	43000
12.93155	44248
12.93967	44189
12.94780	39210
12.95592	41244
12.96403	43096
12.97217	46441
12.98028	45094
12.98842	44076
12.99653	51229
13.00465	44289
13.01278	43178
13.02090	44253
13.02903	47467
13.03715	44018
13.04527	46160
13.05340	44544
13.06152	46136
13.06965	42429
13.07777	44881
13.08588	44645
13.09402	41976
13.10213	44531
13.11025	44623
13.11838	42416
13.12650	45359
13.13463	42247
13.14275	44067
13.15087	44440
13.15900	43155
13.16712	47202
13.17525	42273
13.18337	45497
13.19148	45884
13.19962	53718
13.20773	49947
13.21585	54013
13.22398	53829
13.23210	45404
13.24023	46212
13.24835	42226
13.25647	39600
13.26460	45952
13.27272	42518
13.28085	47605
13.28897	45901
13.29708	45812
13.30522	44546
13.31333	44940
13.32147	43760
13.32958	40569
13.33770	46795
13.34583	40773
13.35395	51269
13.36207	44224
13.37020	47162
13.37832	46993
13.38645	41970
13.39457	42170
13.40268	42258
13.41082	38633
13.41893	45879
13.42707	43514
13.43518	46246
13.44330	42225
13.45143	45527
13.45955	45053
13.46767	41879
13.47580	43307
13.48392	42301
13.49205	40806
13.50017	45638
13.50828	43847
13.51642	41890
13.52453	41143
13.53267	39619
13.54078	42795
13.54890	42396
13.55703	44892
13.56515	40069
13.57328	42600
13.58140	40938
13.58952	41592
13.59765	42681
13.60577	45639
13.61388	42598
13.62202	42482
13.63013	47525
13.63827	43095
13.64638	43186
13.65450	43922
13.66263	44108
13.67075	43363
13.67888	46619
13.68700	41099
13.69512	45669
13.70325	45713
13.71137	42584
13.71950	43453
13.72762	41449
13.73573	48191
13.74387	42246
13.75198	45494
13.76010	48165
13.76823	51409
13.77635	52977
13.78448	57905
13.79260	63535
13.80072	63254
13.80885	64109
13.81697	62189
13.82510	65761
13.83322	62783
13.84133	65617
13.84947	61489
13.85758	59495
13.86570	60988
13.87383	61542
13.88195	58830
13.89008	60177
13.89820	60147
13.90632	65852
13.91445	63804
13.92257	57355
13.93070	62762
13.93882	59792
13.94693	64063
13.95507	64346
13.96318	60735
13.97132	61939
13.97943	60936
13.98755	62677
13.99568	58003
14.00380	59731
14.01192	61255
14.02005	62455
14.02817	59054
14.03630	63783
14.04442	65751
14.05253	58140
14.06067	57632
14.06878	66397
14.07692	63867
14.08503	59081
14.09315	63715
14.10128	63599
14.10940	63661
14.11753	59793
14.12565	61102
14.13377	60021
14.14190	60203
14.15002	63027
14.15813	63819
14.16627	77023
14.17438	103374
14.18252	175836
14.19063	293499
14.19875	429470
14.20688	541693
14.21500	547995
14.22313	469502
14.23125	355865
14.23937	260299
14.24750	214352
14.25562	181665
14.26373	161369
14.27187	153838
14.27998	139829
14.28812	133044
14.29623	128409
14.30435	118257
14.31248	114952
14.32060	124952
14.32873	112199
14.33685	104824
14.34497	97563
14.35310	85912
14.36122	83205
14.36935	71850
14.37747	69084
14.38558	61789
14.39372	60269
14.40183	62140
14.40995	57778
14.41808	56940
14.42620	58379
14.43433	57230
14.44245	59736
14.45057	57530
14.45870	59352
14.46682	56010
14.47495	60462
14.48307	58125
14.49118	58520
14.49932	51823
14.50743	58557
14.51555	57923
14.52368	56980
14.53180	55237
14.53993	53557
14.54805	57413
14.55617	52167
14.56430	57304
14.57242	56719
14.58055	51576
14.58867	53166
14.59678	55066
14.60492	55181
14.61303	54687
14.62117	50190
14.62928	52327
14.63740	54246
14.64553	51898
14.65365	52886
14.66177	52205
14.66990	51991
14.67802	51519
14.68615	52346
14.69427	53106
14.70238	49944
14.71052	50648
14.71863	49843
14.72677	49168
14.73488	51318
14.74300	124531
14.75113	483186
14.75925	465676
14.76738	182286
14.77550	116773
14.78362	123826
14.79175	143352
14.79987	180351
14.80798	205890
14.81612	203975
14.82423	173114
14.83237	148034
14.84048	115431
14.84860	105203
14.85673	97847
14.86485	90203
14.87298	82708
14.88110	82036
14.88922	77659
14.89735	80429
14.90547	76474
14.91358	72447
14.92172	72371
14.92983	357786
14.93797	4456352
14.94608	5471104
14.95420	2221164
14.96233	1224479
14.97045	833128
14.97858	615700
14.98670	496986
14.99482	402380
15.00295	348982
15.01107	306531
15.01920	274531
15.02732	243749
15.03543	231586
15.04357	202753
15.05168	180443
15.05980	179094
15.06793	164124
15.07605	166411
15.08418	315976
15.09230	2558554
15.10042	4356287
15.10855	2226517
15.11667	1180362
15.12480	783049
15.13292	579529
15.14103	472378
15.14917	383324
15.15728	332416
15.16542	285445
15.17353	259586
15.18165	232807
15.18978	207950
15.19790	194891
15.20602	179589
15.21415	163628
15.22227	159440
15.23040	151259
15.23852	150196
15.24663	138549
15.25477	136340
15.26288	133949
15.27102	127362
15.27913	119261
15.28725	122036
15.29538	116087
15.30350	112658
15.31162	110356
15.31975	102565
15.32787	101962
15.33600	99448
15.34412	95463
15.35223	99572
15.36037	101152
15.36848	108968
15.37662	106910
15.38473	98134
15.39285	95790
15.40098	108114
15.40910	112119
15.41723	99955
15.42535	93915
15.43347	103265
15.44160	124795
15.44972	135878
15.45783	143145
15.46597	138506
15.47408	124717
15.48222	112673
15.49033	105736
15.49845	104836
15.50658	104705
15.51470	106134
15.52283	95597
15.53095	102985
15.53907	96094
15.54720	97805
15.55532	92094
15.56343	88707
15.57157	91826
15.57968	99407
15.58782	261645
15.59593	841877
15.60405	1177085
15.61218	832834
15.62030	510932
15.62843	346387
15.63655	260370
15.64467	221432
15.65280	181655
15.66092	166703
15.66905	146258
15.67717	128412
15.68528	126491
15.69342	116043
15.70153	104590
15.70965	109729
15.71778	98828
15.72590	95014
15.73403	97926
15.74215	90831
15.75027	90419
15.75840	88413
15.76652	85219
15.77465	89013
15.78277	80332
15.79088	83943
15.79902	85826
15.80713	78634
15.81527	80092
15.82338	78768
15.83150	83543
15.83963	78270
15.84775	75171
15.85587	77130
15.86400	74684
15.87212	73330
15.88025	74780
15.88837	74257
15.89648	70478
15.90462	68201
15.91273	70742
15.92087	72538
15.92898	69231
15.93710	73849
15.94523	71426
15.95335	72736
15.96148	70495
15.96960	70860
15.97772	71970
15.98585	71770
15.99397	70280
16.00208	68391
16.01022	75151
16.01833	72757
16.02647	79073
16.03458	78052
16.04270	74073
16.05083	78672
16.05895	75109
16.06708	77318
16.07520	76686
16.08332	76953
16.09145	74310
16.09957	66364
16.10768	70010
16.11582	69673
16.12393	67921
16.13207	68643
16.14018	67937
16.14830	67082
16.15643	66042
16.16455	68356
16.17268	68571
16.18080	65049
16.18892	64621
16.19705	62672
16.20517	67123
16.21330	66282
16.22142	66817
16.22953	61357
16.23767	62533
16.24578	66446
16.25390	63066
16.26203	63254
16.27015	69569
16.27828	68689
16.28640	60153
16.29452	62513
16.30265	58408
16.31077	64497
16.31890	70063
16.32702	64991
16.33513	66196
16.34327	60484
16.35138	56851
16.35950	63065
16.36763	58812
16.37575	60706
16.38388	62572
16.39200	62522
16.40012	63958
16.40825	59543
16.41637	60376
16.42450	64166
16.43262	63861
16.44073	58058
16.44887	65966
16.45698	67958
16.46512	68194
16.47323	65709
16.48135	62489
16.48948	62176
16.49760	67218
16.50572	61399
16.51385	60560
16.52197	60877
16.53010	60768
16.53822	60655
16.54633	64905
16.55447	59109
16.56258	65732
16.57072	59719
16.57883	64471
16.58695	55588
16.59508	57890
16.60320	68051
16.61132	58476
16.61945	64770
16.62757	62616
16.63570	61624
16.64382	61449
16.65193	61933
16.66007	61533
16.66818	63015
16.67632	62372
16.68443	59087
16.69255	61008
16.70068	56283
16.70880	60637
16.71693	61792
16.72505	60377
16.73317	62127
16.74130	63526
16.74942	56670
16.75753	58825
16.76567	58227
16.77378	55977
16.78192	56906
16.79003	57910
16.79815	55942
16.80628	53554
16.81440	60851
16.82253	54619
16.83065	58651
16.83877	60226
16.84690	58815
16.85502	53640
16.86315	56264
16.87127	58556
16.87938	58942
16.88752	58885
16.89563	54670
16.90375	58417
16.91188	59259
16.92000	58205
16.92813	64740
16.93625	60189
16.94437	57435
16.95250	56876
16.96062	57900
16.96875	56823
16.97687	64627
16.98498	58890
16.99312	58674
17.00123	57966
17.00937	53986
17.01748	51905
17.02560	51074
17.03373	55740
17.04185	55967
17.04997	52383
17.05810	52168
17.06622	57058
17.07435	57292
17.08247	55400
17.09058	56419
17.09872	54870
17.10683	56699
17.11497	54905
17.12308	54891
17.13120	56250
17.13933	58526
17.14745	51427
17.15557	56803
17.16370	64351
17.17182	98833
17.17995	179239
17.18807	247192
17.19618	236797
17.20432	180318
17.21243	134885
17.22057	111208
17.22868	95815
17.23680	83450
17.24493	81114
17.25305	76126
17.26118	74663
17.26930	66950
17.27742	64292
17.28555	62276
17.29367	61855
17.30178	65124
17.30992	56731
17.31803	60819
17.32617	59199
17.33428	58551
17.34240	57406
17.35053	60985
17.35865	63783
17.36678	65296
17.37490	69130
17.38302	69324
17.39115	67630
17.39927	64811
17.40738	64386
17.41552	65236
17.42363	59894
17.43177	59975
17.43988	63990
17.44800	60754
17.45613	57279
17.46425	56434
17.47238	58717
17.48050	55139
17.48862	56229
17.49675	56872
17.50487	59188
17.51300	57507
17.52112	55549
17.52923	57188
17.53737	56512
17.54548	56076
17.55360	54644
17.56173	53792
17.56985	54628
17.57798	52481
17.58610	56800
17.59422	56068
17.60235	52798
17.61047	53076
17.61860	50645
17.62672	54863
17.63483	50735
17.64297	55035
17.65108	47938
17.65922	51059
17.66733	49032
17.67545	59761
17.68358	57553
17.69170	56014
17.69982	53882
17.70795	59303
17.71607	55972
17.72420	57990
17.73232	52982
17.74043	55773
17.74857	51162
17.75668	53678
17.76482	50512
17.77293	56458
17.78105	50030
17.78918	49499
17.79730	52357
17.80542	50989
17.81355	49549
17.82167	50127
17.82980	47425
17.83792	46259
17.84603	48638
17.85417	48441
17.86228	51581
17.87042	51983
17.87853	48634
17.88665	50593
17.89478	46954
17.90290	46062
17.91103	49958
17.91915	46596
17.92727	45213
17.93540	46494
17.94352	44276
17.95163	50529
17.95977	47361
17.96788	47948
17.97602	44115
17.98413	47040
17.99225	45757
18.00038	44893
18.00850	46090
18.01663	46025
18.02475	44621
18.03287	48951
18.04100	50202
18.04912	48788
18.05725	47184
18.06537	50302
18.07348	52458
18.08162	53348
18.08973	58224
18.09785	61277
18.10598	66264
18.11410	67646
18.12223	61036
18.13035	64040
18.13847	61229
18.14660	62493
18.15472	62445
18.16285	64666
18.17097	60775
18.17908	62458
18.18722	58079
18.19533	62492
18.20345	57862
18.21158	62847
18.21970	55682
18.22783	58931
18.23595	58654
18.24407	55647
18.25220	58859
18.26032	56555
18.26845	54041
18.27657	54299
18.28468	58113
18.29282	53964
18.30093	49322
18.30907	48158
18.31718	46329
18.32530	43212
18.33343	48149
18.34155	47885
18.34967	48736
18.35780	46959
18.36592	46762
18.37405	45780
18.38217	49525
18.39028	47726
18.39842	46974
18.40653	48282
18.41467	44886
18.42278	44286
18.43090	47198
18.43903	48705
18.44715	49943
18.45527	51168
18.46340	45798
18.47152	44864
18.47965	46197
18.48777	48807
18.49588	45543
18.50402	44586
18.51213	48058
18.52027	49005
18.52838	48198
18.53650	44382
18.54463	46415
18.55275	49007
18.56088	45880
18.56900	50540
18.57712	43049
18.58525	41785
18.59337	40685
18.60148	43887
18.60962	46859
18.61773	47384
18.62587	47957
18.63398	45637
18.64210	45110
18.65023	45007
18.65835	43446
18.66648	47501
18.67460	41671
18.68272	45424
18.69085	47812
18.69897	44983
18.70710	43745
18.71522	43420
18.72333	43079
18.73147	48241
18.73958	44309
18.74770	43728
18.75583	47554
18.76395	42450
18.77208	41833
18.78020	42445
18.78832	44326
18.79645	40155
18.80457	46320
18.81270	44164
18.82082	47642
18.82893	47341
18.83707	41800
18.84518	43929
18.85330	43816
18.86143	42897
18.86955	41885
18.87768	42595
18.88580	43639
18.89392	40159
18.90205	41365
18.91017	48046
18.91830	43131
18.92642	42604
18.93453	39781
18.94267	44835
18.95078	43895
18.95892	50596
18.96703	57092
18.97515	62057
18.98328	70268
18.99140	75592
18.99952	80872
19.00765	82662
19.01577	85212
19.02390	86938
19.03202	84844
19.04013	85528
19.04827	89180
19.05638	93622
19.06452	96833
19.07263	94759
19.08075	94612
19.08888	94851
19.09700	102119
19.10513	106869
19.11325	107896
19.12137	104255
19.12950	111198
19.13762	107683
19.14573	107329
19.15387	104598
19.16198	101939
19.17012	99705
19.17823	102589
19.18635	104367
19.19448	110371
19.20260	107001
19.21073	104434
19.21885	103210
19.22697	106915
19.23510	105567
19.24322	99718
19.25133	98486
19.25947	97933
19.26758	97195
19.27572	95907
19.28383	101644
19.29195	96270
19.30008	95295
19.30820	95039
19.31633	103832
19.32445	96622
19.33257	101151
19.34070	96371
19.34882	96963
19.35695	92837
19.36507	96440
19.37318	96228
19.38132	94564
19.38943	90914
19.39755	92601
19.40568	93349
19.41380	95146
19.42193	94266
19.43005	89780
19.43817	89759
19.44630	86611
19.45442	91602
19.46255	95236
19.47067	93984
19.47878	121753
19.48692	165237
19.49503	224533
19.50317	291330
19.51128	320424
19.51940	308005
19.52753	248274
19.53565	198073
19.54377	145931
19.55190	122437
19.56002	104669
19.56815	97279
19.57627	89994
19.58438	91419
19.59252	93856
19.60063	113750
19.60877	119169
19.61688	129360
19.62500	139705
19.63313	146972
19.64125	157452
19.64937	193022
19.65750	240586
19.66562	319581
19.67375	359751
19.68187	374234
19.68998	345469
19.69812	287052
19.70623	234689
19.71437	198013
19.72248	165873
19.73060	143905
19.73873	129805
19.74685	117485
19.75498	109798
19.76310	105599
19.77122	99030
19.77935	94326
19.78747	88231
19.79558	84388
19.80372	85223
19.81183	83120
19.81997	83598
19.82808	86264
19.83620	80805
19.84433	79723
19.85245	79519
19.86058	80271
19.86870	83186
19.87682	92859
19.88495	109831
19.89307	131935
19.90118	158694
19.90932	210086
19.91743	235179
19.92557	256523
19.93368	272278
19.94180	271412
19.94993	270946
19.95805	265326
19.96618	263069
19.97430	237726
19.98242	235566
19.99055	222314
19.99867	219918
20.00680	202552
20.01492	201035
20.02303	191831
20.03117	187442
20.03928	176933
20.04740	162559
20.05553	143066
20.06365	129436
20.07178	118547
20.07990	98194
20.08802	94124
20.09615	95397
20.10427	90936
20.11240	91042
20.12052	92788
20.12863	92385
20.13677	85339
20.14488	90239
20.15302	89733
20.16113	87638
20.16925	90615
20.17738	86820
20.18550	83268
20.19362	83811
20.20175	86240
20.20987	84227
20.21800	81020
20.22612	81933
20.23423	80683
20.24237	95156
20.25048	109404
20.25862	144842
20.26673	184816
20.27485	235826
20.28298	258538
20.29110	277430
20.29922	261112
20.30735	236672
20.31547	188962
20.32360	160190
20.33172	135405
20.33983	121097
20.34797	106623
20.35608	90911
20.36422	95924
20.37233	96447
20.38045	105265
20.38858	126246
20.39670	139902
20.40483	136253
20.41295	136578
20.42107	129196
20.42920	134715
20.43732	134910
20.44543	141156
20.45357	145702
20.46168	147215
20.46982	136049
20.47793	123615
20.48605	112107
20.49418	101738
20.50230	93935
20.51043	88887
20.51855	87827
20.52667	82136
20.53480	79346
20.54292	76219
20.55105	75233
20.55917	77081
20.56728	79433
20.57542	79417
20.58353	75591
20.59165	69995
20.59978	74131
20.60790	74282
20.61603	74978
20.62415	76736
20.63227	69009
20.64040	71761
20.64852	71501
20.65665	73941
20.66477	72449
20.67288	71182
20.68102	70021
20.68913	64978
20.69725	67595
20.70538	68973
20.71350	66377
20.72163	64675
20.72975	67305
20.73787	65078
20.74600	65500
20.75412	66232
20.76225	65750
20.77037	62475
20.77848	59658
20.78662	65565
20.79473	61561
20.80287	63660
20.81098	59967
20.81910	64895
20.82723	64780
20.83535	61558
20.84347	60729
20.85160	63566
20.85972	64121
20.86785	67141
20.87597	65569
20.88408	60184
20.89222	61353
20.90033	62136
20.90847	60060
20.91658	55352
20.92470	57297
20.93283	53158
20.94095	58660
20.94907	56254
20.95720	56851
20.96532	53466
20.97345	52911
20.98157	55076
20.98968	48433
20.99782	53559
21.00593	56714
21.01407	53023
21.02218	50438
21.03030	51487
21.03843	54993
21.04655	58723
21.05468	65439
21.06280	70539
21.07092	68878
21.07905	65511
21.08717	65266
21.09528	58048
21.10342	56878
21.11153	56388
21.11967	50280
21.12778	48652
21.13590	53337
21.14403	52106
21.15215	51645
21.16028	50793
21.16840	51835
21.17652	50603
21.18465	46160
21.19277	54819
21.20090	49389
21.20902	51405
21.21713	51603
21.22527	48296
21.23338	53393
21.24150	50276
21.24963	54584
21.25775	50517
21.26588	51349
21.27400	52652
21.28212	52290
21.29025	46935
21.29837	50626
21.30650	52025
21.31462	53558
21.32273	50673
21.33087	55540
21.33898	59638
21.34710	59043
21.35523	61868
21.36335	62360
21.37148	56679
21.37960	55601
21.38772	51148
21.39585	50961
21.40397	56070
21.41210	49924
21.42022	52802
21.42833	48318
21.43647	47621
21.44458	50367
21.45272	51268
21.46083	54970
21.46895	56708
21.47708	51279
21.48520	54772
21.49332	58232
21.50145	55811
21.50957	57259
21.51770	55549
21.52582	57434
21.53393	58931
21.54207	57434
21.55018	59340
21.55832	59961
21.56643	57192
21.57455	59826
21.58268	56941
21.59080	62577
21.59893	64899
21.60705	72245
21.61517	77366
21.62330	93800
21.63142	112302
21.63953	121432
21.64767	124965
21.65578	109853
21.66392	96203
21.67203	83525
21.68015	83443
21.68828	70750
21.69640	68651
21.70453	64067
21.71265	70228
21.72077	65800
21.72890	63731
21.73702	68258
21.74513	64664
21.75327	60987
21.76138	57881
21.76952	59972
21.77763	58496
21.78575	63880
21.79388	61555
21.80200	63976
21.81013	67970
21.81825	80751
21.82637	92021
21.83450	95546
21.84262	96873
21.85075	92037
21.85887	87768
21.86698	79210
21.87512	71007
21.88323	66469
21.89135	58600
21.89948	64742
21.90760	60566
21.91573	66471
21.92385	62031
21.93197	64218
21.94010	61321
21.94822	62703
21.95635	57723
21.96447	61232
21.97258	53220
21.98072	53805
21.98883	50344
21.99695	48971
22.00508	49937
22.01320	49324
22.02133	52487
22.02945	49694
22.03757	50212
22.04570	47929
22.05382	47170
22.06195	48088
22.07007	48262
22.07818	45748
22.08632	49262
22.09443	47106
22.10257	51590
22.11068	51444
22.11880	49591
22.12693	48211
22.13505	48975
22.14317	52320
22.15130	47003
22.15942	51317
22.16755	50435
22.17567	50433
22.18378	48933
22.19192	54712
22.20003	47951
22.20817	55298
22.21628	56007
22.22440	55453
22.23253	57499
22.24065	55625
22.24878	52635
22.25690	50605
22.26502	48583
22.27315	46940
22.28127	51132
22.28938	48510
22.29752	47517
22.30563	46418
22.31377	48617
22.32188	51635
22.33000	50400
22.33813	51249
22.34625	44985
22.35438	47475
22.36250	48295
22.37062	47461
22.37875	44633
22.38687	48193
22.39500	43164
22.40312	45102
22.41123	45899
22.41937	46619
22.42748	44138
22.43560	42568
22.44373	44149
22.45185	47748
22.45998	44938
22.46810	47909
22.47622	51309
22.48435	43791
22.49247	45340
22.50060	48402
22.50872	43844
22.51683	47337
22.52497	44942
22.53308	42862
22.54120	48848
22.54933	47524
22.55745	43045
22.56558	44814
22.57370	42155
22.58182	42145
22.58995	44150
22.59807	42346
22.60620	43026
22.61432	42270
22.62243	40593
22.63057	38256
22.63868	42655
22.64682	38161
22.65493	36641
22.66305	38167
22.67118	36859
22.67930	41394
22.68742	39368
22.69555	42844
22.70367	40756
22.71180	42707
22.71992	41571
22.72803	39562
22.73617	42657
22.74428	41093
22.75242	41138
22.76053	40806
22.76865	37830
22.77678	39504
22.78490	41026
22.79302	37658
22.80115	38233
22.80927	39214
22.81740	35274
22.82552	42180
22.83363	41749
22.84177	43322
22.84988	47479
22.85802	43467
22.86613	46586
22.87425	42800
22.88238	44883
22.89050	45885
22.89863	44085
22.90675	47666
22.91487	52250
22.92300	58758
22.93112	61100
22.93923	71867
22.94737	73114
22.95548	67617
22.96362	68072
22.97173	58666
22.97985	63872
22.98798	64207
22.99610	55183
23.00423	50227
23.01235	51141
23.02047	50045
23.02860	42158
23.03672	47590
23.04485	39157
23.05297	39351
23.06108	42004
23.06922	42464
23.07733	39391
23.08545	39816
23.09358	43573
23.10170	36433
23.10983	39639
23.11795	41828
23.12607	37329
23.13420	37872
23.14232	38044
23.15045	40799
23.15857	43937
23.16668	38301
23.17482	45817
23.18293	43040
23.19105	43084
23.19918	44891
23.20730	46143
23.21543	46040
23.22355	40717
23.23167	38452
23.23980	43063
23.24792	37367
23.25605	39298
23.26417	40393
23.27228	41943
23.28042	41793
23.28853	39659
23.29667	42657
23.30478	41687
23.31290	39508
23.32103	39157
23.32915	40310
23.33727	38699
23.34540	42612
23.35352	39536
23.36165	41651
23.36977	38335
23.37788	44075
23.38602	42113
23.39413	40100
23.40227	42985
23.41038	42743
23.41850	41250
23.42663	42603
23.43475	47579
23.44288	46610
23.45100	45738
23.45912	42560
23.46725	48568
23.47537	40454
23.48348	40058
23.49162	44272
23.49973	42455
23.50787	43678
23.51598	39731
23.52410	40352
23.53223	42682
23.54035	44750
23.54848	43127
23.55660	38552
23.56472	39243
23.57285	41305
23.58097	41967
23.58908	46773
23.59722	44313
23.60533	48987
23.61347	50243
23.62158	49682
23.62970	52262
23.63783	50620
23.64595	51891
23.65408	52452
23.66220	53573
23.67032	52485
23.67845	50096
23.68657	56062
23.69470	52300
23.70282	48836
23.71093	51098
23.71907	51309
23.72718	52968
23.73530	76382
23.74343	140534
23.75155	341917
23.75968	859668
23.76780	2003301
23.77592	3517867
23.78405	4825166
23.79217	5356013
23.80030	5190261
23.80842	4309199
23.81653	3427182
23.82467	2536735
23.83278	1801004
23.84090	1346186
23.84903	997150
23.85715	779052
23.86528	686398
23.87340	689682
23.88152	778916
23.88965	941728
23.89777	1040621
23.90590	1073738
23.91402	1009557
23.92213	901150
23.93027	751241
23.93838	612499
23.94652	508579
23.95463	425865
23.96275	364349
23.97088	321072
23.97900	291353
23.98712	259423
23.99525	237944
24.00337	220304
24.01150	215750
24.01962	198935
24.02773	178754
24.03587	178319
24.04398	169739
24.05212	171573
24.06023	157249
24.06835	153166
24.07648	150511
24.08460	146718
24.09273	140651
24.10085	138597
24.10897	135860
24.11710	131915
24.12522	135141
24.13333	137848
24.14147	140674
24.14958	133594
24.15772	125512
24.16583	120365
24.17395	115555
24.18208	118548
24.19020	115689
24.19833	115093
24.20645	122900
24.21457	122166
24.22270	119161
24.23082	125166
24.23893	110790
24.24707	108365
24.25518	100120
24.26332	97997
24.27143	95289
24.27955	94490
24.28768	86231
24.29580	94869
24.30393	91672
24.31205	87546
24.32017	88860
24.32830	85692
24.33642	85854
24.34455	83477
24.35267	81359
24.36078	89114
24.36892	94337
24.37703	123364
24.38515	174681
24.39328	254179
24.40140	368484
24.40953	551462
24.41765	773303
24.42577	926908
24.43390	972017
24.44202	920808
24.45015	768563
24.45827	617654
24.46638	482114
24.47452	389926
24.48263	317562
24.49077	273106
24.49888	254184
24.50700	235254
24.51513	216178
24.52325	193783
24.53137	177288
24.53950	165395
24.54762	151455
24.55575	139129
24.56387	129176
24.57198	124354
24.58012	123422
24.58823	128036
24.59637	130263
24.60448	127012
24.61260	137743
24.62073	126530
24.62885	119889
24.63697	110801
24.64510	105645
24.65322	104633
24.66135	101860
24.66947	104757
24.67758	97382
24.68572	98285
24.69383	87598
24.70197	84957
24.71008	83222
24.71820	76995
24.72633	75371
24.73445	76602
24.74258	77838
24.75070	74598
24.75882	75122
24.76695	73758
24.77507	72710
24.78318	71939
24.79132	76820
24.79943	72052
24.80757	71413
24.81568	70517
24.82380	73721
24.83193	65034
24.84005	68250
24.84818	62819
24.85630	67201
24.86442	64884
24.87255	69448
24.88067	66688
24.88880	64540
24.89692	68531
24.90503	66282
24.91317	66054
24.92128	63936
24.92940	62809
24.93753	65424
24.94565	62823
24.95378	62274
24.96190	61212
24.97002	62059
24.97815	66646
24.98627	61533
24.99440	64001
25.00252	60358
25.01063	64621
25.01877	62846
25.02688	64805
25.03500	57151
25.04313	61091
25.05125	58535
25.05938	59797
25.06750	58033
25.07562	61952
25.08375	60284
25.09187	59337
25.10000	58174
25.10812	64585
25.11623	65298
25.12437	73157
25.13248	83226
25.14062	98965
25.14873	109256
25.15685	115337
25.16498	115779
25.17310	118004
25.18122	101530
25.18935	90649
25.19747	79110
25.20560	77739
25.21372	73854
25.22183	69702
25.22997	63561
25.23808	67436
25.24622	66099
25.25433	63733
25.26245	62541
25.27058	64401
25.27870	64033
25.28682	65361
25.29495	70728
25.30307	71363
25.31120	74356
25.31932	76784
25.32743	72754
25.33557	69308
25.34368	68425
25.35182	66945
25.35993	58876
25.36805	59178
25.37618	57782
25.38430	58078
25.39243	54587
25.40055	49251
25.40867	58868
25.41680	50506
25.42492	49742
25.43303	51633
25.44117	53852
25.44928	54849
25.45742	55698
25.46553	58743
25.47365	58112
25.48178	59164
25.48990	58484
25.49803	55171
25.50615	54186
25.51427	54398
25.52240	52433
25.53052	50834
25.53865	55382
25.54677	49743
25.55488	48835
25.56302	53127
25.57113	49304
25.57925	45818
25.58738	47448
25.59550	47171
25.60363	43533
25.61175	46414
25.61987	46319
25.62800	46110
25.63612	45625
25.64425	44385
25.65237	43362
25.66048	46441
25.66862	46086
25.67673	45498
25.68485	45943
25.69298	39496
25.70110	42452
25.70923	42918
25.71735	45096
25.72547	44908
25.73360	45769
25.74172	43636
25.74985	50031
25.75797	47380
25.76608	44609
25.77422	46756
25.78233	43704
25.79047	43637
25.79858	45429
25.80670	46943
25.81483	48921
25.82295	50565
25.83107	49692
25.83920	49735
25.84732	45364
25.85545	46162
25.86357	46091
25.87168	46094
25.87982	46450
25.88793	43156
25.89607	43056
25.90418	43181
25.91230	41695
25.92043	45204
25.92855	45894
25.93668	45125
25.94480	44078
25.95292	42183
25.96105	41120
25.96917	44124
25.97728	40869
25.98542	43862
25.99353	42034
26.00167	40635
26.00978	42343
26.01790	41530
26.02603	43999
26.03415	45185
26.04228	40063
26.05040	42283
26.05852	44008
26.06665	46270
26.07477	43303
26.08288	40773
26.09102	46372
26.09913	42790
26.10727	44770
26.11538	51225
26.12350	52868
26.13163	56543
26.13975	55370
26.14788	58467
26.15600	60991
26.16412	57717
26.17225	54722
26.18037	59515
26.18850	51378
26.19662	50620
26.20473	49071
26.21287	50172
26.22098	43375
26.22910	47667
26.23723	51817
26.24535	49776
26.25348	51540
26.26160	53132
26.26972	46945
26.27785	50877
26.28597	48761
26.29410	47542
26.30222	51789
26.31033	44692
26.31847	45966
26.32658	41636
26.33470	44976
26.34283	45731
26.35095	44070
26.35908	41875
26.36720	44864
26.37532	46156
26.38345	44290
26.39157	43959
26.39970	49012
26.40782	47735
26.41593	48004
26.42407	47425
26.43218	43828
26.44032	41316
26.44843	41774
26.45655	42944
26.46468	45198
26.47280	41642
26.48092	43286
26.48905	44630
26.49717	44918
26.50530	42671
26.51342	41710
26.52153	44398
26.52967	41486
26.53778	39110
26.54592	41000
26.55403	38943
26.56215	41130
26.57028	38952
26.57840	40107
26.58653	41138
26.59465	43028
26.60277	44997
26.61090	37868
26.61902	37696
26.62713	37676
26.63527	40946
26.64338	40971
26.65152	39207
26.65963	43935
26.66775	40942
26.67588	41301
26.68400	40691
26.69213	40585
26.70025	43629
26.70837	39668
26.71650	41064
26.72462	42344
26.73275	41636
26.74087	39704
26.74898	46436
26.75712	41023
26.76523	43011
26.77335	42567
26.78148	43472
26.78960	45191
26.79773	43460
26.80585	46289
26.81397	45060
26.82210	43834
26.83022	46712
26.83835	44504
26.84647	47928
26.85458	47034
26.86272	43104
26.87083	48383
26.87895	45108
26.88708	47828
26.89520	46256
26.90333	46164
26.91145	49929
26.91957	47349
26.92770	51288
26.93582	51081
26.94395	52591
26.95207	62160
26.96018	87953
26.96832	168136
26.97643	323726
26.98457	635214
26.99268	1152458
27.00080	2083270
27.00893	3388395
27.01705	4358476
27.02517	4831589
27.03330	4608030
27.04142	4227820
27.04955	3729205
27.05767	3028578
27.06578	2371978
27.07392	1838359
27.08203	1409359
27.09017	1123589
27.09828	903669
27.10640	747849
27.11453	593637
27.12265	513544
27.13077	442936
27.13890	380236
27.14702	344770
27.15515	313041
27.16327	288689
27.17138	278445
27.17952	251466
27.18763	237862
27.19577	222926
27.20388	212549
27.21200	210443
27.22013	209735
27.22825	239717
27.23638	282619
27.24450	359748
27.25262	445721
27.26075	531245
27.26887	607053
27.27698	663002
27.28512	642543
27.29323	591820
27.30137	539521
27.30948	469592
27.31760	406098
27.32573	341634
27.33385	306788
27.34198	270520
27.35010	236671
27.35822	212297
27.36635	191385
27.37447	175623
27.38260	166089
27.39072	153232
27.39883	144253
27.40697	142335
27.41508	134163
27.42320	133927
27.43133	123461
27.43945	126824
27.44758	115935
27.45570	116457
27.46382	111904
27.47195	107266
27.48007	105567
27.48820	105558
27.49632	101745
27.50443	102350
27.51257	100668
27.52068	109399
27.52880	105316
27.53693	99420
27.54505	108276
27.55318	97110
27.56130	89822
27.56942	84877
27.57755	87323
27.58567	87883
27.59380	89758
27.60192	90852
27.61003	89964
27.61817	91574
27.62628	84616
27.63442	83257
27.64253	82293
27.65065	77386
27.65878	74401
27.66690	75079
27.67502	76793
27.68315	70518
27.69127	76478
27.69940	75128
27.70752	74521
27.71563	69293
27.72377	75667
27.73188	72621
27.74002	67952
27.74813	71826
27.75625	67272
27.76438	67666
27.77250	69909
27.78063	63714
27.78875	65225
27.79687	66370
27.80500	66405
27.81312	66826
27.82123	63893
27.82937	58183
27.83748	62809
27.84562	73232
27.85373	62450
27.86185	61958
27.86998	64842
27.87810	62803
27.88623	60158
27.89435	61565
27.90247	61487
27.91060	55894
27.91872	58008
27.92683	58088
27.93497	61591
27.94308	59851
27.95122	54433
27.95933	51688
27.96745	54632
27.97558	58168
27.98370	57153
27.99183	58938
27.99995	57663
28.00807	53724
28.01620	59254
28.02432	56333
28.03245	54994
28.04057	57911
28.04868	61410
28.05682	54681
28.06493	57607
28.07305	58132
28.08118	57053
28.08930	60041
28.09743	55225
28.10555	55270
28.11367	53222
28.12180	54199
28.12992	51155
28.13805	51909
28.14617	52470
28.15428	54053
28.16242	52210
28.17053	57538
28.17865	57006
28.18678	63517
28.19490	65166
28.20303	67932
28.21115	68537
28.21927	67012
28.22740	63955
28.23552	64565
28.24365	58452
28.25177	57750
28.25988	61158
28.26802	65375
28.27613	74768
28.28427	95330
28.29238	130431
28.30050	208546
28.30863	323491
28.31675	472336
28.32487	664251
28.33300	847039
28.34112	1124809
28.34925	1297843
28.35737	1518750
28.36548	1770241
28.37362	1849966
28.38173	1822737
28.38987	1764706
28.39798	1688385
28.40610	1585358
28.41423	1450060
28.42235	1305699
28.43048	1141251
28.43860	971916
28.44672	868814
28.45485	755098
28.46297	702550
28.47108	613010
28.47922	578977
28.48733	526931
28.49547	492740
28.50358	485029
28.51170	474472
28.51983	462005
28.52795	467622
28.53608	461726
28.54420	446831
28.55232	430458
28.56045	406209
28.56857	396940
28.57668	381057
28.58482	354765
28.59293	339146
28.60107	325655
28.60918	290527
28.61730	287335
28.62543	261495
28.63355	258499
28.64168	249718
28.64980	234863
28.65792	226989
28.66605	221469
28.67417	209996
28.68230	196652
28.69042	183731
28.69853	171841
28.70667	162871
28.71478	157849
28.72290	152116
28.73103	147426
28.73915	152286
28.74728	155219
28.75540	165104
28.76352	177571
28.77165	191372
28.77977	184084
28.78790	166357
28.79602	155447
28.80413	141433
28.81227	139007
28.82038	132266
28.82852	124649
28.83663	122171
28.84475	121747
28.85288	116903
28.86100	108915
28.86912	99175
28.87725	100901
28.88537	104481
28.89350	101023
28.90162	98251
28.90973	99302
28.91787	97802
28.92598	96855
28.93412	100392
28.94223	96054
28.95035	92506
28.95848	95725
28.96660	97388
28.97472	96064
28.98285	99489
28.99097	94995
28.99910	88357
29.00722	83904
29.01533	88696
29.02347	87177
29.03158	84922
29.03972	83832
29.04783	84656
29.05595	83264
29.06408	78771
29.07220	78272
29.08033	83048
29.08845	80548
29.09657	73809
29.10470	78095
29.11282	77568
29.12093	81257
29.12907	72417
29.13718	72491
29.14532	75469
29.15343	73362
29.16155	75406
29.16968	77833
29.17780	78624
29.18593	77372
29.19405	73669
29.20217	78216
29.21030	73071
29.21842	75382
29.22653	76256
29.23467	77045
29.24278	72916
29.25092	75812
29.25903	78223
29.26715	81790
29.27528	85017
29.28340	81426
29.29153	79329
29.29965	81763
29.30777	72704
29.31590	71182
29.32402	72313
29.33215	74437
29.34027	69345
29.34838	75055
29.35652	72211
29.36463	70468
29.37275	70205
29.38088	73002
29.38900	71922
29.39713	67848
29.40525	72900
29.41337	70523
29.42150	69003
29.42962	64028
29.43775	72836
29.44587	64433
29.45398	70510
29.46212	65940
29.47023	70726
29.47837	70802
29.48648	75916
29.49460	73073
29.50273	71763
29.51085	73246
29.51897	69981
29.52710	69046
29.53522	66460
29.54335	66215
29.55147	68611
29.55958	62492
29.56772	62407
29.57583	62283
29.58397	58047
29.59208	59289
29.60020	59160
29.60833	58859
29.61645	61029
29.62457	56764
29.63270	59305
29.64082	59588
29.64895	59632
29.65707	59285
29.66518	55947
29.67332	56049
29.68143	55809
29.68957	53595
29.69768	50458
29.70580	52718
29.71393	56112
29.72205	59867
29.73018	57463
29.73830	54500
29.74642	54117
29.75455	56214
29.76267	56377
29.77078	49558
29.77892	54090
29.78703	49379
29.79517	50662
29.80328	49981
29.81140	54016
29.81953	53027
29.82765	47215
29.83578	50954
29.84390	55951
29.85202	53025
29.86015	55310
29.86827	54252
29.87640	59030
29.88452	55349
29.89263	58588
29.90077	63232
29.90888	64312
29.91700	73519
29.92513	86676
29.93325	102163
29.94138	126994
29.94950	163038
29.95762	203671
29.96575	255451
29.97387	313477
29.98200	360628
29.99012	418969
29.99823	480150
30.00637	532032
30.01448	571091
30.02260	605133
30.03073	637454
30.03885	663092
30.04698	649338
30.05510	663014
30.06322	627244
30.07135	623318
30.07947	608129
30.08760	591767
30.09572	572747
30.10383	559859
30.11197	505841
30.12008	485016
30.12822	445130
30.13633	422719
30.14445	402980
30.15258	368984
30.16070	361936
30.16882	336743
30.17695	307046
30.18507	281472
30.19320	271716
30.20132	250480
30.20943	240160
30.21757	227598
30.22568	220727
30.23382	200931
30.24193	193683
30.25005	183952
30.25818	170021
30.26630	166089
30.27443	151873
30.28255	144983
30.29067	141298
30.29880	138819
30.30692	127009
30.31503	133377
30.32317	123575
30.33128	113994
30.33942	112265
30.34753	113399
30.35565	109035
30.36378	104352
30.37190	107830
30.38003	99298
30.38815	96221
30.39627	101754
30.40440	96996
30.41252	92895
30.42063	95045
30.42877	87754
30.43688	87605
30.44502	90834
30.45313	86885
30.46125	86507
30.46938	83349
30.47750	75268
30.48563	79312
30.49375	85239
30.50187	81110
30.51000	80862
30.51812	77790
30.52625	77073
30.53437	78852
30.54248	76520
30.55062	73624
30.55873	76125
30.56685	70965
30.57498	69516
30.58310	72171
30.59123	69309
30.59935	67010
30.60747	65567
30.61560	73811
30.62372	74267
30.63185	69256
30.63997	69755
30.64808	70047
30.65622	65603
30.66433	67046
30.67245	61464
30.68058	67644
30.68870	63243
30.69683	69527
30.70495	63588
30.71307	63118
30.72120	61150
30.72932	62616
30.73745	61264
30.74557	61160
30.75368	61664
30.76182	62332
30.76993	58127
30.77807	64567
30.78618	62656
30.79430	64141
30.80243	67174
30.81055	73540
30.81867	69947
30.82680	69068
30.83492	69095
30.84305	64939
30.85117	63850
30.85928	61901
30.86742	60026
30.87553	64752
30.88367	56247
30.89178	57804
30.89990	57568
30.90803	56914
30.91615	56667
30.92428	58850
30.93240	57113
30.94052	56703
30.94865	51971
30.95677	57788
30.96488	53892
30.97302	57481
30.98113	53286
30.98927	58453
30.99738	54783
31.00550	55047
31.01363	58181
31.02175	55306
31.02988	60827
31.03800	56169
31.04612	57538
31.05425	54019
31.06237	56432
31.07048	53098
31.07862	57431
31.08673	64763
31.09487	62604
31.10298	63306
31.11110	67342
31.11923	65937
31.12735	65409
31.13548	66444
31.14360	64442
31.15172	61186
31.15985	61393
31.16797	61123
31.17610	65631
31.18422	69481
31.19233	79378
31.20047	94551
31.20858	111091
31.21670	115726
31.22483	129968
31.23295	129556
31.24108	124129
31.24920	115636
31.25732	101498
31.26545	88920
31.27357	75329
31.28170	67032
31.28982	66286
31.29793	63781
31.30607	55139
31.31418	57203
31.32232	57408
31.33043	59891
31.33855	55191
31.34668	56034
31.35480	58773
31.36292	62445
31.37105	64961
31.37917	64357
31.38730	63460
31.39542	63001
31.40353	65776
31.41167	63874
31.41978	65547
31.42792	56811
31.43603	61664
31.44415	54956
31.45228	52597
31.46040	56703
31.46852	52533
31.47665	48640
31.48477	51424
31.49290	53259
31.50102	47866
31.50913	54994
31.51727	52123
31.52538	51940
31.53352	51362
31.54163	53610
31.54975	47924
31.55788	51307
31.56600	47381
31.57413	48956
31.58225	48351
31.59037	50676
31.59850	47905
31.60662	46531
31.61473	45860
31.62287	51007
31.63098	47246
31.63912	51075
31.64723	47129
31.65535	49805
31.66348	48988
31.67160	49891
31.67973	49939
31.68785	49812
31.69597	50205
31.70410	48213
31.71222	47986
31.72033	46215
31.72847	50296
31.73658	47341
31.74472	44229
31.75283	41392
31.76095	49433
31.76908	47541
31.77720	46437
31.78533	48783
31.79345	50478
31.80157	51933
31.80970	51605
31.81782	53689
31.82595	50837
31.83407	50300
31.84218	55267
31.85032	54045
31.85843	58787
31.86655	58466
31.87468	66152
31.88280	79274
31.89093	90792
31.89905	118947
31.90717	139525
31.91530	174243
31.92342	217542
31.93155	249463
31.93967	284961
31.94778	315563
31.95592	341488
31.96403	371901
31.97217	375633
31.98028	382673
31.98840	370928
31.99653	385766
32.00465	378050
32.01277	351863
32.02090	334266
32.02902	320053
32.03715	294608
32.04527	285663
32.05338	278118
32.06152	265458
32.06963	241373
32.07777	232966
32.08588	217907
32.09400	197497
32.10213	178176
32.11025	163160
32.11838	158086
32.12650	144546
32.13462	142878
32.14275	124637
32.15087	128845
32.15898	120460
32.16712	111498
32.17523	109873
32.18337	104619
32.19148	104774
32.19960	96992
32.20773	95441
32.21585	90300
32.22398	95118
32.23210	89188
32.24022	86679
32.24835	86789
32.25647	86839
32.26458	82858
32.27272	74264
32.28083	86289
32.28897	82491
32.29708	78054
32.30520	73629
32.31333	77777
32.32145	74255
32.32958	70959
32.33770	75146
32.34582	72249
32.35395	71920
32.36207	71550
32.37020	73567
32.37832	66904
32.38643	70079
32.39457	65004
32.40268	69264
32.41080	66004
32.41893	68252
32.42705	61779
32.43518	62578
32.44330	63097
32.45142	58738
32.45955	61372
32.46767	59582
32.47580	62423
32.48392	62679
32.49203	59968
32.50017	59806
32.50828	62445
32.51640	59243
32.52453	60895
32.53265	55000
32.54078	58865
32.54890	57338
32.55702	55730
32.56515	56620
32.57327	57155
32.58140	58785
32.58952	59970
32.59763	56360
32.60577	61941
32.61388	56443
32.62202	53452
32.63013	58325
32.63825	70262
32.64638	78404
32.65450	85211
32.66262	96805
32.67075	96374
32.67887	93750
32.68700	79160
32.69512	82977
32.70323	70803
32.71137	67369
32.71948	65750
32.72762	61501
32.73573	59383
32.74385	55963
32.75198	56858
32.76010	62095
32.76823	54771
32.77635	56264
32.78447	56432
32.79260	52765
32.80072	59830
32.80883	53200
32.81697	51587
32.82508	55720
32.83322	59055
32.84133	51207
32.84945	51632
32.85758	48349
32.86570	52940
32.87383	53231
32.88195	50856
32.89007	49872
32.89820	49278
32.90632	56182
32.91443	51916
32.92257	61981
32.93068	54613
32.93882	54311
32.94693	50345
32.95505	51848
32.96318	51566
32.97130	50462
32.97943	53032
32.98755	53969
32.99567	53574
33.00380	49716
33.01192	55711
33.02005	48870
33.02817	49196
33.03628	50004
33.04442	48384
33.05253	48421
33.06065	52622
33.06878	53691
33.07690	49924
33.08503	48877
33.09315	54577
33.10127	56540
33.10940	59041
33.11752	59624
33.12565	60776
33.13377	64400
33.14188	58499
33.15002	53260
33.15813	53779
33.16627	54761
33.17438	55071
33.18250	56086
33.19063	55316
33.19875	55061
33.20687	53510
33.21500	58124
33.22312	56824
33.23125	53900
33.23937	51501
33.24748	53098
33.25562	50838
33.26373	51047
33.27187	48463
33.27998	54155
33.28810	51762
33.29623	54171
33.30435	50260
33.31247	47689
33.32060	50380
33.32872	48592
33.33685	48060
33.34497	46240
33.35308	49698
33.36122	48290
33.36933	45590
33.37747	50068
33.38558	45171
33.39370	51621
33.40183	44454
33.40995	50009
33.41808	50415
33.42620	42651
33.43432	46568
33.44245	46371
33.45057	50939
33.45868	45495
33.46682	50764
33.47493	48273
33.48307	48012
33.49118	45568
33.49930	48878
33.50743	52156
33.51555	48924
33.52368	46789
33.53180	48333
33.53992	51943
33.54805	45860
33.55617	52643
33.56428	49185
33.57242	48197
33.58053	49593
33.58867	50986
33.59678	47667
33.60490	45799
33.61303	48586
33.62115	44528
33.62928	47004
33.63740	44010
33.64552	48735
33.65365	43159
33.66177	48660
33.66990	46011
33.67802	45165
33.68613	42956
33.69427	45965
33.70238	48235
33.71050	45086
33.71863	43339
33.72675	48802
33.73488	46760
33.74300	45972
33.75112	44376
33.75925	45541
33.76737	44400
33.77550	44706
33.78362	44557
33.79173	45631
33.79987	42561
33.80798	46106
33.81612	43613
33.82423	46326
33.83235	48915
33.84048	46734
33.84860	50129
33.85672	49069
33.86485	49397
33.87297	47723
33.88110	47148
33.88922	51324
33.89733	47225
33.90547	47662
33.91358	49727
33.92172	55048
33.92983	50246
33.93795	53675
33.94608	52374
33.95420	49797
33.96232	45458
33.97045	46410
33.97857	48611
33.98670	42408
33.99482	45914
34.00293	46486
34.01107	42479
34.01918	47097
34.02732	46627
34.03543	46270
34.04355	48193
34.05168	45563
34.05980	44801
34.06793	45840
34.07605	47549
34.08417	49265
34.09230	50228
34.10042	44934
34.10853	45069
34.11667	50974
34.12478	48516
34.13292	47721
34.14103	46872
34.14915	47820
34.15728	50094
34.16540	47487
34.17353	49886
34.18165	45394
34.18977	45520
34.19790	47062
34.20602	44355
34.21415	46562
34.22227	47778
34.23038	44656
34.23852	48456
34.24663	48357
34.25475	45780
34.26288	48789
34.27100	50933
34.27913	46009
34.28725	45968
34.29537	46701
34.30350	46316
34.31162	44247
34.31975	45811
34.32787	47164
34.33598	45054
34.34412	47129
34.35223	43505
34.36035	48729
34.36848	46466
34.37660	40781
34.38473	44910
34.39285	48005
34.40097	46308
34.40910	44899
34.41722	48679
34.42535	44549
34.43347	41176
34.44158	46964
34.44972	48879
34.45783	47486
34.46597	48853
34.47408	47151
34.48220	58658
34.49033	65929
34.49845	83175
34.50657	115597
34.51470	158868
34.52282	203494
34.53095	258974
34.53907	294415
34.54718	327619
34.55532	348827
34.56343	340485
34.57157	324450
34.57968	307330
34.58780	266949
34.59593	240091
34.60405	216371
34.61217	192386
34.62030	177340
34.62842	159797
34.63655	138512
34.64467	129764
34.65278	132386
34.66092	121633
34.66903	105859
34.67717	109304
34.68528	108252
34.69340	97572
34.70153	97468
34.70965	90230
34.71778	95787
34.72590	90264
34.73402	85530
34.74215	83829
34.75027	81413
34.75838	85031
34.76652	81512
34.77463	77376
34.78277	77805
34.79088	82133
34.79900	75483
34.80713	73948
34.81525	73855
34.82338	74922
34.83150	72068
34.83962	72954
34.84775	72133
34.85587	70912
34.86400	66549
34.87212	65920
34.88023	69043
34.88837	64454
34.89648	71339
34.90460	64852
34.91273	69837
34.92085	71415
34.92898	65570
34.93710	65990
34.94522	67359
34.95335	73938
34.96147	69100
34.96960	71584
34.97772	68165
34.98583	66496
34.99397	61927
35.00208	60932
35.01020	64746
35.01833	61015
35.02645	60500
35.03458	61727
35.04270	70619
35.05082	60868
35.05895	59877
35.06707	60409
35.07520	59492
35.08332	63528
35.09143	58143
35.09957	61745
35.10768	58851
35.11582	56721
35.12393	58293
35.13205	63661
35.14018	59256
35.14830	60449
35.15642	65919
35.16455	65390
35.17267	59371
35.18080	60094
35.18892	57887
35.19703	61424
35.20517	60242
35.21328	59161
35.22142	53417
35.22953	57196
35.23765	57818
35.24578	55558
35.25390	58395
35.26203	55870
35.27015	54982
35.27827	59220
35.28640	58936
35.29452	56912
35.30263	56102
35.31077	53859
35.31888	56252
35.32702	54914
35.33513	59500
35.34325	59060
35.35138	56065
35.35950	52974
35.36763	56324
35.37575	52048
35.38387	55370
35.39200	50272
35.40012	53318
35.40823	55858
35.41637	53873
35.42448	56033
35.43262	58134
35.44073	58516
35.44885	60286
35.45698	61094
35.46510	62589
35.47323	60285
35.48135	59850
35.48947	58402
35.49760	59239
35.50572	58797
35.51385	58703
35.52197	60957
35.53008	52182
35.53822	54909
35.54633	55779
35.55445	54493
35.56258	58472
35.57070	55835
35.57883	56680
35.58695	55388
35.59507	55110
35.60320	54828
35.61132	54392
35.61945	56142
35.62757	54932
35.63568	56692
35.64382	56924
35.65193	60867
35.66007	64264
35.66818	68026
35.67630	63003
35.68443	66909
35.69255	66283
35.70067	61398
35.70880	57994
35.71692	60682
35.72505	56252
35.73317	59996
35.74128	55727
35.74942	59566
35.75753	56816
35.76567	55896
35.77378	56920
35.78190	55500
35.79003	57070
35.79815	52735
35.80627	49998
35.81440	55304
35.82252	57076
35.83065	58809
35.83877	57984
35.84688	52572
35.85502	56268
35.86313	54743
35.87127	52012
35.87938	52720
35.88750	53189
35.89563	53038
35.90375	54276
35.91188	52064
35.92000	56561
35.92812	51348
35.93625	52137
35.94437	51587
35.95248	50161
35.96062	53185
35.96873	54795
35.97687	57267
35.98498	54661
35.99310	58180
36.00123	59139
36.00935	60800
36.01748	58980
36.02560	60216
36.03372	61788
36.04185	61478
36.04997	59166
36.05808	55237
36.06622	59976
36.07433	56032
36.08247	57917
36.09058	55203
36.09870	52661
36.10683	53726
36.11495	58451
36.12308	54365
36.13120	52758
36.13932	54503
36.14745	50119
36.15557	56415
36.16370	58258
36.17182	57620
36.17993	54602
36.18807	52579
36.19618	55810
36.20430	53902
36.21243	57696
36.22055	53075
36.22868	52763
36.23680	53211
36.24492	53215
36.25305	59858
36.26117	56293
36.26930	55317
36.27742	67824
36.28553	66479
36.29367	85203
36.30178	89385
36.30992	91922
36.31803	96779
36.32615	83877
36.33428	79072
36.34240	73286
36.35052	67129
36.35865	67138
36.36677	58185
36.37490	61471
36.38302	61127
36.39113	57237
36.39927	56501
36.40738	65546
36.41552	57123
36.42363	59757
36.43175	57001
36.43988	55727
36.44800	55115
36.45612	60308
36.46425	54543
36.47237	54667
36.48050	53990
36.48862	54829
36.49673	55946
36.50487	56231
36.51298	54253
36.52112	54925
36.52923	56489
36.53735	57365
36.54548	55823
36.55360	52309
36.56173	57714
36.56985	59782
36.57797	51295
36.58610	57386
36.59422	59525
36.60233	53808
36.61047	58688
36.61858	57266
36.62672	57571
36.63483	59267
36.64295	59339
36.65108	57897
36.65920	63236
36.66733	70689
36.67545	62907
36.68357	63893
36.69170	68125
36.69982	66918
36.70795	65269
36.71607	74326
36.72418	71894
36.73232	75829
36.74043	78937
36.74855	71784
36.75668	79555
36.76480	76177
36.77293	86479
36.78105	76306
36.78917	78047
36.79730	79192
36.80542	82028
36.81355	78736
36.82167	74935
36.82978	78932
36.83792	70968
36.84603	68154
36.85415	68632
36.86228	67879
36.87040	64129
36.87853	62176
36.88665	59661
36.89477	63141
36.90290	62217
36.91102	61773
36.91915	58716
36.92727	57834
36.93538	54981
36.94352	55039
36.95163	52767
36.95977	59360
36.96788	59456
36.97600	55613
36.98413	62049
36.99225	58637
37.00037	56224
37.00850	57109
37.01662	56762
37.02475	58508
37.03287	58264
37.04098	54678
37.04912	58254
37.05723	62376
37.06537	56933
37.07348	60526
37.08160	55247
37.08973	55837
37.09785	57512
37.10597	58724
37.11410	59770
37.12222	55872
37.13035	60750
37.13847	55589
37.14658	61169
37.15472	57452
37.16283	61349
37.17097	59463
37.17908	66011
37.18720	60249
37.19533	60108
37.20345	62613
37.21158	61948
37.21970	57348
37.22782	62683
37.23595	58957
37.24407	57181
37.25218	55057
37.26032	59182
37.26843	57302
37.27657	59722
37.28468	59632
37.29280	62591
37.30093	77879
37.30905	97830
37.31718	123516
37.32530	164211
37.33342	190506
37.34155	236338
37.34967	255488
37.35780	249060
37.36592	238132
37.37403	217255
37.38217	195909
37.39028	170973
37.39840	150924
37.40653	142115
37.41465	135248
37.42278	122370
37.43090	119520
37.43902	114215
37.44715	111353
37.45527	104670
37.46340	108670
37.47152	101830
37.47963	102745
37.48777	99212
