C:\MassHunter\GCMS\1\data\20191125_ALKANES\BURNOFFS\JTB-E18-40-18.D Wed Nov 27 12:32:00 2019
Start of data points
2.09538	84798
2.10350	101510
2.11162	101763
2.11975	103491
2.12787	110420
2.13598	118237
2.14412	131056
2.15223	146751
2.16037	163632
2.16848	178816
2.17660	197007
2.18473	219998
2.19285	245566
2.20098	272276
2.20910	292127
2.21722	302289
2.22535	315034
2.23347	330814
2.24158	338357
2.24972	334459
2.25783	331836
2.26597	329397
2.27408	317797
2.28220	308278
2.29033	290435
2.29845	275577
2.30658	272029
2.31470	249751
2.32282	237566
2.33095	221394
2.33907	207437
2.34720	186884
2.35532	177047
2.36343	171342
2.37157	163633
2.37968	146814
2.38780	136146
2.39593	129261
2.40405	121960
2.41218	120143
2.42030	107867
2.42842	108058
2.43655	99463
2.44467	97635
2.45280	92590
2.46092	88118
2.46903	82213
2.47717	77570
2.48528	75373
2.49342	74734
2.50153	78035
2.50965	70158
2.51778	69382
2.52590	63963
2.53402	66137
2.54215	61069
2.55027	59400
2.55840	59534
2.56652	56071
2.57463	54451
2.58277	56924
2.59088	55787
2.59902	55772
2.60713	56105
2.61525	54582
2.62338	55089
2.63150	51790
2.63962	50562
2.64775	49170
2.65587	48112
2.66400	50313
2.67212	49187
2.68023	47239
2.68837	51417
2.69648	54323
2.70462	49544
2.71273	49172
2.72085	48044
2.72898	48099
2.73710	46646
2.74523	53048
2.75335	43123
2.76147	42683
2.76960	46313
2.77772	46069
2.78583	46402
2.79397	45757
2.80208	49976
2.81022	46985
2.81833	43999
2.82645	42667
2.83458	45544
2.84270	46425
2.85083	47450
2.85895	44568
2.86707	46930
2.87520	42003
2.88332	43496
2.89143	44446
2.89957	42859
2.90768	43135
2.91582	41515
2.92393	41783
2.93205	45129
2.94018	44057
2.94830	40102
2.95643	41385
2.96455	39783
2.97267	41751
2.98080	40227
2.98892	44387
2.99705	40976
3.00517	42932
3.01328	39188
3.02142	42914
3.02953	40486
3.03765	40690
3.04578	38280
3.05390	44052
3.06203	39875
3.07015	41176
3.07827	42611
3.08640	41357
3.09452	40274
3.10265	42443
3.11077	41709
3.11888	42075
3.12702	41604
3.13513	40588
3.14327	40188
3.15138	44744
3.15950	50623
3.16763	44876
3.17575	43659
3.18387	42263
3.19200	44406
3.20012	46907
3.20825	45859
3.21637	42009
3.22448	44878
3.23262	42478
3.24073	41824
3.24887	45208
3.25698	44422
3.26510	43911
3.27323	43117
3.28135	43068
3.28947	44059
3.29760	40073
3.30572	46464
3.31385	44934
3.32197	45848
3.33008	43384
3.33822	46292
3.34633	43675
3.35447	40950
3.36258	41016
3.37070	43638
3.37883	43468
3.38695	45174
3.39508	45026
3.40320	43737
3.41132	44512
3.41945	47664
3.42757	43644
3.43568	45319
3.44382	41369
3.45193	45250
3.46007	39720
3.46818	42144
3.47630	46603
3.48443	44293
3.49255	40163
3.50068	42393
3.50880	43496
3.51692	44929
3.52505	43470
3.53317	44000
3.54130	40980
3.54942	41939
3.55753	44401
3.56567	43834
3.57378	44722
3.58190	41021
3.59003	41434
3.59815	42956
3.60628	44200
3.61440	41415
3.62252	44863
3.63065	40873
3.63877	48150
3.64690	42778
3.65502	43654
3.66313	42707
3.67127	44281
3.67938	43366
3.68750	50511
3.69563	39787
3.70375	42524
3.71188	43471
3.72000	45513
3.72812	41352
3.73625	43731
3.74437	41299
3.75250	44403
3.76062	40069
3.76873	41116
3.77687	41783
3.78498	41478
3.79312	40291
3.80123	43500
3.80935	44340
3.81748	41762
3.82560	41920
3.83372	39608
3.84185	39704
3.84997	41224
3.85810	40208
3.86622	45806
3.87433	42787
3.88247	40747
3.89058	41866
3.89872	42160
3.90683	41236
3.91495	40246
3.92308	40011
3.93120	41891
3.93932	44202
3.94745	43900
3.95557	41621
3.96370	42153
3.97182	42704
3.97993	44464
3.98807	44750
3.99618	41999
4.00432	43236
4.01243	38629
4.02055	41672
4.02868	40575
4.03680	39658
4.04493	39839
4.05305	39027
4.06117	39179
4.06930	40934
4.07742	39763
4.08553	40161
4.09367	41728
4.10178	41943
4.10992	48618
4.11803	42444
4.12615	43468
4.13428	41769
4.14240	41758
4.15053	42885
4.15865	41592
4.16677	41629
4.17490	41325
4.18302	43616
4.19115	38631
4.19927	39774
4.20738	41355
4.21552	44965
4.22363	41491
4.23175	38188
4.23988	40199
4.24800	40638
4.25613	37758
4.26425	42418
4.27237	40579
4.28050	37115
4.28862	42612
4.29675	40849
4.30487	39863
4.31298	38927
4.32112	37311
4.32923	42975
4.33737	42112
4.34548	38610
4.35360	44008
4.36173	37552
4.36985	41423
4.37797	38877
4.38610	40517
4.39422	38114
4.40235	38817
4.41047	38208
4.41858	38142
4.42672	41022
4.43483	41021
4.44297	41149
4.45108	39893
4.45920	37635
4.46733	37420
4.47545	39414
4.48357	40762
4.49170	40281
4.49982	41653
4.50795	42055
4.51607	42904
4.52418	37579
4.53232	38342
4.54043	46610
4.54857	38896
4.55668	40793
4.56480	38937
4.57293	40897
4.58105	38452
4.58918	39788
4.59730	44350
4.60542	40241
4.61355	40933
4.62167	43663
4.62978	45481
4.63792	42558
4.64603	40238
4.65417	39737
4.66228	41192
4.67040	39357
4.67853	40054
4.68665	39317
4.69478	36965
4.70290	37146
4.71102	46526
4.71915	42484
4.72727	38452
4.73538	37419
4.74352	38191
4.75163	40714
4.75977	38262
4.76788	39659
4.77600	38165
4.78413	41806
4.79225	39032
4.80038	36743
4.80850	38737
4.81662	41951
4.82475	38474
4.83287	37386
4.84100	39636
4.84912	38145
4.85723	39128
4.86537	41651
4.87348	38848
4.88160	39680
4.88973	39172
4.89785	41811
4.90598	41828
4.91410	41484
4.92222	41344
4.93035	37216
4.93847	40601
4.94660	45080
4.95472	37828
4.96283	39966
4.97097	40972
4.97908	40141
4.98722	41339
4.99533	36455
5.00345	46013
5.01158	38125
5.01970	41286
5.02782	38010
5.03595	40528
5.04407	38572
5.05220	39906
5.06032	38211
5.06843	40890
5.07657	40763
5.08468	42428
5.09282	41806
5.10093	40460
5.10905	39873
5.11718	42645
5.12530	41099
5.13342	38295
5.14155	38029
5.14967	38347
5.15780	39537
5.16592	38727
5.17403	41551
5.18217	39542
5.19028	38723
5.19842	42259
5.20653	37380
5.21465	41979
5.22278	39842
5.23090	37089
5.23903	40330
5.24715	41451
5.25527	40189
5.26340	39935
5.27152	37208
5.27963	36985
5.28777	35831
5.29588	39440
5.30402	37365
5.31213	38361
5.32025	36595
5.32838	38533
5.33650	37986
5.34463	35677
5.35275	36150
5.36087	40542
5.36900	35489
5.37712	37358
5.38525	38205
5.39337	40689
5.40148	42478
5.40962	36053
5.41773	37475
5.42585	37240
5.43398	36467
5.44210	38222
5.45023	35996
5.45835	35112
5.46647	35416
5.47460	32934
5.48272	34690
5.49085	39135
5.49897	37252
5.50708	35001
5.51522	36342
5.52333	36179
5.53145	33809
5.53958	35345
5.54770	34275
5.55583	36163
5.56395	37852
5.57207	33999
5.58020	36063
5.58832	38291
5.59645	37557
5.60457	38397
5.61268	34578
5.62082	35248
5.62893	34856
5.63707	37276
5.64518	35424
5.65330	35009
5.66143	35506
5.66955	41238
5.67767	37296
5.68580	35309
5.69392	33141
5.70205	33781
5.71017	37476
5.71828	38793
5.72642	37732
5.73453	33961
5.74267	35012
5.75078	38347
5.75890	35146
5.76703	37233
5.77515	36307
5.78327	40427
5.79140	33727
5.79952	35578
5.80765	34251
5.81577	36649
5.82388	33147
5.83202	33207
5.84013	32037
5.84827	36308
5.85638	38745
5.86450	35350
5.87263	38499
5.88075	37832
5.88888	33526
5.89700	33201
5.90512	32323
5.91325	32311
5.92137	26289
5.92948	28078
5.93762	26047
5.94573	27371
5.95387	30224
5.96198	30609
5.97010	30637
5.97823	28056
5.98635	31223
5.99448	26317
6.00260	29765
6.01072	28922
6.01885	27879
6.02697	29213
6.03510	29365
6.04322	27327
6.05133	26082
6.05947	29952
6.06758	27903
6.07570	25461
6.08383	26976
6.09195	29091
6.10008	31094
6.10820	29278
6.11632	26198
6.12445	31092
6.13257	27939
6.14070	27859
6.14882	33425
6.15693	27760
6.16507	29163
6.17318	28493
6.18130	28624
6.18943	27608
6.19755	29115
6.20568	28641
6.21380	29646
6.22192	31921
6.23005	28396
6.23817	31900
6.24630	32056
6.25442	26799
6.26253	29948
6.27067	25326
6.27878	26997
6.28692	29640
6.29503	26450
6.30315	27133
6.31128	22775
6.31940	27547
6.32752	29484
6.33565	29433
6.34377	24132
6.35190	27870
6.36002	28292
6.36813	28364
6.37627	29210
6.38438	30268
6.39252	27906
6.40063	26781
6.40875	29175
6.41688	26492
6.42500	26270
6.43313	29293
6.44125	27365
6.44937	25196
6.45750	27328
6.46562	27402
6.47373	29519
6.48187	29296
6.48998	27156
6.49812	27004
6.50623	27952
6.51435	28031
6.52248	28812
6.53060	29952
6.53873	28415
6.54685	26212
6.55497	26174
6.56310	28493
6.57122	29665
6.57933	27092
6.58747	25925
6.59558	26842
6.60372	27392
6.61183	26643
6.61995	25101
6.62808	28582
6.63620	26701
6.64433	26708
6.65245	31156
6.66057	27864
6.66870	29429
6.67682	28821
6.68495	26845
6.69307	26289
6.70118	26807
6.70932	26956
6.71743	27556
6.72555	27996
6.73368	27265
6.74180	27288
6.74993	26932
6.75805	30576
6.76617	28318
6.77430	27012
6.78242	29913
6.79055	26048
6.79867	26891
6.80678	25839
6.81492	25956
6.82303	23582
6.83117	25726
6.83928	29233
6.84740	27891
6.85553	26328
6.86365	26933
6.87177	24977
6.87990	24114
6.88802	28903
6.89615	27732
6.90427	26617
6.91238	22651
6.92052	25679
6.92863	26061
6.93677	27863
6.94488	30974
6.95300	25641
6.96113	26920
6.96925	29077
6.97737	30876
6.98550	24646
6.99362	27530
7.00175	26586
7.00987	27850
7.01798	24246
7.02612	24853
7.03423	26599
7.04237	28311
7.05048	24443
7.05860	25968
7.06673	26223
7.07485	24735
7.08298	22745
7.09110	24852
7.09922	24226
7.10735	26913
7.11547	26700
7.12358	27443
7.13172	24342
7.13983	23734
7.14797	23971
7.15608	25428
7.16420	24809
7.17233	23702
7.18045	23757
7.18858	25101
7.19670	29292
7.20482	25881
7.21295	22648
7.22107	23700
7.22918	29634
7.23732	22566
7.24543	26068
7.25357	24623
7.26168	27198
7.26980	23101
7.27793	23923
7.28605	22569
7.29418	24358
7.30230	23078
7.31042	22922
7.31855	24965
7.32667	24241
7.33480	26138
7.34292	27749
7.35103	25868
7.35917	26014
7.36728	25139
7.37540	22286
7.38353	25992
7.39165	25124
7.39978	22665
7.40790	27004
7.41602	27866
7.42415	24494
7.43227	24448
7.44040	23165
7.44852	22654
7.45663	22323
7.46477	23622
7.47288	23263
7.48102	29876
7.48913	24033
7.49725	26676
7.50538	26235
7.51350	25719
7.52162	23259
7.52975	23862
7.53787	24918
7.54600	24180
7.55412	27728
7.56223	25153
7.57037	22723
7.57848	25384
7.58662	23477
7.59473	24077
7.60285	26708
7.61098	25133
7.61910	24592
7.62722	27516
7.63535	22218
7.64347	23060
7.65160	23939
7.65972	24840
7.66783	26488
7.67597	26031
7.68408	24059
7.69222	24515
7.70033	27986
7.70845	24908
7.71658	25403
7.72470	27629
7.73283	24944
7.74095	23433
7.74907	22739
7.75720	23051
7.76532	22492
7.77343	23877
7.78157	25645
7.78968	24040
7.79782	24487
7.80593	25078
7.81405	29097
7.82218	25866
7.83030	24895
7.83843	23996
7.84655	21652
7.85467	23639
7.86280	22535
7.87092	20494
7.87905	21984
7.88717	22002
7.89528	26198
7.90342	24238
7.91153	24540
7.91965	26990
7.92778	24930
7.93590	23391
7.94403	21678
7.95215	21625
7.96027	22634
7.96840	22994
7.97652	22873
7.98465	26300
7.99277	26482
8.00088	23328
8.00902	25095
8.01713	22516
8.02525	22941
8.03338	23792
8.04150	21794
8.04963	24097
8.05775	24445
8.06587	23104
8.07400	21108
8.08212	25365
8.09025	22057
8.09837	24234
8.10648	22241
8.11462	21549
8.12273	24907
8.13087	26381
8.13898	21596
8.14710	22423
8.15523	24814
8.16335	27063
8.17147	21042
8.17960	22322
8.18772	25983
8.19585	24296
8.20397	22420
8.21208	27844
8.22022	24058
8.22833	23322
8.23647	21910
8.24458	22291
8.25270	22523
8.26083	21408
8.26895	20756
8.27707	23225
8.28520	23172
8.29332	23344
8.30145	24669
8.30957	24234
8.31768	24870
8.32582	22799
8.33393	24277
8.34207	21886
8.35018	21709
8.35830	25483
8.36643	21617
8.37455	18396
8.38268	20708
8.39080	23198
8.39892	22197
8.40705	26873
8.41517	21708
8.42328	23046
8.43142	21724
8.43953	23165
8.44767	23088
8.45578	24116
8.46390	24113
8.47203	21645
8.48015	23078
8.48828	24525
8.49640	22940
8.50452	23639
8.51265	21329
8.52077	23493
8.52890	19574
8.53702	21997
8.54513	22966
8.55327	23329
8.56138	24358
8.56950	24172
8.57763	21608
8.58575	24040
8.59388	22416
8.60200	23874
8.61012	23398
8.61825	24956
8.62637	25526
8.63450	24406
8.64262	24477
8.65073	22495
8.65887	23108
8.66698	24174
8.67510	20466
8.68323	24390
8.69135	24143
8.69948	21202
8.70760	25943
8.71572	20724
8.72385	23850
8.73197	23042
8.74010	21008
8.74822	21956
8.75633	24023
8.76447	22842
8.77258	21280
8.78072	26769
8.78883	24411
8.79695	23362
8.80508	24708
8.81320	24079
8.82132	22787
8.82945	23476
8.83757	22537
8.84570	24846
8.85382	22630
8.86193	22745
8.87007	23375
8.87818	25585
8.88632	22878
8.89443	23155
8.90255	21181
8.91068	23484
8.91880	23196
8.92693	21772
8.93505	21900
8.94317	22705
8.95130	22980
8.95942	20107
8.96753	22540
8.97567	21619
8.98378	24487
8.99192	24274
9.00003	25584
9.00815	23240
9.01628	22710
9.02440	24108
9.03253	23330
9.04065	24709
9.04877	26479
9.05690	21345
9.06502	22675
9.07313	19936
9.08127	23472
9.08938	24562
9.09752	21544
9.10563	20735
9.11375	23055
9.12188	22011
9.13000	22388
9.13813	28027
9.14625	24446
9.15437	21196
9.16250	22245
9.17062	23214
9.17875	26179
9.18687	24205
9.19498	23707
9.20312	23186
9.21123	20689
9.21935	22897
9.22748	23173
9.23560	23999
9.24373	25551
9.25185	24003
9.25997	22163
9.26810	24076
9.27622	25780
9.28435	23984
9.29247	22676
9.30058	20931
9.30872	23065
9.31683	22961
9.32495	21874
9.33308	24712
9.34120	21076
9.34933	26146
9.35745	19776
9.36557	20601
9.37370	24371
9.38182	26825
9.38995	24388
9.39807	21312
9.40618	21430
9.41432	21704
9.42243	23088
9.43057	20215
9.43868	23814
9.44680	24318
9.45493	21328
9.46305	21789
9.47117	21728
9.47930	25209
9.48742	20244
9.49555	24657
9.50367	25264
9.51178	25218
9.51992	20808
9.52803	20974
9.53617	21959
9.54428	22804
9.55240	20694
9.56053	27637
9.56865	24815
9.57678	24273
9.58490	21039
9.59302	22460
9.60115	19410
9.60927	21664
9.61738	22221
9.62552	22456
9.63363	25144
9.64177	20955
9.64988	21869
9.65800	22906
9.66613	20930
9.67425	21777
9.68238	23113
9.69050	23325
9.69862	22857
9.70675	25539
9.71487	22107
9.72300	22167
9.73112	23674
9.73923	23558
9.74737	24312
9.75548	23137
9.76360	26015
9.77173	24113
9.77985	23024
9.78798	25097
9.79610	21173
9.80422	22615
9.81235	22118
9.82047	19565
9.82860	25216
9.83672	22488
9.84483	21853
9.85297	21470
9.86108	23222
9.86920	20363
9.87733	22183
9.88545	22006
9.89358	22780
9.90170	21169
9.90982	20533
9.91795	21883
9.92607	22597
9.93420	20146
9.94232	21295
9.95043	23263
9.95857	23762
9.96668	20289
9.97482	21043
9.98293	22681
9.99105	22791
9.99918	21843
10.00730	26491
10.01542	21207
10.02355	26656
10.03167	21244
10.03980	21991
10.04792	21736
10.05603	22175
10.06417	22618
10.07228	22860
10.08042	23131
10.08853	18417
10.09665	23628
10.10478	19991
10.11290	22411
10.12102	23015
10.12915	19837
10.13727	21625
10.14540	19318
10.15352	22990
10.16163	19077
10.16977	20736
10.17788	24039
10.18602	21893
10.19413	26166
10.20225	23835
10.21038	23454
10.21850	20506
10.22663	20556
10.23475	23103
10.24287	22923
10.25100	22484
10.25912	20694
10.26723	21018
10.27537	18583
10.28348	18782
10.29162	19849
10.29973	19841
10.30785	21182
10.31598	20790
10.32410	22943
10.33223	23364
10.34035	22555
10.34847	21809
10.35660	21631
10.36472	19577
10.37285	19899
10.38097	20288
10.38908	19084
10.39722	21761
10.40533	22387
10.41345	22718
10.42158	22310
10.42970	19855
10.43783	22905
10.44595	19877
10.45407	20812
10.46220	19185
10.47032	23683
10.47845	20489
10.48657	20596
10.49468	22197
10.50282	21382
10.51093	22774
10.51905	22913
10.52718	20728
10.53530	21346
10.54343	22796
10.55155	19775
10.55967	22441
10.56780	20351
10.57592	21491
10.58405	20767
10.59217	21650
10.60028	26243
10.60842	20834
10.61653	25990
10.62467	20709
10.63278	20972
10.64090	19177
10.64903	21262
10.65715	23507
10.66527	23541
10.67340	21739
10.68152	21778
10.68965	21494
10.69777	21361
10.70588	21001
10.71402	21780
10.72213	21534
10.73027	20588
10.73838	20813
10.74650	21644
10.75463	26309
10.76275	20113
10.77088	22758
10.77900	19991
10.78712	20246
10.79525	23426
10.80337	21724
10.81148	20553
10.81962	21305
10.82773	21643
10.83587	23015
10.84398	23207
10.85210	21041
10.86023	21207
10.86835	21244
10.87648	22553
10.88460	20787
10.89272	21294
10.90085	21293
10.90897	19981
10.91708	23824
10.92522	19560
10.93333	23033
10.94147	20890
10.94958	21658
10.95770	20257
10.96583	21114
10.97395	20275
10.98208	20004
10.99020	22245
10.99832	22873
11.00645	21279
11.01457	21094
11.02270	19243
11.03082	21167
11.03893	20335
11.04707	18847
11.05518	18533
11.06330	20871
11.07143	21946
11.07955	21974
11.08768	23455
11.09580	24502
11.10392	19765
11.11205	23203
11.12017	23898
11.12830	20831
11.13642	22036
11.14453	20120
11.15267	21458
11.16078	30516
11.16890	20254
11.17703	22213
11.18515	22832
11.19328	21252
11.20140	21847
11.20952	22153
11.21765	23173
11.22577	22665
11.23390	19855
11.24202	19204
11.25013	20653
11.25827	28562
11.26638	22973
11.27452	21993
11.28263	21417
11.29075	21045
11.29888	22954
11.30700	21094
11.31512	22297
11.32325	22261
11.33137	23642
11.33950	20264
11.34762	22992
11.35573	21008
11.36387	22401
11.37198	18111
11.38012	19862
11.38823	21512
11.39635	20051
11.40448	21852
11.41260	23027
11.42073	22849
11.42885	19293
11.43697	19839
11.44510	23717
11.45322	23785
11.46133	19864
11.46947	22194
11.47758	22308
11.48572	22435
11.49383	22046
11.50195	20362
11.51008	22090
11.51820	20200
11.52633	20623
11.53445	19635
11.54257	21395
11.55070	23480
11.55882	20680
11.56693	19070
11.57507	24229
11.58318	22932
11.59132	21916
11.59943	22894
11.60755	18830
11.61568	25032
11.62380	21825
11.63193	23054
11.64005	22496
11.64817	21479
11.65630	20789
11.66442	20975
11.67255	21173
11.68067	20578
11.68878	19947
11.69692	25034
11.70503	19587
11.71315	20367
11.72128	18681
11.72940	21909
11.73753	22762
11.74565	22815
11.75377	18695
11.76190	21804
11.77002	22094
11.77815	21674
11.78627	23189
11.79438	23634
11.80252	21487
11.81063	20268
11.81877	26924
11.82688	22783
11.83500	21736
11.84313	21449
11.85125	21986
11.85937	22107
11.86750	19906
11.87562	20910
11.88375	22028
11.89187	20586
11.89998	18721
11.90812	21206
11.91623	22035
11.92437	20781
11.93248	22776
11.94060	19093
11.94873	17994
11.95685	21778
11.96497	22880
11.97310	20549
11.98122	18181
11.98935	27276
11.99747	20737
12.00558	21289
12.01372	19584
12.02183	22754
12.02997	22452
12.03808	24569
12.04620	23908
12.05433	20784
12.06245	22716
12.07058	20935
12.07870	20205
12.08682	21527
12.09495	19750
12.10307	19018
12.11118	21362
12.11932	20447
12.12743	22716
12.13557	23905
12.14368	20121
12.15180	26539
12.15993	21187
12.16805	21621
12.17618	20468
12.18430	20448
12.19242	22021
12.20055	24822
12.20867	20504
12.21680	23153
12.22492	20474
12.23303	22454
12.24117	19140
12.24928	18530
12.25740	21258
12.26553	21668
12.27365	21647
12.28178	22613
12.28990	20100
12.29802	21123
12.30615	22338
12.31427	25934
12.32240	20634
12.33052	24602
12.33863	21464
12.34677	19529
12.35488	22120
12.36300	19062
12.37113	24176
12.37925	21418
12.38738	19198
12.39550	19240
12.40362	20416
12.41175	18752
12.41987	20515
12.42800	17883
12.43612	21763
12.44423	21993
12.45237	22956
12.46048	21908
12.46862	19413
12.47673	22776
12.48485	20907
12.49298	22040
12.50110	23452
12.50922	20400
12.51735	20357
12.52547	19069
12.53360	21555
12.54172	20736
12.54983	19914
12.55797	18225
12.56608	23645
12.57422	20724
12.58233	21813
12.59045	23236
12.59858	21206
12.60670	21382
12.61482	21228
12.62295	21629
12.63107	21284
12.63920	21984
12.64732	23433
12.65543	22954
12.66357	21344
12.67168	20267
12.67982	17402
12.68793	20111
12.69605	20538
12.70418	20978
12.71230	21240
12.72043	20061
12.72855	21000
12.73667	23309
12.74480	19945
12.75292	23537
12.76103	19991
12.76917	20487
12.77728	19584
12.78542	18838
12.79353	20246
12.80165	19113
12.80978	20838
12.81790	21573
12.82603	23302
12.83415	22797
12.84227	21969
12.85040	21875
12.85852	20977
12.86665	19014
12.87477	19769
12.88288	19673
12.89102	20417
12.89913	20366
12.90725	19687
12.91538	20017
12.92350	16584
12.93163	19696
12.93975	20026
12.94787	23306
12.95600	22020
12.96412	21543
12.97225	20959
12.98037	19996
12.98848	22671
12.99662	20906
13.00473	21769
13.01285	20942
13.02098	21603
13.02910	18749
13.03723	20491
13.04535	20914
13.05347	18858
13.06160	21206
13.06972	21953
13.07785	21690
13.08597	22129
13.09408	25754
13.10222	20617
13.11033	23813
13.11847	19326
13.12658	22221
13.13470	21506
13.14283	19042
13.15095	18443
13.15907	21185
13.16720	19515
13.17532	22647
13.18345	21235
13.19157	21599
13.19968	19430
13.20782	21096
13.21593	23003
13.22407	21401
13.23218	18602
13.24030	19299
13.24843	21163
13.25655	22315
13.26468	20296
13.27280	20991
13.28092	19476
13.28905	23767
13.29717	20232
13.30528	20780
13.31342	21063
13.32153	17412
13.32967	22174
13.33778	19643
13.34590	22954
13.35403	18192
13.36215	20827
13.37028	18537
13.37840	21321
13.38652	19303
13.39465	19401
13.40277	20128
13.41088	21688
13.41902	21067
13.42713	19147
13.43527	18157
13.44338	18196
13.45150	20523
13.45963	20512
13.46775	23069
13.47588	28115
13.48400	19041
13.49212	21644
13.50025	19910
13.50837	20419
13.51650	21655
13.52462	21634
13.53273	21767
13.54087	21448
13.54898	24618
13.55710	21529
13.56523	20011
13.57335	19855
13.58148	23508
13.58960	21269
13.59772	23010
13.60585	18815
13.61397	19283
13.62210	22635
13.63022	20213
13.63833	20530
13.64647	18949
13.65458	20139
13.66270	19975
13.67083	20890
13.67895	21229
13.68708	19307
13.69520	18833
13.70332	20311
13.71145	18354
13.71957	20030
13.72770	18768
13.73582	20385
13.74393	20128
13.75207	23065
13.76018	21837
13.76832	20714
13.77643	21914
13.78455	22301
13.79268	21325
13.80080	23637
13.80892	21536
13.81705	22502
13.82517	20132
13.83330	23455
13.84142	24916
13.84953	18805
13.85767	19063
13.86578	19477
13.87392	19750
13.88203	21812
13.89015	19461
13.89828	22565
13.90640	24293
13.91453	20484
13.92265	20759
13.93077	22439
13.93890	21260
13.94702	23057
13.95513	19955
13.96327	21883
13.97138	24786
13.97952	22442
13.98763	19723
13.99575	21666
14.00388	20589
14.01200	19689
14.02013	23933
14.02825	21508
14.03637	21344
14.04450	20673
14.05262	20137
14.06073	20422
14.06887	25224
14.07698	22164
14.08512	18362
14.09323	20058
14.10135	21655
14.10948	23246
14.11760	18766
14.12573	21345
14.13385	20166
14.14197	22514
14.15010	26144
14.15822	22683
14.16635	23052
14.17447	26839
14.18258	23318
14.19072	21287
14.19883	21359
14.20695	22734
14.21508	21267
14.22320	21689
14.23133	21321
14.23945	18258
14.24757	20306
14.25570	19771
14.26382	18626
14.27195	21481
14.28007	20551
14.28818	22026
14.29632	24552
14.30443	21307
14.31257	18395
14.32068	20461
14.32880	19771
14.33693	20685
14.34505	22407
14.35317	21543
14.36130	21885
14.36942	20714
14.37755	22673
14.38567	23662
14.39378	17692
14.40192	19692
14.41003	18782
14.41817	18855
14.42628	19832
14.43440	23408
14.44253	22406
14.45065	19140
14.45877	20568
14.46690	21828
14.47502	22347
14.48315	23331
14.49127	20597
14.49938	21211
14.50752	19197
14.51563	22324
14.52377	24554
14.53188	20532
14.54000	19357
14.54813	20930
14.55625	20506
14.56438	19535
14.57250	22682
14.58062	20104
14.58875	20020
14.59687	19885
14.60498	20250
14.61312	20682
14.62123	19924
14.62937	20508
14.63748	24343
14.64560	18968
14.65373	20582
14.66185	21316
14.66998	18778
14.67810	19172
14.68622	20377
14.69435	21379
14.70247	22176
14.71058	23027
14.71872	22899
14.72683	18556
14.73497	19428
14.74308	21712
14.75120	18210
14.75933	19383
14.76745	18616
14.77558	20280
14.78370	23269
14.79182	20283
14.79995	18474
14.80807	20039
14.81620	19899
14.82432	18277
14.83243	21037
14.84057	19447
14.84868	22756
14.85680	19431
14.86493	22650
14.87305	20268
14.88118	19044
14.88930	23891
14.89742	23582
14.90555	23040
14.91367	20469
14.92180	19383
14.92992	20122
14.93803	17893
14.94617	21569
14.95428	20499
14.96242	20894
14.97053	22399
14.97865	22060
14.98678	20617
14.99490	19167
15.00302	20743
15.01115	19968
15.01927	19039
15.02740	17984
15.03552	19628
15.04363	20202
15.05177	19804
15.05988	18015
15.06802	24975
15.07613	20361
15.08425	19737
15.09238	19584
15.10050	25604
15.10863	26636
15.11675	20782
15.12487	24885
15.13300	25477
15.14112	19054
15.14923	23095
15.15737	22606
15.16548	19949
15.17362	21118
15.18173	23424
15.18985	18696
15.19798	18486
15.20610	24779
15.21423	20410
15.22235	19262
15.23047	19133
15.23860	20175
15.24672	21684
15.25483	22924
15.26297	19504
15.27108	20561
15.27922	21047
15.28733	19227
15.29545	20553
15.30358	22228
15.31170	22774
15.31983	20973
15.32795	19533
15.33607	19011
15.34420	20460
15.35232	20649
15.36045	19443
15.36857	19897
15.37668	19404
15.38482	19610
15.39293	19462
15.40105	19470
15.40918	20577
15.41730	20642
15.42543	18324
15.43355	19573
15.44167	20339
15.44980	18002
15.45792	22761
15.46605	17713
15.47417	17027
15.48228	20935
15.49042	23588
15.49853	20788
15.50665	20679
15.51478	21025
15.52290	26352
15.53103	20560
15.53915	20050
15.54727	19857
15.55540	19533
15.56352	19818
15.57165	22592
15.57977	18852
15.58788	20995
15.59602	21104
15.60413	22379
15.61227	21895
15.62038	18208
15.62850	17435
15.63663	18976
15.64475	23072
15.65287	19054
15.66100	17998
15.66912	20303
15.67725	20215
15.68537	26652
15.69348	21365
15.70162	21002
15.70973	22323
15.71787	21862
15.72598	18966
15.73410	21018
15.74223	21082
15.75035	21253
15.75848	21168
15.76660	21831
15.77472	20575
15.78285	21544
15.79097	18177
15.79908	21278
15.80722	22744
15.81533	18862
15.82347	19197
15.83158	22015
15.83970	21590
15.84783	19846
15.85595	25311
15.86408	16578
15.87220	22038
15.88032	19378
15.88845	19781
15.89657	21031
15.90468	21425
15.91282	19853
15.92093	20181
15.92907	18057
15.93718	22384
15.94530	21518
15.95343	22036
15.96155	22052
15.96968	24338
15.97780	23075
15.98592	19224
15.99405	18182
16.00217	20996
16.01030	20119
16.01842	22534
16.02653	21814
16.03467	18951
16.04278	20889
16.05090	20803
16.05903	23439
16.06715	20083
16.07528	19262
16.08340	21448
16.09152	22242
16.09965	25318
16.10777	20150
16.11590	20838
16.12402	22471
16.13213	21921
16.14027	20907
16.14838	20049
16.15652	26917
16.16463	22862
16.17275	21252
16.18088	20631
16.18900	21881
16.19712	18271
16.20525	22581
16.21337	19561
16.22150	20829
16.22962	26132
16.23773	19536
16.24587	19638
16.25398	22282
16.26212	20483
16.27023	21357
16.27835	21757
16.28648	20144
16.29460	20085
16.30272	20649
16.31085	20009
16.31897	21290
16.32710	24302
16.33522	20291
16.34333	21070
16.35147	20538
16.35958	21716
16.36772	21939
16.37583	20510
16.38395	22764
16.39208	19255
16.40020	22660
16.40833	21291
16.41645	20982
16.42457	20927
16.43270	20598
16.44082	21730
16.44893	22088
16.45707	24158
16.46518	21022
16.47332	21762
16.48143	20427
16.48955	21652
16.49768	20129
16.50580	23848
16.51393	19996
16.52205	22273
16.53017	21408
16.53830	22685
16.54642	21973
16.55453	20344
16.56267	21130
16.57078	21847
16.57892	22583
16.58703	23650
16.59515	20211
16.60328	23588
16.61140	19820
16.61953	21049
16.62765	23829
16.63577	20321
16.64390	17807
16.65202	21040
16.66015	23940
16.66827	25140
16.67638	19694
16.68452	22421
16.69263	22295
16.70075	21791
16.70888	18852
16.71700	22547
16.72513	23633
16.73325	19695
16.74137	23740
16.74950	21483
16.75762	22398
16.76575	19041
16.77387	19491
16.78198	21410
16.79012	22241
16.79823	21215
16.80637	18660
16.81448	20794
16.82260	23482
16.83073	22003
16.83885	20989
16.84697	21427
16.85510	23191
16.86322	21118
16.87135	20904
16.87947	20138
16.88758	19266
16.89572	21528
16.90383	20370
16.91197	21777
16.92008	21030
16.92820	21407
16.93633	20589
16.94445	20149
16.95257	20368
16.96070	19150
16.96882	20700
16.97695	21764
16.98507	21543
16.99318	19628
17.00132	21876
17.00943	22492
17.01757	20964
17.02568	23071
17.03380	23622
17.04193	21211
17.05005	22618
17.05818	21568
17.06630	21164
17.07442	19920
17.08255	24387
17.09067	21209
17.09878	23899
17.10692	18894
17.11503	21817
17.12317	21646
17.13128	22902
17.13940	23067
17.14753	21940
17.15565	21175
17.16378	20679
17.17190	19831
17.18002	24920
17.18815	20340
17.19627	21954
17.20440	22521
17.21252	21139
17.22063	21939
17.22877	19966
17.23688	21166
17.24500	21983
17.25313	19607
17.26125	20916
17.26938	20148
17.27750	22442
17.28562	22299
17.29375	20310
17.30187	21741
17.31000	23895
17.31812	23699
17.32623	19414
17.33437	20446
17.34248	19945
17.35060	21608
17.35873	24455
17.36685	20521
17.37498	23088
17.38310	22678
17.39122	22357
17.39935	22742
17.40747	19802
17.41560	18985
17.42372	18629
17.43183	20985
17.43997	22446
17.44808	22368
17.45622	27309
17.46433	20651
17.47245	20978
17.48058	18774
17.48870	20874
17.49682	22553
17.50495	22033
17.51307	21700
17.52120	21343
17.52932	20276
17.53743	18861
17.54557	20426
17.55368	22540
17.56182	20103
17.56993	21353
17.57805	22116
17.58618	20822
17.59430	19648
17.60243	21184
17.61055	20577
17.61867	19015
17.62680	24044
17.63492	23786
17.64303	23628
17.65117	19064
17.65928	25199
17.66742	20773
17.67553	20416
17.68365	22687
17.69178	25957
17.69990	24152
17.70803	21600
17.71615	22993
17.72427	19973
17.73240	19947
17.74052	19891
17.74863	25982
17.75677	19759
17.76488	19924
17.77302	21090
17.78113	21317
17.78925	20100
17.79738	17310
17.80550	18228
17.81363	21755
17.82175	21838
17.82987	21311
17.83800	19021
17.84612	25662
17.85425	19853
17.86237	24629
17.87048	20533
17.87862	20515
17.88673	22328
17.89485	19217
17.90298	22519
17.91110	26107
17.91923	19846
17.92735	22650
17.93547	21945
17.94360	23686
17.95172	25477
17.95985	26296
17.96797	25213
17.97608	19005
17.98422	19381
17.99233	20249
18.00045	22793
18.00858	20653
18.01670	23163
18.02483	21466
18.03295	21433
18.04107	19844
18.04920	20810
18.05732	23562
18.06545	19033
18.07357	22264
18.08168	20665
18.08982	23155
18.09793	21058
18.10607	25016
18.11418	23639
18.12230	22065
18.13043	19465
18.13855	23989
18.14667	20500
18.15480	19353
18.16292	20591
18.17105	22535
18.17917	27017
18.18728	23736
18.19542	25333
18.20353	21446
18.21167	21832
18.21978	24073
18.22790	20203
18.23603	23055
18.24415	22051
18.25228	20222
18.26040	28021
18.26852	21930
18.27665	19506
18.28477	22588
18.29288	20583
18.30102	21670
18.30913	21190
18.31727	24182
18.32538	20676
18.33350	23884
18.34163	22126
18.34975	21097
18.35788	20736
18.36600	21365
18.37412	21727
18.38225	21799
18.39037	21849
18.39848	21039
18.40662	26520
18.41473	21572
18.42287	20688
18.43098	19967
18.43910	21100
18.44723	23126
18.45535	22334
18.46348	22421
18.47160	22413
18.47972	17131
18.48785	22639
18.49597	22339
18.50410	20137
18.51222	20954
18.52033	22966
18.52847	22814
18.53658	20419
18.54470	22651
18.55283	23345
18.56095	22141
18.56908	22145
18.57720	19509
18.58532	20552
18.59345	24523
18.60157	21013
18.60970	23452
18.61782	21325
18.62593	21440
18.63407	24405
18.64218	22649
18.65032	24168
18.65843	23062
18.66655	20622
18.67468	20949
18.68280	20800
18.69092	25449
18.69905	26764
18.70717	21407
18.71530	20435
18.72342	21603
18.73153	21793
18.73967	24711
18.74778	22414
18.75592	20559
18.76403	22861
18.77215	21970
18.78028	20881
18.78840	21419
18.79652	24100
18.80465	22135
18.81277	23076
18.82090	22745
18.82902	23892
18.83713	22242
18.84527	26544
18.85338	21092
18.86152	22294
18.86963	21621
18.87775	19348
18.88588	20307
18.89400	26279
18.90213	21411
18.91025	21558
18.91837	21630
18.92650	22407
18.93462	22715
18.94273	19696
18.95087	23007
18.95898	23107
18.96712	23238
18.97523	20952
18.98335	24940
18.99148	21098
18.99960	23636
19.00773	21884
19.01585	21140
19.02397	20877
19.03210	20815
19.04022	23242
19.04833	21475
19.05647	23590
19.06458	19979
19.07272	22623
19.08083	22031
19.08895	20328
19.09708	24030
19.10520	23616
19.11333	22651
19.12145	20397
19.12957	22744
19.13770	20444
19.14582	19839
19.15395	24184
19.16207	24175
19.17018	23568
19.17832	25101
19.18643	20300
19.19455	22469
19.20268	21462
19.21080	24247
19.21893	22724
19.22705	23722
19.23517	22732
19.24330	21840
19.25142	21894
19.25955	21397
19.26767	20327
19.27578	21397
19.28392	21162
19.29203	20726
19.30017	22204
19.30828	20442
19.31640	20194
19.32453	22597
19.33265	22481
19.34077	21093
19.34890	24388
19.35702	20212
19.36515	22707
19.37327	22682
19.38138	22387
19.38952	22802
19.39763	26612
19.40577	22320
19.41388	23896
19.42200	23146
19.43013	22236
19.43825	22335
19.44638	24281
19.45450	23735
19.46262	21386
19.47075	23666
19.47887	24222
19.48698	23147
19.49512	22668
19.50323	21371
19.51137	23496
19.51948	25459
19.52760	20664
19.53573	23356
19.54385	27658
19.55198	22402
19.56010	25305
19.56822	25605
19.57635	21226
19.58447	23083
19.59258	22642
19.60072	23490
19.60883	23312
19.61697	19886
19.62508	21559
19.63320	25720
19.64133	21286
19.64945	22317
19.65758	23541
19.66570	22878
19.67382	24391
19.68195	23554
19.69007	23316
19.69820	22869
19.70632	23724
19.71443	22549
19.72257	23833
19.73068	24388
19.73880	21090
19.74693	26025
19.75505	23068
19.76318	21264
19.77130	20818
19.77942	19960
19.78755	21139
19.79567	21423
19.80380	23374
19.81192	21929
19.82003	19494
19.82817	24962
19.83628	22753
19.84440	21272
19.85253	28192
19.86065	20111
19.86878	21398
19.87690	22254
19.88502	22272
19.89315	20586
19.90127	23890
19.90940	21291
19.91752	23474
19.92563	21532
19.93377	22191
19.94188	24010
19.95002	24754
19.95813	22158
19.96625	22404
19.97438	22638
19.98250	25153
19.99062	25271
19.99875	23227
20.00687	23760
20.01500	25367
20.02312	22955
20.03123	23264
20.03937	20268
20.04748	21836
20.05562	22785
20.06373	22671
20.07185	28977
20.07998	22299
20.08810	21479
20.09623	21169
20.10435	23860
20.11247	24878
20.12060	20938
20.12872	22693
20.13683	23618
20.14497	20839
20.15308	26383
20.16122	22432
20.16933	21775
20.17745	18548
20.18558	21963
20.19370	21509
20.20183	22900
20.20995	21736
20.21807	21556
20.22620	21061
20.23432	22585
20.24243	25686
20.25057	24308
20.25868	23562
20.26682	26718
20.27493	23799
20.28305	24889
20.29118	23558
20.29930	22163
20.30743	22997
20.31555	22078
20.32367	20603
20.33180	23779
20.33992	21738
20.34805	21305
20.35617	19720
20.36428	22007
20.37242	21383
20.38053	22193
20.38865	26006
20.39678	21929
20.40490	22099
20.41303	24172
20.42115	22477
20.42927	22064
20.43740	21217
20.44552	27042
20.45365	22660
20.46177	21451
20.46988	22412
20.47802	22891
20.48613	22978
20.49427	27173
20.50238	21474
20.51050	23745
20.51863	24408
20.52675	22364
20.53487	21529
20.54300	22959
20.55112	25946
20.55925	21807
20.56737	23250
20.57548	23758
20.58362	20078
20.59173	21744
20.59987	22840
20.60798	21168
20.61610	24837
20.62423	23239
20.63235	20350
20.64047	24179
20.64860	25840
20.65672	21547
20.66485	22020
20.67297	23557
20.68108	23729
20.68922	19704
20.69733	22609
20.70547	21311
20.71358	28192
20.72170	21697
20.72983	21875
20.73795	20426
20.74608	22237
20.75420	23094
20.76232	22350
20.77045	20931
20.77857	22987
20.78668	24051
20.79482	28223
20.80293	22600
20.81107	21927
20.81918	25400
20.82730	21560
20.83543	23097
20.84355	26979
20.85168	23224
20.85980	23088
20.86792	28776
20.87605	23850
20.88417	24890
20.89228	20233
20.90042	19582
20.90853	20209
20.91667	23484
20.92478	22854
20.93290	22586
20.94103	25534
20.94915	21829
20.95728	28672
20.96540	21878
20.97352	24528
20.98165	22072
20.98977	21406
20.99790	23190
21.00602	22019
21.01413	22641
21.02227	21068
21.03038	20716
21.03850	22102
21.04663	22149
21.05475	23133
21.06288	23370
21.07100	24483
21.07912	22334
21.08725	21816
21.09537	22054
21.10350	22728
21.11162	21172
21.11973	21348
21.12787	21752
21.13598	20145
21.14412	20325
21.15223	20815
21.16035	22898
21.16848	24286
21.17660	24056
21.18472	23382
21.19285	21745
21.20097	22373
21.20910	23283
21.21722	20578
21.22533	22173
21.23347	24232
21.24158	22424
21.24972	21859
21.25783	22345
21.26595	20144
21.27408	22626
21.28220	23777
21.29032	22000
21.29845	22506
21.30657	20979
21.31470	23481
21.32282	22094
21.33093	25405
21.33907	25673
21.34718	20758
21.35532	21197
21.36343	20876
21.37155	23086
21.37968	22090
21.38780	22606
21.39593	23177
21.40405	27071
21.41217	23654
21.42030	22970
21.42842	21919
21.43653	25549
21.44467	20828
21.45278	23234
21.46092	22466
21.46903	25340
21.47715	23222
21.48528	23924
21.49340	24809
21.50153	22714
21.50965	23307
21.51777	23583
21.52590	22145
21.53402	21475
21.54215	22197
21.55027	22799
21.55838	20095
21.56652	22152
21.57463	27799
21.58275	23017
21.59088	24132
21.59900	23368
21.60713	21983
21.61525	23551
21.62337	25341
21.63150	21063
21.63962	22882
21.64775	24395
21.65587	24576
21.66398	20753
21.67212	22385
21.68023	22914
21.68835	22387
21.69648	26797
21.70460	25384
21.71273	22437
21.72085	21204
21.72897	23817
21.73710	21875
21.74522	21952
21.75335	27446
21.76147	24560
21.76958	22030
21.77772	23108
21.78583	25016
21.79397	24312
21.80208	22584
21.81020	24736
21.81833	22255
21.82645	20419
21.83457	21984
21.84270	22248
21.85082	23946
21.85895	21282
21.86707	24052
21.87518	22142
21.88332	20826
21.89143	22925
21.89957	25725
21.90768	27822
21.91580	23088
21.92393	24484
21.93205	25081
21.94017	23503
21.94830	24977
21.95642	23493
21.96455	23392
21.97267	24231
21.98078	21018
21.98892	25247
21.99703	21717
22.00517	23371
22.01328	20673
22.02140	24472
22.02953	22148
22.03765	21644
22.04578	21662
22.05390	22333
22.06202	22000
22.07015	20772
22.07827	23299
22.08638	26772
22.09452	23948
22.10263	22855
22.11077	25584
22.11888	22850
22.12700	22924
22.13513	22534
22.14325	21776
22.15138	24736
22.15950	19812
22.16762	20046
22.17575	23628
22.18387	20714
22.19200	22465
22.20012	22160
22.20823	23827
22.21637	24175
22.22448	26089
22.23260	23446
22.24073	24106
22.24885	22119
22.25698	23201
22.26510	22444
22.27322	21256
22.28135	20238
22.28947	21774
22.29760	24404
22.30572	23166
22.31383	24550
22.32197	22436
22.33008	24617
22.33820	23293
22.34633	22135
22.35445	19685
22.36258	23055
22.37070	23242
22.37882	24154
22.38695	23147
22.39507	25060
22.40320	23030
22.41132	20423
22.41943	23034
22.42757	21089
22.43568	22983
22.44382	21704
22.45193	21678
22.46005	22452
22.46818	24127
22.47630	23163
22.48442	23824
22.49255	24032
22.50067	24675
22.50880	23178
22.51692	21934
22.52503	24634
22.53317	24572
22.54128	24481
22.54942	22585
22.55753	22910
22.56565	20003
22.57378	24208
22.58190	25954
22.59003	25487
22.59815	24139
22.60627	24414
22.61440	23491
22.62252	24585
22.63063	23735
22.63877	24824
22.64688	21777
22.65502	22056
22.66313	24039
22.67125	21710
22.67938	23369
22.68750	24293
22.69563	24694
22.70375	22922
22.71187	23435
22.72000	23254
22.72812	22113
22.73623	23146
22.74437	23566
22.75248	26817
22.76062	22092
22.76873	21441
22.77685	20920
22.78498	23731
22.79310	22022
22.80123	26382
22.80935	21339
22.81747	19796
22.82560	21679
22.83372	22771
22.84185	21557
22.84997	20983
22.85808	26360
22.86622	20300
22.87433	23605
22.88245	24101
22.89058	20873
22.89870	22469
22.90683	27214
22.91495	24099
22.92307	22169
22.93120	21491
22.93932	21562
22.94745	24095
22.95557	20704
22.96368	22591
22.97182	23221
22.97993	23204
22.98807	25128
22.99618	21497
23.00430	25079
23.01243	23831
23.02055	24493
23.02867	22834
23.03680	20502
23.04492	27204
23.05305	22973
23.06117	22535
23.06928	24724
23.07742	22904
23.08553	23810
23.09367	23664
23.10178	25419
23.10990	21715
23.11803	22452
23.12615	21494
23.13427	20895
23.14240	24411
23.15052	23796
23.15865	23666
23.16677	23110
23.17488	22661
23.18302	22219
23.19113	23035
23.19927	21888
23.20738	20989
23.21550	22164
23.22363	22075
23.23175	22917
23.23988	24340
23.24800	20669
23.25612	22213
23.26425	24029
23.27237	23087
23.28048	22972
23.28862	22563
23.29673	22649
23.30487	21567
23.31298	20860
23.32110	25344
23.32923	22059
23.33735	23681
23.34548	24313
23.35360	24091
23.36172	21192
23.36985	23272
23.37797	22954
23.38608	22403
23.39422	22921
23.40233	22525
23.41047	24163
23.41858	21805
23.42670	22371
23.43483	26070
23.44295	22196
23.45108	24312
23.45920	23273
23.46732	25161
23.47545	20073
23.48357	23365
23.49170	23031
23.49982	23205
23.50793	24761
23.51607	23812
23.52418	26500
23.53230	24093
23.54043	21812
23.54855	21391
23.55668	21130
23.56480	24234
23.57292	22126
23.58105	22171
23.58917	24189
23.59730	19387
23.60542	19938
23.61353	20965
23.62167	27423
23.62978	23186
23.63792	24421
23.64603	23666
23.65415	20745
23.66228	24095
23.67040	23302
23.67852	20686
23.68665	23463
23.69477	24653
23.70290	21497
23.71102	21483
23.71913	21873
23.72727	22336
23.73538	22648
23.74352	21079
23.75163	27081
23.75975	20342
23.76788	21635
23.77600	22420
23.78412	22814
23.79225	23790
23.80037	21637
23.80850	24655
23.81662	25363
23.82473	27647
23.83287	24055
23.84098	22536
23.84912	19724
23.85723	21593
23.86535	22268
23.87348	26958
23.88160	20455
23.88973	24521
23.89785	21374
23.90597	22494
23.91410	22466
23.92222	22545
23.93033	22320
23.93847	20686
23.94658	23676
23.95472	22554
23.96283	22729
23.97095	21171
23.97908	21526
23.98720	23292
23.99533	24111
24.00345	21807
24.01157	20610
24.01970	20415
24.02782	24409
24.03595	22046
24.04407	27708
24.05218	22372
24.06032	22453
24.06843	19857
24.07655	21669
24.08468	23309
24.09280	21569
24.10093	21372
24.10905	19953
24.11717	21611
24.12530	22557
24.13342	19580
24.14155	23356
24.14967	21189
24.15778	21243
24.16592	21095
24.17403	21392
24.18215	20961
24.19028	20547
24.19840	20415
24.20653	21900
24.21465	20793
24.22277	21317
24.23090	21731
24.23902	27235
24.24715	25969
24.25527	26293
24.26338	22956
24.27152	25498
24.27963	21251
24.28777	23264
24.29588	23647
24.30400	21300
24.31213	22589
24.32025	20315
24.32837	19393
24.33650	22883
24.34462	22650
24.35275	20677
24.36087	21211
24.36898	21650
24.37712	19501
24.38523	19666
24.39337	23281
24.40148	22133
24.40960	23466
24.41773	22398
24.42585	21988
24.43397	22648
24.44210	20290
24.45022	20126
24.45835	22250
24.46647	20643
24.47458	24967
24.48272	21744
24.49083	21541
24.49897	23206
24.50708	21857
24.51520	22768
24.52333	22373
24.53145	20171
24.53958	18685
24.54770	27255
24.55582	22733
24.56395	19871
24.57207	19875
24.58018	22085
24.58832	21091
24.59643	20871
24.60457	19871
24.61268	20159
24.62080	19063
24.62893	19578
24.63705	22619
24.64518	20465
24.65330	22503
24.66142	18676
24.66955	19443
24.67767	22625
24.68580	20480
24.69392	21164
24.70203	19019
24.71017	21833
24.71828	18627
24.72640	21793
24.73453	21417
24.74265	20801
24.75078	19809
24.75890	20324
24.76702	18769
24.77515	20653
24.78327	23045
24.79140	24812
24.79952	21132
24.80763	20853
24.81577	19291
24.82388	23051
24.83202	20560
24.84013	23158
24.84825	19516
24.85638	18211
24.86450	19301
24.87262	19108
24.88075	19478
24.88887	21225
24.89700	21315
24.90512	21183
24.91323	21082
24.92137	19548
24.92948	24017
24.93762	20184
24.94573	21692
24.95385	17932
24.96198	19312
24.97010	22826
24.97822	25037
24.98635	20034
24.99447	21662
25.00260	22411
25.01072	21384
25.01883	20171
25.02697	22427
25.03508	18930
25.04322	20365
25.05133	21657
25.05945	20945
25.06758	21960
25.07570	22799
25.08383	18195
25.09195	19072
25.10007	19887
25.10820	20712
25.11632	20919
25.12443	26946
25.13257	18719
25.14068	25714
25.14882	21589
25.15693	21713
25.16505	22382
25.17318	20777
25.18130	21746
25.18943	23728
25.19755	18908
25.20567	19583
25.21380	23558
25.22192	19704
25.23003	20802
25.23817	19160
25.24628	19531
25.25442	20022
25.26253	20317
25.27065	22607
25.27878	20424
25.28690	20643
25.29503	18481
25.30315	20903
25.31127	21690
25.31940	19613
25.32752	25369
25.33565	23222
25.34377	22420
25.35188	20770
25.36002	21567
25.36813	21771
25.37625	25650
25.38438	21950
25.39250	18685
25.40063	22474
25.40875	20335
25.41687	20145
25.42500	19559
25.43312	19847
25.44125	20644
25.44937	21336
25.45748	22484
25.46562	20341
25.47373	22335
25.48187	22226
25.48998	20350
25.49810	21915
25.50623	18170
25.51435	18820
25.52247	21600
25.53060	19964
25.53872	20170
25.54685	21023
25.55497	20072
25.56308	20418
25.57122	18757
25.57933	23947
25.58747	21883
25.59558	17753
25.60370	19679
25.61183	20716
25.61995	23305
25.62807	20809
25.63620	17827
25.64432	20334
25.65245	19920
25.66057	19896
25.66868	16318
25.67682	18628
25.68493	21007
25.69307	19126
25.70118	20491
25.70930	23741
25.71743	19090
25.72555	20537
25.73368	17686
25.74180	19345
25.74992	24353
25.75805	18479
25.76617	18176
25.77428	18990
25.78242	23034
25.79053	21368
25.79867	21255
25.80678	21603
25.81490	18731
25.82303	19867
25.83115	16653
25.83928	17578
25.84740	21406
25.85552	20713
25.86365	22537
25.87177	23398
25.87990	18975
25.88802	18540
25.89613	19085
25.90427	21861
25.91238	18368
25.92050	19889
25.92863	19352
25.93675	17986
25.94488	24122
25.95300	20985
25.96112	23287
25.96925	21864
25.97737	18557
25.98550	19760
25.99362	21646
26.00173	19205
26.00987	19175
26.01798	19526
26.02610	18575
26.03423	19527
26.04235	19629
26.05048	18469
26.05860	17222
26.06672	20419
26.07485	19874
26.08297	20357
26.09110	19063
26.09922	18534
26.10733	21528
26.11547	19326
26.12358	19175
26.13172	22634
26.13983	20950
26.14795	19324
26.15608	19160
26.16420	20362
26.17232	16648
26.18045	22612
26.18857	18907
26.19670	23812
26.20482	23298
26.21293	17878
26.22107	19574
26.22918	20859
26.23732	18298
26.24543	17188
26.25355	20630
26.26168	21522
26.26980	24173
26.27792	20937
26.28605	21986
26.29417	20962
26.30230	20799
26.31042	18606
26.31853	22231
26.32667	20812
26.33478	22630
26.34292	20199
26.35103	20038
26.35915	18929
26.36728	21364
26.37540	19444
26.38353	18883
26.39165	19691
26.39977	21610
26.40790	19174
26.41602	18462
26.42413	19655
26.43227	23090
26.44038	22253
26.44852	21124
26.45663	17253
26.46475	19430
26.47288	18265
26.48100	20253
26.48913	19318
26.49725	22578
26.50537	20810
26.51350	22387
26.52162	19294
26.52975	20144
26.53787	25088
26.54598	19393
26.55412	23569
26.56223	20590
26.57035	21581
26.57848	20701
26.58660	18988
26.59473	21166
26.60285	21359
26.61097	21503
26.61910	19802
26.62722	21031
26.63535	22561
26.64347	20683
26.65158	19335
26.65972	20452
26.66783	20199
26.67595	21244
26.68408	19836
26.69220	20337
26.70033	18961
26.70845	21679
26.71657	22228
26.72470	21284
26.73282	18499
26.74095	19147
26.74907	18214
26.75718	20702
26.76532	20684
26.77343	20733
26.78157	23043
26.78968	19017
26.79780	19747
26.80593	18032
26.81405	19533
26.82217	20330
26.83030	20627
26.83842	20713
26.84655	18589
26.85467	20805
26.86278	19070
26.87092	20575
26.87903	21491
26.88717	20171
26.89528	18151
26.90340	18411
26.91153	16850
26.91965	18348
26.92778	18365
26.93590	20391
26.94402	20772
26.95215	19724
26.96027	20325
26.96838	21790
26.97652	18427
26.98463	21766
26.99277	19559
27.00088	20264
27.00900	21300
27.01713	21109
27.02525	20800
27.03338	25412
27.04150	21661
27.04962	20366
27.05775	22384
27.06587	20098
27.07398	20222
27.08212	23781
27.09023	18377
27.09837	21141
27.10648	22518
27.11460	19629
27.12273	20014
27.13085	20540
27.13898	18106
27.14710	21540
27.15522	20954
27.16335	17466
27.17147	19612
27.17960	21069
27.18772	21441
27.19583	22182
27.20397	21238
27.21208	19646
27.22020	20312
27.22833	20825
27.23645	18941
27.24458	21043
27.25270	20941
27.26082	21579
27.26895	19911
27.27707	19749
27.28520	19582
27.29332	18870
27.30143	20319
27.30957	19248
27.31768	19928
27.32580	22479
27.33393	24656
27.34205	19847
27.35018	20191
27.35830	20272
27.36642	17971
27.37455	20172
27.38267	20081
27.39080	18772
27.39892	20185
27.40703	24175
27.41517	19796
27.42328	21148
27.43142	18073
27.43953	21298
27.44765	19148
27.45578	20271
27.46390	19538
27.47202	23007
27.48015	19447
27.48827	19108
27.49640	18144
27.50452	21133
27.51263	17659
27.52077	20832
27.52888	20589
27.53702	21090
27.54513	19599
27.55325	21353
27.56138	20861
27.56950	24996
27.57763	19682
27.58575	21905
27.59387	18213
27.60200	20271
27.61012	21023
27.61823	20991
27.62637	21500
27.63448	19706
27.64262	22876
27.65073	17805
27.65885	19664
27.66698	19659
27.67510	23767
27.68323	22148
27.69135	20986
27.69947	21435
27.70760	20188
27.71572	21616
27.72383	21261
27.73197	17673
27.74008	20878
27.74822	20687
27.75633	20723
27.76445	21665
27.77258	22918
27.78070	20864
27.78883	21607
27.79695	24718
27.80507	20341
27.81320	19801
27.82132	23070
27.82945	20129
27.83757	21180
27.84568	23210
27.85382	22977
27.86193	21045
27.87005	20108
27.87818	20903
27.88630	21615
27.89443	19115
27.90255	19943
27.91067	21540
27.91880	21265
27.92692	23779
27.93505	20218
27.94317	19245
27.95128	20532
27.95942	19091
27.96753	18962
27.97567	21999
27.98378	20291
27.99190	22817
28.00003	20123
28.00815	23976
28.01627	20328
28.02440	24495
28.03252	20906
28.04065	21779
28.04877	20302
28.05688	20392
28.06502	23491
28.07313	21121
28.08127	19292
28.08938	21093
28.09750	20157
28.10563	22629
28.11375	21481
28.12187	19044
28.13000	19798
28.13812	21223
28.14625	21979
28.15437	20147
28.16248	22272
28.17062	19551
28.17873	21081
28.18687	20881
28.19498	21030
28.20310	19465
28.21123	22709
28.21935	18358
28.22748	20844
28.23560	22176
28.24372	21935
28.25185	19363
28.25997	20838
28.26808	20839
28.27622	17261
28.28433	21027
28.29247	21192
28.30058	21797
28.30870	23754
28.31683	20930
28.32495	20414
28.33308	23523
28.34120	19759
28.34932	19095
28.35745	23182
28.36557	22448
28.37370	21063
28.38182	22945
28.38993	21638
28.39807	27517
28.40618	21574
28.41430	22234
28.42243	21547
28.43055	25255
28.43868	20944
28.44680	21426
28.45492	22330
28.46305	23195
28.47117	22600
28.47930	20026
28.48742	20169
28.49553	22399
28.50367	22382
28.51178	20731
28.51990	20849
28.52803	18731
28.53615	19726
28.54428	21634
28.55240	25943
28.56052	20247
28.56865	21635
28.57677	24030
28.58490	22594
28.59302	22794
28.60113	20348
28.60927	22863
28.61738	21658
28.62552	18874
28.63363	22921
28.64175	22390
28.64988	20852
28.65800	20942
28.66612	24258
28.67425	22378
28.68237	22575
28.69050	21710
28.69862	19405
28.70673	23801
28.71487	19817
28.72298	24805
28.73112	21937
28.73923	28259
28.74735	21941
28.75548	20089
28.76360	19920
28.77172	20488
28.77985	20435
28.78797	24909
28.79610	24918
28.80422	17878
28.81233	20252
28.82047	21213
28.82858	22565
28.83672	20106
28.84483	24545
28.85295	24569
28.86108	21375
28.86920	20536
28.87733	20836
28.88545	22191
28.89357	18089
28.90170	21503
28.90982	24080
28.91793	19180
28.92607	24060
28.93418	21555
28.94232	20435
28.95043	24881
28.95855	24045
28.96668	22141
28.97480	22517
28.98293	21804
28.99105	22414
28.99917	21623
29.00730	20595
29.01542	22499
29.02355	23421
29.03167	24052
29.03978	22811
29.04792	18680
29.05603	21149
29.06415	26289
29.07228	21285
29.08040	19581
29.08853	22974
29.09665	23673
29.10477	23212
29.11290	20869
29.12102	20568
29.12915	23651
29.13727	21988
29.14538	23088
29.15352	23292
29.16163	21232
29.16975	21585
29.17788	21477
29.18600	23930
29.19413	21250
29.20225	24295
29.21037	20545
29.21850	21577
29.22662	19757
29.23475	23168
29.24287	20852
29.25098	21362
29.25912	21528
29.26723	21777
29.27537	23569
29.28348	20484
29.29160	19971
29.29973	21428
29.30785	21721
29.31597	23746
29.32410	24700
29.33222	23067
29.34035	23624
29.34847	24631
29.35658	22557
29.36472	22455
29.37283	21191
29.38097	25797
29.38908	26535
29.39720	19648
29.40533	19288
29.41345	21133
29.42158	23448
29.42970	24777
29.43782	22399
29.44595	22407
29.45407	21184
29.46218	19633
29.47032	23541
29.47843	26010
29.48657	24459
29.49468	22771
29.50280	22895
29.51093	23013
29.51905	23990
29.52718	22338
29.53530	22238
29.54342	24640
29.55155	22565
29.55967	21557
29.56778	24117
29.57592	20594
29.58403	20929
29.59217	25810
29.60028	22505
29.60840	22743
29.61653	18349
29.62465	22259
29.63278	22259
29.64090	19307
29.64902	21639
29.65715	18779
29.66527	25507
29.67340	22042
29.68152	25386
29.68963	23769
29.69777	25402
29.70588	23208
29.71400	24268
29.72213	24145
29.73025	23732
29.73838	21914
29.74650	23011
29.75462	23958
29.76275	23017
29.77087	23587
29.77900	22558
29.78712	22997
29.79523	24041
29.80337	21403
29.81148	24107
29.81960	20175
29.82773	21734
29.83585	22622
29.84398	20744
29.85210	25818
29.86022	21382
29.86835	22454
29.87647	23225
29.88460	26073
29.89272	23976
29.90083	21902
29.90897	21862
29.91708	23026
29.92522	24424
29.93333	22859
29.94145	25936
29.94958	23518
29.95770	20861
29.96582	21561
29.97395	23754
29.98207	25220
29.99020	23322
29.99832	21509
30.00643	23462
30.01457	27442
30.02268	21855
30.03082	23610
30.03893	22772
30.04705	20639
30.05518	23391
30.06330	24781
30.07143	25099
30.07955	22806
30.08767	22375
30.09580	28520
30.10392	23742
30.11203	21337
30.12017	22413
30.12828	23628
30.13642	22700
30.14453	21254
30.15265	24972
30.16078	20474
30.16890	25205
30.17703	21687
30.18515	25204
30.19327	22927
30.20140	24010
30.20952	21188
30.21765	26743
30.22577	23959
30.23388	23888
30.24202	27219
30.25013	24834
30.25825	22227
30.26638	24555
30.27450	21732
30.28263	22100
30.29075	22148
30.29887	22374
30.30700	21065
30.31512	23411
30.32325	21489
30.33137	21844
30.33948	22882
30.34762	25148
30.35573	22756
30.36385	24648
30.37198	20905
30.38010	21534
30.38823	21522
30.39635	24190
30.40447	21315
30.41260	21666
30.42072	23453
30.42885	25393
30.43697	25808
30.44508	22957
30.45322	23715
30.46133	26396
30.46947	24800
30.47758	24461
30.48570	21559
30.49383	24002
30.50195	21459
30.51007	23020
30.51820	22778
30.52632	23097
30.53445	23838
30.54257	22650
30.55068	23959
30.55882	23967
30.56693	23152
30.57507	24099
30.58318	23002
30.59130	22032
30.59943	23425
30.60755	24042
30.61567	23810
30.62380	22575
30.63192	24361
30.64005	26030
30.64817	25136
30.65628	20392
30.66442	23927
30.67253	23921
30.68067	24586
30.68878	24610
30.69690	22332
30.70503	23201
30.71315	25368
30.72128	26709
30.72940	22519
30.73752	21876
30.74565	22290
30.75377	21670
30.76188	27389
30.77002	21246
30.77813	24267
30.78627	22839
30.79438	27976
30.80250	21714
30.81063	23023
30.81875	22768
30.82688	23332
30.83500	26350
30.84312	22676
30.85125	23187
30.85937	24086
30.86750	24916
30.87562	25065
30.88373	24325
30.89187	24489
30.89998	25964
30.90810	28946
30.91623	25992
30.92435	24671
30.93248	22117
30.94060	26086
30.94872	21628
30.95685	25516
30.96497	21864
30.97310	22079
30.98122	21363
30.98933	23669
30.99747	24905
31.00558	24012
31.01370	24398
31.02183	24241
31.02995	25034
31.03808	23056
31.04620	22968
31.05432	25173
31.06245	24425
31.07057	26201
31.07870	24452
31.08682	29192
31.09493	24527
31.10307	23469
31.11118	23943
31.11932	23193
31.12743	25512
31.13555	27752
31.14368	24229
31.15180	21938
31.15992	23945
31.16805	26042
31.17617	23581
31.18430	26363
31.19242	25608
31.20053	26842
31.20867	27215
31.21678	26282
31.22492	24969
31.23303	26199
31.24115	28078
31.24928	25787
31.25740	27748
31.26553	27763
31.27365	24576
31.28177	25091
31.28990	23734
31.29802	25369
31.30613	22690
31.31427	26933
31.32238	25799
31.33052	22635
31.33863	28138
31.34675	27064
31.35488	27349
31.36300	24792
31.37113	26263
31.37925	25975
31.38737	24797
31.39550	22648
31.40362	23702
31.41173	25870
31.41987	24856
31.42798	26921
31.43612	26321
31.44423	22161
31.45235	25467
31.46048	25239
31.46860	24396
31.47673	25372
31.48485	26773
31.49297	26076
31.50110	25462
31.50922	23510
31.51735	25076
31.52547	25659
31.53358	25655
31.54172	24328
31.54983	22062
31.55795	24327
31.56608	25057
31.57420	27184
31.58233	24030
31.59045	24119
31.59857	25120
31.60670	23538
31.61482	28762
31.62295	25431
31.63107	27054
31.63918	29406
31.64732	26464
31.65543	26715
31.66355	25418
31.67168	31404
31.67980	26728
31.68793	25878
31.69605	26124
31.70417	25689
31.71230	27540
31.72042	24041
31.72855	24476
31.73667	25199
31.74478	24085
31.75292	24750
31.76103	25603
31.76917	27230
31.77728	26022
31.78540	27393
31.79353	24303
31.80165	25049
31.80977	26683
31.81790	26484
31.82602	27669
31.83415	25958
31.84227	27432
31.85038	25337
31.85852	29379
31.86663	25542
31.87477	26096
31.88288	24588
31.89100	30840
31.89913	24155
31.90725	26438
31.91538	27852
31.92350	28160
31.93162	24790
31.93975	26631
31.94787	22846
31.95598	26568
31.96412	26602
31.97223	25405
31.98037	26641
31.98848	26517
31.99660	27256
32.00473	25844
32.01285	26610
32.02098	27958
32.02910	28228
32.03722	24541
32.04535	26856
32.05347	26257
32.06158	27655
32.06972	24247
32.07783	25798
32.08597	27977
32.09408	26391
32.10220	29553
32.11033	27627
32.11845	27934
32.12658	27646
32.13470	29912
32.14282	24604
32.15095	29964
32.15907	29044
32.16720	25941
32.17532	25380
32.18343	24742
32.19157	26313
32.19968	27850
32.20780	28036
32.21593	27440
32.22405	26980
32.23218	29640
32.24030	26984
32.24842	27310
32.25655	26939
32.26467	29484
32.27280	26300
32.28092	30287
32.28903	26766
32.29717	26616
32.30528	28175
32.31342	28431
32.32153	25903
32.32965	26083
32.33778	28117
32.34590	28626
32.35402	28330
32.36215	27007
32.37027	28241
32.37840	25660
32.38652	23562
32.39463	25965
32.40277	28979
32.41088	27579
32.41902	29975
32.42713	32604
32.43525	28334
32.44338	27335
32.45150	24930
32.45962	24702
32.46775	28335
32.47587	25579
32.48400	29203
32.49212	26950
32.50023	25804
32.50837	24109
32.51648	25135
32.52462	28933
32.53273	26843
32.54085	27419
32.54898	26253
32.55710	28207
32.56523	26217
32.57335	28507
32.58147	28317
32.58960	28627
32.59772	28301
32.60583	28025
32.61397	29980
32.62208	30461
32.63022	29065
32.63833	25540
32.64645	26546
32.65458	26638
32.66270	27158
32.67083	28314
32.67895	28751
32.68707	33238
32.69520	29947
32.70332	28791
32.71145	24280
32.71957	27019
32.72768	29927
32.73582	26283
32.74393	27218
32.75205	28110
32.76018	27372
32.76830	25722
32.77643	30605
32.78455	35510
32.79267	30024
32.80080	30074
32.80892	31111
32.81705	30764
32.82517	30684
32.83328	32704
32.84142	28759
32.84953	30255
32.85765	27033
32.86578	29856
32.87390	27328
32.88203	28855
32.89015	27964
32.89827	30380
32.90640	28896
32.91452	29547
32.92265	33162
32.93077	31723
32.93888	28166
32.94702	30668
32.95513	30065
32.96327	34545
32.97138	26861
32.97950	29355
32.98763	29757
32.99575	30833
33.00387	31369
33.01200	30886
33.02012	30147
33.02825	29965
33.03637	30353
33.04448	30827
33.05262	31218
33.06073	30241
33.06887	30675
33.07698	30745
33.08510	31408
33.09323	30457
33.10135	30410
33.10947	28197
33.11760	28752
33.12572	30901
33.13385	29201
33.14197	29167
33.15008	33984
33.15822	31593
33.16633	31472
33.17447	28636
33.18258	31484
33.19070	27142
33.19883	34407
33.20695	34207
33.21508	30328
33.22320	31510
33.23132	30624
33.23945	32450
33.24757	31001
33.25568	31612
33.26382	30073
33.27193	32718
33.28007	31250
33.28818	30345
33.29630	30525
33.30443	32672
33.31255	30490
33.32068	32784
33.32880	31156
33.33692	31313
33.34505	28662
33.35317	29975
33.36130	29809
33.36942	30381
33.37753	31792
33.38567	31569
33.39378	31091
33.40190	30391
33.41003	34690
33.41815	31989
33.42628	33152
33.43440	30813
33.44252	29506
33.45065	28789
33.45877	31587
33.46690	34360
33.47502	31712
33.48313	32474
33.49127	30727
33.49938	31890
33.50750	31924
33.51563	29977
33.52375	32359
33.53188	30971
33.54000	32788
33.54812	35914
33.55625	34632
33.56437	30187
33.57250	30046
33.58062	34301
33.58873	32760
33.59687	33275
33.60498	31311
33.61312	33667
33.62123	31670
33.62935	31742
33.63748	30784
33.64560	29871
33.65372	30206
33.66185	31095
33.66997	31716
33.67810	32601
33.68622	31621
33.69433	33172
33.70247	30088
33.71058	30455
33.71872	32900
33.72683	30500
33.73495	33211
33.74308	32249
33.75120	30244
33.75933	33210
33.76745	31709
33.77557	31505
33.78370	35953
33.79182	31761
33.79993	32085
33.80807	34248
33.81618	33863
33.82432	35027
33.83243	33376
33.84055	35388
33.84868	33740
33.85680	35633
33.86493	33623
33.87305	32733
33.88117	34581
33.88930	32636
33.89742	33716
33.90553	32413
33.91367	32833
33.92178	34912
33.92992	34785
33.93803	36227
33.94615	31875
33.95428	35036
33.96240	34167
33.97053	33122
33.97865	31003
33.98677	34836
33.99490	36458
34.00302	32798
34.01115	41867
34.01927	34520
34.02738	34826
34.03552	33100
34.04363	33838
34.05175	36479
34.05988	32923
34.06800	33994
34.07613	33885
34.08425	35597
34.09237	36181
34.10050	34829
34.10862	33334
34.11675	32323
34.12487	35532
34.13298	34892
34.14112	33509
34.14923	35076
34.15735	34523
34.16548	35855
34.17360	35041
34.18173	34123
34.18985	35957
34.19797	35194
34.20610	37582
34.21422	35736
34.22235	36951
34.23047	36131
34.23858	35492
34.24672	34881
34.25483	31001
34.26297	32721
34.27108	35431
34.27920	34009
34.28733	31384
34.29545	33812
34.30357	37205
34.31170	34295
34.31982	35085
34.32795	32104
34.33607	34767
34.34418	34154
34.35232	33804
34.36043	33689
34.36857	35817
34.37668	35654
34.38480	36661
34.39293	34744
34.40105	35693
34.40918	35426
34.41730	34682
34.42542	34325
34.43355	36119
34.44167	36886
34.44978	37084
34.45792	38783
34.46603	34161
34.47417	37660
34.48228	36303
34.49040	35305
34.49853	35915
34.50665	36288
34.51478	35335
34.52290	34878
34.53102	34520
34.53915	32928
34.54727	35564
34.55540	34647
34.56352	33841
34.57163	33824
34.57977	34161
34.58788	34552
34.59600	35056
34.60413	38623
34.61225	38234
34.62038	38144
34.62850	37237
34.63662	35013
34.64475	35615
34.65287	35643
34.66100	35979
34.66912	39910
34.67723	36852
34.68537	37760
34.69348	37406
34.70160	35940
34.70973	35382
34.71785	33830
34.72598	36519
34.73410	36000
34.74222	37733
34.75035	35416
34.75847	39767
34.76660	36873
34.77472	36213
34.78283	35639
34.79097	37514
34.79908	36509
34.80722	36428
34.81533	33384
34.82345	35404
34.83158	38780
34.83970	34214
34.84782	34227
34.85595	35582
34.86407	35126
34.87220	37846
34.88032	34672
34.88843	36143
34.89657	38299
34.90468	36453
34.91282	36071
34.92093	38013
34.92905	34302
34.93718	39604
34.94530	38463
34.95342	36042
34.96155	39941
34.96967	34029
34.97780	34124
34.98592	36888
34.99403	37352
35.00217	34403
35.01028	36810
35.01842	38695
35.02653	39928
35.03465	36925
35.04278	41258
35.05090	39191
35.05903	39717
35.06715	37210
35.07527	38615
35.08340	37885
35.09152	38574
35.09963	37081
35.10777	40336
35.11588	38354
35.12402	40555
35.13213	37787
35.14025	40030
35.14838	38016
35.15650	40430
35.16463	37655
35.17275	35811
35.18087	35466
35.18900	38053
35.19712	37961
35.20525	43223
35.21337	43035
35.22148	39964
35.22962	40576
35.23773	38072
35.24585	39685
35.25398	41672
35.26210	39484
35.27023	37484
35.27835	36780
35.28647	44728
35.29460	39875
35.30272	38882
35.31085	39684
35.31897	42104
35.32708	39317
35.33522	44511
35.34333	39664
35.35145	35984
35.35958	41306
35.36770	39291
35.37583	40628
35.38395	40977
35.39207	41103
35.40020	41372
35.40832	42814
35.41645	43065
35.42457	40089
35.43268	41427
35.44082	42863
35.44893	38183
35.45707	39209
35.46518	40472
35.47330	40490
35.48143	40542
35.48955	41876
35.49767	38859
35.50580	40970
35.51392	38234
35.52205	40905
35.53017	41565
35.53828	39955
35.54642	38402
35.55453	43119
35.56267	44114
35.57078	40143
35.57890	46245
35.58703	39115
35.59515	45155
35.60328	42815
35.61140	43130
35.61952	41943
35.62765	40029
35.63577	40208
35.64388	42638
35.65202	43038
35.66013	43081
35.66827	40477
35.67638	41247
35.68450	38504
35.69263	40500
35.70075	43468
35.70888	41555
35.71700	42101
35.72512	44252
35.73325	37813
35.74137	41131
35.74948	41247
35.75762	40983
35.76573	43674
35.77387	42505
35.78198	41822
35.79010	44956
35.79823	42708
35.80635	43644
35.81448	44829
35.82260	43412
35.83072	45441
35.83885	43561
35.84697	40953
35.85510	41891
35.86322	39801
35.87133	40328
35.87947	44007
35.88758	43955
35.89570	46172
35.90383	42803
35.91195	38324
35.92008	50063
35.92820	43399
35.93632	44360
35.94445	42961
35.95257	42048
35.96070	39851
35.96882	40004
35.97693	44748
35.98507	42641
35.99318	43790
36.00130	45031
36.00943	42511
36.01755	44487
36.02568	46097
36.03380	44013
36.04192	41786
36.05005	45515
36.05817	45342
36.06630	46365
36.07442	46900
36.08253	45797
36.09067	43566
36.09878	44858
36.10692	46063
36.11503	46156
36.12315	44906
36.13128	43797
36.13940	45341
36.14752	46895
36.15565	45705
36.16377	50990
36.17190	46747
36.18002	45840
36.18813	42059
36.19627	46339
36.20438	44629
36.21252	44168
36.22063	47077
36.22875	46744
36.23688	53356
36.24500	50177
36.25313	45062
36.26125	47574
36.26937	44835
36.27750	49974
36.28562	42863
36.29373	44701
36.30187	47974
36.30998	47415
36.31812	45347
36.32623	48120
36.33435	44494
36.34248	46339
36.35060	46989
36.35873	46584
36.36685	45758
36.37497	46391
36.38310	48119
36.39122	51374
36.39933	45968
36.40747	49199
36.41558	49877
36.42372	50107
36.43183	50336
36.43995	44683
36.44808	49637
36.45620	48973
36.46433	47787
36.47245	48078
36.48057	48106
36.48870	53724
36.49682	50479
36.50495	46929
36.51307	50164
36.52118	52561
36.52932	48598
36.53743	47065
36.54555	55769
36.55368	50257
36.56180	50124
36.56993	52499
36.57805	53017
36.58617	51320
36.59430	51714
36.60242	51356
36.61055	54466
36.61867	51618
36.62678	50050
36.63492	50255
36.64303	51929
36.65117	51803
36.65928	51975
36.66740	50896
36.67553	55097
36.68365	50883
36.69177	51315
36.69990	53068
36.70802	56210
36.71615	56387
36.72427	50108
36.73238	51802
36.74052	56662
36.74863	53617
36.75677	52963
36.76488	49352
36.77300	52777
36.78113	53284
36.78925	51875
36.79737	54602
36.80550	54055
36.81362	53881
36.82175	52970
36.82987	56521
36.83798	56510
36.84612	55817
36.85423	54054
36.86237	52808
36.87048	57678
36.87860	59543
36.88673	60388
36.89485	57744
36.90298	60729
36.91110	56624
36.91922	57082
36.92735	59299
36.93547	61515
36.94358	60426
36.95172	58786
36.95983	58247
36.96797	62785
36.97608	57763
36.98420	61070
36.99233	63507
37.00045	57985
37.00858	61253
37.01670	58014
37.02482	58238
37.03295	59419
37.04107	62075
37.04918	61046
37.05732	59310
37.06543	57782
37.07357	59656
37.08168	57425
37.08980	57810
37.09793	61839
37.10605	58534
37.11418	61100
37.12230	60621
37.13042	61496
37.13855	60413
37.14667	58927
37.15480	61456
37.16292	57759
37.17103	57550
37.17917	61552
37.18728	63046
37.19540	62603
37.20353	56489
37.21165	61189
37.21978	64005
37.22790	60827
37.23602	64126
37.24415	66649
37.25227	69873
37.26040	65848
37.26852	65654
37.27663	68064
37.28477	65837
37.29288	65004
37.30102	65189
37.30913	63901
37.31725	64223
37.32538	65369
37.33350	68876
37.34162	63451
37.34975	66808
37.35787	64742
37.36600	67777
37.37412	66131
37.38223	63416
37.39037	67743
37.39848	66351
37.40662	66284
37.41473	66579
37.42285	66982
37.43098	63031
37.43910	65556
37.44722	70980
37.45535	70141
37.46347	71126
37.47160	74618
37.47972	68505
37.48783	73267
