Z:\data\JTB-E02\BACandBLUE\JTB-E02-204-11.D Sat Mar 09 10:02:39 2019
Start of data points
2.09532,70099
2.10345,70543
2.11157,65206
2.11970,64906
2.12782,66835
2.13593,60977
2.14407,65149
2.15218,59933
2.16030,61491
2.16843,59433
2.17655,59406
2.18468,57233
2.19280,55980
2.20092,57853
2.20905,53327
2.21717,54216
2.22530,53613
2.23342,52161
2.24153,48782
2.24967,52436
2.25778,57569
2.26592,159895
2.27403,1160754
2.28215,1998962
2.29028,1087937
2.29840,525148
2.30652,383636
2.31465,332435
2.32277,287923
2.33090,254676
2.33902,239142
2.34713,207872
2.35527,195673
2.36338,180506
2.37152,175663
2.37963,171488
2.38775,166154
2.39588,158465
2.40400,152018
2.41213,141912
2.42025,141090
2.42837,138799
2.43650,134022
2.44462,133108
2.45273,136440
2.46087,124068
2.46898,122278
2.47712,113868
2.48523,110130
2.49335,109509
2.50148,108798
2.50960,113627
2.51773,105743
2.52585,105064
2.53397,111158
2.54210,102289
2.55022,111011
2.55833,167508
2.56647,279326
2.57458,244416
2.58272,197914
2.59083,169676
2.59895,178595
2.60708,513063
2.61520,1352277
2.62333,1252011
2.63145,697565
2.63957,432388
2.64770,326546
2.65582,254569
2.66395,217765
2.67207,187528
2.68018,165661
2.68832,152180
2.69643,141466
2.70455,134362
2.71268,125813
2.72080,122733
2.72893,114124
2.73705,118050
2.74517,111313
2.75330,103293
2.76142,103864
2.76955,108739
2.77767,188222
2.78578,687065
2.79392,1244383
2.80203,885416
2.81017,512624
2.81828,395737
2.82640,361838
2.83453,306340
2.84265,256841
2.85077,224599
2.85890,194803
2.86702,191042
2.87515,172003
2.88327,162017
2.89138,159718
2.89952,147637
2.90763,139530
2.91577,139448
2.92388,131245
2.93200,123147
2.94013,120434
2.94825,112107
2.95637,114536
2.96450,137219
2.97262,155884
2.98075,147225
2.98887,128441
2.99698,125062
3.00512,118678
3.01323,120849
3.02137,120703
3.02948,109346
3.03760,105168
3.04573,103494
3.05385,103427
3.06198,101078
3.07010,102300
3.07822,124425
3.08635,523926
3.09447,2253011
3.10258,4365126
3.11072,5961665
3.11883,6930736
3.12697,5379120
3.13508,3542978
3.14320,2610284
3.15133,2084088
3.15945,1629215
3.16758,1363389
3.17570,1156164
3.18382,1044919
3.19195,1249963
3.20007,1824407
3.20818,1922934
3.21632,1491296
3.22443,1151831
3.23257,999379
3.24068,857627
3.24880,725419
3.25693,629006
3.26505,572900
3.27318,499532
3.28130,446554
3.28942,462700
3.29755,900085
3.30567,2844129
3.31380,6363547
3.32192,8515958
3.33003,7400635
3.33817,4897412
3.34628,3124519
3.35440,2226241
3.36253,1709432
3.37065,1377082
3.37878,1190534
3.38690,996004
3.39502,897751
3.40315,814886
3.41127,747558
3.41940,683642
3.42752,651624
3.43563,602902
3.44377,582794
3.45188,538966
3.46002,498913
3.46813,466952
3.47625,455445
3.48438,465175
3.49250,444336
3.50062,393788
3.50875,378225
3.51687,366137
3.52500,359149
3.53312,369959
3.54123,370774
3.54937,375119
3.55748,367732
3.56562,371098
3.57373,439153
3.58185,615104
3.58998,696451
3.59810,606129
3.60623,508757
3.61435,438386
3.62247,410978
3.63060,403826
3.63872,370301
3.64683,356262
3.65497,329950
3.66308,382678
3.67122,1087773
3.67933,4687386
3.68745,1.098164E+07
3.69558,1.331364E+07
3.70370,1.012304E+07
3.71183,6994357
3.71995,5363508
3.72807,4451217
3.73620,3827563
3.74432,3368580
3.75243,2981095
3.76057,2702887
3.76868,2458112
3.77682,2250409
3.78493,2081771
3.79305,1934562
3.80118,1820906
3.80930,1863780
3.81743,2577187
3.82555,3664614
3.83367,3887724
3.84180,3122109
3.84992,2442798
3.85805,2066380
3.86617,1813265
3.87428,1657692
3.88242,1518709
3.89053,1410213
3.89865,1326718
3.90678,1273835
3.91490,1220774
3.92303,1199444
3.93115,1271100
3.93927,1350122
3.94740,1327736
3.95552,1536698
3.96365,2826684
3.97177,5541541
3.97988,7335918
3.98802,6406255
3.99613,4353288
4.00425,4614670
4.01238,1.082219E+07
4.02050,2.395431E+07
4.02863,3.235144E+07
4.03675,2.843876E+07
4.04487,1.763656E+07
4.05300,9754774
4.06112,6177345
4.06925,4463558
4.07737,3473952
4.08548,2842079
4.09362,2387420
4.10173,2041110
4.10987,1806316
4.11798,1570512
4.12610,1412282
4.13423,1247823
4.14235,1097953
4.15047,1023344
4.15860,954879
4.16672,909388
4.17485,855547
4.18297,838298
4.19108,817200
4.19922,770175
4.20733,746752
4.21547,825117
4.22358,1870255
4.23170,5577121
4.23983,1.210953E+07
4.24795,1.674908E+07
4.25608,1.634057E+07
4.26420,1.149458E+07
4.27232,7168044
4.28045,4944776
4.28857,3554910
4.29668,2671991
4.30482,2111347
4.31293,1727979
4.32107,1446077
4.32918,1267891
4.33730,1117639
4.34543,988779
4.35355,904268
4.36168,836033
4.36980,820841
4.37792,797209
4.38605,760741
4.39417,684358
4.40228,596962
4.41042,544832
4.41853,511951
4.42667,469710
4.43478,469334
4.44290,472872
4.45103,450429
4.45915,451260
4.46728,444431
4.47540,439316
4.48352,435640
4.49165,435089
4.49977,412174
4.50790,409677
4.51602,409151
4.52413,388569
4.53227,370840
4.54038,367266
4.54850,369533
4.55663,367657
4.56475,375507
4.57288,353770
4.58100,350409
4.58912,336906
4.59725,329808
4.60537,321478
4.61350,313881
4.62162,318606
4.62973,334080
4.63787,402192
4.64598,555765
4.65412,708521
4.66223,716052
4.67035,618725
4.67848,494753
4.68660,435141
4.69472,410774
4.70285,384110
4.71097,353034
4.71910,328945
4.72722,306782
4.73533,304149
4.74347,289610
4.75158,276570
4.75972,273063
4.76783,274960
4.77595,271959
4.78408,259914
4.79220,256306
4.80032,265282
4.80845,315250
4.81657,395842
4.82470,424274
4.83282,413952
4.84093,370861
4.84907,373911
4.85718,377742
4.86532,382724
4.87343,374293
4.88155,342278
4.88968,333046
4.89780,298931
4.90593,292237
4.91405,275160
4.92217,263809
4.93030,255017
4.93842,265790
4.94653,271962
4.95467,371747
4.96278,687712
4.97092,1322504
4.97903,2073814
4.98715,2389638
4.99528,2195273
5.00340,1698516
5.01153,1265472
5.01965,985298
5.02777,818528
5.03590,733760
5.04402,726021
5.05213,772444
5.06027,773052
5.06838,709944
5.07652,633135
5.08463,573689
5.09275,530563
5.10088,503506
5.10900,503666
5.11713,477969
5.12525,450977
5.13337,441081
5.14150,412302
5.14962,400084
5.15775,390705
5.16587,418383
5.17398,458021
5.18212,516558
5.19023,510696
5.19835,473461
5.20648,440373
5.21460,446520
5.22273,473179
5.23085,489465
5.23897,449151
5.24710,421531
5.25522,409493
5.26335,373059
5.27147,347927
5.27958,312922
5.28772,290095
5.29583,271357
5.30397,271629
5.31208,258228
5.32020,258726
5.32833,252777
5.33645,261291
5.34457,295359
5.35270,317778
5.36082,323886
5.36895,322309
5.37707,290630
5.38518,272382
5.39332,262502
5.40143,281122
5.40957,288427
5.41768,297401
5.42580,283212
5.43393,262131
5.44205,246068
5.45017,240300
5.45830,242043
5.46642,253959
5.47455,259886
5.48267,261318
5.49078,242676
5.49892,229199
5.50703,217853
5.51517,216096
5.52328,212721
5.53140,221584
5.53953,222870
5.54765,225712
5.55578,218740
5.56390,222188
5.57202,267365
5.58015,371537
5.58827,472163
5.59638,530186
5.60452,483975
5.61263,417315
5.62077,337788
5.62888,287375
5.63700,261387
5.64513,264366
5.65325,246469
5.66138,246352
5.66950,236653
5.67762,219522
5.68575,220971
5.69387,240422
5.70200,282899
5.71012,322950
5.71823,338892
5.72637,290841
5.73448,255289
5.74260,231450
5.75073,209692
5.75885,200592
5.76698,198632
5.77510,196126
5.78322,181186
5.79135,181276
5.79947,178253
5.80760,176309
5.81572,177537
5.82383,166697
5.83197,169513
5.84008,177056
5.84820,176148
5.85633,178432
5.86445,173465
5.87258,169652
5.88070,165177
5.88882,158662
5.89695,154849
5.90507,157154
5.91320,146030
5.92132,148624
5.92943,145584
5.93757,151972
5.94568,150771
5.95382,149665
5.96193,160162
5.97005,173855
5.97818,197639
5.98630,238109
5.99442,295809
6.00255,351158
6.01067,373157
6.01880,339744
6.02692,288463
6.03503,242741
6.04317,210638
6.05128,186957
6.05942,172488
6.06753,157097
6.07565,149337
6.08378,145020
6.09190,146917
6.10003,141719
6.10815,140777
6.11627,133385
6.12440,137175
6.13252,143299
6.14063,171343
6.14877,247971
6.15688,348591
6.16502,439282
6.17313,446275
6.18125,365886
6.18938,299695
6.19750,260918
6.20563,241593
6.21375,221179
6.22187,210802
6.23000,199839
6.23812,190565
6.24623,195028
6.25437,187212
6.26248,189629
6.27062,203089
6.27873,205252
6.28685,212079
6.29498,204283
6.30310,200423
6.31123,194225
6.31935,184556
6.32747,187907
6.33560,185849
6.34372,189905
6.35185,196031
6.35997,202564
6.36808,195703
6.37622,193436
6.38433,189688
6.39245,192869
6.40058,191560
6.40870,190010
6.41683,194557
6.42495,195922
6.43307,190165
6.44120,187391
6.44932,189004
6.45745,188350
6.46557,186175
6.47368,189794
6.48182,191487
6.48993,197723
6.49805,199701
6.50618,195747
6.51430,200722
6.52243,201882
6.53055,200407
6.53867,203255
6.54680,208478
6.55492,201094
6.56305,210316
6.57117,209046
6.57928,230730
6.58742,277562
6.59553,356599
6.60367,393433
6.61178,370690
6.61990,313013
6.62803,260126
6.63615,230748
6.64427,222290
6.65240,227505
6.66052,262044
6.66865,422613
6.67677,793508
6.68488,1276984
6.69302,1573210
6.70113,1400498
6.70927,994578
6.71738,669880
6.72550,501853
6.73363,417348
6.74175,364482
6.74988,338952
6.75800,321327
6.76612,306116
6.77425,299785
6.78237,283115
6.79048,276525
6.79862,274304
6.80673,275418
6.81487,263042
6.82298,270692
6.83110,261538
6.83923,260688
6.84735,262319
6.85548,272000
6.86360,303619
6.87172,281187
6.87985,292150
6.88797,260632
6.89608,216174
6.90422,188376
6.91233,161825
6.92047,151566
6.92858,134742
6.93670,135772
6.94483,139368
6.95295,126725
6.96108,125766
6.96920,121388
6.97732,143597
6.98545,166648
6.99357,199013
7.00170,210990
7.00982,199806
7.01793,182632
7.02607,152126
7.03418,135729
7.04230,134408
7.05043,143700
7.05855,142505
7.06668,132501
7.07480,138393
7.08292,133051
7.09105,115556
7.09917,108732
7.10730,112450
7.11542,106773
7.12353,105195
7.13167,103712
7.13978,95143
7.14792,102218
7.15603,115590
7.16415,139423
7.17228,171538
7.18040,220967
7.18852,234503
7.19665,204532
7.20477,174139
7.21290,152022
7.22102,136183
7.22913,121867
7.23727,119100
7.24538,119329
7.25352,147785
7.26163,278533
7.26975,649611
7.27788,1358557
7.28600,2082516
7.29412,2243931
7.30225,1785515
7.31037,1114058
7.31850,640817
7.32662,405195
7.33473,304222
7.34287,246436
7.35098,217650
7.35912,191349
7.36723,161785
7.37535,136339
7.38348,125665
7.39160,125968
7.39973,123501
7.40785,121365
7.41597,110319
7.42410,108087
7.43222,105174
7.44033,97715
7.44847,95024
7.45658,101003
7.46472,100914
7.47283,99000
7.48095,106751
7.48908,100766
7.49720,104313
7.50533,108586
7.51345,145524
7.52157,236547
7.52970,381036
7.53782,618069
7.54593,838571
7.55407,1023700
7.56218,1010505
7.57032,854707
7.57843,649944
7.58655,442901
7.59468,289570
7.60280,196951
7.61093,162558
7.61905,128668
7.62717,116334
7.63530,107826
7.64342,109757
7.65155,100355
7.65967,103012
7.66778,100346
7.67592,95602
7.68403,101380
7.69215,92710
7.70028,89858
7.70840,89256
7.71653,93774
7.72465,91078
7.73277,91118
7.74090,86334
7.74902,83218
7.75715,83123
7.76527,83335
7.77338,80964
7.78152,80976
7.78963,79844
7.79777,86704
7.80588,90135
7.81400,104943
7.82213,112432
7.83025,119774
7.83837,110656
7.84650,107319
7.85462,92838
7.86275,94938
7.87087,98759
7.87898,102080
7.88712,118485
7.89523,122483
7.90337,117459
7.91148,108013
7.91960,94172
7.92773,86584
7.93585,100528
7.94398,142665
7.95210,216615
7.96022,321868
7.96835,390809
7.97647,405757
7.98458,310324
7.99272,221803
8.00083,165907
8.00897,127294
8.01708,111605
8.02520,97378
8.03333,87303
8.04145,91825
8.04958,85250
8.05770,88489
8.06582,84851
8.07395,91750
8.08207,74693
8.09018,78138
8.09832,77649
8.10643,78209
8.11457,76318
8.12268,76431
8.13080,76870
8.13893,77083
8.14705,82166
8.15518,95286
8.16330,103358
8.17142,107890
8.17955,109612
8.18767,100894
8.19580,93932
8.20392,79731
8.21203,77778
8.22017,72958
8.22828,75459
8.23640,69059
8.24453,69606
8.25265,70333
8.26078,65981
8.26890,68081
8.27702,74014
8.28515,70405
8.29327,73490
8.30140,71386
8.30952,79636
8.31763,81755
8.32577,85798
8.33388,81153
8.34200,74889
8.35013,74922
8.35825,75422
8.36638,72167
8.37450,71933
8.38262,74032
8.39075,77092
8.39887,78457
8.40700,76290
8.41512,70323
8.42323,71549
8.43137,65863
8.43948,67400
8.44762,69620
8.45573,68024
8.46385,60810
8.47198,66560
8.48010,65112
8.48822,64377
8.49635,62539
8.50447,59099
8.51260,61631
8.52072,60044
8.52883,65901
8.53697,64651
8.54508,66862
8.55322,71118
8.56133,88643
8.56945,149116
8.57758,244962
8.58570,391476
8.59383,467114
8.60195,453815
8.61007,364022
8.61820,269242
8.62632,176656
8.63443,130748
8.64257,108143
8.65068,97160
8.65882,88978
8.66693,87874
8.67505,78071
8.68318,77400
8.69130,79203
8.69943,80635
8.70755,79282
8.71567,77450
8.72380,78942
8.73192,73008
8.74003,72447
8.74817,71453
8.75628,71750
8.76442,75387
8.77253,87279
8.78065,127132
8.78878,213290
8.79690,315818
8.80503,404191
8.81315,424776
8.82127,378156
8.82940,292925
8.83752,243184
8.84565,185354
8.85377,152397
8.86188,139656
8.87002,132451
8.87813,149409
8.88625,148995
8.89438,152366
8.90250,147761
8.91063,145799
8.91875,138951
8.92687,138078
8.93500,129670
8.94312,128714
8.95125,132054
8.95937,139487
8.96748,151784
8.97562,166071
8.98373,175194
8.99187,176735
8.99998,170806
9.00810,157389
9.01623,137423
9.02435,128770
9.03247,121165
9.04060,117363
9.04872,111761
9.05685,102067
9.06497,102023
9.07308,108183
9.08122,105305
9.08933,102262
9.09747,107584
9.10558,112115
9.11370,134498
9.12183,146117
9.12995,157441
9.13807,155289
9.14620,142110
9.15432,128488
9.16245,115789
9.17057,106977
9.17868,105064
9.18682,100573
9.19493,96233
9.20307,93895
9.21118,91647
9.21930,90517
9.22743,86564
9.23555,84937
9.24368,84352
9.25180,96286
9.25992,94020
9.26805,95438
9.27617,89417
9.28428,91663
9.29242,90044
9.30053,85719
9.30867,86025
9.31678,85215
9.32490,87842
9.33303,86934
9.34115,84214
9.34928,81613
9.35740,81888
9.36552,79829
9.37365,77921
9.38177,88332
9.38988,88363
9.39802,83879
9.40613,85933
9.41427,86223
9.42238,108037
9.43050,126975
9.43863,136733
9.44675,135217
9.45488,137353
9.46300,124886
9.47112,113298
9.47925,96722
9.48737,87731
9.49550,77386
9.50362,82512
9.51173,87615
9.51987,94078
9.52798,103574
9.53610,107314
9.54423,107788
9.55235,105141
9.56048,90976
9.56860,86334
9.57672,84208
9.58485,81294
9.59297,95048
9.60110,105582
9.60922,100806
9.61733,92724
9.62547,83296
9.63358,69517
9.64172,62067
9.64983,63159
9.65795,58851
9.66608,59957
9.67420,61517
9.68232,61166
9.69045,60444
9.69857,56525
9.70670,56260
9.71482,57070
9.72293,55074
9.73107,56197
9.73918,53745
9.74732,54454
9.75543,57545
9.76355,57340
9.77168,57566
9.77980,54831
9.78792,52398
9.79605,56963
9.80417,54921
9.81230,53384
9.82042,57683
9.82853,53275
9.83667,53441
9.84478,52745
9.85292,58757
9.86103,53197
9.86915,51385
9.87728,56502
9.88540,54694
9.89353,55231
9.90165,62292
9.90977,63016
9.91790,63521
9.92602,70390
9.93413,75164
9.94227,83665
9.95038,84883
9.95852,95496
9.96663,99568
9.97475,103557
9.98288,108493
9.99100,109141
9.99913,102260
10.00725,94011
10.01537,89833
10.02350,87159
10.03162,81293
10.03975,80650
10.04787,82955
10.05598,69940
10.06412,62276
10.07223,61117
10.08035,61030
10.08848,64281
10.09660,67533
10.10473,73122
10.11285,75120
10.12097,72665
10.12910,68002
10.13722,67129
10.14535,60960
10.15347,56357
10.16158,59459
10.16972,62249
10.17783,61939
10.18595,55425
10.19408,57931
10.20220,55356
10.21033,56718
10.21845,56155
10.22657,55808
10.23470,58298
10.24282,58533
10.25095,58486
10.25907,60801
10.26718,66181
10.27532,80062
10.28343,109285
10.29157,200379
10.29968,435684
10.30780,912630
10.31593,1654031
10.32405,2499127
10.33217,3394404
10.34030,4692666
10.34842,6834093
10.35655,9711574
10.36467,1.190484E+07
10.37278,1.174983E+07
10.38092,8999528
10.38903,5497604
10.39717,2751668
10.40528,1308005
10.41340,703021
10.42153,481007
10.42965,357899
10.43777,286853
10.44590,253221
10.45402,232685
10.46215,212693
10.47027,206322
10.47838,212522
10.48652,192561
10.49463,187396
10.50277,177728
10.51088,160740
10.51900,156784
10.52713,150455
10.53525,150484
10.54338,145864
10.55150,141581
10.55962,136510
10.56775,135280
10.57587,129088
10.58398,127282
10.59212,125601
10.60023,126437
10.60837,117393
10.61648,118824
10.62460,109789
10.63273,102084
10.64085,98036
10.64898,90829
10.65710,90017
10.66522,91113
10.67335,91394
10.68147,94737
10.68960,93896
10.69772,96270
10.70583,95631
10.71397,97009
10.72208,92538
10.73020,92922
10.73833,91245
10.74645,91143
10.75458,91623
10.76270,93315
10.77082,87335
10.77895,85229
10.78707,84116
10.79520,81469
10.80332,81571
10.81143,78881
10.81957,80551
10.82768,81742
10.83580,81824
10.84393,74710
10.85205,76481
10.86018,77819
10.86830,69748
10.87642,66136
10.88455,63707
10.89267,69170
10.90080,65788
10.90892,68212
10.91703,71078
10.92517,62191
10.93328,65420
10.94142,62639
10.94953,63421
10.95765,65516
10.96578,65721
10.97390,64866
10.98202,63045
10.99015,66289
10.99827,67823
11.00640,69056
11.01452,64296
11.02263,67475
11.03077,66983
11.03888,62632
11.04702,60098
11.05513,60211
11.06325,61019
11.07138,56720
11.07950,61053
11.08763,70524
11.09575,62155
11.10387,65019
11.11200,67020
11.12012,62117
11.12823,54628
11.13637,54808
11.14448,53274
11.15262,47836
11.16073,55294
11.16885,55868
11.17698,58287
11.18510,57592
11.19323,59974
11.20135,57002
11.20947,56316
11.21760,57811
11.22572,57878
11.23383,54859
11.24197,53479
11.25008,52040
11.25822,54807
11.26633,48498
11.27445,47103
11.28258,46230
11.29070,50240
11.29883,53432
11.30695,66440
11.31507,102522
11.32320,167695
11.33132,280069
11.33945,428881
11.34757,560322
11.35568,620959
11.36382,583432
11.37193,468901
11.38005,316725
11.38818,215438
11.39630,142583
11.40443,103204
11.41255,93869
11.42067,88083
11.42880,97175
11.43692,100767
11.44505,101638
11.45317,101714
11.46128,103519
11.46942,85278
11.47753,82091
11.48567,86013
11.49378,103412
11.50190,120585
11.51003,151839
11.51815,184843
11.52627,193905
11.53440,174120
11.54252,147420
11.55065,122039
11.55877,105369
11.56688,92475
11.57502,94406
11.58313,92296
11.59127,88026
11.59938,79988
11.60750,80835
11.61563,80134
11.62375,94596
11.63187,119620
11.64000,142757
11.64812,161204
11.65625,154435
11.66437,135980
11.67248,109608
11.68062,92376
11.68873,84267
11.69687,79942
11.70498,75294
11.71310,71724
11.72123,68639
11.72935,67769
11.73748,62614
11.74560,61905
11.75372,59802
11.76185,61505
11.76997,60164
11.77808,59015
11.78622,59434
11.79433,56653
11.80247,55722
11.81058,54060
11.81870,51077
11.82683,55365
11.83495,55184
11.84308,60721
11.85120,58110
11.85932,60006
11.86745,64295
11.87557,73813
11.88368,76230
11.89182,84990
11.89993,78031
11.90807,79351
11.91618,65861
11.92430,57322
11.93243,55478
11.94055,54563
11.94868,56911
11.95680,57054
11.96492,63357
11.97305,57595
11.98117,56235
11.98930,51285
11.99742,49016
12.00553,49666
12.01367,56078
12.02178,72103
12.02990,77669
12.03803,86956
12.04615,85491
12.05428,82429
12.06240,72175
12.07052,62416
12.07865,56616
12.08677,58980
12.09490,60170
12.10302,70075
12.11113,71732
12.11927,95158
12.12738,122185
12.13552,146723
12.14363,156279
12.15175,140995
12.15988,119786
12.16800,96393
12.17612,73973
12.18425,63079
12.19237,55684
12.20050,51293
12.20862,47128
12.21673,53021
12.22487,55686
12.23298,62610
12.24112,51929
12.24923,60769
12.25735,55804
12.26548,61504
12.27360,58300
12.28172,56812
12.28985,51683
12.29797,51944
12.30610,51747
12.31422,47593
12.32233,51251
12.33047,48410
12.33858,47871
12.34672,49991
12.35483,51580
12.36295,51965
12.37108,46869
12.37920,48479
12.38733,48723
12.39545,50516
12.40357,48129
12.41170,52772
12.41982,53217
12.42793,61864
12.43607,80856
12.44418,96008
12.45232,100928
12.46043,104754
12.46855,97596
12.47668,83077
12.48480,70905
12.49293,60688
12.50105,65403
12.50917,55418
12.51730,56874
12.52542,51531
12.53355,54960
12.54167,51030
12.54978,52252
12.55792,53944
12.56603,54993
12.57415,66481
12.58228,68582
12.59040,82279
12.59853,79459
12.60665,81461
12.61477,72768
12.62290,67046
12.63102,57505
12.63915,58848
12.64727,56934
12.65538,52894
12.66352,51591
12.67163,48287
12.67975,47068
12.68788,45042
12.69600,49536
12.70413,49677
12.71225,50089
12.72037,47198
12.72850,52271
12.73662,56730
12.74475,61109
12.75287,70864
12.76098,63787
12.76912,63645
12.77723,57199
12.78537,52941
12.79348,47951
12.80160,44897
12.80973,44183
12.81785,44129
12.82597,41898
12.83410,40736
12.84222,40419
12.85035,42062
12.85847,38382
12.86658,41624
12.87472,40285
12.88283,39923
12.89097,39026
12.89908,38166
12.90720,39779
12.91533,39750
12.92345,39947
12.93157,41518
12.93970,43840
12.94782,37573
12.95595,36893
12.96407,38755
12.97218,35426
12.98032,40412
12.98843,43238
12.99657,43179
13.00468,41763
13.01280,49075
13.02093,45531
13.02905,41735
13.03718,45375
13.04530,44708
13.05342,40284
13.06155,39074
13.06967,41459
13.07778,38566
13.08592,44076
13.09403,39786
13.10217,43099
13.11028,43475
13.11840,39852
13.12653,36343
13.13465,43891
13.14278,38634
13.15090,40449
13.15902,39291
13.16715,40297
13.17527,43671
13.18340,42028
13.19152,41128
13.19963,39937
13.20777,41542
13.21588,46208
13.22400,43934
13.23213,46887
13.24025,44848
13.24838,42795
13.25650,45055
13.26462,41692
13.27275,41794
13.28087,46600
13.28900,43971
13.29712,40795
13.30523,41909
13.31337,37168
13.32148,38380
13.32962,36957
13.33773,37145
13.34585,37817
13.35398,35537
13.36210,39103
13.37022,39614
13.37835,37096
13.38647,36322
13.39460,35042
13.40272,38077
13.41083,38577
13.41897,37224
13.42708,35842
13.43522,34028
13.44333,37413
13.45145,37890
13.45958,34975
13.46770,41575
13.47582,38460
13.48395,39300
13.49207,37812
13.50020,40472
13.50832,36838
13.51643,33490
13.52457,38879
13.53268,40852
13.54082,39770
13.54893,44368
13.55705,42177
13.56518,42405
13.57330,41626
13.58143,49424
13.58955,47922
13.59767,43970
13.60580,40542
13.61392,44099
13.62203,42398
13.63017,47178
13.63828,47753
13.64642,47276
13.65453,57116
13.66265,47713
13.67078,48217
13.67890,40459
13.68703,38396
13.69515,37952
13.70327,39089
13.71140,43155
13.71952,34738
13.72763,39179
13.73577,41116
13.74388,46726
13.75202,40600
13.76013,43986
13.76825,53008
13.77638,65144
13.78450,92454
13.79263,126245
13.80075,166863
13.80887,183273
13.81700,206183
13.82512,210726
13.83325,223589
13.84137,237689
13.84948,238137
13.85762,230344
13.86573,210372
13.87385,157349
13.88198,130938
13.89010,100480
13.89823,86633
13.90635,78554
13.91447,69457
13.92260,61177
13.93072,58128
13.93885,56855
13.94697,52329
13.95508,48199
13.96322,54729
13.97133,56603
13.97947,76368
13.98758,103930
13.99570,132329
14.00383,152080
14.01195,159074
14.02007,156850
14.02820,126266
14.03632,104420
14.04445,85871
14.05257,70912
14.06068,64355
14.06882,60747
14.07693,67377
14.08507,62841
14.09318,62421
14.10130,62094
14.10943,59153
14.11755,59050
14.12567,54197
14.13380,54657
14.14192,46820
14.15005,53582
14.15817,56121
14.16628,58309
14.17442,61166
14.18253,55519
14.19067,59900
14.19878,61169
14.20690,67734
14.21503,82409
14.22315,105008
14.23128,129396
14.23940,151700
14.24752,153798
14.25565,154254
14.26377,146598
14.27188,145977
14.28002,138039
14.28813,116916
14.29627,97981
14.30438,94679
14.31250,86427
14.32063,90461
14.32875,78384
14.33688,82115
14.34500,68807
14.35312,65468
14.36125,68238
14.36937,67187
14.37750,59844
14.38562,60148
14.39373,51412
14.40187,49344
14.40998,50089
14.41810,54387
14.42623,53395
14.43435,62179
14.44248,64226
14.45060,66080
14.45872,64463
14.46685,65648
14.47497,58578
14.48310,59087
14.49122,48632
14.49933,54084
14.50747,48577
14.51558,52786
14.52370,47270
14.53183,49706
14.53995,45768
14.54808,49122
14.55620,50886
14.56432,47254
14.57245,47967
14.58057,40449
14.58870,45617
14.59682,41025
14.60493,41451
14.61307,41883
14.62118,41495
14.62932,41014
14.63743,38807
14.64555,39287
14.65368,42481
14.66180,34982
14.66992,41480
14.67805,35968
14.68617,35818
14.69430,39002
14.70242,38845
14.71053,38428
14.71867,43890
14.72678,37346
14.73492,40018
14.74303,41744
14.75115,41043
14.75928,42209
14.76740,35417
14.77552,41246
14.78365,44519
14.79177,43201
14.79990,52765
14.80802,81946
14.81613,186835
14.82427,483489
14.83238,1173645
14.84052,2195180
14.84863,3355306
14.85675,3922416
14.86488,3656818
14.87300,2810029
14.88113,1835633
14.88925,1142084
14.89737,740889
14.90550,518814
14.91362,388190
14.92173,338703
14.92987,285331
14.93798,259690
14.94612,231043
14.95423,211177
14.96235,201401
14.97048,190702
14.97860,171783
14.98673,167039
14.99485,145545
15.00297,141433
15.01110,134920
15.01922,136400
15.02735,128017
15.03547,132109
15.04358,124369
15.05172,115067
15.05983,112054
15.06795,99738
15.07608,100745
15.08420,98017
15.09233,93785
15.10045,93737
15.10857,89151
15.11670,82639
15.12482,87844
15.13295,82828
15.14107,85362
15.14918,94684
15.15732,93538
15.16543,91647
15.17355,93766
15.18168,91678
15.18980,79985
15.19793,66986
15.20605,63756
15.21417,55590
15.22230,52726
15.23042,58671
15.23855,53197
15.24667,52084
15.25478,51897
15.26292,42513
15.27103,45515
15.27917,46778
15.28728,45283
15.29540,43960
15.30353,45125
15.31165,47046
15.31977,47225
15.32790,42769
15.33602,42310
15.34415,43481
15.35227,46571
15.36038,46153
15.36852,43997
15.37663,45209
15.38477,43285
15.39288,45240
15.40100,46814
15.40913,45299
15.41725,43337
15.42538,43758
15.43350,42549
15.44162,46891
15.44975,38119
15.45787,46060
15.46598,42843
15.47412,50207
15.48223,57623
15.49037,66641
15.49848,86628
15.50660,94669
15.51473,100922
15.52285,113586
15.53098,96256
15.53910,92981
15.54722,78525
15.55535,76216
15.56347,74857
15.57158,66674
15.57972,61394
15.58783,58711
15.59597,54747
15.60408,51792
15.61220,47293
15.62033,50227
15.62845,44107
15.63658,47868
15.64470,46696
15.65282,45408
15.66095,41529
15.66907,41114
15.67720,46671
15.68532,43211
15.69343,45516
15.70157,42327
15.70968,42969
15.71780,37465
15.72593,39252
15.73405,40215
15.74218,41367
15.75030,39206
15.75842,43418
15.76655,47915
15.77467,62215
15.78280,91444
15.79092,136191
15.79903,199735
15.80717,256437
15.81528,273274
15.82342,254040
15.83153,195567
15.83965,143171
15.84778,104742
15.85590,90156
15.86402,75548
15.87215,68141
15.88027,64954
15.88840,62886
15.89652,60039
15.90463,58508
15.91277,55232
15.92088,55661
15.92902,57604
15.93713,52260
15.94525,57468
15.95338,51201
15.96150,53082
15.96962,56658
15.97775,62410
15.98587,66560
15.99400,71016
16.00212,78666
16.01023,78264
16.01837,81186
16.02648,83884
16.03462,82130
16.04273,86469
16.05085,82673
16.05898,70815
16.06710,64718
16.07523,59536
16.08335,57357
16.09147,52133
16.09960,52646
16.10772,52758
16.11583,52220
16.12397,50902
16.13208,51425
16.14022,50086
16.14833,51330
16.15645,55063
16.16458,51619
16.17270,57982
16.18083,53111
16.18895,46649
16.19707,49421
16.20520,47232
16.21332,50354
16.22143,45030
16.22957,46706
16.23768,49377
16.24582,50171
16.25393,48758
16.26205,39446
16.27018,45267
16.27830,44030
16.28643,44264
16.29455,45594
16.30267,52246
16.31080,53512
16.31892,52543
16.32705,54847
16.33517,52514
16.34328,49917
16.35142,50994
16.35953,55855
16.36765,60091
16.37578,62532
16.38390,81451
16.39203,81509
16.40015,94698
16.40827,89756
16.41640,75747
16.42452,69868
16.43265,60393
16.44077,51469
16.44888,55096
16.45702,63002
16.46513,85933
16.47327,154855
16.48138,287385
16.48950,497056
16.49763,694033
16.50575,806839
16.51387,771273
16.52200,580017
16.53012,385769
16.53825,271012
16.54637,180672
16.55448,140424
16.56262,112071
16.57073,103701
16.57887,91863
16.58698,86678
16.59510,87542
16.60323,86850
16.61135,86623
16.61947,81145
16.62760,88624
16.63572,88289
16.64385,79666
16.65197,77940
16.66008,70515
16.66822,67797
16.67633,69579
16.68447,61939
16.69258,56914
16.70070,56188
16.70883,57765
16.71695,62488
16.72508,55820
16.73320,50428
16.74132,49412
16.74945,49522
16.75757,54053
16.76568,52535
16.77382,54905
16.78193,61640
16.79007,59927
16.79818,57959
16.80630,54024
16.81443,48868
16.82255,52080
16.83068,43844
16.83880,44588
16.84692,40182
16.85505,42136
16.86317,42656
16.87130,45077
16.87942,44164
16.88753,41821
16.89567,39548
16.90378,40277
16.91190,39530
16.92003,37538
16.92815,42346
16.93628,39558
16.94440,41445
16.95252,41759
16.96065,43908
16.96877,37644
16.97690,39907
16.98502,39949
16.99313,37993
17.00127,40780
17.00938,39301
17.01750,38958
17.02563,36831
17.03375,42380
17.04188,44500
17.05000,40760
17.05812,47234
17.06625,48283
17.07437,46943
17.08250,47216
17.09062,50867
17.09873,46934
17.10687,42204
17.11498,43276
17.12312,46764
17.13123,43272
17.13935,43282
17.14748,40205
17.15560,46016
17.16372,40717
17.17185,43133
17.17997,42386
17.18810,42867
17.19622,44983
17.20433,42176
17.21247,46725
17.22058,42768
17.22872,39873
17.23683,39447
17.24495,38829
17.25308,43347
17.26120,43946
17.26932,43139
17.27745,44916
17.28557,41547
17.29370,37614
17.30182,46676
17.30993,38495
17.31807,39046
17.32618,43503
17.33432,44773
17.34243,41979
17.35055,49547
17.35868,48974
17.36680,49385
17.37493,51065
17.38305,48760
17.39117,55157
17.39930,50521
17.40742,51401
17.41553,53169
17.42367,54666
17.43178,49108
17.43992,50288
17.44803,48790
17.45615,48939
17.46428,45911
17.47240,46883
17.48053,49054
17.48865,43764
17.49677,42780
17.50490,46100
17.51302,40534
17.52115,42024
17.52927,40433
17.53738,44838
17.54552,43074
17.55363,45908
17.56175,43389
17.56988,47840
17.57800,59692
17.58613,88522
17.59425,136872
17.60237,215454
17.61050,310068
17.61862,401620
17.62675,460335
17.63487,468422
17.64298,396521
17.65112,305568
17.65923,250355
17.66735,233623
17.67548,240028
17.68360,266319
17.69173,268445
17.69985,241476
17.70797,197744
17.71610,162915
17.72422,126433
17.73235,104856
17.74047,92545
17.74858,79090
17.75672,81906
17.76483,74009
17.77297,69808
17.78108,67256
17.78920,66138
17.79733,67629
17.80545,64692
17.81357,65047
17.82170,75332
17.82982,97088
17.83795,111590
17.84607,131753
17.85418,128405
17.86232,130841
17.87043,115521
17.87857,99735
17.88668,88790
17.89480,90041
17.90293,79789
17.91105,68908
17.91918,58321
17.92730,55357
17.93542,53370
17.94355,52019
17.95167,51428
17.95978,52107
17.96792,49800
17.97603,47511
17.98417,49985
17.99228,50056
18.00040,47646
18.00853,45423
18.01665,49210
18.02478,50690
18.03290,54863
18.04102,63610
18.04915,73307
18.05727,84794
18.06538,99334
18.07352,145610
18.08163,254562
18.08977,508417
18.09788,883947
18.10600,1313441
18.11413,1538284
18.12225,1537974
18.13038,1317470
18.13850,1029898
18.14662,760847
18.15475,573356
18.16287,466543
18.17100,398527
18.17912,341202
18.18723,314236
18.19537,279760
18.20348,263969
18.21160,239578
18.21973,213491
18.22785,188547
18.23598,170531
18.24410,164386
18.25222,157360
18.26035,138846
18.26847,139493
18.27660,127035
18.28472,115280
18.29283,101071
18.30097,91136
18.30908,79655
18.31720,64911
18.32533,63493
18.33345,58837
18.34158,64128
18.34970,54872
18.35782,58593
18.36595,53907
18.37407,50433
18.38220,51313
18.39032,50371
18.39843,48265
18.40657,51050
18.41468,45942
18.42282,47952
18.43093,48658
18.43905,53540
18.44718,55923
18.45530,60178
18.46342,68290
18.47155,85705
18.47967,116460
18.48780,148847
18.49592,163780
18.50403,185810
18.51217,170643
18.52028,156702
18.52842,118665
18.53653,96736
18.54465,75975
18.55278,67003
18.56090,65971
18.56903,56599
18.57715,58761
18.58527,55659
18.59340,54318
18.60152,57455
18.60963,60725
18.61777,52373
18.62588,55490
18.63402,53943
18.64213,55236
18.65025,57248
18.65838,54867
18.66650,57218
18.67463,51205
18.68275,51859
18.69087,45267
18.69900,44886
18.70712,45826
18.71525,45471
18.72337,67818
18.73148,99379
18.73962,140050
18.74773,170478
18.75585,186294
18.76398,198799
18.77210,206359
18.78023,214752
18.78835,216179
18.79647,216742
18.80460,216413
18.81272,216248
18.82085,216316
18.82897,229058
18.83708,218945
18.84522,223814
18.85333,218949
18.86145,212437
18.86958,223348
18.87770,222811
18.88583,227312
18.89395,227146
18.90207,216724
18.91020,219896
18.91832,226451
18.92645,222734
18.93457,223376
18.94268,221556
18.95082,222646
18.95893,228331
18.96707,221514
18.97518,227658
18.98330,230432
18.99143,221535
18.99955,212108
19.00767,217103
19.01580,217324
19.02392,206932
19.03205,209654
19.04017,201456
19.04828,202460
19.05642,191600
19.06453,198162
19.07267,204701
19.08078,199102
19.08890,195968
19.09703,205803
19.10515,232177
19.11327,242387
19.12140,248622
19.12952,255672
19.13765,257839
19.14577,246799
19.15388,240465
19.16202,232273
19.17013,227464
19.17827,231623
19.18638,230284
19.19450,228561
19.20263,215784
19.21075,209180
19.21888,214719
19.22700,205477
19.23512,208991
19.24325,198277
19.25137,192699
19.25948,181569
19.26762,178683
19.27573,185155
19.28387,172068
19.29198,182304
19.30010,182004
19.30823,188210
19.31635,186449
19.32448,178568
19.33260,186422
19.34072,178193
19.34885,177909
19.35697,172072
19.36510,182985
19.37322,193236
19.38133,197855
19.38947,217107
19.39758,217699
19.40570,215278
19.41383,197707
19.42195,179448
19.43008,167977
19.43820,159192
19.44632,159797
19.45445,161053
19.46257,154726
19.47070,149201
19.47882,151944
19.48693,157195
19.49507,151682
19.50318,155856
19.51130,163376
19.51943,188855
19.52755,199299
19.53568,210495
19.54380,223145
19.55192,215601
19.56005,192043
19.56817,173137
19.57630,155563
19.58442,151738
19.59253,147051
19.60067,138118
19.60878,137819
19.61692,139436
19.62503,136453
19.63315,136832
19.64128,143327
19.64940,164412
19.65752,209648
19.66565,298282
19.67377,400387
19.68190,515264
19.69002,589784
19.69813,596686
19.70627,548687
19.71438,455297
19.72252,380268
19.73063,319789
19.73875,270093
19.74688,234807
19.75500,206735
19.76313,193110
19.77125,186701
19.77937,177455
19.78750,166253
19.79562,166643
19.80373,163354
19.81187,167745
19.81998,164968
19.82812,162309
19.83623,156888
19.84435,150970
19.85248,175576
19.86060,280673
19.86873,719781
19.87685,1923111
19.88497,4785586
19.89310,1.013114E+07
19.90122,1.775604E+07
19.90933,2.516478E+07
19.91747,2.952267E+07
19.92558,3.01559E+07
19.93372,2.6619E+07
19.94183,2.021687E+07
19.94995,1.427862E+07
19.95808,9772399
19.96620,6859496
19.97433,5476854
19.98245,4483183
19.99057,3949051
19.99870,3532732
20.00682,3190815
20.01495,2953797
20.02307,2788338
20.03118,2509413
20.03932,2344468
20.04743,2100616
20.05555,1864351
20.06368,1558352
20.07180,1275801
20.07993,977139
20.08805,730928
20.09617,599763
20.10430,500212
20.11242,457624
20.12055,427767
20.12867,399791
20.13678,374262
20.14492,365613
20.15303,345541
20.16115,357537
20.16928,361244
20.17740,366415
20.18553,377609
20.19365,387416
20.20177,385916
20.20990,383202
20.21802,368815
20.22615,341867
20.23427,347425
20.24238,306548
20.25052,306388
20.25863,322764
20.26677,356613
20.27488,405829
20.28300,519268
20.29113,613428
20.29925,677216
20.30737,717642
20.31550,665961
20.32362,553224
20.33175,465267
20.33987,388108
20.34798,310352
20.35612,257469
20.36423,225013
20.37237,194006
20.38048,167052
20.38860,158473
20.39673,137216
20.40485,134323
20.41298,126338
20.42110,130693
20.42922,126570
20.43735,136935
20.44547,145792
20.45358,173498
20.46172,170068
20.46983,186650
20.47797,176932
20.48608,166308
20.49420,153457
20.50233,137472
20.51045,131220
20.51858,121020
20.52670,114050
20.53482,108459
20.54295,108650
20.55107,116372
20.55918,105305
20.56732,104287
20.57543,102152
20.58357,98850
20.59168,97427
20.59980,105851
20.60793,94443
20.61605,90602
20.62418,90584
20.63230,92190
20.64042,93952
20.64855,91728
20.65667,94333
20.66480,93149
20.67292,92278
20.68103,90256
20.68917,90317
20.69728,91992
20.70540,92515
20.71353,85870
20.72165,85033
20.72978,87103
20.73790,84895
20.74602,82516
20.75415,83859
20.76227,85034
20.77040,84296
20.77852,85692
20.78663,93891
20.79477,96307
20.80288,119613
20.81102,149217
20.81913,192181
20.82725,229295
20.83538,243740
20.84350,260684
20.85162,225659
20.85975,179584
20.86787,145356
20.87600,117533
20.88412,101241
20.89223,96767
20.90037,94173
20.90848,90159
20.91662,90400
20.92473,90194
20.93285,83577
20.94098,83465
20.94910,88537
20.95722,82633
20.96535,79902
20.97347,88045
20.98160,85248
20.98972,80966
20.99783,81231
21.00597,82369
21.01408,73937
21.02222,82081
21.03033,73604
21.03845,81930
21.04658,79797
21.05470,81503
21.06283,80415
21.07095,80591
21.07907,78511
21.08720,75234
21.09532,78158
21.10343,77347
21.11157,72036
21.11968,78978
21.12782,72556
21.13593,76453
21.14405,83980
21.15218,85198
21.16030,98766
21.16843,115044
21.17655,116039
21.18467,120062
21.19280,112713
21.20092,103637
21.20905,93369
21.21717,85668
21.22528,84699
21.23342,88014
21.24153,81449
21.24965,79443
21.25778,80890
21.26590,82691
21.27403,75190
21.28215,75178
21.29027,77085
21.29840,71385
21.30652,70800
21.31465,72724
21.32277,71541
21.33088,72170
21.33902,71963
21.34713,69338
21.35525,65168
21.36338,70097
21.37150,69165
21.37963,67647
21.38775,71437
21.39587,75235
21.40400,83292
21.41212,93636
21.42025,98861
21.42837,111233
21.43648,117051
21.44462,115075
21.45273,106285
21.46087,97959
21.46898,92238
21.47710,87147
21.48523,76426
21.49335,77551
21.50147,70179
21.50960,74956
21.51772,68554
21.52585,69719
21.53397,65591
21.54208,75279
21.55022,65719
21.55833,67656
21.56647,67677
21.57458,68427
21.58270,63618
21.59083,69361
21.59895,78568
21.60707,75872
21.61520,77402
21.62332,73625
21.63145,70738
21.63957,82968
21.64768,88762
21.65582,96755
21.66393,106636
21.67207,113480
21.68018,103866
21.68830,106477
21.69643,94497
21.70455,92166
21.71268,82294
21.72080,75991
21.72892,69179
21.73705,65902
21.74517,64996
21.75328,61228
21.76142,62815
21.76953,54947
21.77767,59490
21.78578,56845
21.79390,58986
21.80203,61577
21.81015,58595
21.81828,58674
21.82640,59628
21.83452,68009
21.84265,71856
21.85077,84089
21.85890,96856
21.86702,105136
21.87513,102799
21.88327,94318
21.89138,86411
21.89950,75049
21.90763,67239
21.91575,61590
21.92388,59130
21.93200,56388
21.94012,58893
21.94825,55280
21.95637,48831
21.96450,53407
21.97262,50539
21.98073,50039
21.98887,51496
21.99698,47512
22.00510,49265
22.01323,47120
22.02135,49077
22.02948,46503
22.03760,47773
22.04572,50416
22.05385,49691
22.06197,53190
22.07010,48996
22.07822,52318
22.08633,48312
22.09447,51688
22.10258,50673
22.11072,52374
22.11883,52240
22.12695,48814
22.13508,47543
22.14320,43349
22.15132,48034
22.15945,53508
22.16757,47773
22.17570,45378
22.18382,52120
22.19193,52381
22.20007,45028
22.20818,46562
22.21632,50592
22.22443,46901
22.23255,51137
22.24068,52592
22.24880,54292
22.25693,56198
22.26505,56324
22.27317,56496
22.28130,53300
22.28942,57042
22.29753,51638
22.30567,58623
22.31378,63498
22.32192,81065
22.33003,111779
22.33815,134164
22.34628,155990
22.35440,176116
22.36253,175401
22.37065,160518
22.37877,144766
22.38690,137294
22.39502,127650
22.40313,135633
22.41127,139484
22.41938,161372
22.42752,168913
22.43563,176929
22.44375,173793
22.45188,160028
22.46000,148556
22.46813,138690
22.47625,121408
22.48437,124089
22.49250,116014
22.50062,124796
22.50875,122539
22.51687,125869
22.52498,126538
22.53312,123935
22.54123,117165
22.54935,119946
22.55748,109583
22.56560,116506
22.57373,103895
22.58185,110364
22.58997,107714
22.59810,103068
22.60622,106759
22.61435,95611
22.62247,98858
22.63058,93106
22.63872,91689
22.64683,86996
22.65495,92569
22.66308,93899
22.67120,95074
22.67933,101449
22.68745,105632
22.69557,112478
22.70370,110243
22.71182,116184
22.71995,120578
22.72807,122316
22.73618,117599
22.74432,119518
22.75243,105609
22.76057,106208
22.76868,98167
22.77680,99746
22.78493,98087
22.79305,97573
22.80117,103417
22.80930,106226
22.81742,101366
22.82555,102871
22.83367,103949
22.84178,92767
22.84992,87756
22.85803,82755
22.86617,79526
22.87428,73137
22.88240,79600
22.89053,80381
22.89865,83895
22.90678,90463
22.91490,94232
22.92302,110914
22.93115,122052
22.93927,145652
22.94738,164819
22.95552,172827
22.96363,166792
22.97177,161437
22.97988,136275
22.98800,121033
22.99613,114327
23.00425,104827
23.01238,98993
23.02050,88935
23.02862,82311
23.03675,75884
23.04487,71678
23.05298,64746
23.06112,69603
23.06923,59582
23.07737,62326
23.08548,66143
23.09360,76452
23.10173,96378
23.10985,104866
23.11798,119692
23.12610,118266
23.13422,124287
23.14235,119624
23.15047,126701
23.15860,128454
23.16672,130276
23.17483,134006
23.18297,131072
23.19108,132642
23.19920,128954
23.20733,134820
23.21545,137359
23.22358,129506
23.23170,137070
23.23982,130025
23.24795,140124
23.25607,147087
23.26420,157029
23.27232,169018
23.28043,180402
23.28857,168903
23.29668,173065
23.30482,160006
23.31293,137015
23.32105,135345
23.32918,130632
23.33730,130455
23.34542,135338
23.35355,157030
23.36167,167227
23.36980,199126
23.37792,237674
23.38603,286658
23.39417,341500
23.40228,397561
23.41042,474644
23.41853,500601
23.42665,553483
23.43478,581101
23.44290,581346
23.45102,563075
23.45915,545068
23.46727,522029
23.47540,505174
23.48352,464373
23.49163,433616
23.49977,408386
23.50788,381536
23.51602,342792
23.52413,327883
23.53225,313198
23.54038,283316
23.54850,272881
23.55663,265952
23.56475,250736
23.57287,245289
23.58100,246719
23.58912,240181
23.59723,249647
23.60537,257114
23.61348,271956
23.62162,277583
23.62973,261434
23.63785,253774
23.64598,273182
23.65410,321566
23.66223,412972
23.67035,547648
23.67847,629883
23.68660,658985
23.69472,605134
23.70283,507529
23.71097,390607
23.71908,314803
23.72722,252742
23.73533,219950
23.74345,194940
23.75158,185954
23.75970,205471
23.76783,297677
23.77595,544266
23.78407,1062609
23.79220,1830317
23.80032,2819304
23.80845,3520941
23.81657,3591996
23.82468,3232312
23.83282,2636920
23.84093,1992627
23.84905,1460576
23.85718,1078575
23.86530,819148
23.87343,676176
23.88155,568315
23.88967,510313
23.89780,444555
23.90592,404252
23.91405,373457
23.92217,357740
23.93028,335726
23.93842,320012
23.94653,293636
23.95467,277614
23.96278,258965
23.97090,256113
23.97903,243476
23.98715,231686
23.99527,217377
24.00340,211390
24.01152,196819
24.01965,208779
24.02777,204371
24.03588,201613
24.04402,209665
24.05213,215729
24.06027,218215
24.06838,220339
24.07650,198247
24.08463,186396
24.09275,183513
24.10088,175573
24.10900,161160
24.11712,153857
24.12525,159754
24.13337,154324
24.14148,153310
24.14962,164345
24.15773,155859
24.16587,165422
24.17398,164097
24.18210,160233
24.19023,165183
24.19835,157792
24.20648,154602
24.21460,144692
24.22272,149207
24.23085,146779
24.23897,142911
24.24708,141287
24.25522,133046
24.26333,124425
24.27147,121715
24.27958,107259
24.28770,112196
24.29583,101696
24.30395,103319
24.31208,101574
24.32020,101054
24.32832,97285
24.33645,96810
24.34457,96751
24.35270,103591
24.36082,92248
24.36893,96494
24.37707,88449
24.38518,84759
24.39330,90429
24.40143,89781
24.40955,102035
24.41768,110508
24.42580,123679
24.43392,112625
24.44205,109562
24.45017,101071
24.45830,87679
24.46642,86980
24.47453,89339
24.48267,97247
24.49078,99420
24.49890,114200
24.50703,112688
24.51515,121951
24.52328,141186
24.53140,159704
24.53952,181810
24.54765,213585
24.55577,204527
24.56390,207550
24.57202,188359
24.58013,172153
24.58827,149267
24.59638,138426
24.60452,122928
24.61263,110706
24.62075,103131
24.62888,94624
24.63700,93974
24.64512,88133
24.65325,84045
24.66137,87207
24.66950,86718
24.67762,84038
24.68573,78920
24.69387,76964
24.70198,77582
24.71012,74207
24.71823,69013
24.72635,76486
24.73448,72065
24.74260,77898
24.75073,69528
24.75885,75875
24.76697,78582
24.77510,95686
24.78322,133303
24.79133,158278
24.79947,177210
24.80758,191587
24.81572,195444
24.82383,203898
24.83195,216063
24.84008,215116
24.84820,215795
24.85633,244111
24.86445,275756
24.87257,307600
24.88070,384541
24.88882,451300
24.89693,539040
24.90507,578840
24.91318,594904
24.92132,538627
24.92943,476987
24.93755,398865
24.94568,336438
24.95380,281472
24.96193,248777
24.97005,241061
24.97817,232627
24.98630,236317
24.99442,227110
25.00255,226224
25.01067,232936
25.01878,230545
25.02692,229839
25.03503,216974
25.04315,222795
25.05128,223432
25.05940,221131
25.06753,215532
25.07565,214930
25.08377,211525
25.09190,220746
25.10002,222382
25.10815,234521
25.11627,278569
25.12438,406024
25.13252,684516
25.14063,1088591
25.14877,1612958
25.15688,2133801
25.16500,2370953
25.17313,2165660
25.18125,1715673
25.18937,1232907
25.19750,834428
25.20562,570929
25.21375,409768
25.22187,327937
25.22998,269663
25.23812,257596
25.24623,236615
25.25437,248351
25.26248,255846
25.27060,276825
25.27873,285189
25.28685,300572
25.29497,296018
25.30310,271318
25.31122,249848
25.31935,236692
25.32747,212333
25.33558,214243
25.34372,205102
25.35183,197893
25.35997,188604
25.36808,182436
25.37620,172940
25.38433,166381
25.39245,161836
25.40058,142616
25.40870,118441
25.41682,99707
25.42495,94706
25.43307,85356
25.44118,80759
25.44932,85654
25.45743,87347
25.46557,79602
25.47368,80421
25.48180,81793
25.48993,83215
25.49805,80691
25.50618,82104
25.51430,78841
25.52242,77570
25.53055,74349
25.53867,70785
25.54678,69501
25.55492,66884
25.56303,71016
25.57117,65197
25.57928,69175
25.58740,66061
25.59553,66764
25.60365,63787
25.61178,64821
25.61990,63759
25.62802,63147
25.63615,68641
25.64427,64136
25.65240,66387
25.66052,72124
25.66863,77715
25.67677,77943
25.68488,70747
25.69300,69703
25.70113,67787
25.70925,63222
25.71738,64970
25.72550,56754
25.73362,61909
25.74175,61482
25.74987,60056
25.75800,63937
25.76612,66220
25.77423,64864
25.78237,74259
25.79048,86186
25.79862,115378
25.80673,159826
25.81485,217830
25.82298,243558
25.83110,266910
25.83922,274812
25.84735,282537
25.85547,288567
25.86360,281642
25.87172,284874
25.87983,278457
25.88797,285221
25.89608,281200
25.90422,273081
25.91233,275318
25.92045,280478
25.92858,281052
25.93670,269052
25.94482,272699
25.95295,273734
25.96107,271653
25.96920,259404
25.97732,265411
25.98543,258670
25.99357,262840
26.00168,261550
26.00982,255988
26.01793,260919
26.02605,261425
26.03418,254469
26.04230,252748
26.05043,246484
26.05855,250795
26.06667,249535
26.07480,248308
26.08292,243151
26.09103,248021
26.09917,244680
26.10728,235442
26.11542,239435
26.12353,236011
26.13165,237082
26.13978,231778
26.14790,241520
26.15603,240206
26.16415,235030
26.17227,236063
26.18040,243627
26.18852,241085
26.19665,239215
26.20477,217790
26.21288,218347
26.22102,219121
26.22913,207872
26.23725,214471
26.24538,204745
26.25350,200307
26.26163,199495
26.26975,198191
26.27787,192877
26.28600,198079
26.29412,193856
26.30225,193638
26.31037,196219
26.31848,188286
26.32662,191450
26.33473,180517
26.34285,184374
26.35098,177956
26.35910,176897
26.36723,178543
26.37535,186170
26.38347,178741
26.39160,199652
26.39972,205526
26.40785,209441
26.41597,203716
26.42408,211084
26.43222,200729
26.44033,186458
26.44847,188913
26.45658,169240
26.46470,171986
26.47283,165623
26.48095,164977
26.48907,159271
26.49720,161108
26.50532,151594
26.51345,154143
26.52157,152346
26.52968,148357
26.53782,140564
26.54593,138506
26.55407,139565
26.56218,133774
26.57030,133362
26.57843,138205
26.58655,131904
26.59468,133041
26.60280,134564
26.61092,124488
26.61905,132039
26.62717,130450
26.63528,127527
26.64342,131257
26.65153,122309
26.65967,133809
26.66778,130716
26.67590,135853
26.68403,131611
26.69215,133898
26.70028,140083
26.70840,122241
26.71652,126683
26.72465,120940
26.73277,117573
26.74088,115124
26.74902,111408
26.75713,116698
26.76527,118217
26.77338,117631
26.78150,110875
26.78963,113632
26.79775,114487
26.80588,109699
26.81400,115413
26.82212,114530
26.83025,113819
26.83837,111664
26.84650,106155
26.85462,110280
26.86273,106728
26.87087,107310
26.87898,105006
26.88710,106639
26.89523,104059
26.90335,102699
26.91148,101146
26.91960,99140
26.92772,94459
26.93585,92298
26.94397,93496
26.95210,93823
26.96022,94669
26.96833,91075
26.97647,105384
26.98458,112851
26.99270,158765
27.00083,223052
27.00895,352384
27.01708,535078
27.02520,751652
27.03332,946856
27.04145,1041693
27.04957,1005700
27.05770,891803
27.06582,756670
27.07393,599057
27.08207,456952
27.09018,377600
27.09832,305867
27.10643,264669
27.11455,240972
27.12268,223128
27.13080,201665
27.13892,187409
27.14705,178779
27.15517,174375
27.16330,163922
27.17142,158031
27.17953,163387
27.18767,157552
27.19578,155781
27.20392,151599
27.21203,157859
27.22015,142917
27.22828,132514
27.23640,128236
27.24453,122506
27.25265,118621
27.26077,111975
27.26890,117795
27.27702,105494
27.28513,102125
27.29327,100433
27.30138,101864
27.30952,98855
27.31763,96372
27.32575,93406
27.33388,92759
27.34200,92281
27.35013,89978
27.35825,86304
27.36637,89301
27.37450,86617
27.38262,89312
27.39073,91447
27.39887,93919
27.40698,93571
27.41512,85668
27.42323,85640
27.43135,85496
27.43948,86617
27.44760,76174
27.45573,83868
27.46385,76464
27.47197,79889
27.48010,76804
27.48822,75967
27.49635,68340
27.50447,74883
27.51258,76834
27.52072,69786
27.52883,75202
27.53695,72083
27.54508,75517
27.55320,70799
27.56133,77161
27.56945,72734
27.57757,77194
27.58570,85449
27.59382,78105
27.60195,88241
27.61007,95145
27.61818,92325
27.62632,91999
27.63443,93255
27.64257,77604
27.65068,74174
27.65880,71274
27.66693,74662
27.67505,67982
27.68317,61998
27.69130,64384
27.69942,66171
27.70755,68789
27.71567,62482
27.72378,68511
27.73192,61935
27.74003,63183
27.74817,56863
27.75628,59959
27.76440,59559
27.77253,57656
27.78065,62777
27.78877,64854
27.79690,65448
27.80502,64093
27.81315,67287
27.82127,64526
27.82938,64187
27.83752,63674
27.84563,63357
27.85377,62059
27.86188,61345
27.87000,66633
27.87813,62652
27.88625,63236
27.89438,57871
27.90250,58966
27.91062,60041
27.91875,57363
27.92687,56659
27.93498,57375
27.94312,55353
27.95123,54519
27.95937,56616
27.96748,57255
27.97560,53343
27.98373,54057
27.99185,60495
27.99998,58619
28.00810,60781
28.01622,53377
28.02435,53774
28.03247,58245
28.04058,60868
28.04872,62058
28.05683,63043
28.06497,66625
28.07308,65837
28.08120,63983
28.08933,62860
28.09745,64762
28.10558,68294
28.11370,58891
28.12182,62135
28.12995,59918
28.13807,56605
28.14620,53478
28.15432,55346
28.16243,50619
28.17057,48565
28.17868,49152
28.18680,55698
28.19493,54319
28.20305,57355
28.21118,64554
28.21930,70592
28.22742,73507
28.23555,81843
28.24367,84919
28.25180,76905
28.25992,71281
28.26803,66049
28.27617,59501
28.28428,56353
28.29242,55652
28.30053,58783
28.30865,61029
28.31678,63808
28.32490,67087
28.33302,75850
28.34115,83109
28.34927,90466
28.35740,103614
28.36552,116082
28.37363,127825
28.38177,133716
28.38988,158534
28.39802,154154
28.40613,147463
28.41425,152942
28.42238,152200
28.43050,137854
28.43862,128143
28.44675,120668
28.45487,107223
28.46300,97825
28.47112,97329
28.47923,87152
28.48737,91338
28.49548,88000
28.50362,83677
28.51173,79695
28.51985,80400
28.52798,77156
28.53610,76483
28.54423,72906
28.55235,69885
28.56047,67352
28.56860,71006
28.57672,66828
28.58483,66715
28.59297,72322
28.60108,64297
28.60922,62195
28.61733,62965
28.62545,62077
28.63358,65470
28.64170,67444
28.64983,64500
28.65795,68832
28.66607,70402
28.67420,75574
28.68232,71678
28.69045,73292
28.69857,68327
28.70668,73107
28.71482,60292
28.72293,62875
28.73105,56599
28.73918,59463
28.74730,59226
28.75543,59090
28.76355,57939
28.77167,59098
28.77980,65021
28.78792,63537
28.79605,64000
28.80417,74446
28.81228,71794
28.82042,74079
28.82853,66285
28.83665,60589
28.84478,60981
28.85290,59719
28.86103,60237
28.86915,59976
28.87727,64716
28.88540,57832
28.89352,64718
28.90165,65454
28.90977,67925
28.91788,74817
28.92602,72155
28.93413,65071
28.94227,64243
28.95038,64235
28.95850,72259
28.96663,69757
28.97475,72585
28.98287,75785
28.99100,80350
28.99912,66756
29.00725,68146
29.01537,58264
29.02348,58512
29.03162,55860
29.03973,56826
29.04787,57947
29.05598,60814
29.06410,57492
29.07223,59646
29.08035,58443
29.08847,55767
29.09660,61618
29.10472,54266
29.11285,57212
29.12097,59029
29.12908,56907
29.13722,54940
29.14533,57085
29.15347,54392
29.16158,54893
29.16970,54792
29.17783,51656
29.18595,57579
29.19408,63381
29.20220,65526
29.21032,74152
29.21845,90129
29.22657,91893
29.23468,95685
29.24282,89952
29.25093,82431
29.25907,78035
29.26718,68547
29.27530,64919
29.28343,67577
29.29155,60171
29.29968,61189
29.30780,56890
29.31592,54488
29.32405,58908
29.33217,56287
29.34030,51059
29.34842,48646
29.35653,46417
29.36467,60360
29.37278,52264
29.38090,48329
29.38903,50368
29.39715,50227
29.40528,48455
29.41340,55179
29.42152,58038
29.42965,54585
29.43777,54036
29.44590,48922
29.45402,53200
29.46213,52074
29.47027,49101
29.47838,46513
29.48652,47330
29.49463,51551
29.50275,53032
29.51088,57833
29.51900,63648
29.52712,58502
29.53525,56919
29.54337,56512
29.55150,52264
29.55962,52222
29.56773,52883
29.57587,54544
29.58398,52620
29.59212,47003
29.60023,45758
29.60835,47539
29.61648,51094
29.62460,51413
29.63272,48935
29.64085,47412
29.64897,49878
29.65710,50129
29.66522,51426
29.67333,47830
29.68147,52602
29.68958,56434
29.69772,55271
29.70583,54454
29.71395,56120
29.72208,53085
29.73020,48210
29.73833,49620
29.74645,51554
29.75457,50514
29.76270,50478
29.77082,44332
29.77893,49794
29.78707,46118
29.79518,46600
29.80332,46010
29.81143,43908
29.81955,44690
29.82768,45288
29.83580,45636
29.84393,43170
29.85205,41838
29.86017,46498
29.86830,50040
29.87642,52658
29.88453,63923
29.89267,83401
29.90078,110407
29.90892,133992
29.91703,151548
29.92515,137241
29.93328,118109
29.94140,97725
29.94953,78100
29.95765,60565
29.96577,61447
29.97390,60870
29.98202,57838
29.99015,60333
29.99827,68309
30.00638,72425
30.01452,79291
30.02263,80942
30.03075,87759
30.03888,94367
30.04700,93873
30.05513,97005
30.06325,95553
30.07137,96914
30.07950,95168
30.08762,92403
30.09575,88445
30.10387,90013
30.11198,81611
30.12012,82033
30.12823,81554
30.13637,78156
30.14448,76552
30.15260,69635
30.16073,72070
30.16885,69054
30.17697,66866
30.18510,63984
30.19322,67205
30.20135,67907
30.20947,61642
30.21758,66103
30.22572,66368
30.23383,63858
30.24197,65008
30.25008,61181
30.25820,57704
30.26633,61804
30.27445,55896
30.28257,62447
30.29070,53351
30.29882,52939
30.30695,55379
30.31507,52913
30.32318,55473
30.33132,52422
30.33943,51991
30.34757,52970
30.35568,53811
30.36380,57778
30.37193,53003
30.38005,49022
30.38818,54377
30.39630,52839
30.40442,51456
30.41255,47884
30.42067,47664
30.42878,48696
30.43692,48028
30.44503,50169
30.45317,49420
30.46128,48791
30.46940,47178
30.47753,52563
30.48565,49608
30.49378,51277
30.50190,47678
30.51002,49439
30.51815,43669
30.52627,43813
30.53440,50750
30.54252,53954
30.55063,50527
30.55877,50518
30.56688,51297
30.57500,50812
30.58313,52938
30.59125,51205
30.59938,55061
30.60750,53149
30.61562,52589
30.62375,55435
30.63187,52569
30.64000,55006
30.64812,53469
30.65623,54095
30.66437,52987
30.67248,51166
30.68060,57158
30.68873,48888
30.69685,51246
30.70498,52277
30.71310,52310
30.72122,53425
30.72935,54810
30.73747,53512
30.74560,55120
30.75372,50692
30.76183,51174
30.76997,54088
30.77808,56225
30.78622,55175
30.79433,64725
30.80245,65529
30.81058,79778
30.81870,86125
30.82682,90288
30.83495,86781
30.84307,74775
30.85120,68684
30.85932,61184
30.86743,52291
30.87557,50325
30.88368,53523
30.89182,51322
30.89993,50303
30.90805,49900
30.91618,48545
30.92430,53674
30.93242,45425
30.94055,51307
30.94867,50734
30.95680,47493
30.96492,50350
30.97303,53118
30.98117,56990
30.98928,47579
30.99742,45520
31.00553,48016
31.01365,52370
31.02178,55224
31.02990,48592
31.03803,59597
31.04615,63280
31.05427,62560
31.06240,63137
31.07052,60262
31.07863,65853
31.08677,75545
31.09488,94753
31.10302,119116
31.11113,153994
31.11925,183293
31.12738,201318
31.13550,179933
31.14363,140730
31.15175,113485
31.15987,84286
31.16800,68297
31.17612,62906
31.18425,59349
31.19237,63029
31.20048,70657
31.20862,75771
31.21673,89293
31.22485,95982
31.23298,103424
31.24110,100073
31.24923,98823
31.25735,91067
31.26547,69312
31.27360,62541
31.28172,60014
31.28985,55156
31.29797,50301
31.30608,51405
31.31422,53754
31.32233,48413
31.33045,49748
31.33858,54844
31.34670,51702
31.35483,50764
31.36295,50089
31.37107,52924
31.37920,61872
31.38732,65474
31.39545,68590
31.40357,69572
31.41168,68038
31.41982,58250
31.42793,58661
31.43607,55933
31.44418,58214
31.45230,62469
31.46043,65063
31.46855,61562
31.47667,64376
31.48480,70705
31.49292,71989
31.50105,64429
31.50917,66304
31.51728,70408
31.52542,67884
31.53353,70465
31.54167,76311
31.54978,71376
31.55790,69024
31.56603,74184
31.57415,73751
31.58228,69602
31.59040,75215
31.59852,69026
31.60665,67938
31.61477,68527
31.62288,69845
31.63102,67464
31.63913,72752
31.64727,70148
31.65538,71682
31.66350,71795
31.67163,70945
31.67975,73369
31.68788,73096
31.69600,76240
31.70412,70207
31.71225,71064
31.72037,66976
31.72848,75087
31.73662,69665
31.74473,63078
31.75287,66494
31.76098,69794
31.76910,67848
31.77723,63477
31.78535,65115
31.79348,67420
31.80160,64351
31.80972,66458
31.81785,69929
31.82597,67431
31.83410,70112
31.84222,65722
31.85033,64986
31.85847,71260
31.86658,73320
31.87470,74307
31.88283,79574
31.89095,78636
31.89908,82011
31.90720,80829
31.91532,82538
31.92345,81686
31.93157,86343
31.93970,88554
31.94782,87057
31.95593,86474
31.96407,91036
31.97218,89266
31.98032,97348
31.98843,97498
31.99655,101030
32.00468,101012
32.01280,95638
32.02092,92574
32.02905,97100
32.03717,92174
32.04530,85065
32.05342,85617
32.06153,85747
32.06967,81048
32.07778,78339
32.08592,72466
32.09403,72718
32.10215,76121
32.11028,78827
32.11840,72782
32.12652,68185
32.13465,67694
32.14277,59428
32.15090,68239
32.15902,65118
32.16713,57896
32.17527,60762
32.18338,62072
32.19152,58786
32.19963,58980
32.20775,59525
32.21588,60531
32.22400,58468
32.23213,58773
32.24025,58916
32.24837,57946
32.25650,54557
32.26462,55333
32.27273,58950
32.28087,64451
32.28898,58896
32.29712,56391
32.30523,58628
32.31335,56063
32.32148,56725
32.32960,55459
32.33773,55302
32.34585,57265
32.35397,57264
32.36210,57569
32.37022,58743
32.37833,60929
32.38647,58007
32.39458,52515
32.40272,56091
32.41083,54541
32.41895,52102
32.42708,49746
32.43520,52228
32.44333,47151
32.45145,56886
32.45957,52123
32.46770,51302
32.47582,53633
32.48395,49958
32.49207,51491
32.50018,49917
32.50832,47249
32.51643,50576
32.52455,50834
32.53268,48207
32.54080,52085
32.54893,47479
32.55705,51681
32.56517,51992
32.57330,52237
32.58142,51792
32.58955,51447
32.59767,51005
32.60578,48525
32.61392,49795
32.62203,43647
32.63017,51921
32.63828,44591
32.64640,48648
32.65453,48911
32.66265,51588
32.67077,51255
32.67890,52656
32.68702,55176
32.69515,59063
32.70327,60902
32.71138,57738
32.71952,58526
32.72763,57909
32.73577,53833
32.74388,53583
32.75200,52789
32.76013,55356
32.76825,48313
32.77637,50129
32.78450,47862
32.79262,47688
32.80075,48338
32.80887,45537
32.81698,46353
32.82512,46412
32.83323,44530
32.84137,45798
32.84948,48724
32.85760,49215
32.86573,47012
32.87385,45870
32.88198,47052
32.89010,47770
32.89822,45640
32.90635,46001
32.91447,51025
32.92258,47908
32.93072,46841
32.93883,43387
32.94697,47327
32.95508,54639
32.96320,47960
32.97133,40718
32.97945,51107
32.98758,50824
32.99570,57756
33.00382,63199
33.01195,63140
33.02007,67187
33.02820,60941
33.03632,67504
33.04443,55478
33.05257,56980
33.06068,59413
33.06880,56849
33.07693,55197
33.08505,60044
33.09318,64143
33.10130,76607
33.10942,80813
33.11755,90365
33.12567,91188
33.13380,97959
33.14192,99707
33.15003,86581
33.15817,69127
33.16628,66411
33.17440,60963
33.18253,60533
33.19065,54080
33.19878,52726
33.20690,49582
33.21502,49980
33.22315,50326
33.23127,50540
33.23940,50398
33.24752,50372
33.25563,49447
33.26377,46231
33.27188,46198
33.28002,50068
33.28813,47233
33.29625,52408
33.30438,47386
33.31250,43632
33.32062,48026
33.32875,47143
33.33687,55724
33.34500,50766
33.35312,51749
33.36123,48880
33.36937,49745
33.37748,47715
33.38562,49054
33.39373,52712
33.40185,48059
33.40998,52911
33.41810,45816
33.42622,46941
33.43435,50606
33.44247,47460
33.45060,40468
33.45872,46183
33.46683,47425
33.47497,42827
33.48308,44524
33.49122,44364
33.49933,42794
33.50745,44368
33.51558,43455
33.52370,44867
33.53183,47694
33.53995,46535
33.54807,49359
33.55620,54910
33.56432,51447
33.57243,58953
33.58057,49175
33.58868,51552
33.59682,48712
33.60493,46068
33.61305,47787
33.62118,52097
33.62930,50629
33.63743,51536
33.64555,46022
33.65367,47039
33.66180,48963
33.66992,49955
33.67805,47104
33.68617,48091
33.69428,49545
33.70242,49911
33.71053,45396
33.71865,46890
33.72678,45513
33.73490,46750
33.74303,45629
33.75115,45673
33.75927,46520
33.76740,43276
33.77552,46040
33.78365,44766
33.79177,49050
33.79988,41603
33.80802,45873
33.81613,46391
33.82425,45740
33.83238,45455
33.84050,49294
33.84863,45441
33.85675,47831
33.86487,50418
33.87300,49524
33.88112,58320
33.88925,52188
33.89737,47388
33.90548,51207
33.91362,46447
33.92173,47393
33.92987,49083
33.93798,47301
33.94610,45125
33.95423,47950
33.96235,46171
33.97047,49950
33.97860,45598
33.98672,49041
33.99485,50595
34.00297,47126
34.01108,46997
34.01922,49366
34.02733,49387
34.03547,48258
34.04358,49933
34.05170,49868
34.05983,49722
34.06795,48675
34.07608,53208
34.08420,51078
34.09232,47568
34.10045,46389
34.10857,48776
34.11668,52568
34.12482,48889
34.13293,47321
34.14107,51386
34.14918,47790
34.15730,48210
34.16543,46803
34.17355,45895
34.18168,44362
34.18980,43174
34.19792,45857
34.20605,50971
34.21417,44587
34.22228,45347
34.23042,43085
34.23853,45410
34.24667,45317
34.25478,51121
34.26290,45735
34.27103,47587
34.27915,46805
34.28728,46312
34.29540,48522
34.30352,45512
34.31165,40138
34.31977,44196
34.32790,44031
34.33602,48522
34.34413,43850
34.35227,46036
34.36038,49557
34.36850,44281
34.37663,45838
34.38475,46146
34.39288,52429
34.40100,47826
34.40912,44675
34.41725,43401
34.42537,52176
34.43350,42979
34.44162,49031
34.44973,43678
34.45787,45513
34.46598,43810
34.47410,50995
34.48223,45820
34.49035,50236
34.49848,48230
34.50660,47031
34.51472,52280
34.52285,45855
34.53097,45693
34.53910,46773
34.54722,53683
34.55533,57065
34.56347,66571
34.57158,61906
34.57972,64204
34.58783,66342
34.59595,64022
34.60408,61281
34.61220,60785
34.62032,60536
34.62845,58504
34.63657,59084
34.64470,50755
34.65282,49605
34.66093,50225
34.66907,56657
34.67718,48510
34.68532,49263
34.69343,47839
34.70155,48204
34.70968,50878
34.71780,48945
34.72593,50779
34.73405,53070
34.74217,51498
34.75030,46446
34.75842,50636
34.76653,52085
34.77467,48488
34.78278,45410
34.79092,49757
34.79903,51732
34.80715,51778
34.81528,53814
34.82340,56280
34.83153,50956
34.83965,54458
34.84777,49735
34.85590,51538
34.86402,48564
34.87215,46140
34.88027,53483
34.88838,51721
34.89652,52165
34.90463,51671
34.91275,49040
34.92088,48808
34.92900,52949
34.93713,53826
34.94525,63693
34.95337,74099
34.96150,109032
34.96962,159920
34.97775,246859
34.98587,317927
34.99398,344363
35.00212,334208
35.01023,251039
35.01835,177886
35.02648,119117
35.03460,86979
35.04273,71203
35.05085,66225
35.05897,64384
35.06710,57259
35.07522,56062
35.08335,60118
35.09147,61616
35.09958,60488
35.10772,55418
35.11583,54312
35.12397,56849
35.13208,57396
35.14020,55279
35.14833,58904
35.15645,54702
35.16457,58559
35.17270,60247
35.18082,54777
35.18895,52594
35.19707,59027
35.20518,52956
35.21332,52802
35.22143,48993
35.22957,49798
35.23768,51691
35.24580,54387
35.25393,58110
35.26205,57244
35.27017,58281
35.27830,69675
35.28642,59958
35.29455,55764
35.30267,65046
35.31078,53266
35.31892,56612
35.32703,52710
35.33517,52047
35.34328,55221
35.35140,52052
35.35953,50342
35.36765,50581
35.37578,49089
35.38390,50580
35.39202,55792
35.40015,47884
35.40827,46344
35.41638,48497
35.42452,52990
35.43263,50755
35.44077,53556
35.44888,51916
35.45700,55908
35.46513,61731
35.47325,55948
35.48138,56182
35.48950,56852
35.49762,56139
35.50575,61642
35.51387,56154
35.52200,56693
35.53012,53646
35.53823,56485
35.54637,53568
35.55448,53857
35.56260,55256
35.57073,52407
35.57885,55612
35.58698,52785
35.59510,56589
35.60322,55470
35.61135,57726
35.61947,50192
35.62760,50977
35.63572,54096
35.64383,49546
35.65197,54128
35.66008,48765
35.66820,49227
35.67633,52367
35.68445,52884
35.69258,55031
35.70070,51379
35.70882,58706
35.71695,57085
35.72507,54708
35.73320,54259
35.74132,50306
35.74943,50564
35.75757,56984
35.76568,58393
35.77382,61691
35.78193,64494
35.79005,63203
35.79818,60974
35.80630,54785
35.81442,62171
35.82255,52484
35.83067,52269
35.83880,52817
35.84692,52823
35.85503,55057
35.86317,55304
35.87128,47338
35.87942,53678
35.88753,54577
35.89565,49975
35.90378,52676
35.91190,50957
35.92003,50422
35.92815,51543
35.93627,51477
35.94440,54299
35.95252,53500
35.96063,52458
35.96877,50817
35.97688,49989
35.98502,55450
35.99313,52194
36.00125,51316
36.00938,52363
36.01750,49966
36.02563,57525
36.03375,57896
36.04187,56302
36.05000,54273
36.05812,53832
36.06623,55665
36.07437,51429
36.08248,53662
36.09062,52550
36.09873,54111
36.10685,51146
36.11498,49930
36.12310,54526
36.13123,53203
36.13935,51673
36.14747,57397
36.15560,60440
36.16372,60569
36.17185,59333
36.17997,57673
36.18808,54282
36.19622,56556
36.20433,54994
36.21245,50378
36.22058,51656
36.22870,49858
36.23683,55528
36.24495,51827
36.25307,54743
36.26120,49918
36.26932,54663
36.27745,52469
36.28557,53129
36.29368,52680
36.30182,49742
36.30993,55348
36.31805,59586
36.32618,57041
36.33430,59399
36.34243,58211
36.35055,57512
36.35867,57500
36.36680,53718
36.37492,53176
36.38305,51918
36.39117,58647
36.39928,56287
36.40742,51752
36.41553,55700
36.42367,52692
36.43178,56042
36.43990,59951
36.44803,56742
36.45615,56874
36.46427,50561
36.47240,62805
36.48052,56009
36.48865,55631
36.49677,50029
36.50488,52577
36.51302,52584
36.52113,55661
36.52927,57654
36.53738,56264
36.54550,53494
36.55363,54414
36.56175,50746
36.56988,50312
36.57800,54460
36.58612,52745
36.59425,52449
36.60237,55609
36.61048,55651
36.61862,52847
36.62673,53574
36.63487,52537
36.64298,53182
36.65110,58315
36.65923,54386
36.66735,55194
36.67548,61403
36.68360,51830
36.69172,56838
36.69985,57466
36.70797,50543
36.71608,59322
36.72422,54254
36.73233,51913
36.74047,57486
36.74858,54828
36.75670,52679
36.76483,51400
36.77295,52705
36.78108,50564
36.78920,51649
36.79732,55721
36.80545,54116
36.81357,55382
36.82170,55329
36.82982,57310
36.83793,61129
36.84607,53593
36.85418,55964
36.86230,52681
36.87043,54791
36.87855,54848
36.88668,55063
36.89480,54369
36.90292,56533
36.91105,67772
36.91917,68381
36.92730,65757
36.93542,69531
36.94353,72259
36.95167,74441
36.95978,74780
36.96792,79428
36.97603,79174
36.98415,81607
36.99228,85349
37.00040,82197
37.00852,77862
37.01665,82187
37.02477,72006
37.03290,71922
37.04102,65810
37.04913,70097
37.05727,65740
37.06538,72839
37.07352,68433
37.08163,71506
37.08975,74076
37.09788,68229
37.10600,75252
37.11412,74110
37.12225,68830
37.13037,70025
37.13850,76619
37.14662,79019
37.15473,73965
37.16287,71400
37.17098,71432
37.17912,71786
37.18723,75838
37.19535,69377
37.20348,70574
37.21160,72879
37.21973,78308
37.22785,69811
37.23597,73563
37.24410,66977
37.25222,77441
37.26033,70354
37.26847,70675
37.27658,65615
37.28472,73149
37.29283,64546
37.30095,69056
37.30908,67751
37.31720,71577
37.32533,71198
37.33345,68735
37.34157,70444
37.34970,73161
37.35782,81563
37.36593,77816
37.37407,78139
37.38218,82766
37.39032,82029
37.39843,78488
37.40655,76508
37.41468,75194
37.42280,72980
37.43093,72370
37.43905,75857
37.44717,72175
37.45530,70172
37.46342,72791
37.47155,70854
37.47967,71455
37.48778,68438
