C:\MassHunter\GCMS\1\data\JTB-E02\BACandBLUE\JTB-E18-021-08.D Wed Jul 10 10:27:43 2019
Start of data points
2.09527,59881
2.10338,62260
2.11152,57508
2.11963,60721
2.12777,55330
2.13588,56787
2.14400,53844
2.15213,56033
2.16025,53551
2.16838,56615
2.17650,56514
2.18462,54208
2.19275,51391
2.20087,50704
2.20898,55285
2.21712,49653
2.22523,48271
2.23337,50110
2.24148,50545
2.24960,44542
2.25773,45502
2.26585,48872
2.27398,80021
2.28210,525115
2.29022,1233473
2.29835,756841
2.30647,334602
2.31460,235732
2.32272,192169
2.33083,169685
2.33897,159430
2.34708,160267
2.35520,144198
2.36333,125943
2.37145,118323
2.37958,120077
2.38770,110123
2.39582,106372
2.40395,106890
2.41207,100451
2.42020,99244
2.42832,96303
2.43643,100477
2.44457,98922
2.45268,99847
2.46080,96161
2.46893,87822
2.47705,86232
2.48518,80863
2.49330,84254
2.50142,95658
2.50955,99841
2.51767,94818
2.52580,89442
2.53392,90728
2.54203,82895
2.55017,86537
2.55828,94408
2.56642,109954
2.57453,137847
2.58265,124172
2.59078,107898
2.59890,103817
2.60702,106205
2.61515,287188
2.62327,856496
2.63140,816051
2.63952,464124
2.64763,292902
2.65577,220147
2.66388,183678
2.67202,163907
2.68013,141456
2.68825,132157
2.69638,131046
2.70450,122560
2.71262,121649
2.72075,112356
2.72887,104433
2.73700,103126
2.74512,102123
2.75323,92438
2.76137,95659
2.76948,91770
2.77762,91177
2.78573,103071
2.79385,177092
2.80198,254860
2.81010,192567
2.81823,147301
2.82635,145286
2.83447,164518
2.84260,140292
2.85072,131203
2.85883,125000
2.86697,112410
2.87508,104295
2.88322,105014
2.89133,94346
2.89945,103043
2.90758,97793
2.91570,87943
2.92383,88789
2.93195,90763
2.94007,89550
2.94820,90237
2.95632,85026
2.96445,84335
2.97257,99027
2.98068,112686
2.98882,104744
2.99693,97127
3.00505,95908
3.01318,95807
3.02130,94222
3.02943,86598
3.03755,89427
3.04567,88075
3.05380,87153
3.06192,82888
3.07005,92439
3.07817,92923
3.08628,111936
3.09442,351545
3.10253,1327161
3.11065,2443624
3.11878,3396930
3.12690,3717520
3.13503,2632832
3.14315,1701942
3.15127,1240874
3.15940,980819
3.16752,810303
3.17565,686332
3.18377,650806
3.19188,662089
3.20002,1000050
3.20813,1683324
3.21627,1675417
3.22438,1206408
3.23250,917649
3.24063,771539
3.24875,647217
3.25687,565098
3.26500,490188
3.27312,439895
3.28125,393853
3.28937,357415
3.29748,414149
3.30562,907170
3.31373,2505171
3.32187,4521832
3.32998,5017885
3.33810,3782574
3.34623,2421810
3.35435,1683660
3.36248,1312969
3.37060,1079619
3.37872,920423
3.38685,830312
3.39497,746978
3.40308,670619
3.41122,616225
3.41933,577347
3.42747,535633
3.43558,482659
3.44370,457917
3.45183,426209
3.45995,389297
3.46808,368430
3.47620,349326
3.48432,334427
3.49245,345343
3.50057,334556
3.50868,331048
3.51682,321583
3.52493,320471
3.53307,321106
3.54118,334679
3.54930,353982
3.55743,380044
3.56555,370875
3.57368,373702
3.58180,410203
3.58992,516643
3.59805,522785
3.60617,436996
3.61430,388455
3.62242,348370
3.63053,326365
3.63867,335654
3.64678,327573
3.65490,324260
3.66303,312842
3.67115,347368
3.67928,927305
3.68740,3208278
3.69552,6084167
3.70365,5989431
3.71177,3964177
3.71990,2644236
3.72802,2038344
3.73613,1719269
3.74427,1481309
3.75238,1315594
3.76052,1179578
3.76863,1088622
3.77675,1011087
3.78488,921547
3.79300,871751
3.80112,811364
3.80925,787927
3.81737,914465
3.82550,1405756
3.83362,1847318
3.84173,1716389
3.84987,1301791
3.85798,1057722
3.86612,893615
3.87423,812293
3.88235,747011
3.89048,703138
3.89860,664186
3.90672,627836
3.91485,620977
3.92297,617727
3.93110,670487
3.93922,821865
3.94733,943082
3.95547,881032
3.96358,1081024
3.97172,2165166
3.97983,3767644
3.98795,4153097
3.99608,3099784
4.00420,2266058
4.01233,3906257
4.02045,1.068372E+07
4.02857,1.965256E+07
4.03670,2.180195E+07
4.04482,1.567778E+07
4.05293,8791781
4.06107,5245573
4.06918,3646507
4.07732,2794400
4.08543,2260700
4.09355,1893073
4.10168,1624764
4.10980,1427477
4.11793,1269016
4.12605,1114651
4.13417,1004673
4.14230,895623
4.15042,901305
4.15853,1044747
4.16667,1218565
4.17478,1183137
4.18292,1002282
4.19103,826907
4.19915,750008
4.20728,690044
4.21540,710061
4.22353,1297193
4.23165,4104817
4.23977,1.027545E+07
4.24790,1.638025E+07
4.25602,1.834371E+07
4.26415,1.482834E+07
4.27227,9121781
4.28038,5898076
4.28852,4378119
4.29663,3399215
4.30475,2746517
4.31288,2306725
4.32100,1992224
4.32913,1766036
4.33725,1556221
4.34537,1409305
4.35350,1278254
4.36162,1176712
4.36975,1141224
4.37787,1074767
4.38598,1005396
4.39412,898305
4.40223,827577
4.41037,766930
4.41848,728060
4.42660,710563
4.43473,681038
4.44285,679020
4.45097,664472
4.45910,665954
4.46722,646622
4.47535,648140
4.48347,624103
4.49158,605951
4.49972,598582
4.50783,569677
4.51597,545918
4.52408,531796
4.53220,515266
4.54033,502737
4.54845,481505
4.55657,478772
4.56470,464748
4.57282,465110
4.58095,458186
4.58907,434048
4.59718,433055
4.60532,425920
4.61343,403060
4.62157,415013
4.62968,412761
4.63780,460479
4.64593,617860
4.65405,869689
4.66218,994920
4.67030,903596
4.67842,697144
4.68655,560909
4.69467,495752
4.70278,466290
4.71092,431735
4.71903,412097
4.72717,387407
4.73528,375030
4.74340,361326
4.75153,351003
4.75965,344785
4.76778,339033
4.77590,333840
4.78402,326264
4.79215,313929
4.80027,321159
4.80840,341622
4.81652,407610
4.82463,468454
4.83277,462437
4.84088,428955
4.84900,398657
4.85713,405750
4.86525,421034
4.87338,416360
4.88150,395903
4.88962,378224
4.89775,351578
4.90587,338319
4.91400,322569
4.92212,308246
4.93023,302750
4.93837,301628
4.94648,366209
4.95460,561622
4.96273,1040237
4.97085,1775406
4.97898,2377183
4.98710,2431899
4.99522,1987573
5.00335,1451627
5.01147,1072676
5.01960,857505
5.02772,727544
5.03583,669611
5.04397,773730
5.05208,1044272
5.06022,1307540
5.06833,1306466
5.07645,1124995
5.08458,929880
5.09270,803244
5.10082,736182
5.10895,685140
5.11707,657050
5.12520,629134
5.13332,586324
5.14143,558128
5.14957,514269
5.15768,497269
5.16582,481127
5.17393,509791
5.18205,547704
5.19018,568318
5.19830,545084
5.20642,513651
5.21455,517393
5.22267,542736
5.23080,558967
5.23892,545560
5.24703,527110
5.25517,482097
5.26328,454053
5.27142,421663
5.27953,384749
5.28765,362411
5.29578,348290
5.30390,337604
5.31203,329777
5.32015,337318
5.32827,327745
5.33640,311121
5.34452,331238
5.35263,339893
5.36077,353291
5.36888,344874
5.37702,330752
5.38513,312928
5.39325,306687
5.40138,301881
5.40950,323937
5.41763,320889
5.42575,308362
5.43387,310465
5.44200,301644
5.45012,297687
5.45825,298080
5.46637,307845
5.47448,309930
5.48262,301149
5.49073,285422
5.49885,277668
5.50698,267650
5.51510,262617
5.52323,257715
5.53135,251973
5.53947,264060
5.54760,257666
5.55572,257442
5.56385,254526
5.57197,266378
5.58008,289146
5.58822,316482
5.59633,345025
5.60445,312791
5.61258,293120
5.62070,267994
5.62883,247850
5.63695,246307
5.64507,246282
5.65320,259239
5.66132,253170
5.66945,247849
5.67757,251508
5.68568,253840
5.69382,269645
5.70193,301706
5.71007,328778
5.71818,331142
5.72630,308378
5.73443,279724
5.74255,260890
5.75067,250757
5.75880,228567
5.76692,238057
5.77505,221174
5.78317,221775
5.79128,220185
5.79942,219782
5.80753,212533
5.81567,212146
5.82378,220713
5.83190,215594
5.84003,211176
5.84815,211927
5.85628,208446
5.86440,214912
5.87252,210630
5.88065,211323
5.88877,202718
5.89688,203967
5.90502,190453
5.91313,182562
5.92127,156573
5.92938,150150
5.93750,156822
5.94563,153203
5.95375,162306
5.96188,163647
5.97000,190855
5.97812,211059
5.98625,237283
5.99437,282097
6.00248,327929
6.01062,339693
6.01873,320496
6.02687,272426
6.03498,230882
6.04310,201047
6.05123,190849
6.05935,179632
6.06748,166968
6.07560,161656
6.08372,164120
6.09185,146376
6.09997,153040
6.10810,149234
6.11622,147151
6.12433,144390
6.13247,154178
6.14058,187749
6.14870,268147
6.15683,409077
6.16495,544541
6.17308,547332
6.18120,458826
6.18932,362428
6.19745,292799
6.20557,254117
6.21370,233969
6.22182,213017
6.22993,211312
6.23807,205088
6.24618,200755
6.25430,187394
6.26243,193550
6.27055,198590
6.27868,212808
6.28680,205411
6.29492,206534
6.30305,197467
6.31117,202297
6.31930,197167
6.32742,189872
6.33553,193341
6.34367,202438
6.35178,206861
6.35992,209881
6.36803,204357
6.37615,206530
6.38428,195540
6.39240,201096
6.40052,197393
6.40865,197672
6.41677,194604
6.42490,193915
6.43302,192270
6.44113,193235
6.44927,195325
6.45738,190777
6.46552,188190
6.47363,196303
6.48175,194609
6.48988,197597
6.49800,191786
6.50613,196192
6.51425,204048
6.52237,197610
6.53050,204656
6.53862,198389
6.54673,202142
6.55487,198122
6.56298,196395
6.57112,200605
6.57923,203760
6.58735,229828
6.59548,248380
6.60360,271185
6.61173,255787
6.61985,238921
6.62797,230368
6.63610,219202
6.64422,220840
6.65235,214887
6.66047,210805
6.66858,229448
6.67672,264119
6.68483,307287
6.69295,333199
6.70108,319864
6.70920,284191
6.71733,259582
6.72545,238990
6.73357,236240
6.74170,198024
6.74982,183218
6.75795,173020
6.76607,167183
6.77418,163258
6.78232,161832
6.79043,159578
6.79855,159115
6.80668,158328
6.81480,153403
6.82293,151444
6.83105,141898
6.83917,137237
6.84730,139551
6.85542,137956
6.86355,144785
6.87167,172574
6.87978,202903
6.88792,228411
6.89603,208434
6.90417,178598
6.91228,138603
6.92040,118025
6.92853,103387
6.93665,100774
6.94477,93804
6.95290,91278
6.96102,87329
6.96915,94361
6.97727,90370
6.98538,107128
6.99352,130417
7.00163,141441
7.00977,131094
7.01788,120317
7.02600,106116
7.03413,97869
7.04225,92602
7.05037,94027
7.05850,92128
7.06662,84901
7.07475,91391
7.08287,90386
7.09098,85182
7.09912,86040
7.10723,82645
7.11537,82111
7.12348,82477
7.13160,80976
7.13973,81661
7.14785,82783
7.15598,86262
7.16410,113902
7.17222,138859
7.18035,168831
7.18847,185433
7.19658,163642
7.20472,140153
7.21283,142908
7.22097,248586
7.22908,563061
7.23720,1123176
7.24533,1655906
7.25345,1755960
7.26158,1394888
7.26970,896820
7.27782,568715
7.28595,367837
7.29407,242625
7.30220,162526
7.31032,129680
7.31843,107247
7.32657,107329
7.33468,102341
7.34280,115109
7.35093,120220
7.35905,120084
7.36718,111148
7.37530,105117
7.38342,101710
7.39155,94670
7.39967,89384
7.40780,95379
7.41592,93073
7.42403,92385
7.43217,91367
7.44028,91932
7.44840,84442
7.45653,90241
7.46465,90633
7.47278,90549
7.48090,83702
7.48902,83934
7.49715,80286
7.50527,79662
7.51340,78419
7.52152,79875
7.52963,86002
7.53777,90732
7.54588,121897
7.55402,178915
7.56213,257638
7.57025,371277
7.57838,444583
7.58650,472708
7.59462,415394
7.60275,333248
7.61087,252857
7.61900,190189
7.62712,137288
7.63523,116604
7.64337,98586
7.65148,90983
7.65962,84089
7.66773,82408
7.67585,78651
7.68398,80326
7.69210,72896
7.70023,75723
7.70835,75424
7.71647,75051
7.72460,73582
7.73272,78283
7.74083,74563
7.74897,75924
7.75708,78110
7.76522,76059
7.77333,77404
7.78145,77726
7.78958,85265
7.79770,84722
7.80583,85679
7.81395,88902
7.82207,91860
7.83020,95211
7.83832,95976
7.84643,84977
7.85457,83001
7.86268,78275
7.87082,82036
7.87893,80622
7.88705,89605
7.89518,95451
7.90330,105958
7.91143,103549
7.91955,99921
7.92767,92016
7.93580,94542
7.94392,100440
7.95205,122091
7.96017,138297
7.96828,146531
7.97642,137675
7.98453,119491
7.99265,104074
8.00078,93486
8.00890,79916
8.01703,74425
8.02515,71135
8.03327,69323
8.04140,72235
8.04952,70790
8.05765,70737
8.06577,69453
8.07388,66002
8.08202,72770
8.09013,65595
8.09825,65086
8.10638,66858
8.11450,65470
8.12263,61694
8.13075,64269
8.13887,66247
8.14700,73119
8.15512,82682
8.16325,95316
8.17137,106178
8.17948,109087
8.18762,92263
8.19573,80365
8.20387,76908
8.21198,68144
8.22010,67295
8.22823,65151
8.23635,65004
8.24447,64671
8.25260,66501
8.26072,65011
8.26885,63610
8.27697,63586
8.28508,63934
8.29322,60906
8.30133,61696
8.30947,61327
8.31758,61833
8.32570,61656
8.33383,69862
8.34195,68819
8.35008,66868
8.35820,65832
8.36632,65098
8.37445,58963
8.38257,56977
8.39068,58052
8.39882,60183
8.40693,58781
8.41507,58935
8.42318,55457
8.43130,55138
8.43943,55901
8.44755,55600
8.45568,54671
8.46380,54033
8.47192,56423
8.48005,51457
8.48817,52821
8.49628,54037
8.50442,49130
8.51253,52586
8.52067,57362
8.52878,58925
8.53690,81785
8.54503,128538
8.55315,213926
8.56128,272044
8.56940,286616
8.57752,234344
8.58565,166737
8.59377,115001
8.60190,85699
8.61002,79785
8.61813,77607
8.62627,75341
8.63438,79908
8.64250,75688
8.65063,72167
8.65875,67000
8.66688,67020
8.67500,66825
8.68312,63898
8.69125,63443
8.69937,60312
8.70750,64980
8.71562,62178
8.72373,64273
8.73187,60975
8.73998,62107
8.74812,70326
8.75623,84317
8.76435,165144
8.77248,351003
8.78060,706887
8.78872,1127951
8.79685,1439738
8.80497,1368881
8.81310,1056066
8.82122,675452
8.82933,408380
8.83747,269263
8.84558,208138
8.85372,203325
8.86183,209284
8.86995,206907
8.87808,190884
8.88620,177974
8.89432,164151
8.90245,160176
8.91057,143969
8.91870,140924
8.92682,137999
8.93493,136834
8.94307,141832
8.95118,155228
8.95932,168195
8.96743,161534
8.97555,154161
8.98368,143341
8.99180,135343
8.99993,134386
9.00805,134223
9.01617,121633
9.02430,122778
9.03242,114146
9.04053,110045
9.04867,100920
9.05678,101552
9.06492,104479
9.07303,94621
9.08115,100374
9.08928,97661
9.09740,94888
9.10553,103010
9.11365,112729
9.12177,130791
9.12990,151376
9.13802,163164
9.14615,155164
9.15427,144000
9.16238,124675
9.17052,112813
9.17863,105476
9.18675,101386
9.19488,93077
9.20300,92937
9.21113,86216
9.21925,82640
9.22737,88249
9.23550,86755
9.24362,85570
9.25175,86297
9.25987,90753
9.26798,82698
9.27612,84377
9.28423,81487
9.29235,82605
9.30048,81171
9.30860,78149
9.31673,84105
9.32485,83488
9.33297,83134
9.34110,83310
9.34922,80021
9.35735,80355
9.36547,77964
9.37358,80396
9.38172,79042
9.38983,78459
9.39797,79123
9.40608,75387
9.41420,76100
9.42233,85552
9.43045,98296
9.43857,108967
9.44670,122255
9.45482,137870
9.46295,146411
9.47107,130753
9.47918,119023
9.48732,102326
9.49543,84275
9.50357,83628
9.51168,75864
9.51980,73550
9.52793,87780
9.53605,89195
9.54417,92028
9.55230,94761
9.56042,84150
9.56855,76519
9.57667,72990
9.58478,69529
9.59292,70533
9.60103,72827
9.60917,74871
9.61728,74975
9.62540,67808
9.63353,60541
9.64165,57383
9.64978,51978
9.65790,50721
9.66602,48016
9.67415,52430
9.68227,52037
9.69038,49495
9.69852,55072
9.70663,52079
9.71477,49428
9.72288,53185
9.73100,47364
9.73913,48631
9.74725,43818
9.75538,46918
9.76350,46260
9.77162,47250
9.77975,44732
9.78787,45030
9.79600,42407
9.80412,47679
9.81223,43794
9.82037,43641
9.82848,41349
9.83660,42171
9.84473,44160
9.85285,46601
9.86098,45905
9.86910,47798
9.87722,46526
9.88535,50017
9.89347,48191
9.90160,49181
9.90972,47908
9.91783,42474
9.92597,47383
9.93408,49395
9.94220,55474
9.95033,73024
9.95845,92964
9.96658,118238
9.97470,127675
9.98282,142293
9.99095,122811
9.99907,103799
10.00720,90956
10.01532,74439
10.02343,71779
10.03157,66679
10.03968,59835
10.04782,62150
10.05593,57708
10.06405,54713
10.07218,52346
10.08030,51710
10.08842,55392
10.09655,55349
10.10467,56365
10.11280,54703
10.12092,55631
10.12903,53088
10.13717,55034
10.14528,54263
10.15342,54414
10.16153,54336
10.16965,55173
10.17778,52937
10.18590,50478
10.19403,49218
10.20215,47281
10.21027,47308
10.21840,50551
10.22652,49587
10.23463,52769
10.24277,50635
10.25088,60339
10.25902,57372
10.26713,76420
10.27525,127456
10.28338,290695
10.29150,655693
10.29963,1276797
10.30775,2074536
10.31587,2984332
10.32400,4191295
10.33212,6002320
10.34023,8259924
10.34837,9910264
10.35648,9473574
10.36462,7217553
10.37273,4467735
10.38085,2568606
10.38898,1645205
10.39710,1222690
10.40523,946483
10.41335,708899
10.42147,517047
10.42960,409802
10.43772,348021
10.44585,298218
10.45397,275540
10.46208,264201
10.47022,252065
10.47833,251360
10.48645,226179
10.49458,207465
10.50270,200388
10.51083,188490
10.51895,172795
10.52707,166813
10.53520,159791
10.54332,158246
10.55145,142355
10.55957,143143
10.56768,145830
10.57582,136225
10.58393,139464
10.59205,136740
10.60018,136988
10.60830,127372
10.61643,119171
10.62455,112731
10.63267,105195
10.64080,102887
10.64892,96321
10.65705,104462
10.66517,97336
10.67328,95215
10.68142,92387
10.68953,89693
10.69767,92059
10.70578,86787
10.71390,88023
10.72203,90790
10.73015,87491
10.73827,89738
10.74640,92735
10.75452,88635
10.76265,86458
10.77077,85973
10.77888,81645
10.78702,81866
10.79513,76648
10.80327,80094
10.81138,74540
10.81950,75393
10.82763,79655
10.83575,74953
10.84388,80816
10.85200,73608
10.86012,66941
10.86825,62484
10.87637,66836
10.88448,64563
10.89262,65315
10.90073,65627
10.90887,60858
10.91698,68242
10.92510,63787
10.93323,60434
10.94135,65830
10.94948,61916
10.95760,59412
10.96572,56777
10.97385,59642
10.98197,58356
10.99008,62974
10.99822,57059
11.00633,61650
11.01447,56641
11.02258,60031
11.03070,58950
11.03883,55623
11.04695,55426
11.05508,56363
11.06320,52888
11.07132,54676
11.07945,59978
11.08757,56207
11.09570,56988
11.10382,61703
11.11193,60628
11.12007,59476
11.12818,55031
11.13630,54071
11.14443,49758
11.15255,43594
11.16068,44834
11.16880,44003
11.17692,49628
11.18505,49478
11.19317,47335
11.20130,49134
11.20942,53096
11.21753,51228
11.22567,47182
11.23378,45902
11.24192,45524
11.25003,47353
11.25815,40887
11.26628,43686
11.27440,43027
11.28252,44541
11.29065,43241
11.29877,43328
11.30690,45347
11.31502,57159
11.32313,93061
11.33127,153898
11.33938,276568
11.34752,422717
11.35563,560061
11.36375,644816
11.37188,593070
11.38000,478861
11.38812,335147
11.39625,235903
11.40437,166679
11.41250,138262
11.42062,126063
11.42873,117946
11.43687,112866
11.44498,107065
11.45312,94606
11.46123,98520
11.46935,82425
11.47748,82729
11.48560,86216
11.49373,98306
11.50185,119355
11.50997,143822
11.51810,152998
11.52622,145086
11.53433,136635
11.54247,114655
11.55058,107124
11.55872,93659
11.56683,87469
11.57495,90337
11.58308,83443
11.59120,83336
11.59933,85052
11.60745,95404
11.61557,112074
11.62370,137494
11.63182,151299
11.63993,144414
11.64807,129199
11.65618,107989
11.66432,86954
11.67243,75126
11.68055,63341
11.68868,62297
11.69680,70544
11.70493,59627
11.71305,62649
11.72117,59360
11.72930,60392
11.73742,60208
11.74555,60549
11.75367,54624
11.76178,54826
11.76992,50803
11.77803,52702
11.78615,51941
11.79428,52134
11.80240,51527
11.81053,49676
11.81865,44786
11.82677,49693
11.83490,48882
11.84302,51307
11.85115,52987
11.85927,54455
11.86738,59173
11.87552,59083
11.88363,59721
11.89177,52051
11.89988,48641
11.90800,46748
11.91613,47509
11.92425,45192
11.93237,51188
11.94050,53766
11.94862,53616
11.95675,54764
11.96487,48104
11.97298,45044
11.98112,43420
11.98923,49538
11.99737,59757
12.00548,81579
12.01360,110280
12.02173,124194
12.02985,135796
12.03798,139002
12.04610,99377
12.05422,79774
12.06235,71719
12.07047,67544
12.07858,59533
12.08672,61460
12.09483,56262
12.10297,57028
12.11108,55377
12.11920,52790
12.12733,56430
12.13545,58600
12.14358,59886
12.15170,67115
12.15982,63446
12.16795,61690
12.17607,56276
12.18418,51053
12.19232,49507
12.20043,46784
12.20857,46372
12.21668,44427
12.22480,48895
12.23293,45733
12.24105,45041
12.24918,46210
12.25730,45013
12.26542,44529
12.27355,46760
12.28167,43493
12.28980,44927
12.29792,45411
12.30603,44091
12.31417,44801
12.32228,44614
12.33040,43170
12.33853,38472
12.34665,41130
12.35478,40420
12.36290,42396
12.37102,38789
12.37915,40607
12.38727,40386
12.39540,42792
12.40352,42228
12.41163,49950
12.41977,61621
12.42788,77333
12.43600,85089
12.44413,86225
12.45225,82658
12.46038,73617
12.46850,69233
12.47662,62939
12.48475,55999
12.49287,55690
12.50100,48936
12.50912,47287
12.51723,45343
12.52537,46258
12.53348,50897
12.54162,55421
12.54973,70483
12.55785,90887
12.56598,105168
12.57410,133583
12.58222,142886
12.59035,129170
12.59847,110230
12.60660,84638
12.61472,68524
12.62283,63651
12.63097,58703
12.63908,53862
12.64722,53188
12.65533,53566
12.66345,50373
12.67158,46433
12.67970,45790
12.68783,47238
12.69595,43177
12.70407,42347
12.71220,43478
12.72032,44789
12.72843,45870
12.73657,46768
12.74468,54911
12.75282,56298
12.76093,54183
12.76905,48439
12.77718,48407
12.78530,45059
12.79343,41112
12.80155,41231
12.80967,37016
12.81780,39267
12.82592,38152
12.83403,36601
12.84217,34400
12.85028,32284
12.85842,36384
12.86653,36816
12.87465,41251
12.88278,34013
12.89090,37605
12.89903,32606
12.90715,33778
12.91527,31320
12.92340,35375
12.93152,34707
12.93965,43027
12.94777,32917
12.95588,33673
12.96402,39817
12.97213,44733
12.98025,50463
12.98838,65020
12.99650,72387
13.00463,68554
13.01275,63284
13.02087,49945
13.02900,46474
13.03712,43315
13.04525,41102
13.05337,40848
13.06148,38806
13.06962,37088
13.07773,38266
13.08587,39667
13.09398,42808
13.10210,38036
13.11023,38265
13.11835,35780
13.12647,36421
13.13460,36922
13.14272,39021
13.15085,36345
13.15897,36499
13.16708,35137
13.17522,39616
13.18333,41849
13.19147,38358
13.19958,43121
13.20770,42877
13.21583,44759
13.22395,44913
13.23207,43883
13.24020,44758
13.24832,45323
13.25645,39207
13.26457,37259
13.27268,39589
13.28082,34127
13.28893,35920
13.29707,39161
13.30518,33974
13.31330,34329
13.32143,31348
13.32955,36344
13.33768,32264
13.34580,33663
13.35392,33369
13.36205,35292
13.37017,35643
13.37828,37270
13.38642,34087
13.39453,32548
13.40267,30811
13.41078,32266
13.41890,31439
13.42703,33580
13.43515,31682
13.44328,31929
13.45140,30551
13.45952,34406
13.46765,33079
13.47577,31639
13.48388,36552
13.49202,32021
13.50013,31981
13.50827,29883
13.51638,35460
13.52450,33265
13.53263,37193
13.54075,36619
13.54888,35370
13.55700,32725
13.56512,34104
13.57325,34800
13.58137,37770
13.58950,34767
13.59762,44053
13.60573,54696
13.61387,77687
13.62198,106836
13.63010,145512
13.63823,157866
13.64635,148091
13.65448,119158
13.66260,89177
13.67072,64987
13.67885,50536
13.68697,51215
13.69510,42518
13.70322,39162
13.71133,40899
13.71947,40030
13.72758,43703
13.73572,43292
13.74383,58245
13.75195,107003
13.76008,222261
13.76820,488408
13.77632,879932
13.78445,1301168
13.79257,1571621
13.80070,1455336
13.80882,1175686
13.81693,864249
13.82507,639711
13.83318,523306
13.84132,500516
13.84943,489809
13.85755,462306
13.86568,408736
13.87380,344328
13.88192,276212
13.89005,227665
13.89817,198045
13.90630,180394
13.91442,159923
13.92253,142509
13.93067,133841
13.93878,125171
13.94692,122861
13.95503,114574
13.96315,114526
13.97128,112074
13.97940,107653
13.98753,116692
13.99565,120330
14.00377,115476
14.01190,107088
14.02002,102206
14.02813,102846
14.03627,92245
14.04438,94643
14.05252,86115
14.06063,86373
14.06875,84127
14.07688,81618
14.08500,83416
14.09313,79284
14.10125,76151
14.10937,71547
14.11750,74703
14.12562,72870
14.13375,75212
14.14187,69384
14.14998,80161
14.15812,75895
14.16623,80397
14.17435,96134
14.18248,122238
14.19060,165106
14.19873,211345
14.20685,253391
14.21497,259100
14.22310,232788
14.23122,201676
14.23935,167470
14.24747,150481
14.25558,144658
14.26372,137832
14.27183,129545
14.27995,118642
14.28808,115164
14.29620,101498
14.30433,92150
14.31245,83736
14.32057,81274
14.32870,77958
14.33682,78570
14.34495,71512
14.35307,67484
14.36118,58620
14.36932,57866
14.37743,51474
14.38557,52511
14.39368,58211
14.40180,86930
14.40993,140446
14.41805,249431
14.42617,381477
14.43430,480483
14.44242,466661
14.45055,382265
14.45867,277270
14.46678,184597
14.47492,132323
14.48303,106135
14.49117,95571
14.49928,86439
14.50740,84894
14.51553,82400
14.52365,72816
14.53178,69920
14.53990,72026
14.54802,66403
14.55615,61096
14.56427,61490
14.57238,53974
14.58052,56058
14.58863,53916
14.59677,52732
14.60488,49056
14.61300,48238
14.62113,46397
14.62925,48446
14.63738,46234
14.64550,45283
14.65362,47672
14.66175,47153
14.66987,45189
14.67798,44085
14.68612,44641
14.69423,41834
14.70237,46098
14.71048,43966
14.71860,43306
14.72673,44987
14.73485,42134
14.74298,46990
14.75110,44934
14.75922,50225
14.76735,45042
14.77547,47554
14.78360,55405
14.79172,56004
14.79983,94831
14.80797,220743
14.81608,543585
14.82420,1155739
14.83233,2019325
14.84045,2744106
14.84858,2997617
14.85670,2560259
14.86482,1892350
14.87295,1203769
14.88107,752356
14.88920,495894
14.89732,360927
14.90543,292422
14.91357,239689
14.92168,206047
14.92980,178524
14.93793,168389
14.94605,161939
14.95418,143766
14.96230,133275
14.97042,130821
14.97855,120039
14.98667,114012
14.99480,107651
15.00292,107041
15.01103,104430
15.01917,97666
15.02728,95702
15.03542,93164
15.04353,87534
15.05165,84195
15.05978,82826
15.06790,75960
15.07602,75787
15.08415,77041
15.09227,69951
15.10040,71423
15.10852,64135
15.11663,71337
15.12477,70158
15.13288,68508
15.14102,74788
15.14913,83005
15.15725,80209
15.16538,80068
15.17350,74972
15.18163,71710
15.18975,63952
15.19787,53991
15.20600,51571
15.21412,51168
15.22223,48553
15.23037,45522
15.23848,43364
15.24662,47942
15.25473,43901
15.26285,45029
15.27098,43393
15.27910,41857
15.28723,42436
15.29535,43591
15.30347,39459
15.31160,39326
15.31972,41522
15.32783,38847
15.33597,37436
15.34408,39336
15.35222,38987
15.36033,41962
15.36845,40961
15.37658,40089
15.38470,39014
15.39283,38551
15.40095,36932
15.40907,41326
15.41720,39828
15.42532,38731
15.43345,39888
15.44157,42295
15.44968,43973
15.45782,38281
15.46593,41177
15.47405,45040
15.48218,51743
15.49030,69809
15.49843,87416
15.50655,108724
15.51467,126020
15.52280,136676
15.53092,123235
15.53905,121235
15.54717,103243
15.55528,96598
15.56342,88168
15.57153,82403
15.57967,71666
15.58778,63018
15.59590,52365
15.60403,51318
15.61215,48992
15.62027,46713
15.62840,48404
15.63652,44167
15.64465,42613
15.65277,45454
15.66088,43014
15.66902,43959
15.67713,39128
15.68527,40935
15.69338,37852
15.70150,41623
15.70963,36460
15.71775,38270
15.72587,37549
15.73400,36605
15.74212,41780
15.75025,42838
15.75837,49080
15.76648,67435
15.77462,109283
15.78273,174830
15.79087,235365
15.79898,297017
15.80710,299446
15.81523,265130
15.82335,189849
15.83148,142196
15.83960,103914
15.84772,83583
15.85585,70578
15.86397,64507
15.87208,66185
15.88022,58815
15.88833,55882
15.89647,57913
15.90458,56414
15.91270,54581
15.92083,52202
15.92895,51089
15.93708,50608
15.94520,50432
15.95332,54299
15.96145,59342
15.96957,69556
15.97768,83857
15.98582,89993
15.99393,99019
16.00207,94409
16.01018,86439
16.01830,81061
16.02643,72889
16.03455,68850
16.04268,68242
16.05080,66026
16.05892,65654
16.06705,58873
16.07517,55844
16.08330,54899
16.09142,48728
16.09953,46545
16.10767,48375
16.11578,46013
16.12390,46963
16.13203,46717
16.14015,47380
16.14828,51965
16.15640,56173
16.16452,57909
16.17265,58768
16.18077,50883
16.18890,49419
16.19702,47952
16.20513,45847
16.21327,49911
16.22138,47204
16.22952,45951
16.23763,46564
16.24575,46411
16.25388,40782
16.26200,42273
16.27012,42052
16.27825,41150
16.28637,44492
16.29450,43550
16.30262,46084
16.31073,48137
16.31887,48789
16.32698,56831
16.33512,47125
16.34323,43294
16.35135,47103
16.35948,53792
16.36760,59413
16.37572,73794
16.38385,77540
16.39197,94915
16.40010,80625
16.40822,69641
16.41633,60877
16.42447,52684
16.43258,52433
16.44072,53914
16.44883,58250
16.45695,76687
16.46508,119415
16.47320,191000
16.48133,300167
16.48945,406811
16.49757,430967
16.50570,386885
16.51382,284482
16.52193,204600
16.53007,140618
16.53818,104742
16.54632,85217
16.55443,77724
16.56255,64552
16.57068,65794
16.57880,70255
16.58693,66737
16.59505,63655
16.60317,70526
16.61130,78344
16.61942,84489
16.62755,85227
16.63567,86275
16.64378,79701
16.65192,70658
16.66003,64065
16.66815,59714
16.67628,52717
16.68440,51796
16.69253,54583
16.70065,49035
16.70877,47965
16.71690,45642
16.72502,44486
16.73315,48820
16.74127,43771
16.74938,45125
16.75752,47225
16.76563,43308
16.77375,48145
16.78188,45290
16.79000,41906
16.79813,45766
16.80625,44448
16.81437,42085
16.82250,39664
16.83062,42853
16.83875,42402
16.84687,39506
16.85498,38048
16.86312,42340
16.87123,40561
16.87937,41752
16.88748,37229
16.89560,38142
16.90373,38674
16.91185,36307
16.91997,36906
16.92810,38558
16.93622,37849
16.94435,35675
16.95247,34268
16.96058,36086
16.96872,36469
16.97683,36046
16.98497,37434
16.99308,37448
17.00120,35669
17.00933,38798
17.01745,39128
17.02557,40747
17.03370,38795
17.04182,42202
17.04995,46378
17.05807,49546
17.06618,49763
17.07432,52421
17.08243,49139
17.09057,46326
17.09868,45400
17.10680,40050
17.11493,43780
17.12305,42588
17.13118,44462
17.13930,42240
17.14742,43898
17.15555,41081
17.16367,43136
17.17178,40529
17.17992,42179
17.18803,42691
17.19617,40467
17.20428,42264
17.21240,36894
17.22053,39079
17.22865,38465
17.23678,40140
17.24490,38136
17.25302,39813
17.26115,36890
17.26927,38261
17.27740,36103
17.28552,36749
17.29363,35071
17.30177,35505
17.30988,39978
17.31800,38023
17.32613,41454
17.33425,42065
17.34238,50034
17.35050,55426
17.35862,60085
17.36675,59884
17.37487,61916
17.38300,53941
17.39112,53757
17.39923,49566
17.40737,49613
17.41548,51340
17.42362,50705
17.43173,52105
17.43985,51521
17.44798,49165
17.45610,45389
17.46422,45512
17.47235,45184
17.48047,42586
17.48860,42755
17.49672,40599
17.50483,41960
17.51297,38626
17.52108,34784
17.52922,39726
17.53733,38997
17.54545,42452
17.55358,42561
17.56170,51300
17.56982,75729
17.57795,119072
17.58607,213774
17.59420,384205
17.60232,629217
17.61043,937461
17.61857,1100969
17.62668,1109577
17.63482,902328
17.64293,657620
17.65105,466924
17.65918,325446
17.66730,257610
17.67543,211314
17.68355,174386
17.69167,153428
17.69980,132466
17.70792,121368
17.71603,112949
17.72417,102973
17.73228,95701
17.74042,84603
17.74853,85342
17.75665,73868
17.76478,71440
17.77290,70460
17.78103,69362
17.78915,68638
17.79727,75002
17.80540,86997
17.81352,127054
17.82163,170725
17.82977,233898
17.83788,286664
17.84602,279516
17.85413,259589
17.86225,214343
17.87038,170695
17.87850,142310
17.88663,121777
17.89475,102721
17.90287,91630
17.91100,82019
17.91912,73445
17.92725,67901
17.93537,68524
17.94348,65486
17.95162,63904
17.95973,60131
17.96785,61075
17.97598,58300
17.98410,55351
17.99223,56761
18.00035,54937
18.00847,54368
18.01660,55550
18.02472,67646
18.03285,73126
18.04097,81954
18.04908,96832
18.05722,123138
18.06533,203503
18.07347,401041
18.08158,802157
18.08970,1389036
18.09783,1982417
18.10595,2316485
18.11407,2271760
18.12220,1840299
18.13032,1388236
18.13845,971858
18.14657,738510
18.15468,577716
18.16282,495026
18.17093,427940
18.17907,376792
18.18718,346877
18.19530,300485
18.20343,282436
18.21155,255285
18.21967,235073
18.22780,210826
18.23592,207202
18.24405,189600
18.25217,179508
18.26028,168666
18.26842,152754
18.27653,140796
18.28467,120397
18.29278,99634
18.30090,90134
18.30903,74523
18.31715,67379
18.32528,61050
18.33340,57449
18.34152,57546
18.34965,59327
18.35777,54817
18.36588,56403
18.37402,54991
18.38213,50847
18.39027,50612
18.39838,51088
18.40650,52639
18.41463,52520
18.42275,52438
18.43088,58222
18.43900,65730
18.44712,74952
18.45525,97668
18.46337,125078
18.47150,173948
18.47962,234592
18.48773,293813
18.49587,319547
18.50398,298717
18.51210,267373
18.52023,211736
18.52835,158974
18.53648,124629
18.54460,108134
18.55272,89209
18.56085,77438
18.56897,79258
18.57710,71227
18.58522,67258
18.59333,85084
18.60147,111215
18.60958,143862
18.61770,165978
18.62583,179801
18.63395,191975
18.64208,199272
18.65020,203958
18.65832,202767
18.66645,205174
18.67457,192577
18.68270,199544
18.69082,196483
18.69893,197607
18.70707,194353
18.71518,198246
18.72332,194346
18.73143,188138
18.73955,191883
18.74768,185596
18.75580,189489
18.76392,188792
18.77205,198736
18.78017,189188
18.78830,188162
18.79642,185445
18.80453,182628
18.81267,183589
18.82078,180521
18.82892,184379
18.83703,178331
18.84515,182257
18.85328,178869
18.86140,178544
18.86952,179952
18.87765,174101
18.88577,167999
18.89390,168685
18.90202,166942
18.91013,172252
18.91827,168372
18.92638,171039
18.93452,174955
18.94263,168476
18.95075,172396
18.95888,168563
18.96700,168120
18.97513,173675
18.98325,174416
18.99137,163099
18.99950,167295
19.00762,159918
19.01573,154840
19.02387,155585
19.03198,151518
19.04012,149902
19.04823,150266
19.05635,153142
19.06448,153189
19.07260,160792
19.08073,165804
19.08885,198717
19.09697,247250
19.10510,284552
19.11322,318564
19.12135,318815
19.12947,293854
19.13758,262695
19.14572,221028
19.15383,188425
19.16195,176991
19.17008,161034
19.17820,154918
19.18633,147627
19.19445,144231
19.20257,137923
19.21070,143616
19.21882,137574
19.22695,137853
19.23507,136753
19.24318,133205
19.25132,135521
19.25943,127935
19.26755,125415
19.27568,129917
19.28380,126636
19.29193,128372
19.30005,126937
19.30817,129591
19.31630,136409
19.32442,130159
19.33255,125368
19.34067,120849
19.34878,129365
19.35692,139006
19.36503,160533
19.37317,183022
19.38128,203724
19.38940,205824
19.39753,193969
19.40565,182448
19.41377,156820
19.42190,141622
19.43002,125914
19.43815,124993
19.44627,117364
19.45438,117824
19.46252,117571
19.47063,120279
19.47877,142548
19.48688,173591
19.49500,204824
19.50313,229609
19.51125,241027
19.51938,222396
19.52750,194643
19.53562,158166
19.54375,139004
19.55187,125556
19.55998,123426
19.56812,114923
19.57623,110837
19.58437,100149
19.59248,108416
19.60060,102182
19.60873,101129
19.61685,95844
19.62498,94279
19.63310,97154
19.64122,104698
19.64935,118047
19.65747,137583
19.66558,170830
19.67372,199911
19.68183,226171
19.68997,235216
19.69808,233733
19.70620,226250
19.71433,200366
19.72245,186754
19.73058,167927
19.73870,148811
19.74682,137028
19.75495,132067
19.76307,124522
19.77120,116705
19.77932,112348
19.78743,117949
19.79557,128914
19.80368,128038
19.81180,134587
19.81993,132222
19.82805,121428
19.83618,115442
19.84430,121676
19.85242,133141
19.86055,226464
19.86867,532641
19.87680,1235676
19.88492,2537111
19.89303,4462435
19.90117,6623982
19.90928,8131154
19.91742,8166794
19.92553,7045014
19.93365,5255625
19.94178,3587983
19.94990,2381542
19.95802,1668514
19.96615,1319072
19.97427,1111342
19.98240,958081
19.99052,877171
19.99863,780689
20.00677,725483
20.01488,684829
20.02302,621837
20.03113,590371
20.03925,543764
20.04738,473911
20.05550,408868
20.06362,335162
20.07175,278687
20.07987,238265
20.08800,210018
20.09612,194408
20.10423,183222
20.11237,168631
20.12048,164880
20.12862,150662
20.13673,141204
20.14485,138908
20.15298,138216
20.16110,141752
20.16923,138945
20.17735,148736
20.18547,163142
20.19360,169587
20.20172,180424
20.20983,174268
20.21797,174655
20.22608,171655
20.23422,159146
20.24233,152145
20.25045,149256
20.25858,157560
20.26670,176118
20.27483,207108
20.28295,220110
20.29107,227168
20.29920,222421
20.30732,212413
20.31543,186818
20.32357,159680
20.33168,140448
20.33982,125559
20.34793,118042
20.35605,106018
20.36418,95401
20.37230,88606
20.38043,79106
20.38855,75874
20.39667,78022
20.40480,76262
20.41292,78234
20.42105,79846
20.42917,77226
20.43728,84329
20.44542,85143
20.45353,83112
20.46165,85667
20.46978,86000
20.47790,77030
20.48603,76396
20.49415,77363
20.50227,72589
20.51040,69692
20.51852,71755
20.52665,73739
20.53477,69298
20.54288,72646
20.55102,65274
20.55913,67579
20.56727,67344
20.57538,71176
20.58350,65217
20.59163,68760
20.59975,65638
20.60787,64380
20.61600,63613
20.62412,62996
20.63225,64627
20.64037,65857
20.64848,72641
20.65662,70865
20.66473,72716
20.67287,70479
20.68098,71060
20.68910,68272
20.69723,66193
20.70535,65218
20.71347,59340
20.72160,64627
20.72972,61760
20.73785,59067
20.74597,59225
20.75408,63864
20.76222,65230
20.77033,69119
20.77847,76401
20.78658,84825
20.79470,111476
20.80283,164329
20.81095,237970
20.81908,312383
20.82720,362447
20.83532,363366
20.84345,300087
20.85157,226360
20.85968,164845
20.86782,121468
20.87593,104867
20.88407,86806
20.89218,78817
20.90030,77904
20.90843,78103
20.91655,72158
20.92468,73301
20.93280,74958
20.94092,73717
20.94905,72865
20.95717,72846
20.96530,72108
20.97342,69177
20.98153,66233
20.98967,67490
20.99778,65616
21.00590,64353
21.01403,64152
21.02215,61656
21.03028,64383
21.03840,64999
21.04652,64515
21.05465,66169
21.06277,64299
21.07090,66359
21.07902,64808
21.08713,63152
21.09527,60854
21.10338,60363
21.11150,56123
21.11963,53260
21.12775,61771
21.13588,63769
21.14400,72811
21.15212,79491
21.16025,89720
21.16837,97304
21.17650,100026
21.18462,100878
21.19273,90755
21.20087,77189
21.20898,71211
21.21712,70926
21.22523,66519
21.23335,65352
21.24148,69154
21.24960,60919
21.25772,57089
21.26585,60807
21.27397,61956
21.28210,60435
21.29022,57445
21.29833,54363
21.30647,54747
21.31458,56200
21.32272,57891
21.33083,50137
21.33895,52673
21.34708,52062
21.35520,55141
21.36332,51575
21.37145,53431
21.37957,52855
21.38770,56585
21.39582,68171
21.40393,79606
21.41207,90454
21.42018,98719
21.42832,96008
21.43643,91548
21.44455,75563
21.45268,67273
21.46080,64558
21.46893,63482
21.47705,58667
21.48517,55359
21.49330,53260
21.50142,54230
21.50953,49639
21.51767,49597
21.52578,51040
21.53392,49411
21.54203,51475
21.55015,50203
21.55828,46163
21.56640,49248
21.57453,51858
21.58265,59218
21.59077,56988
21.59890,65920
21.60702,72496
21.61515,76076
21.62327,70768
21.63138,76371
21.63952,76441
21.64763,73676
21.65575,77766
21.66388,77433
21.67200,77950
21.68013,89314
21.68825,81991
21.69637,85383
21.70450,76286
21.71262,69191
21.72075,68304
21.72887,61773
21.73698,55656
21.74512,59029
21.75323,55226
21.76137,55733
21.76948,57478
21.77760,54163
21.78573,53039
21.79385,51563
21.80197,54446
21.81010,56299
21.81822,56260
21.82635,61443
21.83447,59693
21.84258,68832
21.85072,66672
21.85883,64079
21.86697,58572
21.87508,56784
21.88320,56926
21.89133,54233
21.89945,52744
21.90757,53391
21.91570,52837
21.92382,50374
21.93195,49964
21.94007,46512
21.94818,47212
21.95632,52281
21.96443,45609
21.97257,43504
21.98068,43956
21.98880,44646
21.99693,44122
22.00505,42422
22.01318,42680
22.02130,43439
22.02942,42994
22.03755,44802
22.04567,46233
22.05378,46357
22.06192,45867
22.07003,49465
22.07817,54533
22.08628,58899
22.09440,62968
22.10253,68978
22.11065,70645
22.11878,71213
22.12690,77839
22.13502,76292
22.14315,76793
22.15127,79185
22.15938,78226
22.16752,74697
22.17563,81014
22.18377,78862
22.19188,77622
22.20000,83426
22.20813,77857
22.21625,74428
22.22438,79492
22.23250,78824
22.24062,80577
22.24875,76750
22.25687,81094
22.26500,78073
22.27312,79636
22.28123,84431
22.28937,74443
22.29748,73589
22.30560,69007
22.31373,71655
22.32185,69246
22.32998,71349
22.33810,66746
22.34622,65752
22.35435,66030
22.36247,61477
22.37060,59145
22.37872,58394
22.38683,61889
22.39497,70419
22.40308,88637
22.41122,109218
22.41933,126335
22.42745,140596
22.43558,143083
22.44370,132792
22.45182,118642
22.45995,96839
22.46807,82175
22.47620,82549
22.48432,81967
22.49243,90672
22.50057,107844
22.50868,113220
22.51682,106442
22.52493,106458
22.53305,93027
22.54118,79934
22.54930,71992
22.55742,68718
22.56555,63562
22.57367,60716
22.58180,62312
22.58992,64189
22.59803,82255
22.60617,92802
22.61428,102863
22.62242,108717
22.63053,113549
22.63865,121341
22.64678,129861
22.65490,129120
22.66303,137180
22.67115,137677
22.67927,135305
22.68740,136779
22.69552,147141
22.70363,160511
22.71177,160905
22.71988,160024
22.72802,176428
22.73613,171126
22.74425,159932
22.75238,158887
22.76050,151260
22.76863,155567
22.77675,150816
22.78487,159546
22.79300,165648
22.80112,188704
22.80925,197616
22.81737,219724
22.82548,214893
22.83362,205903
22.84173,186109
22.84985,171474
22.85798,159059
22.86610,160867
22.87423,161524
22.88235,161162
22.89047,165785
22.89860,181409
22.90672,202219
22.91485,229941
22.92297,262242
22.93108,294724
22.93922,286368
22.94733,270249
22.95545,224858
22.96358,192649
22.97170,168710
22.97983,153792
22.98795,145702
22.99607,132973
23.00420,127782
23.01232,129304
23.02045,122981
23.02857,121248
23.03668,118263
23.04482,121349
23.05293,112817
23.06107,114344
23.06918,105571
23.07730,119862
23.08543,113945
23.09355,116321
23.10167,109441
23.10980,106945
23.11792,105523
23.12605,103302
23.13417,103354
23.14228,100686
23.15042,100214
23.15853,100481
23.16667,99354
23.17478,91418
23.18290,96896
23.19103,98967
23.19915,94053
23.20727,95093
23.21540,95650
23.22352,94857
23.23165,90877
23.23977,93760
23.24788,97449
23.25602,90630
23.26413,103753
23.27227,103577
23.28038,104450
23.28850,100035
23.29663,101328
23.30475,91733
23.31288,94240
23.32100,91772
23.32912,99651
23.33725,105728
23.34537,125398
23.35348,151265
23.36162,190321
23.36973,251439
23.37787,323044
23.38598,409472
23.39410,497461
23.40223,582600
23.41035,624578
23.41848,661713
23.42660,664624
23.43472,665239
23.44285,661880
23.45097,630320
23.45910,604299
23.46722,535056
23.47533,520866
23.48347,474192
23.49158,437586
23.49970,404568
23.50783,395849
23.51595,353143
23.52408,312147
23.53220,306508
23.54032,293092
23.54845,291136
23.55657,290150
23.56470,281932
23.57282,290958
23.58093,304828
23.58907,309327
23.59718,335477
23.60530,352717
23.61343,359925
23.62155,339767
23.62968,309678
23.63780,269150
23.64592,237330
23.65405,217742
23.66217,212474
23.67030,211122
23.67842,206398
23.68653,189205
23.69467,175241
23.70278,159991
23.71092,153351
23.71903,139337
23.72715,135001
23.73528,129915
23.74340,131803
23.75152,161243
23.75965,226317
23.76777,381770
23.77590,661086
23.78402,1019026
23.79213,1393553
23.80027,1626028
23.80838,1667870
23.81652,1482341
23.82463,1281779
23.83275,1045662
23.84088,790806
23.84900,638659
23.85713,510825
23.86525,436466
23.87337,385709
23.88150,330001
23.88962,295967
23.89773,277343
23.90587,258166
23.91398,254470
23.92212,244583
23.93023,222181
23.93835,221016
23.94648,198385
23.95460,178493
23.96273,174880
23.97085,161550
23.97897,155952
23.98710,150167
23.99522,138981
24.00333,141981
24.01147,138644
24.01958,141235
24.02772,160540
24.03583,158300
24.04395,162357
24.05208,156308
24.06020,146175
24.06833,132175
24.07645,121478
24.08457,113992
24.09270,105565
24.10082,100378
24.10895,105280
24.11707,102364
24.12518,101410
24.13332,103780
24.14143,102263
24.14955,98707
24.15768,98922
24.16580,101873
24.17393,100947
24.18205,101549
24.19017,99603
24.19830,102173
24.20642,99167
24.21455,100215
24.22267,91930
24.23078,95821
24.23892,87961
24.24703,86872
24.25515,83421
24.26328,80611
24.27140,76864
24.27953,79619
24.28765,73265
24.29577,72434
24.30390,72158
24.31202,69549
24.32015,78082
24.32827,91153
24.33638,109081
24.34452,136301
24.35263,158846
24.36077,164252
24.36888,187771
24.37700,208730
24.38513,241731
24.39325,247828
24.40137,245644
24.40950,233276
24.41762,220146
24.42575,205078
24.43387,198021
24.44198,203208
24.45012,198668
24.45823,210597
24.46637,214179
24.47448,229698
24.48260,242255
24.49073,255695
24.49885,269089
24.50698,257256
24.51510,274546
24.52322,269526
24.53135,267081
24.53947,275269
24.54758,292033
24.55572,307870
24.56383,303099
24.57197,304944
24.58008,292799
24.58820,270254
24.59633,254476
24.60445,240838
24.61258,237556
24.62070,227010
24.62882,235686
24.63695,227819
24.64507,228444
24.65318,232520
24.66132,238094
24.66943,243657
24.67757,225623
24.68568,233752
24.69380,231559
24.70193,233892
24.71005,219255
24.71818,217577
24.72630,222758
24.73442,218175
24.74255,218328
24.75067,213338
24.75880,220149
24.76692,212224
24.77503,216300
24.78317,217909
24.79128,227472
24.79940,218844
24.80753,217175
24.81565,207777
24.82378,220625
24.83190,218386
24.84002,236045
24.84815,280306
24.85627,310724
24.86440,389791
24.87252,490951
24.88063,623387
24.88877,745389
24.89688,828219
24.90502,800859
24.91313,736622
24.92125,586037
24.92938,459657
24.93750,341301
24.94562,270656
24.95375,235184
24.96187,202756
24.97000,186889
24.97812,173287
24.98623,169102
24.99437,169356
25.00248,160464
25.01062,155071
25.01873,145467
25.02685,144610
25.03498,130540
25.04310,129624
25.05122,115283
25.05935,104508
25.06747,94005
25.07560,95402
25.08372,92915
25.09183,101505
25.09997,142371
25.10808,226794
25.11622,465743
25.12433,889677
25.13245,1643580
25.14058,2504783
25.14870,3163128
25.15683,3331824
25.16495,2842390
25.17307,2124792
25.18120,1433661
25.18932,838835
25.19743,491778
25.20557,310693
25.21368,200170
25.22182,159348
25.22993,143117
25.23805,143647
25.24618,161908
25.25430,200841
25.26243,248208
25.27055,282372
25.27867,321224
25.28680,309191
25.29492,276530
25.30305,230277
25.31117,182675
25.31928,138466
25.32742,118708
25.33553,102193
25.34365,91331
25.35178,83915
25.35990,79839
25.36803,76731
25.37615,71511
25.38427,70605
25.39240,69913
25.40052,74115
25.40865,68244
25.41677,65450
25.42488,66784
25.43302,68052
25.44113,69837
25.44925,75287
25.45738,99402
25.46550,128035
25.47363,159692
25.48175,192616
25.48987,217603
25.49800,233767
25.50612,236802
25.51425,245514
25.52237,247702
25.53048,254111
25.53862,256540
25.54673,254272
25.55487,268461
25.56298,273578
25.57110,266222
25.57923,263902
25.58735,263908
25.59547,273585
25.60360,268400
25.61172,267362
25.61985,261824
25.62797,258848
25.63608,270667
25.64422,263198
25.65233,251743
25.66047,246788
25.66858,245307
25.67670,244946
25.68483,243089
25.69295,250519
25.70107,246718
25.70920,242731
25.71732,244977
25.72545,236357
25.73357,234108
25.74168,231126
25.74982,230278
25.75793,233017
25.76607,229573
25.77418,221702
25.78230,221938
25.79043,223135
25.79855,224049
25.80668,222969
25.81480,210807
25.82292,214143
25.83105,212766
25.83917,215694
25.84728,215884
25.85542,216401
25.86353,220862
25.87167,211082
25.87978,198195
25.88790,201198
25.89603,193156
25.90415,192862
25.91228,187630
25.92040,190934
25.92852,183004
25.93665,182320
25.94477,173431
25.95290,174307
25.96102,171493
25.96913,176217
25.97727,175207
25.98538,165125
25.99350,158590
26.00163,161231
26.00975,156944
26.01788,154543
26.02600,153999
26.03412,159141
26.04225,150361
26.05037,153724
26.05850,146711
26.06662,154950
26.07473,149556
26.08287,152218
26.09098,156411
26.09910,143670
26.10723,143291
26.11535,144414
26.12348,148144
26.13160,138773
26.13972,139868
26.14785,145004
26.15597,139092
26.16410,139680
26.17222,143501
26.18033,135302
26.18847,132912
26.19658,128664
26.20472,131919
26.21283,126184
26.22095,126492
26.22908,123091
26.23720,121646
26.24532,118611
26.25345,113959
26.26157,121793
26.26970,114573
26.27782,110801
26.28593,111151
26.29407,109901
26.30218,104230
26.31032,108820
26.31843,107258
26.32655,102068
26.33468,97860
26.34280,101399
26.35093,102771
26.35905,100865
26.36717,98932
26.37530,103084
26.38342,104909
26.39153,106468
26.39967,113152
26.40778,108849
26.41592,112560
26.42403,113558
26.43215,107160
26.44028,102736
26.44840,96487
26.45653,91586
26.46465,95545
26.47277,94300
26.48090,94124
26.48902,90489
26.49713,88813
26.50527,89372
26.51338,83339
26.52152,79145
26.52963,84908
26.53775,83655
26.54588,77623
26.55400,77876
26.56213,78253
26.57025,75516
26.57837,72814
26.58650,81104
26.59462,73515
26.60275,72729
26.61087,68959
26.61898,77969
26.62712,70880
26.63523,74942
26.64335,75076
26.65148,76268
26.65960,76054
26.66773,73220
26.67585,78642
26.68397,75685
26.69210,76347
26.70022,72793
26.70835,73417
26.71647,66624
26.72458,67269
26.73272,66800
26.74083,67433
26.74895,69699
26.75708,66194
26.76520,64830
26.77333,64946
26.78145,69960
26.78957,71936
26.79770,73202
26.80582,76201
26.81395,77513
26.82207,73749
26.83018,70011
26.83832,65109
26.84643,68741
26.85457,63212
26.86268,61887
26.87080,65284
26.87893,63710
26.88705,64065
26.89517,62691
26.90330,59381
26.91142,60106
26.91955,59837
26.92767,59670
26.93578,58332
26.94392,61646
26.95203,65076
26.96017,69057
26.96828,67872
26.97640,80719
26.98453,91008
26.99265,116005
27.00078,144392
27.00890,189715
27.01702,226814
27.02515,264516
27.03327,286463
27.04138,292906
27.04952,274756
27.05763,244396
27.06577,208161
27.07388,179176
27.08200,156979
27.09013,143634
27.09825,130629
27.10638,118488
27.11450,113044
27.12262,108889
27.13075,114066
27.13887,101509
27.14700,97909
27.15512,91358
27.16323,94038
27.17137,96262
27.17948,94449
27.18760,94277
27.19573,104253
27.20385,92036
27.21198,90250
27.22010,85557
27.22822,81665
27.23635,83509
27.24447,78139
27.25260,77550
27.26072,72204
27.26883,73806
27.27697,67787
27.28508,64216
27.29320,66752
27.30133,65290
27.30945,62654
27.31758,62313
27.32570,60861
27.33382,60655
27.34195,61543
27.35007,59477
27.35820,65074
27.36632,60319
27.37443,63177
27.38257,65136
27.39068,62362
27.39882,57342
27.40693,58476
27.41505,63697
27.42318,54741
27.43130,53997
27.43942,55374
27.44755,56304
27.45567,56816
27.46380,55222
27.47192,54208
27.48003,55285
27.48817,55488
27.49628,55939
27.50442,52846
27.51253,60517
27.52065,59101
27.52878,62757
27.53690,58898
27.54502,59192
27.55315,55076
27.56127,56164
27.56940,63425
27.57752,62037
27.58563,73494
27.59377,79210
27.60188,84697
27.61002,84489
27.61813,75328
27.62625,74522
27.63438,66409
27.64250,58553
27.65063,56917
27.65875,55569
27.66687,54206
27.67500,53471
27.68312,59786
27.69123,61286
27.69937,62971
27.70748,58515
27.71562,58113
27.72373,54818
27.73185,54187
27.73998,50056
27.74810,50543
27.75623,50432
27.76435,50645
27.77247,50087
27.78060,49966
27.78872,52605
27.79685,52213
27.80497,51553
27.81308,50109
27.82122,48543
27.82933,50619
27.83745,50183
27.84558,48630
27.85370,48515
27.86183,50336
27.86995,47622
27.87807,44549
27.88620,47194
27.89432,46484
27.90245,47569
27.91057,46597
27.91868,48029
27.92682,45621
27.93493,40774
27.94305,42154
27.95118,44999
27.95930,43484
27.96743,46355
27.97555,44634
27.98367,44782
27.99180,48218
27.99992,46596
28.00805,46170
28.01617,50148
28.02428,54093
28.03242,62221
28.04053,68515
28.04867,79850
28.05678,80796
28.06490,76061
28.07303,71191
28.08115,71965
28.08927,65555
28.09740,62959
28.10552,60220
28.11365,53341
28.12177,52328
28.12988,50469
28.13802,49354
28.14613,46957
28.15427,41758
28.16238,45151
28.17050,45084
28.17863,48839
28.18675,55183
28.19488,59968
28.20300,69044
28.21112,74373
28.21925,84179
28.22737,82240
28.23548,84054
28.24362,78915
28.25173,74766
28.25987,64368
28.26798,56822
28.27610,55505
28.28423,49901
28.29235,49735
28.30048,50732
28.30860,56512
28.31672,62456
28.32485,70174
28.33297,71061
28.34108,75683
28.34922,74173
28.35733,82756
28.36547,84874
28.37358,88662
28.38170,98237
28.38983,103723
28.39795,104172
28.40608,103899
28.41420,107098
28.42232,102346
28.43045,101283
28.43857,98070
28.44670,89348
28.45482,85833
28.46293,82347
28.47107,75026
28.47918,76095
28.48730,81214
28.49543,76722
28.50355,72903
28.51168,71144
28.51980,67264
28.52792,63142
28.53605,63134
28.54417,59381
28.55230,59977
28.56042,57480
28.56853,59496
28.57667,55152
28.58478,51095
28.59290,55852
28.60103,53979
28.60915,57614
28.61728,53838
28.62540,55483
28.63352,54894
28.64165,53893
28.64977,56317
28.65790,57912
28.66602,59980
28.67413,57233
28.68227,58362
28.69038,49225
28.69852,56903
28.70663,55861
28.71475,53943
28.72288,55632
28.73100,50896
28.73912,52147
28.74725,61161
28.75537,66774
28.76350,71495
28.77162,71772
28.77973,65398
28.78787,62418
28.79598,58445
28.80412,62263
28.81223,59891
28.82035,59783
28.82848,58908
28.83660,56915
28.84473,55304
28.85285,55057
28.86097,51590
28.86910,53146
28.87722,58598
28.88533,61402
28.89347,70507
28.90158,69291
28.90972,73759
28.91783,68974
28.92595,62445
28.93408,58015
28.94220,51073
28.95033,62161
28.95845,55184
28.96657,57082
28.97470,51978
28.98282,52257
28.99093,50922
28.99907,49075
29.00718,45326
29.01532,45897
29.02343,45406
29.03155,55407
29.03968,46302
29.04780,45769
29.05593,51590
29.06405,48122
29.07217,48100
29.08030,54493
29.08842,50251
29.09655,51457
29.10467,53127
29.11278,51317
29.12092,51341
29.12903,50478
29.13715,45328
29.14528,46194
29.15340,44260
29.16153,47811
29.16965,45430
29.17777,51827
29.18590,59141
29.19402,68007
29.20215,84879
29.21027,99262
29.21838,106584
29.22652,107753
29.23463,96093
29.24277,86484
29.25088,81347
29.25900,82947
29.26713,78707
29.27525,73964
29.28337,73446
29.29150,66164
29.29962,63430
29.30775,57698
29.31587,52135
29.32398,48433
29.33212,46039
29.34023,46260
29.34837,43640
29.35648,39736
29.36460,43403
29.37273,42114
29.38085,41028
29.38897,42140
29.39710,45972
29.40522,41526
29.41335,42617
29.42147,43117
29.42958,44128
29.43772,42796
29.44583,43183
29.45397,44827
29.46208,44333
29.47020,42455
29.47833,49300
29.48645,44902
29.49458,45178
29.50270,46708
29.51082,48344
29.51895,50196
29.52707,43476
29.53518,46097
29.54332,42378
29.55143,44458
29.55957,43616
29.56768,39532
29.57580,39590
29.58393,37926
29.59205,37873
29.60018,39031
29.60830,43098
29.61642,38032
29.62455,41568
29.63267,43831
29.64078,40179
29.64892,41007
29.65703,41130
29.66517,39994
29.67328,46346
29.68140,45322
29.68953,49199
29.69765,53272
29.70578,52492
29.71390,50887
29.72202,47064
29.73015,50236
29.73827,41438
29.74640,44515
29.75452,38369
29.76263,41702
29.77077,42069
29.77888,39913
29.78700,38501
29.79513,37256
29.80325,38964
29.81138,38979
29.81950,39504
29.82762,37797
29.83575,39216
29.84387,35905
29.85200,39457
29.86012,38255
29.86823,45375
29.87637,49614
29.88448,60116
29.89262,71323
29.90073,79871
29.90885,81091
29.91698,73994
29.92510,69061
29.93322,60969
29.94135,50545
29.94947,51211
29.95760,47975
29.96572,50733
29.97383,53367
29.98197,54366
29.99008,55498
29.99822,61045
30.00633,67755
30.01445,65134
30.02258,67269
30.03070,67276
30.03882,68912
30.04695,73380
30.05507,71182
30.06320,63453
30.07132,71304
30.07943,68354
30.08757,64975
30.09568,65316
30.10382,71367
30.11193,66446
30.12005,66841
30.12818,63479
30.13630,64574
30.14443,66001
30.15255,59269
30.16067,58997
30.16880,59266
30.17692,56605
30.18503,57045
30.19317,55468
30.20128,57466
30.20942,52450
30.21753,51217
30.22565,52100
30.23378,47077
30.24190,49947
30.25003,50523
30.25815,46894
30.26627,49947
30.27440,41483
30.28252,44312
30.29065,43929
30.29877,49200
30.30688,46144
30.31502,44200
30.32313,45836
30.33125,43967
30.33938,46771
30.34750,49561
30.35563,46104
30.36375,47828
30.37187,47444
30.38000,43575
30.38812,41332
30.39625,39699
30.40437,40752
30.41248,40350
30.42062,39657
30.42873,44618
30.43685,45941
30.44498,43189
30.45310,46695
30.46123,36136
30.46935,40021
30.47747,38540
30.48560,40743
30.49372,45088
30.50185,40050
30.50997,42749
30.51808,41856
30.52622,43406
30.53433,41433
30.54247,41806
30.55058,43983
30.55870,41467
30.56683,42667
30.57495,40437
30.58307,40445
30.59120,41675
30.59932,40714
30.60745,44132
30.61557,39946
30.62368,37579
30.63182,38552
30.63993,37088
30.64807,44010
30.65618,40459
30.66430,40616
30.67243,38507
30.68055,35374
30.68868,37299
30.69680,36983
30.70492,38264
30.71305,38183
30.72117,38821
30.72928,40349
30.73742,36968
30.74553,36771
30.75367,41314
30.76178,40691
30.76990,43615
30.77803,45895
30.78615,60790
30.79428,73718
30.80240,87233
30.81052,99676
30.81865,96393
30.82677,92359
30.83488,77812
30.84302,62718
30.85113,55299
30.85927,52220
30.86738,44738
30.87550,44065
30.88363,39621
30.89175,41178
30.89988,40770
30.90800,39717
30.91612,40184
30.92425,37915
30.93237,38690
30.94050,43268
30.94862,40668
30.95673,39364
30.96487,44010
30.97298,46153
30.98110,49814
30.98923,53308
30.99735,48775
31.00548,53198
31.01360,52678
31.02172,53450
31.02985,56214
31.03797,55645
31.04610,54942
31.05422,57890
31.06233,55382
31.07047,64917
31.07858,64264
31.08670,67644
31.09483,67437
31.10295,76008
31.11108,82708
31.11920,78148
31.12732,72909
31.13545,71062
31.14357,70143
31.15170,67413
31.15982,69655
31.16793,71656
31.17607,73559
31.18418,83131
31.19232,100476
31.20043,129549
31.20855,162427
31.21668,200146
31.22480,226964
31.23292,232534
31.24105,214979
31.24917,180077
31.25730,145238
31.26542,110003
31.27353,83157
31.28167,71633
31.28978,68903
31.29792,67109
31.30603,61504
31.31415,62752
31.32228,64941
31.33040,64572
31.33853,65506
31.34665,63780
31.35477,67518
31.36290,61878
31.37102,63157
31.37913,63064
31.38727,63941
31.39538,60200
31.40352,59242
31.41163,57372
31.41975,60217
31.42788,54169
31.43600,54913
31.44413,51598
31.45225,52657
31.46037,54838
31.46850,49358
31.47662,50950
31.48473,57220
31.49287,56003
31.50098,55221
31.50912,53836
31.51723,54837
31.52535,59670
31.53348,54216
31.54160,56529
31.54973,57718
31.55785,60243
31.56597,54386
31.57410,52125
31.58222,51168
31.59035,50614
31.59847,50400
31.60658,54615
31.61472,51493
31.62283,47035
31.63095,48209
31.63908,50246
31.64720,49912
31.65533,55770
31.66345,54118
31.67157,58402
31.67970,58226
31.68782,54494
31.69595,51499
31.70407,50428
31.71218,53087
31.72032,51351
31.72843,44784
31.73657,48575
31.74468,48101
31.75280,44671
31.76093,45458
31.76905,44473
31.77717,50741
31.78530,48187
31.79342,45479
31.80155,50878
31.80967,45027
31.81778,43721
31.82592,48352
31.83403,48576
31.84217,47938
31.85028,46918
31.85840,49584
31.86653,51756
31.87465,51126
31.88277,46499
31.89090,51430
31.89902,55665
31.90715,62214
31.91527,63883
31.92338,67571
31.93152,69388
31.93963,69646
31.94777,75558
31.95588,75019
31.96400,69414
31.97213,69376
31.98025,68472
31.98838,76722
31.99650,72626
32.00462,72698
32.01275,71174
32.02087,74755
32.02898,68223
32.03712,69452
32.04523,65956
32.05337,63829
32.06148,67566
32.06960,65486
32.07773,65389
32.08585,60687
32.09398,58822
32.10210,59570
32.11022,55088
32.11835,53701
32.12647,49880
32.13458,53933
32.14272,56385
32.15083,48440
32.15897,47795
32.16708,45544
32.17520,47792
32.18333,46099
32.19145,49978
32.19958,50943
32.20770,45282
32.21582,47488
32.22395,48154
32.23207,46700
32.24020,47187
32.24832,47959
32.25643,49359
32.26457,46776
32.27268,50622
32.28080,49220
32.28893,47952
32.29705,47452
32.30518,47385
32.31330,46218
32.32142,43382
32.32955,45505
32.33767,46625
32.34580,47533
32.35392,43935
32.36203,41143
32.37017,44794
32.37828,42677
32.38642,43828
32.39453,42754
32.40265,46388
32.41078,43689
32.41890,42925
32.42702,40687
32.43515,43248
32.44327,43993
32.45140,42208
32.45952,43945
32.46763,40881
32.47577,44237
32.48388,43718
32.49202,41371
32.50013,44682
32.50825,43516
32.51638,38925
32.52450,41560
32.53263,39893
32.54075,42423
32.54887,42082
32.55700,39862
32.56512,45726
32.57323,40501
32.58137,38967
32.58948,38577
32.59762,42373
32.60573,41454
32.61385,44114
32.62198,42063
32.63010,46255
32.63823,46785
32.64635,53838
32.65447,54473
32.66260,56418
32.67072,49016
32.67883,47579
32.68697,49158
32.69508,45319
32.70322,42645
32.71133,48499
32.71945,43057
32.72758,47734
32.73570,42856
32.74383,47180
32.75195,40769
32.76007,40968
32.76820,44635
32.77632,40614
32.78445,39529
32.79257,38996
32.80068,41052
32.80882,40769
32.81693,43168
32.82505,39860
32.83318,42044
32.84130,40088
32.84943,39743
32.85755,40952
32.86567,41546
32.87380,41662
32.88192,42180
32.89005,44634
32.89817,44195
32.90628,44476
32.91442,43041
32.92253,44976
32.93065,46056
32.93878,43029
32.94690,40095
32.95503,45997
32.96315,43076
32.97127,44676
32.97940,47746
32.98752,58672
32.99565,61386
33.00377,66778
33.01188,71153
33.02002,62610
33.02813,57583
33.03627,51749
33.04438,51870
33.05250,50970
33.06063,48018
33.06875,51308
33.07687,53290
33.08500,59656
33.09312,59445
33.10125,60771
33.10937,63363
33.11748,62631
33.12562,59528
33.13373,56827
33.14187,56992
33.14998,53357
33.15810,46967
33.16623,48352
33.17435,46405
33.18248,46851
33.19060,48480
33.19872,41431
33.20685,42810
33.21497,45659
33.22308,45809
33.23122,43751
33.23933,42356
33.24747,40931
33.25558,40241
33.26370,39183
33.27183,39597
33.27995,40456
33.28808,42001
33.29620,42471
33.30432,43093
33.31245,42925
33.32057,38547
33.32868,39809
33.33682,39674
33.34493,42449
33.35307,44609
33.36118,45022
33.36930,45442
33.37743,45052
33.38555,49265
33.39368,44501
33.40180,44170
33.40992,41411
33.41805,40895
33.42617,39694
33.43430,37949
33.44242,42815
33.45053,43150
33.45867,40619
33.46678,42583
33.47490,40803
33.48303,39735
33.49115,39562
33.49928,41013
33.50740,39139
33.51552,43264
33.52365,40973
33.53177,43636
33.53990,41720
33.54802,48412
33.55613,52645
33.56427,51254
33.57238,49438
33.58052,47243
33.58863,40719
33.59675,44871
33.60488,41139
33.61300,40188
33.62112,41213
33.62925,38702
33.63737,43602
33.64550,45091
33.65362,45555
33.66173,40917
33.66987,46342
33.67798,42856
33.68612,45361
33.69423,41420
33.70235,41939
33.71048,38774
33.71860,41075
33.72672,41893
33.73485,39233
33.74297,37227
33.75110,46537
33.75922,43914
33.76733,42575
33.77547,38506
33.78358,39404
33.79172,40664
33.79983,40897
33.80795,41360
33.81608,40356
33.82420,38668
33.83233,36285
33.84045,44067
33.84857,42585
33.85670,45529
33.86482,41159
33.87293,42193
33.88107,42459
33.88918,42651
33.89732,42655
33.90543,44338
33.91355,43565
33.92168,44343
33.92980,44281
33.93793,44525
33.94605,40281
33.95417,40992
33.96230,37820
33.97042,41896
33.97853,40081
33.98667,40693
33.99478,39362
34.00292,38322
34.01103,41149
34.01915,42615
34.02728,42955
34.03540,43169
34.04353,41545
34.05165,41447
34.05977,41144
34.06790,41222
34.07602,40103
34.08415,44232
34.09227,42864
34.10038,45295
34.10852,44523
34.11663,37457
34.12475,42244
34.13288,39459
34.14100,41115
34.14913,43846
34.15725,39928
34.16537,46035
34.17350,43527
34.18162,41631
34.18975,39937
34.19787,41900
34.20598,41426
34.21412,39068
34.22223,42901
34.23037,43191
34.23848,40944
34.24660,43030
34.25473,41003
34.26285,41966
34.27097,43147
34.27910,41210
34.28722,40310
34.29535,39328
34.30347,36544
34.31158,39915
34.31972,40499
34.32783,44073
34.33597,41297
34.34408,40361
34.35220,41806
34.36033,44610
34.36845,39186
34.37657,40811
34.38470,40503
34.39282,43011
34.40095,43636
34.40907,43147
34.41718,41569
34.42532,41153
34.43343,41370
34.44157,40746
34.44968,39099
34.45780,41544
34.46593,39784
34.47405,40114
34.48218,41233
34.49030,42616
34.49842,44018
34.50655,48897
34.51467,54901
34.52278,57078
34.53092,66073
34.53903,61049
34.54717,69366
34.55528,68089
34.56340,61760
34.57153,62638
34.57965,60388
34.58778,59970
34.59590,57974
34.60402,56653
34.61215,53412
34.62027,50195
34.62840,51216
34.63652,52346
34.64463,46748
34.65277,48826
34.66088,45544
34.66900,49539
34.67713,43942
34.68525,49815
34.69338,45500
34.70150,43096
34.70962,44159
34.71775,40793
34.72587,47902
34.73400,43760
34.74212,45632
34.75023,46693
34.75837,47664
34.76648,43798
34.77460,42742
34.78273,48086
34.79085,47936
34.79898,46658
34.80710,42273
34.81522,44974
34.82335,41818
34.83147,48299
34.83960,48321
34.84772,47813
34.85583,46587
34.86397,48005
34.87208,45292
34.88022,46737
34.88833,49367
34.89645,50972
34.90458,44404
34.91270,46310
34.92082,45577
34.92895,48716
34.93707,49682
34.94520,47204
34.95332,49921
34.96143,50192
34.96957,51934
34.97768,50349
34.98582,52321
34.99393,49919
35.00205,48841
35.01018,47175
35.01830,45241
35.02643,44824
35.03455,44856
35.04267,44364
35.05080,44362
35.05892,42794
35.06703,43292
35.07517,44584
35.08328,43562
35.09142,43509
35.09953,44449
35.10765,44904
35.11578,42188
35.12390,44689
35.13203,45986
35.14015,45242
35.14827,46200
35.15640,43634
35.16452,46528
35.17263,46067
35.18077,41122
35.18888,44107
35.19702,40941
35.20513,45423
35.21325,42840
35.22138,42825
35.22950,45897
35.23763,43043
35.24575,43826
35.25387,44981
35.26200,44193
35.27012,43047
35.27825,42450
35.28637,42423
35.29448,45193
35.30262,43842
35.31073,39418
35.31885,41445
35.32698,40959
35.33510,47590
35.34323,42672
35.35135,44823
35.35947,42744
35.36760,46562
35.37572,43017
35.38385,43618
35.39197,46984
35.40008,45657
35.40822,49162
35.41633,48628
35.42445,50335
35.43258,48052
35.44070,47948
35.44883,52046
35.45695,49074
35.46507,45643
35.47320,45163
35.48132,46738
35.48945,46948
35.49757,45341
35.50568,49420
35.51382,44781
35.52193,46039
35.53007,46807
35.53818,43346
35.54630,43557
35.55443,43949
35.56255,45318
35.57067,45043
35.57880,41235
35.58692,44346
35.59505,42029
35.60317,42797
35.61128,43242
35.61942,42247
35.62753,45266
35.63567,45144
35.64378,45937
35.65190,47384
35.66003,49093
35.66815,47848
35.67628,48784
35.68440,44011
35.69252,48950
35.70065,43891
35.70877,46210
35.71688,44532
35.72502,41446
35.73313,48103
35.74127,49807
35.74938,49052
35.75750,51630
35.76563,52424
35.77375,54514
35.78188,49393
35.79000,52210
35.79812,53975
35.80625,46537
35.81437,45750
35.82248,42364
35.83062,46893
35.83873,43428
35.84687,48830
35.85498,44417
35.86310,43186
35.87123,42718
35.87935,49827
35.88748,45409
35.89560,46744
35.90372,43393
35.91185,43921
35.91997,43200
35.92810,44132
35.93622,46157
35.94433,42647
35.95247,42780
35.96058,44807
35.96870,44246
35.97683,43458
35.98495,44773
35.99308,41313
36.00120,48506
36.00932,44466
36.01745,48245
36.02557,49939
36.03370,44825
36.04182,46473
36.04993,49478
36.05807,47751
36.06618,48909
36.07432,48216
36.08243,46814
36.09055,47372
36.09868,47253
36.10680,44203
36.11492,46388
36.12305,49148
36.13117,47548
36.13930,47798
36.14742,43005
36.15553,48043
36.16367,51896
36.17178,49195
36.17992,48362
36.18803,43736
36.19615,44000
36.20428,44582
36.21240,47013
36.22052,47400
36.22865,43764
36.23677,43428
36.24490,47322
36.25302,47205
36.26113,45823
36.26927,46644
36.27738,50411
36.28552,54278
36.29363,60389
36.30175,58468
36.30988,57590
36.31800,59937
36.32613,52065
36.33425,49875
36.34237,46588
36.35050,46241
36.35862,47863
36.36673,47262
36.37487,47957
36.38298,47248
36.39112,46434
36.39923,48788
36.40735,48963
36.41548,51396
36.42360,49039
36.43173,48823
36.43985,44260
36.44797,46212
36.45610,49392
36.46422,44082
36.47233,47331
36.48047,49073
36.48858,49061
36.49672,47651
36.50483,42699
36.51295,46116
36.52108,47825
36.52920,44836
36.53733,46615
36.54545,48339
36.55357,44094
36.56170,44414
36.56982,45709
36.57795,46782
36.58607,49899
36.59418,48708
36.60232,47846
36.61043,54726
36.61855,50815
36.62668,51704
36.63480,48977
36.64293,50297
36.65105,55254
36.65917,55978
36.66730,55812
36.67542,55652
36.68355,50409
36.69167,51613
36.69978,56400
36.70792,52867
36.71603,50755
36.72417,55148
36.73228,55488
36.74040,52773
36.74853,55072
36.75665,49338
36.76477,52154
36.77290,48638
36.78102,54478
36.78915,53663
36.79727,52288
36.80538,53565
36.81352,51670
36.82163,53924
36.82977,47413
36.83788,52247
36.84600,50616
36.85413,50423
36.86225,50476
36.87037,49923
36.87850,49437
36.88662,54436
36.89475,51738
36.90287,50486
36.91098,51225
36.91912,51479
36.92723,54919
36.93537,57311
36.94348,60677
36.95160,66202
36.95973,64876
36.96785,69055
36.97598,70620
36.98410,64905
36.99222,64450
37.00035,56537
37.00847,60404
37.01658,54766
37.02472,52424
37.03283,53284
37.04097,56673
37.04908,56939
37.05720,54825
37.06533,55842
37.07345,54314
37.08158,52195
37.08970,53138
37.09782,55833
37.10595,58109
37.11407,54706
37.12220,53358
37.13032,53415
37.13843,49250
37.14657,51237
37.15468,50340
37.16280,55783
37.17093,50656
37.17905,53866
37.18718,57503
37.19530,54170
37.20342,56854
37.21155,54132
37.21967,54322
37.22780,56204
37.23592,54789
37.24403,57089
37.25217,48629
37.26028,51334
37.26840,53408
37.27653,53311
37.28465,51141
37.29278,53982
37.30090,53085
37.30902,56981
37.31715,66138
37.32527,69943
37.33340,76509
37.34152,76284
37.34963,71128
37.35777,71746
37.36588,71601
37.37402,66005
37.38213,66695
37.39025,63058
37.39838,63799
37.40650,62512
37.41462,62131
37.42275,60475
37.43087,59841
37.43900,63259
37.44712,62743
37.45523,61307
37.46337,60662
37.47148,62093
37.47962,56870
37.48773,61863
