C:\MassHunter\GCMS\1\data\JTB-E02\BACandBLUE\JTB-E18-014-08.D Tue Jun 25 12:31:00 2019
Start of data points
2.09533,76029
2.10345,74883
2.11158,72708
2.11970,72985
2.12782,73159
2.13595,76763
2.14407,72947
2.15220,73356
2.16032,70708
2.16843,70362
2.17657,71663
2.18468,67610
2.19282,65758
2.20093,68428
2.20905,66436
2.21718,63954
2.22530,63559
2.23342,64816
2.24155,63721
2.24967,66941
2.25780,61852
2.26592,73354
2.27403,351743
2.28217,1455260
2.29028,1367978
2.29842,556530
2.30653,334126
2.31465,266092
2.32278,239998
2.33090,217336
2.33903,280079
2.34715,244287
2.35527,181830
2.36340,155609
2.37152,143754
2.37963,146416
2.38777,141535
2.39588,142572
2.40402,130847
2.41213,127538
2.42025,129577
2.42838,125038
2.43650,119524
2.44463,121846
2.45275,119248
2.46087,118757
2.46900,116887
2.47712,109908
2.48525,108732
2.49337,132843
2.50148,163601
2.50962,133745
2.51773,123176
2.52585,115153
2.53398,109517
2.54210,106820
2.55023,112653
2.55835,140658
2.56647,257304
2.57460,276059
2.58272,212551
2.59085,177529
2.59897,169006
2.60708,250530
2.61522,628539
2.62333,733706
2.63145,444620
2.63958,295192
2.64770,228102
2.65583,195681
2.66395,176412
2.67207,159630
2.68020,150570
2.68832,148683
2.69645,132603
2.70457,133942
2.71268,133181
2.72082,126360
2.72893,119350
2.73707,119741
2.74518,115727
2.75330,115046
2.76143,115615
2.76955,115080
2.77767,123308
2.78580,183634
2.79392,292422
2.80205,238471
2.81017,173727
2.81828,176695
2.82642,205756
2.83453,211759
2.84267,222141
2.85078,176296
2.85890,146229
2.86703,134181
2.87515,127763
2.88328,126717
2.89140,118744
2.89952,115084
2.90765,112720
2.91577,106527
2.92388,112815
2.93202,107561
2.94013,108691
2.94827,109329
2.95638,113121
2.96450,119116
2.97263,131296
2.98075,124965
2.98888,116083
2.99700,125098
3.00512,132908
3.01325,130135
3.02137,120424
3.02948,115708
3.03762,111100
3.04573,106662
3.05387,109220
3.06198,112063
3.07010,128300
3.07823,136551
3.08635,359253
3.09448,1328594
3.10260,2593550
3.11072,3866087
3.11885,4457640
3.12697,3119432
3.13510,1872752
3.14322,1373841
3.15133,1088235
3.15947,878239
3.16758,755167
3.17570,748642
3.18383,777515
3.19195,1221392
3.20008,2084164
3.20820,2055936
3.21632,1355162
3.22445,1029990
3.23257,840959
3.24070,720560
3.24882,616569
3.25693,553429
3.26507,499500
3.27318,437642
3.28130,420179
3.28943,482716
3.29755,1067608
3.30568,2919632
3.31380,5345881
3.32192,6005085
3.33005,4730664
3.33817,3266084
3.34630,2418178
3.35442,1934124
3.36253,1615842
3.37067,1376032
3.37878,1193682
3.38692,1084899
3.39503,987255
3.40315,878324
3.41128,848247
3.41940,785162
3.42752,747300
3.43565,715101
3.44377,684687
3.45190,658812
3.46002,607164
3.46813,610142
3.47627,625876
3.48438,630177
3.49252,581015
3.50063,560324
3.50875,536833
3.51688,517234
3.52500,490360
3.53313,494039
3.54125,497801
3.54937,506207
3.55750,485711
3.56562,451936
3.57373,482928
3.58187,531509
3.58998,534704
3.59812,472842
3.60623,454757
3.61435,434345
3.62248,443288
3.63060,452381
3.63873,478992
3.64685,511688
3.65497,486711
3.66310,577865
3.67122,1722796
3.67933,5499523
3.68747,9130761
3.69558,7957483
3.70372,4738221
3.71183,3042446
3.71995,2371766
3.72808,1958683
3.73620,1713262
3.74433,1516261
3.75245,1378900
3.76057,1252226
3.76870,1192612
3.77682,1095244
3.78495,1037287
3.79307,991170
3.80118,978370
3.80932,1278942
3.81743,2065668
3.82555,2557623
3.83368,2166646
3.84180,1566749
3.84993,1269223
3.85805,1098991
3.86617,979825
3.87430,907963
3.88242,859379
3.89055,811924
3.89867,767433
3.90678,736449
3.91492,742273
3.92303,837117
3.93117,1015071
3.93928,1124483
3.94740,1093936
3.95553,1523536
3.96365,3152348
3.97177,5055784
3.97990,5051870
3.98802,3526283
3.99615,2657021
4.00427,4873772
4.01238,1.221096E+07
4.02052,1.984043E+07
4.02863,1.995613E+07
4.03677,1.306727E+07
4.04488,7016496
4.05300,4138188
4.06113,2986708
4.06925,2330780
4.07737,1910161
4.08550,1619913
4.09362,1431708
4.10175,1269111
4.10987,1144739
4.11798,1063852
4.12612,974919
4.13423,953138
4.14237,1084698
4.15048,1595339
4.15860,2119554
4.16673,2026238
4.17485,1576938
4.18298,1260728
4.19110,1065504
4.19922,923363
4.20735,946642
4.21547,1768985
4.22358,5168304
4.23172,1.172651E+07
4.23983,1.756016E+07
4.24797,1.793457E+07
4.25608,1.259931E+07
4.26420,7345078
4.27233,4867044
4.28045,3617811
4.28858,2810897
4.29670,2338597
4.30482,1951881
4.31295,1704355
4.32107,1539735
4.32918,1429697
4.33732,1359894
4.34543,1251039
4.35357,1209290
4.36168,1182348
4.36980,1174151
4.37793,1108029
4.38605,1044903
4.39418,932778
4.40230,870172
4.41042,807656
4.41855,775269
4.42667,749728
4.43480,719284
4.44292,686718
4.45103,677813
4.45917,656015
4.46728,641549
4.47540,625104
4.48353,604980
4.49165,583614
4.49978,595080
4.50790,577252
4.51602,549860
4.52415,540722
4.53227,527015
4.54040,516960
4.54852,514534
4.55663,518728
4.56477,506497
4.57288,488908
4.58102,460926
4.58913,460383
4.59725,440739
4.60538,444343
4.61350,443151
4.62162,468613
4.62975,587360
4.63787,895984
4.64600,1261409
4.65412,1324560
4.66223,1092271
4.67037,798489
4.67848,662489
4.68662,586810
4.69473,542014
4.70285,508924
4.71098,474239
4.71910,436936
4.72723,428283
4.73535,412246
4.74347,399919
4.75160,396030
4.75972,380848
4.76783,374197
4.77597,367389
4.78408,367259
4.79222,377132
4.80033,431775
4.80845,505389
4.81658,531494
4.82470,501409
4.83283,458300
4.84095,445209
4.84907,448113
4.85720,458027
4.86532,435775
4.87343,417981
4.88157,410464
4.88968,385777
4.89782,365814
4.90593,361489
4.91405,354532
4.92218,340496
4.93030,350206
4.93843,433734
4.94655,659503
4.95467,1186166
4.96280,1884154
4.97092,2346953
4.97905,2300602
4.98717,1953417
4.99528,1513475
5.00342,1232201
5.01153,1021585
5.01965,933687
5.02778,942114
5.03590,1189477
5.04403,1570277
5.05215,1751287
5.06027,1558684
5.06840,1258481
5.07652,1038020
5.08465,928880
5.09277,849852
5.10088,800570
5.10902,751148
5.11713,705661
5.12525,682546
5.13338,647767
5.14150,615638
5.14963,607596
5.15775,656997
5.16587,707139
5.17400,752424
5.18212,756530
5.19025,703060
5.19837,688625
5.20648,708072
5.21462,758716
5.22273,766095
5.23087,698332
5.23898,644523
5.24710,592906
5.25523,559564
5.26335,509944
5.27147,478880
5.27960,436926
5.28772,437540
5.29585,430586
5.30397,423772
5.31208,417863
5.32022,413469
5.32833,416493
5.33647,447705
5.34458,486802
5.35270,487251
5.36083,466872
5.36895,435388
5.37708,412979
5.38520,414505
5.39332,443170
5.40145,456368
5.40957,481386
5.41768,457667
5.42582,439215
5.43393,395471
5.44207,375002
5.45018,387441
5.45830,393524
5.46643,400268
5.47455,390221
5.48268,369515
5.49080,360133
5.49892,336969
5.50705,336781
5.51517,344927
5.52328,343813
5.53142,342703
5.53953,338069
5.54767,338422
5.55578,338388
5.56390,394195
5.57203,467637
5.58015,539087
5.58828,525690
5.59640,469939
5.60452,410153
5.61265,359216
5.62077,340957
5.62890,341394
5.63702,348399
5.64513,349151
5.65327,355137
5.66138,340620
5.66950,330851
5.67763,333530
5.68575,342729
5.69388,371955
5.70200,392895
5.71012,386033
5.71825,362886
5.72637,344669
5.73450,320775
5.74262,311774
5.75073,308156
5.75887,299901
5.76698,293608
5.77512,285676
5.78323,277460
5.79135,288532
5.79948,275456
5.80760,280817
5.81572,281285
5.82385,269171
5.83197,276632
5.84010,281929
5.84822,289799
5.85633,289397
5.86447,274122
5.87258,279190
5.88072,276531
5.88883,269135
5.89695,262325
5.90508,249828
5.91320,221665
5.92132,195632
5.92945,193889
5.93757,191861
5.94570,198758
5.95382,220632
5.96193,231158
5.97007,252259
5.97818,284037
5.98632,327836
5.99443,366539
6.00255,367775
6.01068,331349
6.01880,289248
6.02693,254627
6.03505,233617
6.04317,216714
6.05130,209902
6.05942,199698
6.06753,191405
6.07567,189401
6.08378,186817
6.09192,186357
6.10003,186288
6.10815,180504
6.11628,188155
6.12440,211676
6.13253,276319
6.14065,423258
6.14877,627897
6.15690,705519
6.16502,631688
6.17313,509118
6.18127,370274
6.18938,312894
6.19752,281542
6.20563,263901
6.21375,256764
6.22188,242803
6.23000,234674
6.23813,248662
6.24625,242686
6.25437,261465
6.26250,283566
6.27062,290855
6.27875,265787
6.28687,258231
6.29498,240097
6.30312,239252
6.31123,233212
6.31935,235797
6.32748,254178
6.33560,247758
6.34373,246910
6.35185,253193
6.35997,248996
6.36810,245467
6.37622,235026
6.38435,246984
6.39247,247037
6.40058,245063
6.40872,239502
6.41683,241626
6.42497,238161
6.43308,245435
6.44120,232384
6.44933,234385
6.45745,240004
6.46557,242224
6.47370,232208
6.48182,235793
6.48995,241753
6.49807,237862
6.50618,243983
6.51432,249367
6.52243,251570
6.53057,243237
6.53868,248799
6.54680,250410
6.55493,257788
6.56305,265949
6.57117,308936
6.57930,401786
6.58742,471126
6.59555,486366
6.60367,427232
6.61178,359358
6.61992,308095
6.62803,297186
6.63617,293500
6.64428,336958
6.65240,609802
6.66053,1554854
6.66865,3383847
6.67678,5071095
6.68490,5268598
6.69302,3972218
6.70115,2475829
6.70927,1520127
6.71738,1045985
6.72552,833996
6.73363,724147
6.74177,637532
6.74988,583032
6.75800,530796
6.76613,497995
6.77425,474603
6.78238,450532
6.79050,431165
6.79862,437239
6.80675,379595
6.81487,336611
6.82300,324434
6.83112,301911
6.83923,295660
6.84737,297846
6.85548,319014
6.86360,336977
6.87173,321635
6.87985,285373
6.88798,239409
6.89610,211839
6.90422,191774
6.91235,169815
6.92047,168066
6.92860,162925
6.93672,159173
6.94483,150112
6.95297,149043
6.96108,158987
6.96920,170527
6.97733,193515
6.98545,214527
6.99358,211576
7.00170,196065
7.00982,168232
7.01795,142765
7.02607,133403
7.03420,131261
7.04232,132340
7.05043,133737
7.05857,146699
7.06668,155302
7.07482,170590
7.08293,160384
7.09105,154271
7.09918,147494
7.10730,143656
7.11542,138923
7.12355,132501
7.13167,135869
7.13980,139126
7.14792,163725
7.15603,217770
7.16417,284477
7.17228,321519
7.18042,302679
7.18853,250907
7.19665,201418
7.20478,165525
7.21290,145158
7.22103,154332
7.22915,206253
7.23727,397391
7.24540,804234
7.25352,1331291
7.26163,1584344
7.26977,1396401
7.27788,939344
7.28602,588964
7.29413,401283
7.30225,322356
7.31038,281544
7.31850,247180
7.32663,212409
7.33475,169673
7.34287,153164
7.35100,139478
7.35912,135217
7.36723,131150
7.37537,138603
7.38348,141149
7.39162,135098
7.39973,132569
7.40785,127544
7.41598,122571
7.42410,117309
7.43223,115919
7.44035,117690
7.44847,120441
7.45660,117364
7.46472,118594
7.47285,113620
7.48097,111763
7.48908,109316
7.49722,115176
7.50533,146848
7.51345,223281
7.52158,418781
7.52970,746617
7.53783,1178301
7.54595,1583663
7.55407,1830215
7.56220,1709115
7.57032,1421079
7.57845,1002604
7.58657,675663
7.59468,441454
7.60282,303550
7.61093,240716
7.61905,198622
7.62718,168128
7.63530,158877
7.64343,145965
7.65155,132595
7.65967,124874
7.66780,117802
7.67592,110650
7.68405,108968
7.69217,109123
7.70028,109580
7.70842,108725
7.71653,107418
7.72467,109269
7.73278,99594
7.74090,96717
7.74903,101597
7.75715,97949
7.76527,95975
7.77340,97945
7.78152,99862
7.78965,117593
7.79777,128506
7.80588,142206
7.81402,143983
7.82213,140869
7.83027,132738
7.83838,118838
7.84650,117664
7.85463,125069
7.86275,132559
7.87088,157639
7.87900,168391
7.88712,187778
7.89525,177739
7.90337,150704
7.91148,130073
7.91962,119329
7.92773,116209
7.93587,137664
7.94398,166990
7.95210,183488
7.96023,176822
7.96835,165869
7.97648,140293
7.98460,116061
7.99272,106870
8.00085,97053
8.00897,93421
8.01708,88304
8.02522,87892
8.03333,86603
8.04147,92517
8.04958,90240
8.05770,94546
8.06583,89484
8.07395,88094
8.08208,86782
8.09020,85916
8.09832,84688
8.10645,81038
8.11457,80467
8.12270,78113
8.13082,94164
8.13893,98702
8.14707,111252
8.15518,126857
8.16330,128536
8.17143,114981
8.17955,100729
8.18768,92493
8.19580,85972
8.20392,88860
8.21205,87383
8.22017,83924
8.22830,82698
8.23642,81980
8.24453,78851
8.25267,79271
8.26078,77151
8.26892,75448
8.27703,81050
8.28515,80370
8.29328,74377
8.30140,82006
8.30952,87304
8.31765,88390
8.32577,82964
8.33390,79474
8.34202,80960
8.35013,78135
8.35827,77279
8.36638,77569
8.37452,79834
8.38263,82907
8.39075,78458
8.39888,75534
8.40700,76599
8.41512,72702
8.42325,69529
8.43137,66578
8.43950,73226
8.44762,70288
8.45573,72972
8.46387,71681
8.47198,75772
8.48012,70813
8.48823,69437
8.49635,67627
8.50448,67775
8.51260,66159
8.52073,71533
8.52885,69725
8.53697,88384
8.54510,140278
8.55322,220208
8.56133,301653
8.56947,350872
8.57758,315556
8.58572,242496
8.59383,168491
8.60195,126213
8.61008,114188
8.61820,107572
8.62633,98550
8.63445,91433
8.64257,85859
8.65070,83039
8.65882,88943
8.66693,77885
8.67507,82705
8.68318,83068
8.69132,90164
8.69943,97983
8.70755,97496
8.71568,94985
8.72380,92112
8.73193,84752
8.74005,86996
8.74817,105331
8.75630,185614
8.76442,362894
8.77255,658659
8.78067,942772
8.78878,1126306
8.79692,1025234
8.80503,798338
8.81315,553340
8.82128,375197
8.82940,279665
8.83753,240220
8.84565,211048
8.85377,223706
8.86190,235198
8.87002,232152
8.87815,230595
8.88627,225050
8.89438,213702
8.90252,203102
8.91063,194199
8.91877,181857
8.92688,179865
8.93500,176037
8.94313,193965
8.95125,197467
8.95937,212260
8.96750,223350
8.97562,206895
8.98375,209378
8.99187,202473
8.99998,195065
9.00812,176045
9.01623,171120
9.02437,156832
9.03248,138478
9.04060,146807
9.04873,139721
9.05685,143863
9.06497,135949
9.07310,136504
9.08122,131497
9.08935,139048
9.09747,153609
9.10558,177580
9.11372,209133
9.12183,230378
9.12997,230225
9.13808,202731
9.14620,170247
9.15433,153480
9.16245,149806
9.17058,130096
9.17870,130599
9.18682,122451
9.19495,113451
9.20307,120887
9.21118,120188
9.21932,120944
9.22743,118328
9.23557,120506
9.24368,116075
9.25180,120371
9.25993,120222
9.26805,120589
9.27618,119358
9.28430,111272
9.29242,104827
9.30055,113563
9.30867,109209
9.31680,110154
9.32492,110527
9.33303,112217
9.34117,111008
9.34928,106030
9.35740,110563
9.36553,102736
9.37365,101669
9.38178,101932
9.38990,106698
9.39802,113548
9.40615,141055
9.41427,174539
9.42240,223916
9.43052,273743
9.43863,304636
9.44677,297888
9.45488,267877
9.46300,212600
9.47113,170537
9.47925,136388
9.48738,120655
9.49550,117169
9.50362,115108
9.51175,126111
9.51987,140341
9.52800,148336
9.53612,148449
9.54423,133337
9.55237,116745
9.56048,103362
9.56862,94409
9.57673,95694
9.58485,94037
9.59298,93434
9.60110,81605
9.60922,83743
9.61735,76548
9.62547,74054
9.63360,78290
9.64172,76698
9.64983,76648
9.65797,76982
9.66608,73796
9.67422,67695
9.68233,63156
9.69045,57865
9.69858,62530
9.70670,58503
9.71483,57489
9.72295,54224
9.73107,53759
9.73920,57993
9.74732,53626
9.75543,55853
9.76357,55457
9.77168,57417
9.77982,53654
9.78793,51980
9.79605,53780
9.80418,57518
9.81230,52804
9.82043,52688
9.82855,50423
9.83667,53658
9.84480,54210
9.85292,53247
9.86103,53220
9.86917,55955
9.87728,59394
9.88542,58557
9.89353,61510
9.90165,64674
9.90978,59810
9.91790,62074
9.92603,69874
9.93415,92658
9.94227,108340
9.95040,139621
9.95852,164959
9.96665,165951
9.97477,157299
9.98288,128971
9.99102,104624
9.99913,94938
10.00725,88163
10.01538,86880
10.02350,77005
10.03163,77166
10.03975,67554
10.04787,64279
10.05600,62477
10.06412,58664
10.07225,61607
10.08037,60238
10.08848,64079
10.09662,60786
10.10473,65447
10.11287,71268
10.12098,66885
10.12910,62814
10.13723,61394
10.14535,62243
10.15347,59026
10.16160,58720
10.16972,57801
10.17785,58240
10.18597,58193
10.19408,53410
10.20222,60961
10.21033,58205
10.21847,57671
10.22658,58276
10.23470,63499
10.24283,68396
10.25095,67985
10.25907,80291
10.26720,121799
10.27532,223713
10.28345,493365
10.29157,1002488
10.29968,1688232
10.30782,2436163
10.31593,3263329
10.32407,4609458
10.33218,6613736
10.34030,8528569
10.34843,9701749
10.35655,9005078
10.36468,7147983
10.37280,5145321
10.38092,3665512
10.38905,2444117
10.39717,1559050
10.40528,986694
10.41342,651018
10.42153,458476
10.42967,353118
10.43778,319121
10.44590,322007
10.45403,337576
10.46215,345733
10.47028,348039
10.47840,343142
10.48652,313770
10.49465,284631
10.50277,262286
10.51088,240938
10.51902,234834
10.52713,210878
10.53527,206290
10.54338,195238
10.55150,186042
10.55963,179229
10.56775,172834
10.57588,176744
10.58400,170836
10.59212,169862
10.60025,156278
10.60837,153128
10.61650,147811
10.62462,137671
10.63273,130095
10.64087,134049
10.64898,123294
10.65710,115630
10.66523,117311
10.67335,118568
10.68148,113418
10.68960,114493
10.69772,114729
10.70585,114321
10.71397,111967
10.72210,113119
10.73022,112354
10.73833,113235
10.74647,109017
10.75458,107640
10.76272,100547
10.77083,92650
10.77895,94296
10.78708,96845
10.79520,99746
10.80332,107725
10.81145,113231
10.81957,123691
10.82770,110507
10.83582,100503
10.84393,99055
10.85207,85111
10.86018,77732
10.86832,76861
10.87643,80296
10.88455,82801
10.89268,80069
10.90080,73508
10.90892,75756
10.91705,79102
10.92517,80233
10.93330,79786
10.94142,73062
10.94953,75546
10.95767,71491
10.96578,71763
10.97392,76889
10.98203,81277
10.99015,84042
10.99828,95752
11.00640,98778
11.01453,94771
11.02265,87550
11.03077,79629
11.03890,75551
11.04702,75035
11.05513,68482
11.06327,74746
11.07138,81049
11.07952,89569
11.08763,97800
11.09575,98241
11.10388,98420
11.11200,93905
11.12013,82896
11.12825,74836
11.13637,68468
11.14450,62231
11.15262,63738
11.16075,67295
11.16887,68285
11.17698,68204
11.18512,68852
11.19323,73916
11.20135,75889
11.20948,70191
11.21760,72821
11.22573,63622
11.23385,62941
11.24197,59704
11.25010,53127
11.25822,52602
11.26635,50836
11.27447,56762
11.28258,62436
11.29072,78344
11.29883,140205
11.30695,298433
11.31508,629393
11.32320,1241175
11.33133,2008696
11.33945,2691194
11.34757,2969563
11.35570,2675832
11.36382,2086690
11.37195,1446418
11.38007,888748
11.38818,552637
11.39632,379355
11.40443,316498
11.41257,304301
11.42068,303811
11.42880,296673
11.43693,297287
11.44505,262011
11.45317,231288
11.46130,222118
11.46942,198675
11.47755,210046
11.48567,225504
11.49378,270164
11.50192,303416
11.51003,310207
11.51817,286300
11.52628,244592
11.53440,197611
11.54253,176476
11.55065,165248
11.55877,158516
11.56690,164890
11.57502,154439
11.58315,147537
11.59127,141230
11.59938,136265
11.60752,143948
11.61563,156566
11.62377,170091
11.63188,176886
11.64000,164743
11.64813,135349
11.65625,123049
11.66438,111807
11.67250,97319
11.68062,101966
11.68875,104451
11.69687,109250
11.70498,112444
11.71312,106096
11.72123,102113
11.72937,92947
11.73748,84095
11.74560,86919
11.75373,78224
11.76185,79696
11.76998,77706
11.77810,77668
11.78622,80521
11.79435,69056
11.80247,67285
11.81060,66961
11.81872,67451
11.82683,63215
11.83497,67251
11.84308,68350
11.85120,68779
11.85933,72823
11.86745,69206
11.87558,69258
11.88370,70093
11.89182,65686
11.89995,64822
11.90807,61784
11.91620,62021
11.92432,66062
11.93243,66527
11.94057,68633
11.94868,63072
11.95680,62929
11.96493,58990
11.97305,58839
11.98118,59303
11.98930,71578
11.99742,105632
12.00555,141279
12.01367,186393
12.02180,195232
12.02992,180454
12.03803,154453
12.04617,125490
12.05428,101830
12.06242,87115
12.07053,93438
12.07865,96393
12.08678,107836
12.09490,112964
12.10302,116372
12.11115,125443
12.11927,144027
12.12740,160429
12.13552,165852
12.14363,163400
12.15177,150036
12.15988,118947
12.16802,88507
12.17613,73626
12.18425,64209
12.19238,67036
12.20050,64726
12.20863,62446
12.21675,67831
12.22487,66077
12.23300,67769
12.24112,64002
12.24923,68962
12.25737,71314
12.26548,70278
12.27362,66384
12.28173,63665
12.28985,65586
12.29798,59948
12.30610,57194
12.31423,54750
12.32235,55113
12.33047,53778
12.33860,56304
12.34672,54957
12.35483,53662
12.36297,53251
12.37108,56573
12.37922,60129
12.38733,51565
12.39545,55290
12.40358,65347
12.41170,80159
12.41983,101429
12.42795,119094
12.43607,134667
12.44420,133717
12.45232,118157
12.46045,99718
12.46857,90789
12.47668,80926
12.48482,74504
12.49293,75603
12.50105,70800
12.50918,70772
12.51730,73665
12.52543,65577
12.53355,68331
12.54167,74508
12.54980,86434
12.55792,102395
12.56605,130422
12.57417,155025
12.58228,153844
12.59042,136344
12.59853,118878
12.60667,96939
12.61478,85518
12.62290,78775
12.63103,71144
12.63915,67695
12.64727,72664
12.65540,64792
12.66352,60088
12.67165,59156
12.67977,58745
12.68788,61892
12.69602,52192
12.70413,57765
12.71227,56865
12.72038,56370
12.72850,61089
12.73663,62189
12.74475,64027
12.75287,64956
12.76100,59907
12.76912,52097
12.77725,54738
12.78537,51092
12.79348,54141
12.80162,49946
12.80973,47068
12.81787,45930
12.82598,46697
12.83410,50469
12.84223,45517
12.85035,38103
12.85848,42585
12.86660,49716
12.87472,45535
12.88285,47813
12.89097,44516
12.89908,42095
12.90722,43964
12.91533,41481
12.92347,43162
12.93158,42406
12.93970,41335
12.94783,42226
12.95595,45983
12.96408,55985
12.97220,65009
12.98032,78624
12.98845,93743
12.99657,101562
13.00468,100730
13.01282,89980
13.02093,73350
13.02907,65688
13.03718,60089
13.04530,58806
13.05343,52682
13.06155,51179
13.06968,47250
13.07780,48942
13.08592,50585
13.09405,46907
13.10217,49247
13.11030,51498
13.11842,45153
13.12653,46997
13.13467,43709
13.14278,45590
13.15090,44731
13.15903,47216
13.16715,45610
13.17528,42959
13.18340,52546
13.19152,50139
13.19965,54583
13.20777,50318
13.21590,52354
13.22402,57790
13.23213,57514
13.24027,56710
13.24838,54056
13.25652,51058
13.26463,48861
13.27275,50087
13.28088,46882
13.28900,47753
13.29712,46085
13.30525,44429
13.31337,41855
13.32150,41230
13.32962,41159
13.33773,46189
13.34587,49250
13.35398,44468
13.36212,45249
13.37023,46137
13.37835,44277
13.38648,42420
13.39460,39683
13.40272,40343
13.41085,37556
13.41897,42824
13.42710,42442
13.43522,42266
13.44333,42779
13.45147,47977
13.45958,47199
13.46772,50058
13.47583,50255
13.48395,48400
13.49208,45685
13.50020,47382
13.50833,43163
13.51645,42899
13.52457,42312
13.53270,44897
13.54082,44426
13.54893,43853
13.55707,44525
13.56518,45381
13.57332,50012
13.58143,51439
13.58955,53923
13.59768,63606
13.60580,77864
13.61393,98644
13.62205,125714
13.63017,143968
13.63830,149474
13.64642,132071
13.65455,105633
13.66267,78605
13.67078,64157
13.67892,54337
13.68703,52377
13.69515,55636
13.70328,50759
13.71140,47567
13.71953,48294
13.72765,47050
13.73577,59668
13.74390,96441
13.75202,190806
13.76015,382465
13.76827,728242
13.77638,1128363
13.78452,1390838
13.79263,1436348
13.80075,1236530
13.80888,989243
13.81700,854402
13.82513,800639
13.83325,821088
13.84137,830140
13.84950,762569
13.85762,635930
13.86575,508771
13.87387,393840
13.88198,309814
13.89012,259586
13.89823,222002
13.90637,198311
13.91448,174918
13.92260,157394
13.93073,142471
13.93885,136842
13.94697,125885
13.95510,127454
13.96322,116589
13.97135,120990
13.97947,128091
13.98758,137353
13.99572,123890
14.00383,124038
14.01197,117402
14.02008,112550
14.02820,107336
14.03633,105188
14.04445,101257
14.05257,100460
14.06070,99328
14.06882,94754
14.07695,98708
14.08507,101189
14.09318,90287
14.10132,91358
14.10943,95493
14.11757,89249
14.12568,93702
14.13380,97081
14.14193,94805
14.15005,102264
14.15818,107054
14.16630,107747
14.17442,122983
14.18255,149663
14.19067,207692
14.19878,283316
14.20692,358336
14.21503,378510
14.22317,377998
14.23128,323494
14.23940,288502
14.24753,265393
14.25565,235757
14.26378,220808
14.27190,196546
14.28002,182837
14.28815,165607
14.29627,147674
14.30440,141094
14.31252,133888
14.32063,125083
14.32877,119103
14.33688,120102
14.34500,111657
14.35313,98951
14.36125,93862
14.36938,79765
14.37750,69510
14.38562,70840
14.39375,81487
14.40187,111342
14.41000,179548
14.41812,261944
14.42623,346298
14.43437,380570
14.44248,348433
14.45062,268339
14.45873,202273
14.46685,141796
14.47498,127631
14.48310,117758
14.49122,105353
14.49935,101062
14.50747,88463
14.51560,96070
14.52372,87820
14.53183,85963
14.53997,84759
14.54808,79578
14.55622,77143
14.56433,70122
14.57245,66865
14.58058,68324
14.58870,66998
14.59682,60859
14.60495,59151
14.61307,59302
14.62120,54256
14.62932,57613
14.63743,56301
14.64557,50964
14.65368,54822
14.66182,54902
14.66993,54885
14.67805,58312
14.68618,56695
14.69430,53232
14.70243,51747
14.71055,54500
14.71867,53416
14.72680,56272
14.73492,62778
14.74303,65128
14.75117,63123
14.75928,63387
14.76742,66777
14.77553,67407
14.78365,70801
14.79178,90893
14.79990,164346
14.80803,384475
14.81615,844044
14.82427,1596688
14.83240,2346537
14.84052,2709951
14.84863,2564664
14.85677,2023635
14.86488,1312967
14.87302,798542
14.88113,511215
14.88925,354728
14.89738,287578
14.90550,240337
14.91363,218304
14.92175,201945
14.92987,191382
14.93800,168703
14.94612,158123
14.95425,151005
14.96237,137402
14.97048,132151
14.97862,121353
14.98673,116837
14.99485,111155
15.00298,114808
15.01110,111823
15.01923,109773
15.02735,114444
15.03547,109742
15.04360,100392
15.05172,105816
15.05985,96827
15.06797,95346
15.07608,88757
15.08422,90539
15.09233,86807
15.10047,78017
15.10858,82879
15.11670,81361
15.12483,79915
15.13295,82554
15.14107,86550
15.14920,91908
15.15732,90103
15.16545,87311
15.17357,77878
15.18168,73252
15.18982,70461
15.19793,59751
15.20607,59821
15.21418,59247
15.22230,56590
15.23043,59197
15.23855,58299
15.24667,56938
15.25480,57457
15.26292,52991
15.27105,53323
15.27917,52465
15.28728,51904
15.29542,49805
15.30353,48328
15.31167,46793
15.31978,49496
15.32790,46030
15.33603,46083
15.34415,49289
15.35228,45878
15.36040,47570
15.36852,43181
15.37665,46815
15.38477,43760
15.39288,48868
15.40102,44005
15.40913,43220
15.41727,49004
15.42538,52159
15.43350,53516
15.44163,51355
15.44975,57534
15.45788,59419
15.46600,86868
15.47412,149425
15.48225,236608
15.49037,357000
15.49850,475326
15.50662,541647
15.51473,561010
15.52287,513784
15.53098,493049
15.53910,498751
15.54723,517283
15.55535,510229
15.56348,452877
15.57160,354401
15.57972,253446
15.58785,176924
15.59597,138002
15.60410,104332
15.61222,91275
15.62033,87459
15.62847,79776
15.63658,77105
15.64470,72539
15.65283,74008
15.66095,74741
15.66908,67064
15.67720,66772
15.68532,63081
15.69345,63508
15.70157,59176
15.70970,55774
15.71782,55928
15.72593,60567
15.73407,57784
15.74218,57756
15.75032,61607
15.75843,80906
15.76655,104662
15.77468,147489
15.78280,205370
15.79092,266689
15.79905,291003
15.80717,264164
15.81530,208791
15.82342,157072
15.83153,119746
15.83967,101564
15.84778,87505
15.85592,79881
15.86403,73744
15.87215,76313
15.88028,68068
15.88840,68990
15.89652,67225
15.90465,68393
15.91277,68404
15.92090,63454
15.92902,58110
15.93713,60316
15.94527,64094
15.95338,74520
15.96152,82220
15.96963,96604
15.97775,101855
15.98588,111965
15.99400,116257
16.00213,103387
16.01025,101868
16.01837,90093
16.02650,91807
16.03462,87422
16.04273,84449
16.05087,78411
16.05898,70478
16.06712,67172
16.07523,67104
16.08335,61579
16.09148,55317
16.09960,60210
16.10773,56730
16.11585,62735
16.12397,66652
16.13210,70199
16.14022,81805
16.14835,82307
16.15647,78900
16.16458,73955
16.17272,77561
16.18083,69729
16.18895,66643
16.19708,61513
16.20520,59325
16.21333,61117
16.22145,59306
16.22957,60399
16.23770,56770
16.24582,53659
16.25395,54085
16.26207,57919
16.27018,59001
16.27832,62233
16.28643,63600
16.29455,71176
16.30268,74081
16.31080,77308
16.31893,75315
16.32705,70927
16.33517,70296
16.34330,61103
16.35142,68910
16.35955,78191
16.36767,93575
16.37578,99683
16.38392,108435
16.39203,100978
16.40017,103320
16.40828,85702
16.41640,72109
16.42453,66411
16.43265,62018
16.44077,64278
16.44890,73227
16.45702,100403
16.46515,152521
16.47327,241983
16.48138,327273
16.48952,386601
16.49763,377512
16.50577,290081
16.51388,211428
16.52200,160497
16.53013,118063
16.53825,95222
16.54638,85920
16.55450,78932
16.56262,74168
16.57075,73293
16.57887,71307
16.58698,81040
16.59512,88719
16.60323,92112
16.61137,104651
16.61948,118216
16.62760,112248
16.63573,100729
16.64385,94299
16.65198,83130
16.66010,77084
16.66822,68772
16.67635,65275
16.68447,62639
16.69258,61771
16.70072,62445
16.70883,62156
16.71697,60450
16.72508,58431
16.73320,57568
16.74133,63039
16.74945,58923
16.75758,55664
16.76570,59957
16.77382,55195
16.78195,53261
16.79007,58292
16.79820,54622
16.80632,51521
16.81443,51703
16.82257,51650
16.83068,48955
16.83880,49053
16.84693,47650
16.85505,50988
16.86318,49811
16.87130,48836
16.87942,51257
16.88755,49743
16.89567,44248
16.90380,47493
16.91192,44804
16.92003,47149
16.92817,45264
16.93628,50197
16.94440,45776
16.95253,45919
16.96065,49241
16.96878,47265
16.97690,44773
16.98502,44376
16.99315,48319
17.00127,48905
17.00940,53131
17.01752,49686
17.02563,50657
17.03377,56792
17.04188,57405
17.05002,56860
17.05813,59031
17.06625,56567
17.07438,54256
17.08250,53600
17.09062,51541
17.09875,52614
17.10687,55993
17.11500,56896
17.12312,58137
17.13123,58461
17.13937,56601
17.14748,63186
17.15562,63652
17.16373,62810
17.17185,58084
17.17998,59432
17.18810,59465
17.19623,58501
17.20435,48900
17.21247,49439
17.22060,48549
17.22872,45288
17.23683,46120
17.24497,50693
17.25308,47994
17.26122,46757
17.26933,48384
17.27745,50173
17.28558,47349
17.29370,51450
17.30183,46574
17.30995,50498
17.31807,55037
17.32620,59481
17.33432,65728
17.34243,74505
17.35057,77207
17.35868,82176
17.36682,75403
17.37493,73275
17.38305,71018
17.39118,66347
17.39930,74702
17.40743,73123
17.41555,79234
17.42367,84707
17.43180,78601
17.43992,81872
17.44805,75732
17.45617,77496
17.46428,67135
17.47242,67763
17.48053,56850
17.48865,52098
17.49678,53305
17.50490,57655
17.51303,54767
17.52115,50738
17.52927,51389
17.53740,52826
17.54552,54154
17.55365,58684
17.56177,70811
17.56988,105239
17.57802,173220
17.58613,297148
17.59427,475285
17.60238,699862
17.61050,870856
17.61863,895686
17.62675,786430
17.63487,582691
17.64300,428345
17.65112,298685
17.65925,228182
17.66737,184048
17.67548,162423
17.68362,147039
17.69173,130207
17.69987,118605
17.70798,117182
17.71610,112971
17.72423,106964
17.73235,104436
17.74047,99636
17.74860,101459
17.75672,91702
17.76485,89806
17.77297,83447
17.78108,78017
17.78922,75411
17.79733,80823
17.80547,80631
17.81358,96342
17.82170,108828
17.82983,121155
17.83795,127018
17.84608,133550
17.85420,125726
17.86232,120496
17.87045,116229
17.87857,108792
17.88668,97929
17.89482,89711
17.90293,78053
17.91107,71571
17.91918,68433
17.92730,70685
17.93543,63812
17.94355,61559
17.95168,60906
17.95980,58203
17.96792,57406
17.97605,56249
17.98417,56336
17.99230,53664
18.00042,56366
18.00853,58353
18.01667,62929
18.02478,75460
18.03290,85863
18.04103,100772
18.04915,116261
18.05728,150948
18.06540,260775
18.07352,506871
18.08165,895995
18.08977,1353734
18.09790,1696576
18.10602,1771954
18.11413,1511097
18.12227,1188316
18.13038,828886
18.13850,601659
18.14663,448606
18.15475,383113
18.16288,335932
18.17100,294292
18.17912,263622
18.18725,236753
18.19537,225960
18.20350,203657
18.21162,187592
18.21973,182821
18.22787,165968
18.23598,148834
18.24412,141492
18.25223,136604
18.26035,133947
18.26848,121870
18.27660,111676
18.28472,97066
18.29285,82942
18.30097,75732
18.30910,68077
18.31722,65721
18.32533,62042
18.33347,61022
18.34158,60629
18.34972,57259
18.35783,55402
18.36595,60081
18.37408,57911
18.38220,59990
18.39032,62008
18.39845,61239
18.40657,65476
18.41470,72369
18.42282,80041
18.43093,99036
18.43907,122444
18.44718,138050
18.45532,167623
18.46343,192977
18.47155,226762
18.47968,267852
18.48780,281869
18.49593,273163
18.50405,244179
18.51217,191920
18.52030,155185
18.52842,124013
18.53653,106515
18.54467,90342
18.55278,80481
18.56092,75173
18.56903,77023
18.57715,67862
18.58528,71198
18.59340,74801
18.60153,77427
18.60965,92895
18.61777,98958
18.62590,104668
18.63402,110422
18.64215,107387
18.65027,98655
18.65838,90250
18.66652,85696
18.67463,72990
18.68275,68523
18.69088,68877
18.69900,71544
18.70713,69628
18.71525,91943
18.72337,109895
18.73150,122899
18.73962,136525
18.74775,140468
18.75587,140264
18.76398,151099
18.77212,149471
18.78023,152697
18.78835,155768
18.79648,156759
18.80460,161065
18.81273,161227
18.82085,166747
18.82897,163621
18.83710,160254
18.84522,154141
18.85335,156860
18.86147,166272
18.86958,167665
18.87772,167927
18.88583,166879
18.89397,168148
18.90208,162367
18.91020,159490
18.91833,167375
18.92645,164903
18.93457,157812
18.94270,162905
18.95082,165915
18.95895,161760
18.96707,162597
18.97518,160892
18.98332,165917
18.99143,155793
18.99957,152676
19.00768,159049
19.01580,148193
19.02393,146509
19.03205,148655
19.04018,144601
19.04830,150270
19.05642,150790
19.06455,190009
19.07267,267229
19.08078,451531
19.08892,811945
19.09703,1237714
19.10517,1637562
19.11328,1803930
19.12140,1662523
19.12953,1363563
19.13765,976184
19.14578,675993
19.15390,467836
19.16202,330770
19.17015,271255
19.17827,242261
19.18638,219738
19.19452,200239
19.20263,181781
19.21077,173468
19.21888,169325
19.22700,163659
19.23513,153502
19.24325,144250
19.25138,142147
19.25950,132457
19.26762,135957
19.27575,131473
19.28387,140574
19.29200,146819
19.30012,143416
19.30823,150439
19.31637,141630
19.32448,139998
19.33260,136035
19.34073,138988
19.34885,138200
19.35698,149490
19.36510,169128
19.37322,181557
19.38135,201304
19.38947,192850
19.39760,179670
19.40572,172806
19.41383,147897
19.42197,137085
19.43008,136678
19.43820,126336
19.44633,121375
19.45445,120861
19.46258,125378
19.47070,123279
19.47882,137243
19.48695,168649
19.49507,219057
19.50320,275142
19.51132,333303
19.51943,354806
19.52757,327264
19.53568,270827
19.54382,221779
19.55193,182444
19.56005,157857
19.56818,136998
19.57630,129891
19.58442,128158
19.59255,116686
19.60067,112161
19.60880,104927
19.61692,103988
19.62503,108289
19.63317,112143
19.64128,147082
19.64942,183235
19.65753,250596
19.66565,322406
19.67378,395530
19.68190,438032
19.69003,441860
19.69815,406117
19.70627,358636
19.71440,304433
19.72252,263144
19.73063,231114
19.73877,208100
19.74688,191509
19.75502,172366
19.76313,167893
19.77125,170804
19.77938,186446
19.78750,207363
19.79563,232062
19.80375,242892
19.81187,251788
19.82000,241778
19.82812,207219
19.83623,178835
19.84437,166302
19.85248,212037
19.86062,403608
19.86873,938221
19.87685,2076589
19.88498,3934990
19.89310,6105881
19.90123,8089729
19.90935,8731403
19.91747,8018769
19.92560,6237078
19.93372,4242036
19.94185,2807354
19.94997,1909077
19.95808,1418387
19.96622,1139251
19.97433,969054
19.98245,853729
19.99058,793893
19.99870,738623
20.00683,692188
20.01495,633600
20.02307,601238
20.03120,562835
20.03932,521589
20.04745,478670
20.05557,421512
20.06368,395520
20.07182,374773
20.07993,373521
20.08807,383076
20.09618,363413
20.10430,340763
20.11243,305360
20.12055,256548
20.12867,223813
20.13680,208704
20.14492,226295
20.15305,283742
20.16117,387905
20.16928,551619
20.17742,758265
20.18553,973121
20.19367,1125055
20.20178,1159944
20.20990,1123311
20.21803,1016701
20.22615,845803
20.23427,707521
20.24240,638522
20.25052,637048
20.25865,710995
20.26677,800728
20.27488,903093
20.28302,942736
20.29113,915547
20.29927,814532
20.30738,674563
20.31550,551060
20.32363,423164
20.33175,334233
20.33988,262406
20.34800,211532
20.35612,185304
20.36425,160849
20.37237,142642
20.38048,133349
20.38862,124714
20.39673,114627
20.40487,112432
20.41298,108659
20.42110,112604
20.42923,122800
20.43735,130106
20.44548,130229
20.45360,136080
20.46172,131371
20.46985,119965
20.47797,121445
20.48608,107471
20.49422,106391
20.50233,93615
20.51047,95086
20.51858,89609
20.52670,86161
20.53483,84884
20.54295,79658
20.55108,83620
20.55920,83832
20.56732,82717
20.57545,78967
20.58357,81340
20.59170,77263
20.59982,76686
20.60793,74757
20.61607,79342
20.62418,80469
20.63230,82497
20.64043,91168
20.64855,96636
20.65668,88413
20.66480,92120
20.67292,90437
20.68105,82007
20.68917,80867
20.69730,77655
20.70542,72341
20.71353,72098
20.72167,67145
20.72978,70878
20.73792,69958
20.74603,74678
20.75415,81809
20.76228,83465
20.77040,86964
20.77852,105258
20.78665,139592
20.79477,221830
20.80290,337909
20.81102,518078
20.81913,667084
20.82727,713130
20.83538,637360
20.84352,489568
20.85163,339841
20.85975,226587
20.86788,158621
20.87600,126012
20.88413,111285
20.89225,107920
20.90037,107949
20.90850,109549
20.91662,117375
20.92473,118031
20.93287,127388
20.94098,126284
20.94912,127148
20.95723,120527
20.96535,114318
20.97348,105121
20.98160,96505
20.98973,90600
20.99785,83116
21.00597,82156
21.01410,87424
21.02222,85888
21.03033,85467
21.03847,89287
21.04658,86909
21.05472,81904
21.06283,82343
21.07095,76019
21.07908,72033
21.08720,75183
21.09533,72071
21.10345,73582
21.11157,68362
21.11970,68356
21.12782,73160
21.13595,82418
21.14407,103962
21.15218,134694
21.16032,160926
21.16843,173039
21.17655,166141
21.18468,149690
21.19280,133407
21.20093,111986
21.20905,97288
21.21717,84076
21.22530,81097
21.23342,75694
21.24155,78065
21.24967,73436
21.25778,74772
21.26592,75990
21.27403,73780
21.28215,70001
21.29028,69472
21.29840,69110
21.30653,68384
21.31465,66216
21.32277,62277
21.33090,60427
21.33902,61746
21.34715,62704
21.35527,61285
21.36338,59876
21.37152,64603
21.37963,66075
21.38777,73504
21.39588,79631
21.40400,90148
21.41213,97288
21.42025,99822
21.42837,98098
21.43650,87148
21.44462,80939
21.45275,73725
21.46087,69283
21.46898,69773
21.47712,64261
21.48523,63900
21.49337,66911
21.50148,60870
21.50960,62107
21.51773,56190
21.52585,63380
21.53398,62114
21.54210,62539
21.55022,62351
21.55835,56672
21.56647,63386
21.57458,68511
21.58272,68694
21.59083,74187
21.59897,79416
21.60708,85404
21.61520,85125
21.62333,87387
21.63145,97713
21.63958,110885
21.64770,110572
21.65582,119192
21.66395,115270
21.67207,116365
21.68018,115950
21.68832,112081
21.69643,106072
21.70457,95053
21.71268,85895
21.72080,83316
21.72893,73641
21.73705,68149
21.74518,66635
21.75330,64784
21.76142,65835
21.76955,68994
21.77767,70765
21.78580,66330
21.79392,70550
21.80203,69863
21.81017,76351
21.81828,78263
21.82640,87931
21.83453,92228
21.84265,101401
21.85078,99264
21.85890,95063
21.86702,84546
21.87515,84776
21.88327,81248
21.89140,73417
21.89952,66330
21.90763,65060
21.91577,65459
21.92388,64340
21.93202,65027
21.94013,63137
21.94825,61683
21.95638,56930
21.96450,54996
21.97262,54084
21.98075,56305
21.98887,53321
21.99700,51800
22.00512,51306
22.01323,56148
22.02137,60140
22.02948,53915
22.03762,60259
22.04573,56074
22.05385,57893
22.06198,58029
22.07010,63757
22.07822,63681
22.08635,69280
22.09447,75655
22.10260,76775
22.11072,76909
22.11883,76233
22.12697,75494
22.13508,79204
22.14322,73432
22.15133,79630
22.15945,80866
22.16758,81531
22.17570,78289
22.18383,77909
22.19195,75784
22.20007,72829
22.20820,82227
22.21632,86272
22.22443,87493
22.23257,84304
22.24068,86713
22.24882,86474
22.25693,87822
22.26505,86715
22.27318,87213
22.28130,98381
22.28943,102341
22.29755,99696
22.30567,99305
22.31380,90475
22.32192,87977
22.33003,85468
22.33817,77975
22.34628,77448
22.35442,80647
22.36253,71322
22.37065,67006
22.37878,68783
22.38690,83849
22.39503,97743
22.40315,121297
22.41127,154425
22.41940,174549
22.42752,192517
22.43565,180577
22.44377,161744
22.45188,130828
22.46002,113413
22.46813,99066
22.47625,94708
22.48438,111769
22.49250,118396
22.50063,129621
22.50875,139008
22.51687,144519
22.52500,139887
22.53312,123282
22.54125,112290
22.54937,101390
22.55748,90272
22.56562,80447
22.57373,77709
22.58187,71793
22.58998,70320
22.59810,69271
22.60623,83118
22.61435,93719
22.62247,102963
22.63060,109514
22.63872,114088
22.64685,118314
22.65497,124581
22.66308,125926
22.67122,126610
22.67933,134020
22.68747,137943
22.69558,142540
22.70370,149177
22.71183,161058
22.71995,168806
22.72807,172672
22.73620,161072
22.74432,148049
22.75245,142630
22.76057,142777
22.76868,134443
22.77682,139306
22.78493,145775
22.79307,155922
22.80118,162661
22.80930,174101
22.81743,178081
22.82555,172116
22.83368,175261
22.84180,159081
22.84992,156156
22.85805,156941
22.86617,166914
22.87428,178224
22.88242,201386
22.89053,219603
22.89867,239710
22.90678,247757
22.91490,257964
22.92303,280939
22.93115,280280
22.93928,275156
22.94740,255496
22.95552,218336
22.96365,195937
22.97177,166085
22.97990,158129
22.98802,148786
22.99613,139287
23.00427,128502
23.01238,125523
23.02050,116842
23.02863,112957
23.03675,109443
23.04488,108315
23.05300,111927
23.06112,112992
23.06925,113001
23.07737,110390
23.08550,110189
23.09362,115644
23.10173,117655
23.10987,112370
23.11798,96686
23.12610,98760
23.13423,97091
23.14235,95215
23.15048,92477
23.15860,96388
23.16672,90207
23.17485,89133
23.18297,83840
23.19110,88456
23.19922,90070
23.20733,89578
23.21547,87836
23.22358,85389
23.23172,86794
23.23983,88188
23.24795,90319
23.25608,92292
23.26420,93603
23.27232,95583
23.28045,104592
23.28857,95899
23.29670,91094
23.30482,90687
23.31293,85787
23.32107,89274
23.32918,102380
23.33732,109922
23.34543,128625
23.35355,147568
23.36168,175077
23.36980,203848
23.37793,201684
23.38605,209036
23.39417,199319
23.40230,191464
23.41042,176922
23.41853,175687
23.42667,169041
23.43478,162533
23.44292,152691
23.45103,144700
23.45915,135886
23.46728,132711
23.47540,127806
23.48353,120408
23.49165,120910
23.49977,119513
23.50790,111230
23.51602,112846
23.52413,107335
23.53227,103660
23.54038,110091
23.54852,112795
23.55663,123500
23.56475,137896
23.57288,163024
23.58100,212898
23.58913,271520
23.59725,334239
23.60537,379062
23.61350,384244
23.62162,349074
23.62975,289599
23.63787,241182
23.64598,207968
23.65412,202368
23.66223,202787
23.67035,200841
23.67848,186250
23.68660,169021
23.69473,147004
23.70285,126343
23.71097,106202
23.71910,103931
23.72722,91956
23.73535,96340
23.74347,126382
23.75158,248362
23.75972,562541
23.76783,1213323
23.77595,2373479
23.78408,3679315
23.79220,4442316
23.80033,4599352
23.80845,4415704
23.81657,3664005
23.82470,2833929
23.83282,2038303
23.84095,1479853
23.84907,1121651
23.85718,881359
23.86532,722500
23.87343,623183
23.88157,527558
23.88968,470412
23.89780,442110
23.90593,400566
23.91405,374124
23.92217,339881
23.93030,330312
23.93842,296767
23.94655,275457
23.95467,266876
23.96278,242845
23.97092,228539
23.97903,216163
23.98717,204882
23.99528,204706
24.00340,195326
24.01153,199293
24.01965,216550
24.02778,235609
24.03590,266417
24.04402,246123
24.05215,250693
24.06027,217946
24.06838,184617
24.07652,167791
24.08463,158492
24.09277,145779
24.10088,137964
24.10900,143544
24.11713,137887
24.12525,142856
24.13338,152641
24.14150,160715
24.14962,160911
24.15775,161090
24.16587,160905
24.17398,156829
24.18212,159478
24.19023,156477
24.19837,159914
24.20648,163400
24.21460,157500
24.22273,152571
24.23085,138007
24.23898,131347
24.24710,127216
24.25522,112968
24.26335,108860
24.27147,104139
24.27960,101546
24.28772,101843
24.29583,97771
24.30397,98024
24.31208,98602
24.32020,99965
24.32833,100244
24.33645,95615
24.34458,100982
24.35270,110964
24.36082,123993
24.36895,147876
24.37707,176343
24.38520,221724
24.39332,251434
24.40143,280172
24.40957,288564
24.41768,280208
24.42582,243425
24.43393,215956
24.44205,195169
24.45018,198242
24.45830,197818
24.46642,218558
24.47455,239302
24.48267,258966
24.49080,268750
24.49892,289584
24.50703,299769
24.51517,294112
24.52328,298410
24.53142,314471
24.53953,336685
24.54765,358011
24.55578,385236
24.56390,396001
24.57202,378891
24.58015,350481
24.58827,297664
24.59640,250369
24.60452,226922
24.61263,202459
24.62077,197264
24.62888,189705
24.63702,178150
24.64513,181778
24.65325,172760
24.66138,179680
24.66950,182620
24.67763,175042
24.68575,177518
24.69387,174644
24.70200,171826
24.71012,171407
24.71823,167151
24.72637,162623
24.73448,165900
24.74262,155467
24.75073,157486
24.75885,160887
24.76698,155120
24.77510,163511
24.78323,163799
24.79135,172056
24.79947,168195
24.80760,169590
24.81572,172842
24.82383,179337
24.83197,188266
24.84008,217061
24.84822,262041
24.85633,315982
24.86445,380129
24.87258,478803
24.88070,596921
24.88883,689789
24.89695,734054
24.90507,696509
24.91320,597680
24.92132,461596
24.92945,357069
24.93757,281598
24.94568,218819
24.95382,196647
24.96193,169477
24.97005,163252
24.97818,156696
24.98630,154464
24.99443,151656
25.00255,148683
25.01067,136533
25.01880,138732
25.02692,138900
25.03505,136030
25.04317,134527
25.05128,134913
25.05942,131692
25.06753,130629
25.07567,130339
25.08378,129039
25.09190,144259
25.10003,188091
25.10815,321364
25.11627,591036
25.12440,1146708
25.13252,1880734
25.14065,2656492
25.14877,3193854
25.15688,3227625
25.16502,2776601
25.17313,2060748
25.18127,1318184
25.18938,796814
25.19750,482371
25.20563,299730
25.21375,218230
25.22188,175794
25.23000,152813
25.23812,169151
25.24625,195524
25.25437,240502
25.26248,290856
25.27062,340106
25.27873,355111
25.28687,339541
25.29498,283858
25.30310,232819
25.31123,183902
25.31935,149564
25.32748,123228
25.33560,118300
25.34372,108312
25.35185,96921
25.35997,95019
25.36808,87234
25.37622,87096
25.38433,88685
25.39247,78227
25.40058,79500
25.40870,73358
25.41683,78850
25.42495,72902
25.43308,79595
25.44120,77981
25.44932,79113
25.45745,75513
25.46557,81644
25.47370,82805
25.48182,88285
25.48993,80744
25.49807,80750
25.50618,77946
25.51430,74941
25.52243,77475
25.53055,74210
25.53868,70209
25.54680,78293
25.55492,88609
25.56305,110328
25.57117,135526
25.57930,157876
25.58742,169114
25.59553,178312
25.60367,184423
25.61178,188952
25.61990,184722
25.62803,203416
25.63615,188953
25.64428,194369
25.65240,199304
25.66052,199112
25.66865,201981
25.67677,209898
25.68490,208903
25.69302,203530
25.70113,217128
25.70927,203742
25.71738,205361
25.72552,198291
25.73363,185056
25.74175,183870
25.74988,190790
25.75800,183323
25.76612,186042
25.77425,179930
25.78237,188415
25.79050,188676
25.79862,186148
25.80673,184029
25.81487,190398
25.82298,178206
25.83112,187357
25.83923,190033
25.84735,182853
25.85548,173748
25.86360,180696
25.87173,179274
25.87985,166828
25.88797,166845
25.89610,163564
25.90422,160152
25.91233,158703
25.92047,152988
25.92858,153597
25.93672,155006
25.94483,156084
25.95295,150482
25.96108,149912
25.96920,149865
25.97733,139954
25.98545,138950
25.99357,139215
26.00170,136216
26.00982,134968
26.01793,131571
26.02607,128529
26.03418,128884
26.04232,131572
26.05043,133254
26.05855,128370
26.06668,126862
26.07480,129819
26.08293,131239
26.09105,131144
26.09917,132246
26.10730,127579
26.11542,132224
26.12355,132952
26.13167,125902
26.13978,130577
26.14792,123620
26.15603,128044
26.16415,129791
26.17228,128071
26.18040,122586
26.18853,126420
26.19665,117598
26.20477,116085
26.21290,114573
26.22102,107883
26.22915,104744
26.23727,105417
26.24538,108547
26.25352,103913
26.26163,107791
26.26977,99177
26.27788,98816
26.28600,100093
26.29413,95253
26.30225,93840
26.31037,97282
26.31850,98289
26.32662,95237
26.33475,84950
26.34287,91076
26.35098,99001
26.35912,127089
26.36723,156748
26.37537,207497
26.38348,280841
26.39160,358931
26.39973,408703
26.40785,405892
26.41597,360448
26.42410,307323
26.43222,248738
26.44035,176417
26.44847,149272
26.45658,123380
26.46472,110248
26.47283,95191
26.48097,98438
26.48908,92264
26.49720,98152
26.50533,85935
26.51345,84301
26.52158,79920
26.52970,77400
26.53782,79952
26.54595,76394
26.55407,77164
26.56218,70935
26.57032,74945
26.57843,66848
26.58657,68586
26.59468,71653
26.60280,73190
26.61093,67634
26.61905,68207
26.62718,70881
26.63530,76233
26.64342,72397
26.65155,70080
26.65967,74470
26.66778,75790
26.67592,79137
26.68403,76907
26.69217,80275
26.70028,75507
26.70840,70628
26.71653,69878
26.72465,69644
26.73278,71873
26.74090,72002
26.74902,75465
26.75715,73494
26.76527,71332
26.77340,71107
26.78152,76068
26.78963,77649
26.79777,79843
26.80588,79619
26.81400,81988
26.82213,78898
26.83025,78651
26.83838,75102
26.84650,68160
26.85462,67962
26.86275,67860
26.87087,74628
26.87900,65693
26.88712,68707
26.89523,73050
26.90337,67678
26.91148,64357
26.91962,65499
26.92773,73079
26.93585,67405
26.94398,70927
26.95210,68946
26.96022,83777
26.96835,102144
26.97647,142699
26.98460,224865
26.99272,373687
27.00083,617991
27.00897,909572
27.01708,1286681
27.02522,1581838
27.03333,1663104
27.04145,1617799
27.04958,1423519
27.05770,1137561
27.06582,897858
27.07395,710681
27.08207,567110
27.09020,442923
27.09832,400900
27.10643,335511
27.11457,296094
27.12268,270718
27.13082,251578
27.13893,225166
27.14705,220626
27.15518,207284
27.16330,198000
27.17143,213758
27.17955,209128
27.18767,210196
27.19580,201842
27.20392,192998
27.21203,180751
27.22017,170708
27.22828,150925
27.23642,143250
27.24453,140946
27.25265,130124
27.26078,129917
27.26890,119717
27.27703,119143
27.28515,123455
27.29327,112282
27.30140,113627
27.30952,116462
27.31765,111686
27.32577,110753
27.33388,100852
27.34202,107693
27.35013,109547
27.35825,106761
27.36638,102471
27.37450,101634
27.38263,100556
27.39075,94934
27.39887,92773
27.40700,94987
27.41512,91837
27.42325,91523
27.43137,95046
27.43948,89804
27.44762,95519
27.45573,85520
27.46385,83157
27.47198,80455
27.48010,80418
27.48823,78413
27.49635,80929
27.50447,83424
27.51260,88380
27.52072,93660
27.52885,90057
27.53697,91190
27.54508,91783
27.55322,82069
27.56133,83294
27.56947,82263
27.57758,84572
27.58570,94196
27.59383,104387
27.60195,111291
27.61007,121153
27.61820,115186
27.62632,109339
27.63445,97730
27.64257,91123
27.65068,86952
27.65882,88853
27.66693,92305
27.67507,99390
27.68318,107688
27.69130,114221
27.69943,116428
27.70755,115133
27.71567,94993
27.72380,91002
27.73192,86647
27.74005,75910
27.74817,75862
27.75628,67879
27.76442,70361
27.77253,73359
27.78067,70648
27.78878,70914
27.79690,70387
27.80503,71420
27.81315,68960
27.82128,70147
27.82940,68181
27.83752,69665
27.84565,67405
27.85377,68055
27.86188,62021
27.87002,65025
27.87813,64632
27.88627,65539
27.89438,64249
27.90250,61150
27.91063,64078
27.91875,63127
27.92688,60744
27.93500,60094
27.94312,61718
27.95125,57414
27.95937,60394
27.96750,55966
27.97562,59093
27.98373,63948
27.99187,65484
27.99998,65204
28.00810,77381
28.01623,99850
28.02435,118594
28.03248,149157
28.04060,197898
28.04872,229310
28.05685,237243
28.06497,220192
28.07310,186292
28.08122,145143
28.08933,119725
28.09747,102620
28.10558,89741
28.11370,82488
28.12183,75299
28.12995,71288
28.13808,68293
28.14620,67017
28.15432,61159
28.16245,66322
28.17057,66447
28.17870,69793
28.18682,73919
28.19493,86259
28.20307,90839
28.21118,98581
28.21932,108271
28.22743,109527
28.23555,109760
28.24368,93214
28.25180,88905
28.25992,82561
28.26805,77606
28.27617,68464
28.28430,70546
28.29242,69241
28.30053,80179
28.30867,100131
28.31678,112915
28.32492,136504
28.33303,168858
28.34115,206039
28.34928,245187
28.35740,281965
28.36553,328331
28.37365,353258
28.38177,368484
28.38990,378204
28.39802,365146
28.40613,366972
28.41427,345316
28.42238,319139
28.43052,296789
28.43863,270546
28.44675,249226
28.45488,230577
28.46300,208965
28.47113,195626
28.47925,185341
28.48737,175739
28.49550,169777
28.50362,159575
28.51173,148381
28.51987,152033
28.52798,133602
28.53612,131491
28.54423,121989
28.55235,113236
28.56048,104406
28.56860,99715
28.57673,101658
28.58485,98424
28.59297,101074
28.60110,93556
28.60922,96502
28.61735,103558
28.62547,103335
28.63358,98196
28.64172,102468
28.64983,93987
28.65795,103749
28.66608,94674
28.67420,96872
28.68233,94617
28.69045,92410
28.69857,89362
28.70670,82692
28.71482,79645
28.72295,76416
28.73107,80040
28.73918,81850
28.74732,91227
28.75543,96408
28.76357,110558
28.77168,121104
28.77980,115973
28.78793,114930
28.79605,100472
28.80417,101725
28.81230,94685
28.82042,92300
28.82855,85229
28.83667,81044
28.84478,81571
28.85292,81121
28.86103,75685
28.86917,78833
28.87728,83235
28.88540,85862
28.89353,90057
28.90165,94307
28.90977,93183
28.91790,88663
28.92602,88120
28.93415,84359
28.94227,83956
28.95038,78894
28.95852,82734
28.96663,78657
28.97477,76098
28.98288,74612
28.99100,71979
28.99913,71806
29.00725,67927
29.01538,71867
29.02350,65374
29.03162,64426
29.03975,62108
29.04787,65494
29.05598,65691
29.06412,63091
29.07223,64725
29.08037,68676
29.08848,71341
29.09660,69716
29.10473,64266
29.11285,63462
29.12098,63956
29.12910,66614
29.13722,68807
29.14535,57623
29.15347,56622
29.16158,61926
29.16972,63449
29.17783,61721
29.18597,70675
29.19408,75605
29.20220,89797
29.21033,104077
29.21845,111666
29.22658,114637
29.23470,121015
29.24282,130374
29.25095,157300
29.25907,177281
29.26720,190844
29.27532,187848
29.28343,165572
29.29157,147479
29.29968,109260
29.30780,94522
29.31593,76890
29.32405,71612
29.33218,62520
29.34030,65404
29.34842,60625
29.35655,62708
29.36467,62377
29.37280,60526
29.38092,59512
29.38903,60643
29.39717,60253
29.40528,63416
29.41342,61686
29.42153,68455
29.42965,67205
29.43778,71113
29.44590,68965
29.45402,62981
29.46215,65195
29.47027,62083
29.47840,59755
29.48652,65400
29.49463,68192
29.50277,69876
29.51088,67607
29.51902,64485
29.52713,65667
29.53525,68475
29.54338,58333
29.55150,61596
29.55962,56916
29.56775,54531
29.57587,53862
29.58400,54849
29.59212,52773
29.60023,57344
29.60837,54477
29.61648,49320
29.62462,56590
29.63273,52096
29.64085,50854
29.64898,55181
29.65710,47809
29.66523,51671
29.67335,54457
29.68147,59035
29.68960,59235
29.69772,63201
29.70583,60607
29.71397,64357
29.72208,63827
29.73022,59148
29.73833,62647
29.74645,62388
29.75458,57126
29.76270,55867
29.77083,51743
29.77895,53461
29.78707,47159
29.79520,47280
29.80332,48971
29.81145,48384
29.81957,49765
29.82768,46062
29.83582,49077
29.84393,49307
29.85205,50535
29.86018,47270
29.86830,53411
29.87643,56806
29.88455,67058
29.89267,73080
29.90080,80754
29.90892,84606
29.91705,83549
29.92517,82256
29.93328,72243
29.94142,69900
29.94953,72472
29.95765,77867
29.96578,88260
29.97390,102095
29.98203,116122
29.99015,130857
29.99827,148166
30.00640,165342
30.01452,173558
30.02265,179476
30.03077,172022
30.03888,177440
30.04702,183894
30.05513,187462
30.06327,186932
30.07138,176662
30.07950,171894
30.08763,168008
30.09575,159527
30.10387,156749
30.11200,153310
30.12012,152738
30.12825,139645
30.13637,136090
30.14448,128911
30.15262,122276
30.16073,115677
30.16887,118874
30.17698,109193
30.18510,112454
30.19323,117449
30.20135,115496
30.20947,116255
30.21760,112297
30.22572,103799
30.23385,92946
30.24197,86727
30.25008,87608
30.25822,82357
30.26633,75178
30.27447,74111
30.28258,73383
30.29070,73869
30.29883,72395
30.30695,70802
30.31508,74431
30.32320,70697
30.33132,64330
30.33945,71360
30.34757,67625
30.35568,67136
30.36382,68744
30.37193,68349
30.38007,62294
30.38818,62270
30.39630,64714
30.40443,60883
30.41255,61529
30.42068,62421
30.42880,61566
30.43692,58946
30.44505,60546
30.45317,55696
30.46130,57429
30.46942,60808
30.47753,57033
30.48567,56636
30.49378,55976
30.50190,59748
30.51003,57718
30.51815,58045
30.52628,54400
30.53440,57240
30.54252,57308
30.55065,57952
30.55877,55772
30.56690,54894
30.57502,55801
30.58313,57612
30.59127,52995
30.59938,57845
30.60752,57441
30.61563,57343
30.62375,55219
30.63188,54662
30.64000,52421
30.64812,53983
30.65625,51605
30.66437,50857
30.67250,58844
30.68062,50010
30.68873,54460
30.69687,50155
30.70498,53977
30.71312,49614
30.72123,57448
30.72935,51388
30.73748,56596
30.74560,57565
30.75372,56529
30.76185,60712
30.76997,59623
30.77810,68034
30.78622,71116
30.79433,86828
30.80247,95526
30.81058,106478
30.81872,104606
30.82683,100924
30.83495,90887
30.84308,79895
30.85120,73962
30.85933,70550
30.86745,73357
30.87557,71453
30.88370,75361
30.89182,86508
30.89993,78820
30.90807,81455
30.91618,80857
30.92432,77272
30.93243,72055
30.94055,71458
30.94868,70455
30.95680,70274
30.96493,70580
30.97305,72750
30.98117,69911
30.98930,69195
30.99742,70606
31.00553,71784
31.01367,70991
31.02178,65411
31.02992,73976
31.03803,72413
31.04615,68797
31.05428,75227
31.06240,75817
31.07053,72339
31.07865,78321
31.08677,80492
31.09490,93020
31.10302,97284
31.11115,97491
31.11927,98786
31.12738,90334
31.13552,87403
31.14363,77101
31.15175,79862
31.15988,79619
31.16800,79109
31.17613,84300
31.18425,106666
31.19237,120351
31.20050,158504
31.20862,197200
31.21675,244368
31.22487,274036
31.23298,291595
31.24112,259686
31.24923,214772
31.25737,166051
31.26548,119736
31.27360,95304
31.28173,85232
31.28985,74963
31.29797,69420
31.30610,67136
31.31422,68910
31.32235,70837
31.33047,66888
31.33858,67823
31.34672,62788
31.35483,63052
31.36297,70910
31.37108,68713
31.37920,67012
31.38733,59911
31.39545,66341
31.40357,69292
31.41170,68712
31.41982,65492
31.42795,65748
31.43607,64566
31.44418,64036
31.45232,58090
31.46043,62988
31.46857,62225
31.47668,60937
31.48480,59370
31.49293,63638
31.50105,60530
31.50918,64080
31.51730,67336
31.52542,74482
31.53355,71292
31.54167,70034
31.54978,69969
31.55792,68842
31.56603,67214
31.57417,64144
31.58228,60080
31.59040,60340
31.59853,60404
31.60665,59385
31.61478,57447
31.62290,57148
31.63102,56063
31.63915,59574
31.64727,57479
31.65540,66948
31.66352,63897
31.67163,67125
31.67977,64764
31.68788,64656
31.69600,63852
31.70413,58921
31.71225,58861
31.72038,55774
31.72850,56122
31.73662,61872
31.74475,57576
31.75287,57716
31.76100,55224
31.76912,55487
31.77723,56165
31.78537,54889
31.79348,58982
31.80160,56117
31.80973,57378
31.81785,53814
31.82598,56366
31.83410,58605
31.84222,56901
31.85035,57518
31.85847,59598
31.86660,64378
31.87472,64535
31.88283,67421
31.89097,71422
31.89908,76925
31.90722,87964
31.91533,91857
31.92345,100917
31.93158,113923
31.93970,122856
31.94782,134184
31.95595,133303
31.96407,141785
31.97220,151591
31.98032,154367
31.98843,148729
31.99657,155215
32.00468,152126
32.01282,144767
32.02093,142575
32.02905,134380
32.03718,127211
32.04530,126327
32.05342,116550
32.06155,113548
32.06967,117205
32.07780,109484
32.08592,104186
32.09403,93924
32.10217,91675
32.11028,89181
32.11842,81484
32.12653,81764
32.13465,79128
32.14278,73735
32.15090,70071
32.15903,74013
32.16715,68832
32.17527,72102
32.18340,69823
32.19152,72467
32.19963,75900
32.20777,74069
32.21588,70546
32.22402,59659
32.23213,64476
32.24025,62402
32.24838,67220
32.25650,64494
32.26463,65916
32.27275,63881
32.28087,67491
32.28900,62915
32.29712,61814
32.30525,59781
32.31337,58930
32.32148,60749
32.32962,56380
32.33773,59828
32.34585,64270
32.35398,62908
32.36210,63069
32.37023,62779
32.37835,62892
32.38647,63485
32.39460,55072
32.40272,57123
32.41085,57822
32.41897,59589
32.42708,60777
32.43522,57167
32.44333,54475
32.45145,56133
32.45958,52784
32.46770,57257
32.47583,55378
32.48395,57901
32.49207,54180
32.50020,52711
32.50832,51713
32.51645,50976
32.52457,56565
32.53268,56873
32.54082,54514
32.54893,56405
32.55707,55024
32.56518,54227
32.57330,52354
32.58143,52444
32.58955,53912
32.59767,52571
32.60580,53872
32.61392,51307
32.62205,52197
32.63017,54633
32.63828,58255
32.64642,65776
32.65453,71821
32.66267,76661
32.67078,81930
32.67890,79998
32.68703,75110
32.69515,68334
32.70328,68136
32.71140,58645
32.71952,58659
32.72765,57372
32.73577,58928
32.74388,57498
32.75202,55307
32.76013,53879
32.76827,53284
32.77638,52925
32.78450,51289
32.79263,49707
32.80075,53375
32.80888,48577
32.81700,49675
32.82512,53526
32.83325,50915
32.84137,52535
32.84948,48326
32.85762,54927
32.86573,57106
32.87387,58272
32.88198,64530
32.89010,66194
32.89823,72929
32.90635,74971
32.91448,79237
32.92260,78091
32.93072,71498
32.93885,66697
32.94697,57506
32.95510,59619
32.96322,54596
32.97133,58013
32.97947,58404
32.98758,66090
32.99570,67934
33.00383,74780
33.01195,70948
33.02008,71702
33.02820,69878
33.03632,63120
33.04445,60308
33.05257,61130
33.06070,61507
33.06882,67784
33.07693,70654
33.08507,80546
33.09318,82487
33.10130,89711
33.10943,92175
33.11755,94124
33.12568,95400
33.13380,87330
33.14192,75001
33.15005,72856
33.15817,66089
33.16630,63059
33.17442,57256
33.18253,56711
33.19067,58388
33.19878,57613
33.20692,60132
33.21503,61302
33.22315,61866
33.23128,61079
33.23940,53691
33.24752,54355
33.25565,56898
33.26377,57106
33.27190,58397
33.28002,55572
33.28813,55706
33.29627,54736
33.30438,54993
33.31252,54042
33.32063,56655
33.32875,56245
33.33688,54634
33.34500,59107
33.35313,62561
33.36125,60044
33.36937,60101
33.37750,61351
33.38562,55913
33.39373,58359
33.40187,56379
33.40998,54113
33.41812,47855
33.42623,47000
33.43435,49370
33.44248,49756
33.45060,45558
33.45873,49284
33.46685,50391
33.47497,50405
33.48310,47719
33.49122,51213
33.49933,56288
33.50747,53083
33.51558,53021
33.52372,49654
33.53183,59548
33.53995,57274
33.54808,55965
33.55620,59936
33.56433,55458
33.57245,61439
33.58057,57057
33.58870,52164
33.59682,51356
33.60495,50885
33.61307,49842
33.62118,49635
33.62932,54696
33.63743,51670
33.64555,51598
33.65368,54362
33.66180,55464
33.66993,56723
33.67805,55021
33.68617,51937
33.69430,52131
33.70242,52938
33.71055,50740
33.71867,50711
33.72678,48739
33.73492,50649
33.74303,48436
33.75117,51291
33.75928,52510
33.76740,46083
33.77553,46552
33.78365,45934
33.79177,48046
33.79990,49891
33.80802,51056
33.81615,53633
33.82427,51766
33.83238,50658
33.84052,49246
33.84863,52573
33.85677,56145
33.86488,55436
33.87300,56190
33.88113,61037
33.88925,57673
33.89737,60697
33.90550,61240
33.91362,66111
33.92175,65987
33.92987,56751
33.93798,55559
33.94612,58558
33.95423,52864
33.96237,49355
33.97048,47715
33.97860,50473
33.98673,50166
33.99485,48049
34.00298,50224
34.01110,54830
34.01922,48514
34.02735,45903
34.03547,53312
34.04358,49778
34.05172,55109
34.05983,48132
34.06797,52080
34.07608,53994
34.08420,45617
34.09233,51570
34.10045,52019
34.10858,48526
34.11670,48086
34.12482,53644
34.13295,51749
34.14107,50459
34.14920,52169
34.15732,54910
34.16543,55748
34.17357,52406
34.18168,50593
34.18980,52256
34.19793,52142
34.20605,51896
34.21418,47569
34.22230,53698
34.23042,49382
34.23855,52687
34.24667,50935
34.25480,51863
34.26292,49740
34.27103,50571
34.27917,53337
34.28728,54839
34.29540,49758
34.30353,55812
34.31165,51817
34.31978,54598
34.32790,56741
34.33602,55082
34.34415,56745
34.35227,53581
34.36040,51107
34.36852,56606
34.37663,50400
34.38477,50804
34.39288,53254
34.40102,50308
34.40913,53012
34.41725,55205
34.42538,49634
34.43350,53773
34.44162,49264
34.44975,50692
34.45787,53061
34.46600,55252
34.47412,54320
34.48223,55366
34.49037,57673
34.49848,55007
34.50662,66675
34.51473,85843
34.52285,99567
34.53098,114026
34.53910,128599
34.54722,150175
34.55535,152903
34.56347,146394
34.57160,143486
34.57972,137222
34.58783,126354
34.59597,118778
34.60408,111246
34.61222,105486
34.62033,97649
34.62845,89646
34.63658,84802
34.64470,87410
34.65283,81712
34.66095,74778
34.66907,73787
34.67720,71093
34.68532,69910
34.69343,69928
34.70157,69949
34.70968,68818
34.71782,70881
34.72593,66544
34.73405,64360
34.74218,64227
34.75030,63090
34.75843,67703
34.76655,67335
34.77467,68538
34.78280,64368
34.79092,64774
34.79905,62807
34.80717,66248
34.81528,62712
34.82342,63023
34.83153,64904
34.83965,61443
34.84778,69234
34.85590,64196
34.86403,62075
34.87215,58538
34.88027,59127
34.88840,60782
34.89652,63124
34.90465,61171
34.91277,65175
34.92088,71239
34.92902,65561
34.93713,65113
34.94525,69389
34.95338,66803
34.96150,70900
34.96963,65568
34.97775,72517
34.98587,67095
34.99400,69827
35.00212,66941
35.01025,62253
35.01837,66493
35.02648,61043
35.03462,60106
35.04273,59972
35.05087,54368
35.05898,61863
35.06710,57357
35.07523,60626
35.08335,62861
35.09147,63733
35.09960,57553
35.10772,54892
35.11585,52729
35.12397,58693
35.13208,57744
35.14022,60445
35.14833,65604
35.15647,64209
35.16458,66439
35.17270,62906
35.18083,59342
35.18895,57463
35.19708,57566
35.20520,54705
35.21332,51946
35.22145,56298
35.22957,58463
35.23768,55243
35.24582,56555
35.25393,51926
35.26207,55927
35.27018,56076
35.27830,57368
35.28643,57668
35.29455,58975
35.30268,58565
35.31080,55029
35.31892,52572
35.32705,54530
35.33517,51768
35.34328,52654
35.35142,55781
35.35953,58371
35.36767,58184
35.37578,55475
35.38390,60314
35.39203,66175
35.40015,75859
35.40828,91660
35.41640,106229
35.42452,116334
35.43265,129053
35.44077,120228
35.44890,110580
35.45702,96491
35.46513,84429
35.47327,72655
35.48138,68220
35.48950,66829
35.49763,70321
35.50575,68959
35.51388,62962
35.52200,61266
35.53012,60582
35.53825,64384
35.54637,63727
35.55450,57388
35.56262,53968
35.57073,55589
35.57887,55941
35.58698,54778
35.59510,55446
35.60323,55449
35.61135,55797
35.61948,53996
35.62760,52172
35.63572,56948
35.64385,55017
35.65197,58778
35.66010,61509
35.66822,59150
35.67633,61390
35.68447,59774
35.69258,61083
35.70072,62839
35.70883,59084
35.71695,63836
35.72508,57841
35.73320,60889
35.74132,60795
35.74945,62632
35.75757,69978
35.76570,64787
35.77382,65314
35.78193,66602
35.79007,69576
35.79818,63280
35.80632,65162
35.81443,59070
35.82255,64666
35.83068,59512
35.83880,59048
35.84693,55914
35.85505,54794
35.86317,53484
35.87130,57832
35.87942,58599
35.88753,54852
35.89567,58984
35.90378,58834
35.91192,58076
35.92003,56758
35.92815,57206
35.93628,61311
35.94440,57968
35.95253,58636
35.96065,56350
35.96877,59861
35.97690,54658
35.98502,58436
35.99315,58199
36.00127,63317
36.00938,57678
36.01752,62011
36.02563,61464
36.03375,60326
36.04188,64846
36.05000,65031
36.05813,58385
36.06625,61367
36.07437,66443
36.08250,59101
36.09062,58939
36.09875,56240
36.10687,55191
36.11498,60168
36.12312,64431
36.13123,61420
36.13935,63194
36.14748,61681
36.15560,61039
36.16373,64520
36.17185,65154
36.17997,59658
36.18810,55826
36.19622,60794
36.20435,56707
36.21247,55081
36.22058,56449
36.22872,54174
36.23683,55314
36.24497,53572
36.25308,57056
36.26120,60907
36.26933,59258
36.27745,60178
36.28557,65403
36.29370,68338
36.30182,80893
36.30995,80736
36.31807,88340
36.32618,83171
36.33432,77045
36.34243,66373
36.35057,66446
36.35868,60375
36.36680,60678
36.37493,64277
36.38305,61734
36.39117,68338
36.39930,68247
36.40742,72403
36.41555,67237
36.42367,65749
36.43178,64022
36.43992,67326
36.44803,64227
36.45617,62380
36.46428,65397
36.47240,63302
36.48053,63659
36.48865,63727
36.49678,64200
36.50490,63244
36.51302,61111
36.52115,59651
36.52927,62476
36.53738,62607
36.54552,58938
36.55363,57969
36.56177,65144
36.56988,61662
36.57800,64281
36.58613,65729
36.59425,62318
36.60238,67544
36.61050,62838
36.61862,60742
36.62675,62330
36.63487,63211
36.64300,65588
36.65112,65389
36.65923,67312
36.66737,68283
36.67548,65467
36.68360,66200
36.69173,62069
36.69985,65659
36.70798,64955
36.71610,65487
36.72422,62911
36.73235,63313
36.74047,63896
36.74860,61428
36.75672,64501
36.76483,66535
36.77297,61352
36.78108,62772
36.78920,64889
36.79733,63950
36.80545,64658
36.81358,61734
36.82170,60030
36.82982,64582
36.83795,68993
36.84607,61458
36.85420,67408
36.86232,57708
36.87043,63045
36.87857,62811
36.88668,65570
36.89482,60987
36.90293,60581
36.91105,62151
36.91918,61288
36.92730,64173
36.93542,65557
36.94355,70892
36.95167,73315
36.95980,76732
36.96792,74219
36.97603,79061
36.98417,74838
36.99228,78595
37.00042,70200
37.00853,70629
37.01665,62051
37.02478,65737
37.03290,64014
37.04103,63059
37.04915,62648
37.05727,65767
37.06540,65012
37.07352,68180
37.08163,64983
37.08977,68156
37.09788,67348
37.10602,66837
37.11413,68681
37.12225,70391
37.13038,63740
37.13850,64832
37.14663,64090
37.15475,66993
37.16287,63622
37.17100,67986
37.17912,66792
37.18723,63716
37.19537,69968
37.20348,70949
37.21162,72211
37.21973,69635
37.22785,66232
37.23598,67235
37.24410,65603
37.25223,65262
37.26035,68679
37.26847,62975
37.27660,62170
37.28472,68554
37.29285,69944
37.30097,69156
37.30908,77006
37.31722,83296
37.32533,104289
37.33345,113416
37.34158,126459
37.34970,133331
37.35783,138676
37.36595,129339
37.37407,127943
37.38220,123030
37.39032,116540
37.39845,109179
37.40657,107458
37.41468,99285
37.42282,102036
37.43093,93055
37.43905,93176
37.44718,91352
37.45530,92100
37.46343,90336
37.47155,86646
37.47967,86878
37.48780,86272
