C:\MassHunter\GCMS\1\data\JTB-E02\BACandBLUE\JTB-E18-010-11.D Fri May 17 13:30:28 2019
Start of data points
2.09517	76149
2.10330	76421
2.11142	73405
2.11955	77066
2.12767	82158
2.13578	77460
2.14392	76024
2.15203	76512
2.16015	74978
2.16828	80036
2.17640	76527
2.18453	70656
2.19265	71403
2.20077	74911
2.20890	70402
2.21702	70892
2.22515	72548
2.23327	66896
2.24138	68595
2.24952	69473
2.25763	67875
2.26577	75746
2.27388	273015
2.28200	1122551
2.29013	1026738
2.29825	435859
2.30637	274440
2.31450	232964
2.32262	213847
2.33075	192316
2.33887	188744
2.34698	172349
2.35512	156496
2.36323	149760
2.37137	145426
2.37948	137152
2.38760	139236
2.39573	134505
2.40385	133181
2.41198	130049
2.42010	123233
2.42822	125302
2.43635	126113
2.44447	121069
2.45258	130922
2.46072	129611
2.46883	121644
2.47697	116165
2.48508	121512
2.49320	132706
2.50133	148663
2.50945	133501
2.51758	118851
2.52570	123382
2.53382	123552
2.54195	114416
2.55007	115317
2.55818	132116
2.56632	169885
2.57443	151060
2.58257	126979
2.59068	124256
2.59880	116288
2.60693	121624
2.61505	163836
2.62318	173858
2.63130	154357
2.63942	135192
2.64755	127114
2.65567	124690
2.66380	118896
2.67192	123979
2.68003	116160
2.68817	114914
2.69628	111239
2.70440	111179
2.71253	108835
2.72065	112605
2.72878	112970
2.73690	106399
2.74502	107192
2.75315	102118
2.76127	106488
2.76940	102984
2.77752	117963
2.78563	264558
2.79377	452852
2.80188	348847
2.81000	224832
2.81813	192363
2.82625	190302
2.83438	167863
2.84250	145551
2.85062	142499
2.85875	134444
2.86687	132817
2.87500	129948
2.88312	125425
2.89123	118557
2.89937	119849
2.90748	116478
2.91562	107799
2.92373	114475
2.93185	112657
2.93998	110015
2.94810	108905
2.95622	106108
2.96435	106037
2.97247	103752
2.98060	102863
2.98872	105850
2.99683	110822
3.00497	109571
3.01308	107992
3.02122	106538
3.02933	113521
3.03745	106178
3.04558	103126
3.05370	107065
3.06183	101072
3.06995	108660
3.07807	108319
3.08620	116796
3.09432	172256
3.10243	631601
3.11057	2268707
3.11868	3268656
3.12682	2281916
3.13493	1411268
3.14305	1038589
3.15118	854149
3.15930	697179
3.16743	596051
3.17555	526923
3.18367	504867
3.19180	754939
3.19992	1168478
3.20803	1082409
3.21617	739905
3.22428	593099
3.23242	504958
3.24053	441767
3.24865	398253
3.25678	365194
3.26490	331929
3.27303	303295
3.28115	299893
3.28927	387137
3.29740	1087366
3.30552	2930871
3.31365	4972560
3.32177	4969219
3.32988	3421470
3.33802	2153947
3.34613	1511414
3.35425	1135256
3.36238	957169
3.37050	802838
3.37863	739517
3.38675	658816
3.39487	600318
3.40300	554332
3.41112	530142
3.41925	491046
3.42737	465075
3.43548	452083
3.44362	451658
3.45173	424890
3.45987	404454
3.46798	400525
3.47610	404928
3.48423	386032
3.49235	376342
3.50047	361386
3.50860	337623
3.51672	344760
3.52485	334920
3.53297	332120
3.54108	345640
3.54922	356552
3.55733	333706
3.56547	324535
3.57358	313103
3.58170	307626
3.58983	301157
3.59795	293648
3.60607	290498
3.61420	288360
3.62232	297053
3.63045	293507
3.63857	301595
3.64668	288359
3.65482	291469
3.66293	439626
3.67107	1739450
3.67918	5529330
3.68730	8609469
3.69543	6891657
3.70355	3997204
3.71168	2534231
3.71980	1957702
3.72792	1636309
3.73605	1425522
3.74417	1276169
3.75228	1132595
3.76042	1060842
3.76853	968440
3.77667	906972
3.78478	837400
3.79290	796761
3.80103	802614
3.80915	1068404
3.81728	1681857
3.82540	2002773
3.83352	1614025
3.84165	1177560
3.84977	953992
3.85788	848683
3.86602	778157
3.87413	721934
3.88227	675391
3.89038	649132
3.89850	613874
3.90663	587330
3.91475	579841
3.92288	619453
3.93100	700496
3.93912	728424
3.94725	657767
3.95537	600426
3.96350	621456
3.97162	671058
3.97973	619704
3.98787	546669
3.99598	498982
4.00410	542078
4.01223	693969
4.02035	847147
4.02848	792043
4.03660	635690
4.04472	516278
4.05285	454522
4.06097	434542
4.06910	405353
4.07722	407607
4.08533	392050
4.09347	368565
4.10158	372801
4.10972	355609
4.11783	342399
4.12595	347218
4.13408	335646
4.14220	361775
4.15032	385429
4.15845	409961
4.16657	394762
4.17470	386804
4.18282	373272
4.19093	361493
4.19907	343358
4.20718	422460
4.21532	1201214
4.22343	4234409
4.23155	9878443
4.23968	1.37846E+07
4.24780	1.298351E+07
4.25592	8735521
4.26405	5356695
4.27217	3693913
4.28030	2753575
4.28842	2113551
4.29653	1723758
4.30467	1431595
4.31278	1216915
4.32092	1072841
4.32903	966024
4.33715	874176
4.34528	798435
4.35340	754746
4.36153	721684
4.36965	730633
4.37777	687167
4.38590	636763
4.39402	584954
4.40213	547408
4.41027	524045
4.41838	504671
4.42652	475038
4.43463	456505
4.44275	445708
4.45088	434753
4.45900	416608
4.46713	418201
4.47525	404489
4.48337	384509
4.49150	384400
4.49962	380555
4.50775	371685
4.51587	362545
4.52398	346330
4.53212	353350
4.54023	339926
4.54835	338518
4.55648	339970
4.56460	341000
4.57273	315744
4.58085	318955
4.58897	308814
4.59710	311170
4.60522	287679
4.61335	303410
4.62147	306534
4.62958	349177
4.63772	441635
4.64583	546104
4.65395	537209
4.66208	473098
4.67020	385178
4.67833	344148
4.68645	327518
4.69457	312283
4.70270	291727
4.71082	283809
4.71895	280212
4.72707	283038
4.73518	280954
4.74332	273162
4.75143	264253
4.75957	257092
4.76768	261078
4.77580	249604
4.78393	267737
4.79205	369917
4.80017	735783
4.80830	1239187
4.81642	1425257
4.82455	1155637
4.83267	838888
4.84078	673730
4.84892	611993
4.85703	567538
4.86517	501319
4.87328	439231
4.88140	392291
4.88953	365023
4.89765	357871
4.90577	344808
4.91390	325545
4.92202	313576
4.93015	344514
4.93827	465718
4.94638	928042
4.95452	1931636
4.96263	3232150
4.97077	3921424
4.97888	3495636
4.98700	2487680
4.99513	1642715
5.00325	1109775
5.01138	863403
5.01950	715024
5.02762	658949
5.03575	674680
5.04387	714444
5.05198	705592
5.06012	638879
5.06823	560070
5.07637	514321
5.08448	475788
5.09260	451364
5.10073	428096
5.10885	417526
5.11698	403108
5.12510	387008
5.13322	384300
5.14135	378168
5.14947	373192
5.15760	391361
5.16572	419146
5.17383	440653
5.18197	442912
5.19008	404865
5.19820	396504
5.20633	401123
5.21445	400890
5.22258	401793
5.23070	376900
5.23882	377375
5.24695	372218
5.25507	359359
5.26320	335193
5.27132	302641
5.27943	292236
5.28757	291804
5.29568	274776
5.30380	281475
5.31193	277899
5.32005	276483
5.32818	270653
5.33630	286970
5.34442	292135
5.35255	288911
5.36067	291806
5.36880	268958
5.37692	271444
5.38503	257581
5.39317	266531
5.40128	263512
5.40942	270546
5.41753	266198
5.42565	258692
5.43378	248329
5.44190	250754
5.45002	247909
5.45815	253690
5.46627	249613
5.47440	245083
5.48252	235815
5.49063	235556
5.49877	234416
5.50688	224552
5.51502	229412
5.52313	244005
5.53125	235557
5.53938	237535
5.54750	239258
5.55563	232018
5.56375	259882
5.57187	285342
5.58000	306130
5.58812	301967
5.59623	276743
5.60437	250783
5.61248	234402
5.62062	228827
5.62873	223747
5.63685	227738
5.64498	220555
5.65310	227124
5.66123	217074
5.66935	229895
5.67747	228723
5.68560	254762
5.69372	287843
5.70183	295761
5.70997	282064
5.71808	256369
5.72622	234920
5.73433	224814
5.74245	218740
5.75058	214709
5.75870	210636
5.76683	210407
5.77495	195911
5.78307	203212
5.79120	194174
5.79932	197704
5.80745	198260
5.81557	192936
5.82368	190241
5.83182	199292
5.83993	199540
5.84805	190257
5.85618	197282
5.86430	194978
5.87243	184400
5.88055	188047
5.88867	188266
5.89680	194168
5.90492	178637
5.91305	173326
5.92117	143720
5.92928	144024
5.93742	138139
5.94553	144006
5.95367	166800
5.96178	179615
5.96990	201650
5.97803	226201
5.98615	270471
5.99427	298949
6.00240	300678
6.01052	251409
6.01865	216728
6.02677	184733
6.03488	163564
6.04302	153864
6.05113	147058
6.05927	139334
6.06738	137210
6.07550	130922
6.08363	127750
6.09175	126852
6.09987	133836
6.10800	133316
6.11612	143576
6.12425	147477
6.13237	194302
6.14048	280434
6.14862	366772
6.15673	391274
6.16487	342997
6.17298	264017
6.18110	215640
6.18923	189801
6.19735	177900
6.20548	175419
6.21360	164841
6.22172	166686
6.22985	169110
6.23797	156327
6.24608	165456
6.25422	156374
6.26233	157376
6.27047	162281
6.27858	161880
6.28670	163997
6.29483	155186
6.30295	167085
6.31108	161702
6.31920	161776
6.32732	168395
6.33545	172926
6.34357	187664
6.35168	183893
6.35982	181116
6.36793	172271
6.37607	171751
6.38418	169828
6.39230	169234
6.40043	171258
6.40855	165727
6.41668	165029
6.42480	158573
6.43292	162368
6.44105	163643
6.44917	168181
6.45730	164306
6.46542	166621
6.47353	173698
6.48167	170034
6.48978	168633
6.49790	172442
6.50603	172332
6.51415	171116
6.52228	176975
6.53040	179202
6.53852	180383
6.54665	181212
6.55477	176942
6.56290	179223
6.57102	185386
6.57913	203662
6.58727	210979
6.59538	210625
6.60352	201370
6.61163	192138
6.61975	195286
6.62788	189704
6.63600	183696
6.64412	188987
6.65225	202238
6.66037	230867
6.66850	284045
6.67662	327354
6.68473	323384
6.69287	277410
6.70098	228295
6.70912	217054
6.71723	209816
6.72535	205660
6.73348	180776
6.74160	161445
6.74972	157335
6.75785	152088
6.76597	144482
6.77410	146692
6.78222	145660
6.79033	146188
6.79847	143814
6.80658	138087
6.81472	135424
6.82283	128137
6.83095	131756
6.83908	129020
6.84720	122906
6.85533	122088
6.86345	120501
6.87157	110140
6.87970	95009
6.88782	88065
6.89593	79458
6.90407	81560
6.91218	80245
6.92032	72572
6.92843	73073
6.93655	75169
6.94468	76773
6.95280	76885
6.96093	76966
6.96905	88113
6.97717	100466
6.98530	108514
6.99342	108553
7.00155	99703
7.00967	88425
7.01778	89755
7.02592	84925
7.03403	79658
7.04215	83469
7.05028	74824
7.05840	75979
7.06653	81210
7.07465	79212
7.08277	74821
7.09090	73386
7.09902	73509
7.10715	70343
7.11527	69011
7.12338	69543
7.13152	73398
7.13963	72882
7.14775	88287
7.15588	113378
7.16400	144328
7.17213	155572
7.18025	144340
7.18837	127748
7.19650	107649
7.20462	151918
7.21275	364386
7.22087	893848
7.22898	1706090
7.23712	2269284
7.24523	2187501
7.25337	1566943
7.26148	964936
7.26960	600867
7.27773	391478
7.28585	261029
7.29397	170140
7.30210	115571
7.31022	104875
7.31835	105035
7.32647	106829
7.33458	111241
7.34272	111874
7.35083	108944
7.35897	98631
7.36708	88950
7.37520	89286
7.38333	84544
7.39145	90909
7.39957	91107
7.40770	84566
7.41582	85699
7.42395	81915
7.43207	79749
7.44018	80848
7.44832	79694
7.45643	83266
7.46457	81736
7.47268	81626
7.48080	79809
7.48893	74955
7.49705	71738
7.50518	81597
7.51330	76461
7.52142	84996
7.52955	98877
7.53767	135174
7.54578	192954
7.55392	259735
7.56203	313836
7.57017	331020
7.57828	305137
7.58640	251785
7.59453	193925
7.60265	156213
7.61078	125514
7.61890	101624
7.62702	94715
7.63515	84719
7.64327	82391
7.65140	78230
7.65952	80979
7.66763	82370
7.67577	73886
7.68388	75638
7.69200	70286
7.70013	72696
7.70825	80401
7.71638	77254
7.72450	76801
7.73262	74112
7.74075	71075
7.74887	71310
7.75700	69667
7.76512	70218
7.77323	72093
7.78137	72385
7.78948	82406
7.79762	80089
7.80573	85365
7.81385	95054
7.82198	87304
7.83010	83497
7.83822	74593
7.84635	71798
7.85447	73142
7.86260	80779
7.87072	90602
7.87883	103179
7.88697	115742
7.89508	125444
7.90322	128019
7.91133	111755
7.91945	98351
7.92758	100456
7.93570	101390
7.94382	109213
7.95195	121012
7.96007	121732
7.96820	111619
7.97632	103647
7.98443	87685
7.99257	77264
8.00068	75502
8.00882	69520
8.01693	69679
8.02505	68366
8.03318	66162
8.04130	68123
8.04943	65655
8.05755	63461
8.06567	61629
8.07380	66403
8.08192	62672
8.09003	61947
8.09817	62059
8.10628	62133
8.11442	62245
8.12253	62588
8.13065	64021
8.13878	73079
8.14690	83750
8.15503	89359
8.16315	93852
8.17127	91259
8.17940	77635
8.18752	71967
8.19563	65508
8.20377	68603
8.21188	63495
8.22002	65119
8.22813	62778
8.23625	60347
8.24438	60141
8.25250	58506
8.26063	59974
8.26875	58846
8.27687	62251
8.28500	58214
8.29312	58059
8.30125	59548
8.30937	63960
8.31748	66000
8.32562	67539
8.33373	66537
8.34185	65297
8.34998	58950
8.35810	58538
8.36623	63076
8.37435	57670
8.38247	57981
8.39060	63759
8.39872	64546
8.40685	62509
8.41497	60985
8.42308	61904
8.43122	55326
8.43933	56174
8.44747	51368
8.45558	50349
8.46370	57898
8.47183	53140
8.47995	53776
8.48807	50882
8.49620	53548
8.50432	56191
8.51245	62792
8.52057	110357
8.52868	256806
8.53682	546747
8.54493	979871
8.55307	1254551
8.56118	1231605
8.56930	894396
8.57743	544295
8.58555	293334
8.59367	179838
8.60180	137761
8.60992	119989
8.61805	111923
8.62617	113839
8.63428	102368
8.64242	99619
8.65053	91840
8.65867	90580
8.66678	84953
8.67490	81932
8.68303	80142
8.69115	80301
8.69928	79420
8.70740	74304
8.71552	73762
8.72365	75522
8.73177	70284
8.73988	73345
8.74802	77443
8.75613	108085
8.76427	202313
8.77238	412362
8.78050	730150
8.78863	1050427
8.79675	1133430
8.80488	963578
8.81300	671635
8.82112	416237
8.82925	274909
8.83737	208211
8.84550	186524
8.85362	170905
8.86173	164613
8.86987	155995
8.87798	155597
8.88610	148212
8.89423	140370
8.90235	135791
8.91048	132510
8.91860	137442
8.92672	137176
8.93485	140210
8.94297	154496
8.95110	167299
8.95922	167582
8.96733	151588
8.97547	147862
8.98358	136841
8.99170	127331
8.99983	132312
9.00795	120812
9.01608	119519
9.02420	106007
9.03232	107499
9.04045	103469
9.04857	98693
9.05670	96909
9.06482	94526
9.07293	90775
9.08107	90268
9.08918	91603
9.09732	99567
9.10543	107746
9.11355	109832
9.12168	112455
9.12980	118236
9.13792	113176
9.14605	100381
9.15417	100627
9.16230	100803
9.17042	94852
9.17853	97237
9.18667	90863
9.19478	88208
9.20292	83970
9.21103	84570
9.21915	86786
9.22728	84368
9.23540	84392
9.24352	86350
9.25165	79267
9.25977	84485
9.26790	82717
9.27602	79633
9.28413	83806
9.29227	75439
9.30038	75397
9.30852	75080
9.31663	73953
9.32475	80580
9.33288	72375
9.34100	75191
9.34913	73672
9.35725	73207
9.36537	69688
9.37350	72392
9.38162	72205
9.38973	72566
9.39787	81552
9.40598	81876
9.41412	80031
9.42223	86292
9.43035	89843
9.43848	102210
9.44660	97885
9.45473	99227
9.46285	92826
9.47097	87312
9.47910	85030
9.48722	75645
9.49535	77585
9.50347	77558
9.51158	89920
9.51972	107455
9.52783	116593
9.53595	116528
9.54408	105808
9.55220	93924
9.56033	84047
9.56845	80259
9.57657	72597
9.58470	83647
9.59282	81898
9.60095	78911
9.60907	77702
9.61718	68239
9.62532	61407
9.63343	52888
9.64155	49635
9.64968	48824
9.65780	50253
9.66593	46584
9.67405	43471
9.68217	50077
9.69030	46616
9.69842	44197
9.70655	44276
9.71467	42454
9.72278	47495
9.73092	44102
9.73903	46658
9.74717	40619
9.75528	41841
9.76340	39722
9.77153	37031
9.77965	37979
9.78777	40602
9.79590	41982
9.80402	36585
9.81215	39829
9.82027	39609
9.82838	41796
9.83652	36406
9.84463	41282
9.85277	41778
9.86088	40907
9.86900	44392
9.87713	46124
9.88525	44417
9.89338	42755
9.90150	44790
9.90962	42123
9.91775	45198
9.92587	45462
9.93398	56064
9.94212	76254
9.95023	90977
9.95837	110826
9.96648	118198
9.97460	112523
9.98273	101015
9.99085	84949
9.99898	69270
10.00710	70211
10.01522	64375
10.02335	60021
10.03147	57634
10.03958	54845
10.04772	52876
10.05583	51323
10.06397	54859
10.07208	53581
10.08020	54965
10.08833	53286
10.09645	56255
10.10458	55757
10.11270	53978
10.12082	51938
10.12895	52469
10.13707	49991
10.14520	46809
10.15332	46932
10.16143	51965
10.16957	46940
10.17768	46738
10.18580	51120
10.19393	44538
10.20205	41474
10.21018	45122
10.21830	46785
10.22642	48165
10.23455	48910
10.24267	59616
10.25080	65876
10.25892	95940
10.26703	217096
10.27517	574083
10.28328	1314372
10.29140	2553507
10.29953	4120019
10.30765	6063960
10.31578	9062320
10.32390	1.386341E+07
10.33202	2.042212E+07
10.34015	2.699088E+07
10.34827	3.126842E+07
10.35640	2.973145E+07
10.36452	2.171671E+07
10.37263	1.133608E+07
10.38077	5060396
10.38888	2394401
10.39702	1522517
10.40513	1196934
10.41325	958431
10.42138	821201
10.42950	713956
10.43762	645521
10.44575	587890
10.45387	554123
10.46200	501485
10.47012	467119
10.47823	436114
10.48637	412499
10.49448	378657
10.50262	354068
10.51073	336198
10.51885	333943
10.52698	319957
10.53510	289681
10.54323	286315
10.55135	286721
10.55947	276318
10.56760	267470
10.57572	253164
10.58383	236504
10.59197	237093
10.60008	228828
10.60822	218378
10.61633	201769
10.62445	195063
10.63258	188492
10.64070	179464
10.64883	175126
10.65695	171554
10.66507	178858
10.67320	166074
10.68132	165640
10.68943	159300
10.69757	159913
10.70568	153262
10.71382	151441
10.72193	147113
10.73005	141121
10.73818	136548
10.74630	136439
10.75443	136975
10.76255	132406
10.77067	124240
10.77880	125220
10.78692	122185
10.79505	115528
10.80317	122641
10.81128	116159
10.81942	111204
10.82753	110961
10.83565	111169
10.84378	107623
10.85190	101781
10.86003	98791
10.86815	100980
10.87627	100317
10.88440	96954
10.89252	94499
10.90065	94463
10.90877	92694
10.91688	90760
10.92502	88157
10.93313	87563
10.94127	85710
10.94938	86606
10.95750	85313
10.96563	84438
10.97375	85585
10.98187	83103
10.99000	79024
10.99812	79876
11.00625	78152
11.01437	78164
11.02248	79204
11.03062	76663
11.03873	75829
11.04687	74313
11.05498	75278
11.06310	72234
11.07123	73075
11.07935	75688
11.08747	72207
11.09560	74786
11.10372	74449
11.11185	66374
11.11997	67128
11.12808	61441
11.13622	57051
11.14433	51191
11.15247	51911
11.16058	49726
11.16870	54783
11.17683	56203
11.18495	55529
11.19308	59441
11.20120	58790
11.20932	59008
11.21745	52484
11.22557	48641
11.23368	46698
11.24182	46789
11.24993	43390
11.25807	43102
11.26618	44870
11.27430	45131
11.28243	40567
11.29055	39901
11.29868	46711
11.30680	51931
11.31492	69692
11.32305	101689
11.33117	135824
11.33930	182052
11.34742	209544
11.35553	219557
11.36367	191659
11.37178	156632
11.37990	119430
11.38803	90118
11.39615	81228
11.40428	76560
11.41240	69469
11.42052	69145
11.42865	66832
11.43677	65165
11.44490	64754
11.45302	62695
11.46113	56431
11.46927	61791
11.47738	67774
11.48550	92207
11.49363	123082
11.50175	150758
11.50988	157903
11.51800	147210
11.52612	134916
11.53425	124448
11.54237	126609
11.55050	114154
11.55862	106038
11.56673	95814
11.57487	85714
11.58298	81607
11.59112	79925
11.59923	99118
11.60735	131319
11.61548	169693
11.62360	193932
11.63172	190022
11.63985	164455
11.64797	130848
11.65610	103037
11.66422	83051
11.67233	70752
11.68047	65071
11.68858	58295
11.69672	63102
11.70483	63380
11.71295	59947
11.72108	56687
11.72920	57302
11.73732	56735
11.74545	54114
11.75357	51245
11.76170	47031
11.76982	52531
11.77793	48271
11.78607	47265
11.79418	46246
11.80232	45633
11.81043	44131
11.81855	46496
11.82668	47901
11.83480	43558
11.84293	46807
11.85105	46375
11.85917	43946
11.86730	43195
11.87542	43597
11.88353	40579
11.89167	44706
11.89978	41529
11.90792	43297
11.91603	44073
11.92415	48720
11.93228	53025
11.94040	57754
11.94853	52432
11.95665	47494
11.96477	43766
11.97290	43367
11.98102	47997
11.98915	53413
11.99727	75144
12.00538	94413
12.01352	112077
12.02163	112030
12.02975	108633
12.03788	85115
12.04600	69387
12.05413	60890
12.06225	52502
12.07037	51666
12.07850	47018
12.08662	51715
12.09475	50719
12.10287	48420
12.11098	45951
12.11912	54269
12.12723	58843
12.13535	58254
12.14348	64224
12.15160	60556
12.15973	57437
12.16785	52403
12.17597	49084
12.18410	44935
12.19222	44628
12.20035	44202
12.20847	45129
12.21658	47199
12.22472	48478
12.23283	43715
12.24097	45401
12.24908	45496
12.25720	47766
12.26533	46167
12.27345	46303
12.28157	41999
12.28970	45351
12.29782	38739
12.30595	44005
12.31407	42611
12.32218	41468
12.33032	41733
12.33843	42148
12.34657	42518
12.35468	39029
12.36280	41737
12.37093	41068
12.37905	41961
12.38718	38507
12.39530	44972
12.40342	45119
12.41155	53179
12.41967	63472
12.42778	69087
12.43592	74840
12.44403	69960
12.45217	65337
12.46028	64549
12.46840	55606
12.47653	49763
12.48465	50015
12.49278	45320
12.50090	46598
12.50902	50217
12.51715	51174
12.52527	55079
12.53338	76070
12.54152	127601
12.54963	239343
12.55777	415059
12.56588	600053
12.57400	672323
12.58213	603946
12.59025	436971
12.59838	282734
12.60650	186410
12.61462	133306
12.62275	104749
12.63087	97465
12.63900	90917
12.64712	81684
12.65523	70502
12.66337	68719
12.67148	69996
12.67960	64109
12.68773	64851
12.69585	57710
12.70398	57389
12.71210	55004
12.72022	56922
12.72835	53961
12.73647	50717
12.74460	58773
12.75272	54309
12.76083	55174
12.76897	51284
12.77708	43512
12.78520	49015
12.79333	45926
12.80145	47662
12.80958	45296
12.81770	40634
12.82582	44411
12.83395	40397
12.84207	41666
12.85020	37229
12.85832	40571
12.86643	38911
12.87457	39806
12.88268	37181
12.89082	39118
12.89893	40377
12.90705	37533
12.91518	38377
12.92330	37504
12.93142	41172
12.93955	38375
12.94767	38154
12.95580	42393
12.96392	45093
12.97203	54917
12.98017	65150
12.98828	69391
12.99642	70266
13.00453	64161
13.01265	58866
13.02078	49984
13.02890	43551
13.03703	42419
13.04515	38550
13.05327	40005
13.06140	39140
13.06952	40445
13.07763	45685
13.08577	43454
13.09388	42399
13.10202	43165
13.11013	40578
13.11825	42225
13.12638	39703
13.13450	39801
13.14263	36291
13.15075	35425
13.15887	40109
13.16700	39130
13.17512	42691
13.18325	40879
13.19137	45962
13.19948	46457
13.20762	47231
13.21573	43125
13.22385	47742
13.23198	45745
13.24010	41178
13.24823	41148
13.25635	41246
13.26447	38273
13.27260	41922
13.28072	36765
13.28885	35214
13.29697	39218
13.30508	33451
13.31322	32945
13.32133	34882
13.32945	38038
13.33758	40509
13.34570	34299
13.35383	35291
13.36195	33382
13.37007	36947
13.37820	37276
13.38632	32412
13.39445	35097
13.40257	35389
13.41068	35802
13.41882	31899
13.42693	33807
13.43507	28016
13.44318	32917
13.45130	33459
13.45943	33099
13.46755	32172
13.47567	39895
13.48380	33105
13.49192	31820
13.50005	32173
13.50817	33805
13.51628	34141
13.52442	37553
13.53253	35523
13.54067	35758
13.54878	33456
13.55690	35619
13.56503	34821
13.57315	32658
13.58127	38689
13.58940	40656
13.59752	40802
13.60565	48692
13.61377	58745
13.62188	66437
13.63002	62493
13.63813	61964
13.64627	51627
13.65438	44366
13.66250	41140
13.67063	38376
13.67875	38676
13.68688	35469
13.69500	35745
13.70312	34840
13.71125	34552
13.71937	32853
13.72748	35691
13.73562	39794
13.74373	53909
13.75187	83990
13.75998	142144
13.76810	243320
13.77623	380356
13.78435	478769
13.79248	528761
13.80060	535476
13.80872	481255
13.81685	403657
13.82497	333451
13.83310	286480
13.84122	254410
13.84933	233980
13.85747	206460
13.86558	175640
13.87370	149296
13.88183	128458
13.88995	113652
13.89808	98619
13.90620	85166
13.91432	86312
13.92245	82285
13.93057	77118
13.93870	77558
13.94682	73225
13.95493	68649
13.96307	70490
13.97118	72601
13.97930	81988
13.98743	89019
13.99555	87733
14.00368	94044
14.01180	91662
14.01992	85028
14.02805	81582
14.03617	78570
14.04430	76323
14.05242	75174
14.06053	67723
14.06867	71841
14.07678	71335
14.08492	71166
14.09303	68335
14.10115	67553
14.10928	65458
14.11740	60185
14.12552	67427
14.13365	64844
14.14177	66012
14.14990	67684
14.15802	64884
14.16613	68511
14.17427	71949
14.18238	85175
14.19052	117623
14.19863	159628
14.20675	201721
14.21488	235160
14.22300	245251
14.23113	230639
14.23925	220953
14.24737	205635
14.25550	214487
14.26362	202866
14.27173	191271
14.27987	163210
14.28798	143677
14.29612	121340
14.30423	110702
14.31235	91578
14.32048	93403
14.32860	89940
14.33673	88943
14.34485	90669
14.35297	86736
14.36110	86794
14.36922	79552
14.37733	71875
14.38547	69604
14.39358	57935
14.40172	58954
14.40983	60469
14.41795	64482
14.42608	66347
14.43420	68003
14.44233	60842
14.45045	65364
14.45857	55762
14.46670	50013
14.47482	53613
14.48295	54392
14.49107	49445
14.49918	46782
14.50732	44970
14.51543	48977
14.52355	52903
14.53168	51833
14.53980	53236
14.54793	46010
14.55605	55298
14.56417	46917
14.57230	44752
14.58042	42489
14.58855	39691
14.59667	40386
14.60478	40562
14.61292	39528
14.62103	38628
14.62915	39834
14.63728	37128
14.64540	38684
14.65353	33987
14.66165	39853
14.66977	41712
14.67790	38299
14.68602	37907
14.69415	37553
14.70227	36902
14.71038	39626
14.71852	37878
14.72663	39033
14.73477	42561
14.74288	33992
14.75100	39978
14.75913	40709
14.76725	37527
14.77537	47904
14.78350	52545
14.79162	89441
14.79975	220682
14.80787	572382
14.81598	1378223
14.82412	2528984
14.83223	3728033
14.84037	4288360
14.84848	3990438
14.85660	3113694
14.86473	2070525
14.87285	1264477
14.88098	787089
14.88910	551767
14.89722	429112
14.90535	346034
14.91347	295781
14.92158	264730
14.92972	230429
14.93783	216551
14.94597	197092
14.95408	181067
14.96220	167420
14.97033	157587
14.97845	150563
14.98658	145485
14.99470	135844
15.00282	125317
15.01095	123917
15.01907	129131
15.02718	113765
15.03532	111717
15.04343	105496
15.05157	105230
15.05968	101589
15.06780	104568
15.07593	97561
15.08405	94929
15.09218	91917
15.10030	86753
15.10842	88429
15.11655	86839
15.12467	89964
15.13280	97090
15.14092	106887
15.14903	112521
15.15717	117775
15.16528	106235
15.17340	88660
15.18153	73121
15.18965	67030
15.19778	60387
15.20590	53325
15.21402	50197
15.22215	53128
15.23027	48695
15.23840	50249
15.24652	48021
15.25463	51140
15.26277	42755
15.27088	47795
15.27902	43410
15.28713	41229
15.29525	42396
15.30338	44910
15.31150	41118
15.31962	44050
15.32775	45520
15.33587	42641
15.34400	41299
15.35212	41144
15.36023	44218
15.36837	38297
15.37648	37887
15.38462	39844
15.39273	40068
15.40085	40104
15.40898	43895
15.41710	38301
15.42522	43633
15.43335	38661
15.44147	39613
15.44960	38100
15.45772	38723
15.46583	40364
15.47397	41785
15.48208	49673
15.49022	55772
15.49833	65237
15.50645	71006
15.51458	70928
15.52270	70485
15.53083	72928
15.53895	72417
15.54707	69192
15.55520	68716
15.56332	66207
15.57143	63100
15.57957	49320
15.58768	44558
15.59582	49131
15.60393	41668
15.61205	42469
15.62018	37436
15.62830	38792
15.63643	41415
15.64455	38128
15.65267	37564
15.66080	38708
15.66892	37184
15.67705	37524
15.68517	41987
15.69328	36081
15.70142	37191
15.70953	39164
15.71765	36648
15.72578	34635
15.73390	38430
15.74203	41729
15.75015	49569
15.75827	71412
15.76640	116053
15.77452	200441
15.78265	325546
15.79077	432911
15.79888	457652
15.80702	425012
15.81513	322913
15.82325	231328
15.83138	153482
15.83950	115550
15.84763	106579
15.85575	101521
15.86387	108185
15.87200	116385
15.88012	131913
15.88825	143142
15.89637	138244
15.90448	130191
15.91262	112519
15.92073	99666
15.92887	88341
15.93698	78119
15.94510	71546
15.95323	67105
15.96135	58629
15.96947	64681
15.97760	68963
15.98572	71827
15.99385	67466
16.00197	66282
16.01008	64687
16.01822	63092
16.02633	68483
16.03447	61642
16.04258	59449
16.05070	63300
16.05883	57061
16.06695	53172
16.07507	47615
16.08320	45080
16.09132	45162
16.09945	42003
16.10757	41920
16.11568	45809
16.12382	45717
16.13193	47337
16.14007	46999
16.14818	48430
16.15630	52681
16.16443	50786
16.17255	46948
16.18068	46138
16.18880	45721
16.19692	42744
16.20505	41664
16.21317	41172
16.22128	42989
16.22942	44366
16.23753	41438
16.24567	41372
16.25378	42147
16.26190	42455
16.27003	42426
16.27815	43005
16.28628	44289
16.29440	47087
16.30252	45810
16.31065	49672
16.31877	44389
16.32690	45238
16.33502	43345
16.34313	42256
16.35127	45970
16.35938	53674
16.36750	63844
16.37563	74047
16.38375	80681
16.39188	79606
16.40000	75704
16.40812	61732
16.41625	62093
16.42437	53142
16.43250	54086
16.44062	61170
16.44873	75069
16.45687	129843
16.46498	258828
16.47310	453258
16.48123	667074
16.48935	798519
16.49748	768708
16.50560	634324
16.51372	437378
16.52185	280539
16.52997	184964
16.53810	138412
16.54622	107308
16.55433	95317
16.56247	88450
16.57058	79974
16.57872	79276
16.58683	74095
16.59495	73331
16.60308	71531
16.61120	76754
16.61932	75878
16.62745	71795
16.63557	68126
16.64370	64833
16.65182	60841
16.65993	58858
16.66807	57441
16.67618	58534
16.68432	57528
16.69243	56517
16.70055	53617
16.70868	52539
16.71680	46904
16.72493	50620
16.73305	48550
16.74117	49153
16.74930	48492
16.75742	54944
16.76553	60156
16.77367	61601
16.78178	61675
16.78992	54694
16.79803	51054
16.80615	45655
16.81428	46132
16.82240	49095
16.83053	44457
16.83865	42768
16.84677	42056
16.85490	37830
16.86302	41032
16.87113	41101
16.87927	43065
16.88738	39271
16.89552	40553
16.90363	35258
16.91175	38607
16.91988	36332
16.92800	37998
16.93613	35099
16.94425	37727
16.95237	38882
16.96050	36416
16.96862	36515
16.97675	39329
16.98487	39860
16.99298	41011
17.00112	38992
17.00923	38519
17.01735	42313
17.02548	37633
17.03360	37890
17.04173	43929
17.04985	45026
17.05797	44942
17.06610	47161
17.07422	45973
17.08235	47377
17.09047	45420
17.09858	42978
17.10672	42700
17.11483	43032
17.12295	43006
17.13108	46210
17.13920	46275
17.14733	45594
17.15545	45015
17.16357	43488
17.17170	44457
17.17982	46480
17.18795	42720
17.19607	39007
17.20418	38260
17.21232	39029
17.22043	37503
17.22857	36570
17.23668	36580
17.24480	40421
17.25293	44559
17.26105	47671
17.26917	38984
17.27730	43896
17.28542	37226
17.29355	40672
17.30167	36414
17.30978	40503
17.31792	39166
17.32603	44860
17.33417	49012
17.34228	53332
17.35040	60475
17.35853	65316
17.36665	61604
17.37478	57584
17.38290	54689
17.39102	54876
17.39915	50889
17.40727	49183
17.41538	48544
17.42352	51454
17.43163	48023
17.43977	52781
17.44788	49188
17.45600	43591
17.46413	50465
17.47225	45137
17.48038	44996
17.48850	37783
17.49662	39178
17.50475	39003
17.51287	38805
17.52100	39031
17.52912	41409
17.53723	40173
17.54537	39362
17.55348	44714
17.56160	57352
17.56973	79761
17.57785	131757
17.58598	216819
17.59410	356323
17.60222	534384
17.61035	700667
17.61847	768778
17.62660	686913
17.63472	538847
17.64283	392922
17.65097	282060
17.65908	215260
17.66720	175207
17.67533	143401
17.68345	128237
17.69158	116182
17.69970	110624
17.70782	92658
17.71595	90334
17.72407	83330
17.73220	77976
17.74032	74016
17.74843	68944
17.75657	69797
17.76468	64425
17.77282	59577
17.78093	58767
17.78905	59484
17.79718	56725
17.80530	53622
17.81342	58492
17.82155	55653
17.82967	60047
17.83780	59921
17.84592	62267
17.85403	67105
17.86217	71753
17.87028	80832
17.87842	85249
17.88653	82259
17.89465	66634
17.90278	62485
17.91090	54494
17.91902	48517
17.92715	49997
17.93527	48720
17.94340	46181
17.95152	43726
17.95963	45991
17.96777	44101
17.97588	41514
17.98402	41469
17.99213	43595
18.00025	41477
18.00838	49656
18.01650	57199
18.02463	73904
18.03275	91085
18.04087	99588
18.04900	107188
18.05712	104483
18.06523	101873
18.07337	86369
18.08148	91072
18.08962	98679
18.09773	109134
18.10585	120331
18.11398	112718
18.12210	109670
18.13023	107293
18.13835	119165
18.14647	108391
18.15460	105746
18.16272	101372
18.17085	101168
18.17897	90792
18.18708	86535
18.19522	78804
18.20333	76141
18.21145	74560
18.21958	72331
18.22770	65568
18.23583	63001
18.24395	68377
18.25207	63755
18.26020	65051
18.26832	61704
18.27645	60682
18.28457	58249
18.29268	54478
18.30082	50949
18.30893	46395
18.31705	47768
18.32518	43903
18.33330	44663
18.34143	44105
18.34955	40188
18.35767	41930
18.36580	39521
18.37392	42680
18.38205	39422
18.39017	37537
18.39828	40244
18.40642	42479
18.41453	40868
18.42267	46078
18.43078	44082
18.43890	52127
18.44703	63509
18.45515	80998
18.46327	116600
18.47140	166826
18.47952	207183
18.48765	246735
18.49577	256407
18.50388	246296
18.51202	188827
18.52013	150742
18.52827	122003
18.53638	113180
18.54450	133248
18.55263	162485
18.56075	184428
18.56888	197981
18.57700	205028
18.58512	218044
18.59325	227815
18.60137	222463
18.60948	229681
18.61762	238914
18.62573	236581
18.63387	232238
18.64198	229064
18.65010	231646
18.65823	230731
18.66635	221807
18.67448	225954
18.68260	220903
18.69072	226128
18.69885	215179
18.70697	224978
18.71508	215844
18.72322	212552
18.73133	201167
18.73947	214274
18.74758	211486
18.75570	206114
18.76383	204964
18.77195	196292
18.78008	204950
18.78820	201588
18.79632	204440
18.80445	187356
18.81257	192045
18.82070	186661
18.82882	194520
18.83693	183250
18.84507	182041
18.85318	187118
18.86130	183655
18.86943	179632
18.87755	181570
18.88568	182249
18.89380	185814
18.90192	183234
18.91005	180748
18.91817	179409
18.92630	178640
18.93442	186646
18.94253	186717
18.95067	185608
18.95878	198701
18.96690	195468
18.97503	187444
18.98315	186712
18.99128	183352
18.99940	172122
19.00752	170307
19.01565	169688
19.02377	158637
19.03190	159744
19.04002	156339
19.04813	160171
19.05627	162064
19.06438	188306
19.07252	260735
19.08063	417476
19.08875	674367
19.09688	1034962
19.10500	1408475
19.11312	1603171
19.12125	1546874
19.12937	1258867
19.13750	918926
19.14562	641496
19.15373	454953
19.16187	348764
19.16998	293567
19.17812	245484
19.18623	217004
19.19435	207949
19.20248	196633
19.21060	188355
19.21873	176547
19.22685	174939
19.23497	159881
19.24310	151905
19.25122	152809
19.25933	149834
19.26747	149619
19.27558	144419
19.28372	148784
19.29183	150243
19.29995	159324
19.30808	169142
19.31620	159132
19.32433	149583
19.33245	145417
19.34057	145319
19.34870	146430
19.35682	156478
19.36493	171452
19.37307	185822
19.38118	212644
19.38932	195834
19.39743	180595
19.40555	163302
19.41368	148970
19.42180	132641
19.42993	126652
19.43805	128462
19.44617	127970
19.45430	128196
19.46242	125406
19.47055	128701
19.47867	130402
19.48678	144451
19.49492	164603
19.50303	189811
19.51115	227114
19.51928	249405
19.52740	248317
19.53553	233965
19.54365	195875
19.55177	166789
19.55990	140604
19.56802	128817
19.57615	123627
19.58427	116860
19.59238	118421
19.60052	113558
19.60863	115836
19.61677	114048
19.62488	112400
19.63300	109445
19.64113	124096
19.64925	143856
19.65737	186516
19.66550	231004
19.67362	278559
19.68175	313865
19.68987	336148
19.69798	318614
19.70612	299946
19.71423	267619
19.72237	235379
19.73048	219878
19.73860	189315
19.74673	168158
19.75485	147939
19.76297	137946
19.77110	139305
19.77922	128226
19.78735	126963
19.79547	122672
19.80358	120667
19.81172	127418
19.81983	124175
19.82797	119558
19.83608	106576
19.84420	105874
19.85233	105465
19.86045	98134
19.86858	105266
19.87670	116048
19.88482	132477
19.89295	166443
19.90107	211056
19.90918	249508
19.91732	275695
19.92543	298343
19.93357	301517
19.94168	289620
19.94980	291840
19.95793	261863
19.96605	246716
19.97418	247457
19.98230	223713
19.99042	224852
19.99855	220742
20.00667	223578
20.01478	208706
20.02292	214835
20.03103	201796
20.03917	190135
20.04728	179356
20.05540	164195
20.06353	147287
20.07165	135218
20.07978	130643
20.08790	125755
20.09602	114986
20.10415	112821
20.11227	107069
20.12040	107745
20.12852	102378
20.13663	105354
20.14477	95876
20.15288	93566
20.16100	104196
20.16913	107988
20.17725	131617
20.18538	138889
20.19350	139961
20.20162	146081
20.20975	143744
20.21787	140109
20.22600	136468
20.23412	129520
20.24223	134995
20.25037	159613
20.25848	195752
20.26662	256496
20.27473	331276
20.28285	418810
20.29098	445170
20.29910	438509
20.30722	396853
20.31535	319960
20.32347	262200
20.33160	209871
20.33972	172326
20.34783	148508
20.35597	125394
20.36408	112778
20.37222	111390
20.38033	100847
20.38845	88820
20.39658	89539
20.40470	90377
20.41282	85226
20.42095	95262
20.42907	93770
20.43720	98088
20.44532	102723
20.45343	107925
20.46157	108926
20.46968	103298
20.47782	99120
20.48593	94875
20.49405	93253
20.50218	83414
20.51030	75359
20.51843	80081
20.52655	74979
20.53467	70148
20.54280	72243
20.55092	69887
20.55903	67327
20.56717	67655
20.57528	68332
20.58342	67387
20.59153	69461
20.59965	68535
20.60778	66444
20.61590	64790
20.62403	71405
20.63215	64965
20.64027	65143
20.64840	70681
20.65652	65973
20.66465	66058
20.67277	65984
20.68088	61819
20.68902	60676
20.69713	60855
20.70525	63838
20.71338	66074
20.72150	60879
20.72963	58785
20.73775	60895
20.74587	61559
20.75400	60134
20.76212	66402
20.77025	64487
20.77837	67989
20.78648	73653
20.79462	88378
20.80273	121325
20.81085	156094
20.81898	186226
20.82710	198387
20.83523	193691
20.84335	166175
20.85147	129761
20.85960	104788
20.86772	92360
20.87585	79166
20.88397	74918
20.89208	72433
20.90022	71533
20.90833	69586
20.91647	69505
20.92458	67441
20.93270	66506
20.94083	68214
20.94895	61313
20.95707	66981
20.96520	67164
20.97332	64063
20.98145	61974
20.98957	60197
20.99768	57583
21.00582	62054
21.01393	56769
21.02207	62591
21.03018	60789
21.03830	62051
21.04643	63577
21.05455	61239
21.06268	64597
21.07080	66037
21.07892	68201
21.08705	65776
21.09517	65014
21.10328	65535
21.11142	65936
21.11953	63954
21.12767	61554
21.13578	81819
21.14390	92229
21.15203	118779
21.16015	138195
21.16828	160232
21.17640	172561
21.18452	148363
21.19265	123042
21.20077	106727
21.20888	89329
21.21702	81594
21.22513	71886
21.23327	72782
21.24138	68084
21.24950	62023
21.25763	60109
21.26575	59937
21.27388	60126
21.28200	55566
21.29012	51780
21.29825	58862
21.30637	58131
21.31450	51799
21.32262	51572
21.33073	48725
21.33887	51511
21.34698	51057
21.35510	51302
21.36323	48185
21.37135	45997
21.37948	50791
21.38760	53254
21.39572	52317
21.40385	53708
21.41197	58389
21.42010	59228
21.42822	57933
21.43633	53232
21.44447	55667
21.45258	53796
21.46070	50871
21.46883	51262
21.47695	52317
21.48508	48045
21.49320	48904
21.50132	49959
21.50945	47097
21.51757	45075
21.52570	50768
21.53382	47587
21.54193	41973
21.55007	47569
21.55818	46478
21.56632	49723
21.57443	51997
21.58255	53410
21.59068	58979
21.59880	62538
21.60692	60474
21.61505	62275
21.62317	69659
21.63130	79451
21.63942	81959
21.64753	92445
21.65567	96812
21.66378	101636
21.67192	91733
21.68003	89864
21.68815	86450
21.69628	82277
21.70440	76371
21.71253	69163
21.72065	66628
21.72877	63697
21.73690	58508
21.74502	59356
21.75313	55937
21.76127	56858
21.76938	60177
21.77752	54942
21.78563	52118
21.79375	55402
21.80188	52916
21.81000	52872
21.81813	61480
21.82625	70906
21.83437	74751
21.84250	85002
21.85062	87633
21.85873	84295
21.86687	84961
21.87498	72074
21.88312	63084
21.89123	59234
21.89935	55702
21.90748	55408
21.91560	53354
21.92373	52825
21.93185	52553
21.93997	48592
21.94810	50722
21.95622	47431
21.96435	45209
21.97247	43679
21.98058	40310
21.98872	44393
21.99683	42227
22.00495	42429
22.01308	46121
22.02120	53233
22.02933	65901
22.03745	73671
22.04557	78984
22.05370	86990
22.06182	85201
22.06995	89400
22.07807	91911
22.08618	97677
22.09432	95004
22.10243	92956
22.11057	90498
22.11868	99139
22.12680	96632
22.13493	96077
22.14305	97575
22.15117	100235
22.15930	99451
22.16742	94275
22.17555	89205
22.18367	94418
22.19178	99490
22.19992	92520
22.20803	91146
22.21617	88048
22.22428	87074
22.23240	82311
22.24053	75619
22.24865	75092
22.25677	69017
22.26490	61409
22.27302	61857
22.28115	58326
22.28927	59499
22.29738	64096
22.30552	63129
22.31363	68917
22.32177	66807
22.32988	60305
22.33800	65499
22.34613	63828
22.35425	62216
22.36238	60552
22.37050	65365
22.37862	57228
22.38675	60860
22.39487	65434
22.40298	75439
22.41112	90492
22.41923	100072
22.42737	108825
22.43548	104036
22.44360	97200
22.45173	87991
22.45985	74403
22.46798	70788
22.47610	66414
22.48422	63637
22.49235	68638
22.50047	71657
22.50858	72212
22.51672	74116
22.52483	73842
22.53297	82248
22.54108	96243
22.54920	116781
22.55733	132127
22.56545	139747
22.57358	142927
22.58170	145218
22.58982	145162
22.59795	148940
22.60607	141467
22.61420	154426
22.62232	155265
22.63043	157528
22.63857	167301
22.64668	160522
22.65480	156128
22.66293	166870
22.67105	166135
22.67918	164899
22.68730	168163
22.69542	167265
22.70355	175943
22.71167	173228
22.71980	181725
22.72792	188294
22.73603	180430
22.74417	179240
22.75228	176940
22.76042	167229
22.76853	164716
22.77665	169468
22.78478	167698
22.79290	165094
22.80102	175883
22.80915	183058
22.81727	186637
22.82540	174830
22.83352	178188
22.84163	170009
22.84977	159685
22.85788	169610
22.86602	167522
22.87413	166132
22.88225	160749
22.89038	166974
22.89850	173614
22.90663	181020
22.91475	196562
22.92287	207821
22.93100	216058
22.93912	220333
22.94723	215635
22.95537	198022
22.96348	189349
22.97162	168102
22.97973	157268
22.98785	157746
22.99598	151379
23.00410	138024
23.01223	136289
23.02035	129377
23.02847	134630
23.03660	125372
23.04472	124445
23.05283	124312
23.06097	122470
23.06908	125148
23.07722	121724
23.08533	127079
23.09345	127582
23.10158	126297
23.10970	119559
23.11783	116756
23.12595	119434
23.13407	107837
23.14220	111032
23.15032	108464
23.15845	108741
23.16657	109353
23.17468	105471
23.18282	110699
23.19093	108482
23.19905	109977
23.20718	105225
23.21530	103739
23.22343	104098
23.23155	102273
23.23967	99373
23.24780	100561
23.25592	102665
23.26405	104085
23.27217	104010
23.28028	106125
23.28842	103529
23.29653	105881
23.30465	100975
23.31278	91495
23.32090	93153
23.32903	95843
23.33715	100259
23.34527	104623
23.35340	116679
23.36152	121890
23.36965	128985
23.37777	132345
23.38588	138471
23.39402	134401
23.40213	123202
23.41027	126926
23.41838	120699
23.42650	115794
23.43463	121530
23.44275	120209
23.45087	109806
23.45900	109616
23.46712	112053
23.47525	113828
23.48337	111469
23.49148	111308
23.49962	110590
23.50773	111100
23.51587	111110
23.52398	110424
23.53210	112320
23.54023	112765
23.54835	112627
23.55648	119537
23.56460	118229
23.57272	126193
23.58085	149702
23.58897	184359
23.59708	215714
23.60522	261594
23.61333	262930
23.62147	244612
23.62958	213289
23.63770	193788
23.64583	171677
23.65395	155869
23.66208	161391
23.67020	155652
23.67832	146116
23.68645	133621
23.69457	120736
23.70268	109685
23.71082	95345
23.71893	90397
23.72707	83812
23.73518	77047
23.74330	80136
23.75143	106489
23.75955	156505
23.76768	297151
23.77580	558107
23.78392	952210
23.79205	1408005
23.80017	1675122
23.80830	1728570
23.81642	1573280
23.82453	1341250
23.83267	1054112
23.84078	857069
23.84890	651512
23.85703	529707
23.86515	427006
23.87328	360023
23.88140	314737
23.88952	284887
23.89765	255609
23.90577	239944
23.91390	221134
23.92202	218904
23.93013	210010
23.93827	197328
23.94638	187100
23.95452	177294
23.96263	158128
23.97075	158074
23.97888	146525
23.98700	137636
23.99512	141820
24.00325	147871
24.01137	166153
24.01950	220676
24.02762	291299
24.03573	355816
24.04387	387840
24.05198	362067
24.06012	283699
24.06823	219665
24.07635	157867
24.08448	125666
24.09260	106689
24.10072	100779
24.10885	96154
24.11697	102176
24.12510	99783
24.13322	105866
24.14133	115145
24.14947	127172
24.15758	132910
24.16572	131161
24.17383	123197
24.18195	123787
24.19008	111294
24.19820	107647
24.20633	97682
24.21445	102875
24.22257	99202
24.23070	90553
24.23882	91021
24.24693	84064
24.25507	78341
24.26318	81980
24.27132	97003
24.27943	113075
24.28755	154750
24.29568	169087
24.30380	183816
24.31193	198066
24.32005	203815
24.32817	202682
24.33630	213905
24.34442	225749
24.35253	220219
24.36067	225266
24.36878	223018
24.37692	233906
24.38503	229088
24.39315	253607
24.40128	271272
24.40940	278945
24.41753	287289
24.42565	273305
24.43377	257566
24.44190	246853
24.45002	232361
24.45815	215358
24.46627	215860
24.47438	218247
24.48252	214979
24.49063	218023
24.49875	215719
24.50688	226693
24.51500	233586
24.52313	229654
24.53125	228189
24.53937	236510
24.54750	226668
24.55562	220914
24.56375	224309
24.57187	219141
24.57998	223273
24.58812	210910
24.59623	211697
24.60437	215339
24.61248	209491
24.62060	201897
24.62873	204630
24.63685	206682
24.64497	204321
24.65310	187436
24.66122	199787
24.66935	202795
24.67747	192965
24.68558	188020
24.69372	184964
24.70183	191476
24.70997	183663
24.71808	195735
24.72620	188848
24.73433	186650
24.74245	183331
24.75057	191060
24.75870	194626
24.76682	195794
24.77495	202289
24.78307	204124
24.79118	215416
24.79932	204729
24.80743	203450
24.81557	206875
24.82368	207874
24.83180	211192
24.83993	227730
24.84805	249862
24.85618	273952
24.86430	331000
24.87242	388713
24.88055	475421
24.88867	572085
24.89678	615268
24.90492	605547
24.91303	549150
24.92117	457656
24.92928	384260
24.93740	309013
24.94553	256733
24.95365	220690
24.96178	208855
24.96990	194459
24.97802	186758
24.98615	178757
24.99427	179708
25.00240	171806
25.01052	170591
25.01863	172268
25.02677	167510
25.03488	161339
25.04300	153626
25.05113	157553
25.05925	158441
25.06738	159466
25.07550	157303
25.08362	148579
25.09175	165510
25.09987	183989
25.10800	260781
25.11612	429664
25.12423	771059
25.13237	1264327
25.14048	1836746
25.14860	2308360
25.15673	2436172
25.16485	2153604
25.17298	1663383
25.18110	1148930
25.18922	733339
25.19735	484953
25.20547	312524
25.21360	225512
25.22172	173814
25.22983	163806
25.23797	173999
25.24608	236737
25.25422	345351
25.26233	493445
25.27045	665038
25.27858	754292
25.28670	794102
25.29482	707946
25.30295	549903
25.31107	393544
25.31920	263562
25.32732	183570
25.33543	140447
25.34357	114076
25.35168	100775
25.35982	91355
25.36793	82310
25.37605	82146
25.38418	81148
25.39230	72371
25.40043	73333
25.40855	68801
25.41667	71154
25.42480	68006
25.43292	64260
25.44103	59113
25.44917	61683
25.45728	62185
25.46542	65516
25.47353	61624
25.48165	64649
25.48978	65423
25.49790	66097
25.50603	64992
25.51415	66438
25.52227	62785
25.53040	59356
25.53852	57474
25.54663	67156
25.55477	73760
25.56288	91081
25.57102	118911
25.57913	147709
25.58725	170874
25.59538	192592
25.60350	205166
25.61163	205166
25.61975	224962
25.62787	229285
25.63600	247871
25.64412	281229
25.65225	277861
25.66037	284618
25.66848	263149
25.67662	260064
25.68473	243132
25.69285	235995
25.70098	235653
25.70910	240079
25.71723	232769
25.72535	234415
25.73347	227270
25.74160	225531
25.74972	234596
25.75785	217430
25.76597	224673
25.77408	226487
25.78222	213676
25.79033	216771
25.79845	213033
25.80658	213802
25.81470	209227
25.82283	207970
25.83095	211760
25.83907	207314
25.84720	208058
25.85532	208749
25.86345	200146
25.87157	200561
25.87968	197786
25.88782	186455
25.89593	193815
25.90407	198512
25.91218	188277
25.92030	190505
25.92843	182085
25.93655	180247
25.94467	178665
25.95280	175076
25.96092	177922
25.96905	173762
25.97717	168353
25.98528	170311
25.99342	169269
26.00153	167447
26.00967	169192
26.01778	154590
26.02590	160633
26.03403	155896
26.04215	155546
26.05028	156300
26.05840	151364
26.06652	155891
26.07465	157784
26.08277	152692
26.09088	150644
26.09902	152244
26.10713	149490
26.11527	150642
26.12338	148409
26.13150	146374
26.13963	151845
26.14775	151082
26.15588	147914
26.16400	147676
26.17212	147101
26.18025	150299
26.18837	140411
26.19648	136691
26.20462	134070
26.21273	130814
26.22087	123752
26.22898	130212
26.23710	125892
26.24523	129167
26.25335	127417
26.26148	121172
26.26960	119567
26.27772	123442
26.28585	123001
26.29397	121378
26.30210	118170
26.31022	122436
26.31833	115049
26.32647	115298
26.33458	113497
26.34270	117033
26.35083	115338
26.35895	115409
26.36708	111967
26.37520	116688
26.38332	123209
26.39145	123793
26.39957	135174
26.40770	130576
26.41582	130966
26.42393	129376
26.43207	119817
26.44018	118823
26.44832	111977
26.45643	114011
26.46455	106732
26.47268	106350
26.48080	105733
26.48892	100107
26.49705	104598
26.50517	100364
26.51330	96010
26.52142	95917
26.52953	97155
26.53767	89707
26.54578	91534
26.55392	90751
26.56203	83057
26.57015	91059
26.57828	84169
26.58640	86756
26.59452	83148
26.60265	86956
26.61077	83231
26.61890	80014
26.62702	91286
26.63513	86862
26.64327	85136
26.65138	84524
26.65952	86842
26.66763	88439
26.67575	84505
26.68388	89642
26.69200	82675
26.70013	82051
26.70825	77383
26.71637	78437
26.72450	75945
26.73262	72319
26.74073	69206
26.74887	73452
26.75698	76104
26.76512	73576
26.77323	72296
26.78135	69080
26.78948	68965
26.79760	72468
26.80573	76198
26.81385	72246
26.82197	73674
26.83010	72324
26.83822	68640
26.84633	67636
26.85447	69577
26.86258	65151
26.87072	67879
26.87883	62912
26.88695	62184
26.89508	65044
26.90320	59402
26.91133	58355
26.91945	58322
26.92757	54957
26.93570	61322
26.94382	58536
26.95195	60048
26.96007	62870
26.96818	67776
26.97632	73516
26.98443	89326
26.99255	116420
27.00068	150515
27.00880	204787
27.01693	258755
27.02505	308060
27.03317	336532
27.04130	351939
27.04942	338167
27.05755	299408
27.06567	249765
27.07378	212756
27.08192	192306
27.09003	165625
27.09817	150912
27.10628	138289
27.11440	134085
27.12253	123788
27.13065	118619
27.13877	114174
27.14690	110356
27.15502	109089
27.16315	104642
27.17127	104498
27.17938	114619
27.18752	114629
27.19563	119197
27.20377	112300
27.21188	110947
27.22000	106636
27.22813	94583
27.23625	93187
27.24437	87474
27.25250	82361
27.26062	83324
27.26875	75443
27.27687	75147
27.28498	71436
27.29312	72005
27.30123	74428
27.30937	69668
27.31748	68063
27.32560	65168
27.33373	68512
27.34185	61989
27.34998	66867
27.35810	68537
27.36622	72376
27.37435	67445
27.38247	71015
27.39058	70950
27.39872	67267
27.40683	65500
27.41497	69838
27.42308	60692
27.43120	57713
27.43933	58809
27.44745	59302
27.45558	63139
27.46370	58711
27.47182	57878
27.47995	58548
27.48807	54273
27.49620	57023
27.50432	55645
27.51243	56839
27.52057	58230
27.52868	54429
27.53680	57575
27.54493	55842
27.55305	57372
27.56118	59074
27.56930	58433
27.57742	64324
27.58555	65360
27.59367	68181
27.60180	74488
27.60992	77838
27.61803	71776
27.62617	67509
27.63428	64429
27.64240	58762
27.65053	58731
27.65865	58630
27.66678	54296
27.67490	55762
27.68302	53172
27.69115	52741
27.69927	54863
27.70740	52605
27.71552	53459
27.72363	48901
27.73177	48606
27.73988	51336
27.74802	52354
27.75613	60713
27.76425	64755
27.77238	79365
27.78050	94282
27.78862	108340
27.79675	116819
27.80487	106421
27.81300	104348
27.82112	87006
27.82923	70506
27.83737	64015
27.84548	62914
27.85362	54975
27.86173	51749
27.86985	55535
27.87798	49218
27.88610	53625
27.89422	49254
27.90235	50112
27.91047	49471
27.91860	49655
27.92672	49413
27.93483	49872
27.94297	45931
27.95108	45690
27.95922	46991
27.96733	46375
27.97545	55680
27.98358	49590
27.99170	51183
27.99983	53149
28.00795	50159
28.01607	57489
28.02420	58366
28.03232	54268
28.04043	54168
28.04857	56131
28.05668	56828
28.06482	53464
28.07293	52650
28.08105	52927
28.08918	46484
28.09730	47459
28.10543	48601
28.11355	50137
28.12167	48493
28.12980	48887
28.13792	45184
28.14605	46738
28.15417	44657
28.16228	46816
28.17042	42747
28.17853	49993
28.18665	48358
28.19478	54457
28.20290	62627
28.21103	70026
28.21915	77189
28.22727	80913
28.23540	76436
28.24352	76308
28.25165	66783
28.25977	58809
28.26788	51400
28.27602	54279
28.28413	48704
28.29227	46888
28.30038	47549
28.30850	45923
28.31663	55455
28.32475	54985
28.33287	60686
28.34100	71120
28.34912	80870
28.35725	86094
28.36537	101687
28.37348	104437
28.38162	113583
28.38973	119982
28.39787	123584
28.40598	127680
28.41410	117814
28.42223	122230
28.43035	119868
28.43847	113524
28.44660	108083
28.45472	100300
28.46285	96603
28.47097	91043
28.47908	87057
28.48722	85117
28.49533	82565
28.50347	81704
28.51158	76997
28.51970	76943
28.52783	71652
28.53595	73327
28.54408	69341
28.55220	65973
28.56032	66194
28.56845	63601
28.57657	63810
28.58468	54843
28.59282	60848
28.60093	61958
28.60907	62022
28.61718	59656
28.62530	58266
28.63343	56496
28.64155	65097
28.64968	63497
28.65780	67742
28.66592	72722
28.67405	67941
28.68217	68460
28.69028	64401
28.69842	62351
28.70653	61730
28.71467	59043
28.72278	57973
28.73090	57954
28.73903	56475
28.74715	59201
28.75528	54954
28.76340	66146
28.77152	69569
28.77965	77052
28.78777	77326
28.79590	76730
28.80402	68985
28.81213	65830
28.82027	63613
28.82838	60019
28.83650	61867
28.84463	57985
28.85275	54723
28.86088	55714
28.86900	59994
28.87712	58202
28.88525	56888
28.89337	59229
28.90150	64843
28.90962	68498
28.91773	65231
28.92587	64399
28.93398	61367
28.94212	59796
28.95023	62777
28.95835	64284
28.96648	64428
28.97460	61020
28.98272	54347
28.99085	54839
28.99897	50795
29.00710	53134
29.01522	49464
29.02333	48857
29.03147	48445
29.03958	48741
29.04772	51381
29.05583	53118
29.06395	63096
29.07208	60278
29.08020	68351
29.08832	69354
29.09645	66993
29.10457	66126
29.11270	61325
29.12082	58490
29.12893	57378
29.13707	51778
29.14518	47199
29.15332	47389
29.16143	48376
29.16955	50262
29.17768	55079
29.18580	55414
29.19393	60977
29.20205	69260
29.21017	76827
29.21830	86627
29.22642	87168
29.23453	88311
29.24267	85688
29.25078	82976
29.25892	83134
29.26703	86684
29.27515	81810
29.28328	85607
29.29140	78926
29.29953	67299
29.30765	61669
29.31577	51758
29.32390	52314
29.33202	48571
29.34015	46252
29.34827	46029
29.35638	41667
29.36452	42105
29.37263	48705
29.38075	48433
29.38888	53623
29.39700	58118
29.40513	70409
29.41325	85281
29.42137	113309
29.42950	139096
29.43762	144739
29.44575	132793
29.45387	116935
29.46198	91021
29.47012	75677
29.47823	70238
29.48635	60287
29.49448	62331
29.50260	61513
29.51073	62401
29.51885	59961
29.52697	57670
29.53510	56053
29.54322	55661
29.55135	50826
29.55947	52999
29.56758	53104
29.57572	54084
29.58383	49282
29.59197	48577
29.60008	48944
29.60820	48166
29.61633	50143
29.62445	49432
29.63257	46042
29.64070	49809
29.64882	50174
29.65695	45799
29.66507	45641
29.67318	48304
29.68132	48621
29.68943	49555
29.69757	48334
29.70568	47777
29.71380	49406
29.72193	49772
29.73005	45937
29.73817	47897
29.74630	44475
29.75442	46272
29.76255	40183
29.77067	44150
29.77878	42739
29.78692	42378
29.79503	43738
29.80317	41271
29.81128	43503
29.81940	41176
29.82753	41997
29.83565	43590
29.84378	43074
29.85190	49460
29.86002	48483
29.86815	61943
29.87627	77985
29.88438	110285
29.89252	150498
29.90063	199586
29.90877	208727
29.91688	197901
29.92500	166881
29.93313	120352
29.94125	85603
29.94938	69939
29.95750	59394
29.96562	57931
29.97375	65197
29.98187	63114
29.99000	66816
29.99812	73551
30.00623	73730
30.01437	77907
30.02248	75358
30.03060	85291
30.03873	82291
30.04685	87167
30.05498	83265
30.06310	80038
30.07122	90579
30.07935	80986
30.08747	83343
30.09560	79593
30.10372	81108
30.11183	81713
30.11997	82166
30.12808	73063
30.13620	74282
30.14433	72687
30.15245	75960
30.16058	69937
30.16870	68213
30.17682	65097
30.18495	63811
30.19307	67273
30.20120	60987
30.20932	61102
30.21743	62453
30.22557	59351
30.23368	58466
30.24182	57938
30.24993	56582
30.25805	53036
30.26618	54241
30.27430	53766
30.28242	50991
30.29055	55172
30.29867	51383
30.30680	44971
30.31492	49954
30.32303	50745
30.33117	46754
30.33928	48849
30.34742	48187
30.35553	50964
30.36365	49705
30.37178	45579
30.37990	50523
30.38803	45233
30.39615	50250
30.40427	47798
30.41240	43523
30.42052	43486
30.42863	45805
30.43677	43146
30.44488	44133
30.45302	42563
30.46113	44023
30.46925	43294
30.47738	49679
30.48550	46980
30.49363	49269
30.50175	45493
30.50987	49911
30.51800	47024
30.52612	47723
30.53423	46421
30.54237	47319
30.55048	44869
30.55862	44745
30.56673	45290
30.57485	45385
30.58298	47375
30.59110	46417
30.59923	40486
30.60735	44104
30.61547	44272
30.62360	43426
30.63172	42998
30.63985	43485
30.64797	41188
30.65608	39610
30.66422	38957
30.67233	41348
30.68045	40700
30.68858	44212
30.69670	41694
30.70483	41566
30.71295	40559
30.72107	41448
30.72920	37831
30.73732	42651
30.74545	41639
30.75357	41009
30.76168	47560
30.76982	58029
30.77793	83754
30.78605	137661
30.79418	221616
30.80230	328963
30.81043	420082
30.81855	477506
30.82667	443422
30.83480	359072
30.84292	249006
30.85105	158830
30.85917	112157
30.86728	83317
30.87542	68273
30.88353	65428
30.89167	57884
30.89978	55007
30.90790	54549
30.91603	49991
30.92415	46792
30.93227	43920
30.94040	50202
30.94852	49717
30.95665	46810
30.96477	49479
30.97288	46984
30.98102	47554
30.98913	52887
30.99727	53106
31.00538	49611
31.01350	51993
31.02163	57436
31.02975	62091
31.03788	64563
31.04600	68614
31.05412	62626
31.06225	66035
31.07037	66792
31.07848	68866
31.08662	72469
31.09473	79338
31.10287	81111
31.11098	87833
31.11910	87284
31.12723	84535
31.13535	79896
31.14348	73975
31.15160	73245
31.15972	71338
31.16785	77648
31.17597	74293
31.18408	82531
31.19222	95735
31.20033	105305
31.20847	121298
31.21658	144731
31.22470	159451
31.23283	160021
31.24095	159706
31.24908	134925
31.25720	121389
31.26532	96876
31.27345	76697
31.28157	79414
31.28970	73096
31.29782	69964
31.30593	68314
31.31407	69974
31.32218	64636
31.33030	65445
31.33843	63282
31.34655	67876
31.35468	66643
31.36280	67147
31.37092	62897
31.37905	67526
31.38717	66481
31.39530	71248
31.40342	62561
31.41153	61951
31.41967	61709
31.42778	65903
31.43592	66855
31.44403	65131
31.45215	69131
31.46028	62289
31.46840	70827
31.47652	77554
31.48465	89011
31.49277	88943
31.50090	92646
31.50902	89751
31.51713	88206
31.52527	78057
31.53338	73267
31.54152	70195
31.54963	74123
31.55775	78334
31.56588	85031
31.57400	88682
31.58212	84930
31.59025	85040
31.59837	76892
31.60650	73097
31.61462	62557
31.62273	61936
31.63087	59671
31.63898	64732
31.64712	59812
31.65523	57325
31.66335	60027
31.67148	60620
31.67960	56676
31.68773	56110
31.69585	59570
31.70397	58454
31.71210	55043
31.72022	48949
31.72833	51823
31.73647	52354
31.74458	53140
31.75272	48762
31.76083	52416
31.76895	53722
31.77708	48269
31.78520	48391
31.79333	51423
31.80145	54427
31.80957	55307
31.81770	62691
31.82582	53294
31.83395	49849
31.84207	48258
31.85018	50769
31.85832	47918
31.86643	50616
31.87455	52326
31.88268	52346
31.89080	56009
31.89893	59163
31.90705	60355
31.91517	56661
31.92330	63788
31.93142	67243
31.93955	65482
31.94767	66689
31.95578	72107
31.96392	73163
31.97203	85617
31.98015	81319
31.98828	85313
31.99640	84808
32.00453	78347
32.01265	81623
32.02077	80093
32.02890	81274
32.03702	84013
32.04515	78319
32.05327	80287
32.06138	74108
32.06952	74035
32.07763	73934
32.08577	72331
32.09388	71608
32.10200	71844
32.11013	64781
32.11825	61292
32.12637	61717
32.13450	60924
32.14262	61378
32.15075	56876
32.15887	61640
32.16698	53082
32.17512	54758
32.18323	52187
32.19137	54989
32.19948	53888
32.20760	56819
32.21573	57002
32.22385	51965
32.23197	51815
32.24010	53133
32.24822	49060
32.25635	55851
32.26447	54804
32.27258	62669
32.28072	56608
32.28883	55084
32.29697	53648
32.30508	53494
32.31320	54140
32.32133	50017
32.32945	54046
32.33758	47076
32.34570	47153
32.35382	49477
32.36195	53772
32.37007	49953
32.37818	44209
32.38632	50056
32.39443	48479
32.40257	47508
32.41068	44204
32.41880	45051
32.42693	46326
32.43505	45745
32.44318	45783
32.45130	43305
32.45942	46218
32.46755	43476
32.47567	44606
32.48380	43788
32.49192	43932
32.50003	45099
32.50817	46705
32.51628	46518
32.52440	47563
32.53253	49315
32.54065	45399
32.54878	51838
32.55690	48149
32.56502	47242
32.57315	48704
32.58127	47386
32.58940	47328
32.59752	48375
32.60563	46283
32.61377	43436
32.62188	43686
32.63000	43492
32.63813	44801
32.64625	45218
32.65438	48693
32.66250	50287
32.67062	53190
32.67875	59536
32.68687	57796
32.69500	57691
32.70312	52107
32.71123	48986
32.71937	53041
32.72748	50527
32.73562	47080
32.74373	50713
32.75185	46918
32.75998	46909
32.76810	45131
32.77622	43696
32.78435	47530
32.79247	40263
32.80060	39051
32.80872	47332
32.81683	43438
32.82497	40831
32.83308	43636
32.84122	41347
32.84933	41517
32.85745	41089
32.86558	47706
32.87370	40251
32.88183	44770
32.88995	45573
32.89807	42982
32.90620	42959
32.91432	41810
32.92243	45083
32.93057	40743
32.93868	44388
32.94682	39539
32.95493	40961
32.96305	50253
32.97118	53839
32.97930	69780
32.98743	87834
32.99555	120095
33.00367	141768
33.01180	145202
33.01992	144672
33.02803	128751
33.03617	99760
33.04428	83777
33.05242	77451
33.06053	65491
33.06865	60110
33.07678	60382
33.08490	63022
33.09303	57948
33.10115	73283
33.10927	83964
33.11740	95567
33.12552	92761
33.13365	91045
33.14177	81742
33.14988	73616
33.15802	67378
33.16613	63571
33.17425	55420
33.18238	53187
33.19050	52544
33.19863	51122
33.20675	49422
33.21487	52138
33.22300	49831
33.23112	49649
33.23925	49027
33.24737	48340
33.25548	47449
33.26362	44376
33.27173	48352
33.27985	44891
33.28798	48418
33.29610	48052
33.30423	44231
33.31235	50967
33.32047	44035
33.32860	41072
33.33672	45687
33.34485	48347
33.35297	49494
33.36108	47400
33.36922	46895
33.37733	43041
33.38547	48129
33.39358	47702
33.40170	47807
33.40983	44449
33.41795	46548
33.42607	42571
33.43420	44262
33.44232	41682
33.45045	43992
33.45857	42573
33.46668	41166
33.47482	45098
33.48293	47722
33.49107	45194
33.49918	47656
33.50730	47049
33.51543	47936
33.52355	47351
33.53168	50971
33.53980	49381
33.54792	52592
33.55605	51042
33.56417	48833
33.57228	50845
33.58042	50870
33.58853	47644
33.59667	46445
33.60478	48307
33.61290	47329
33.62103	44651
33.62915	44205
33.63728	48930
33.64540	50009
33.65352	49007
33.66165	49840
33.66977	47572
33.67790	50894
33.68602	48914
33.69413	45936
33.70227	48819
33.71038	43879
33.71850	44034
33.72663	42156
33.73475	45293
33.74288	43141
33.75100	46550
33.75912	45557
33.76725	41705
33.77537	41446
33.78350	42472
33.79162	43642
33.79973	41377
33.80787	44105
33.81598	40984
33.82410	40037
33.83223	44067
33.84035	44790
33.84848	48654
33.85660	48844
33.86472	47326
33.87285	43283
33.88097	45289
33.88910	43716
33.89722	45674
33.90533	45603
33.91347	48999
33.92158	46358
33.92972	50351
33.93783	43193
33.94595	46002
33.95408	46345
33.96220	44073
33.97032	43769
33.97845	46460
33.98657	46293
33.99470	43573
34.00282	48072
34.01093	47822
34.01907	45713
34.02718	44171
34.03532	45448
34.04343	45284
34.05155	44042
34.05968	41764
34.06780	42606
34.07592	42806
34.08405	42670
34.09217	46995
34.10030	43917
34.10842	43367
34.11653	41475
34.12467	45524
34.13278	46344
34.14092	43718
34.14903	41894
34.15715	42595
34.16528	48697
34.17340	48255
34.18153	47953
34.18965	46295
34.19777	43590
34.20590	45285
34.21402	42340
34.22213	47109
34.23027	42553
34.23838	45673
34.24652	44939
34.25463	45803
34.26275	45225
34.27088	46561
34.27900	52974
34.28713	46208
34.29525	44319
34.30337	44300
34.31150	45417
34.31962	48390
34.32775	43678
34.33587	44384
34.34398	48579
34.35212	45542
34.36023	42606
34.36835	50223
34.37648	48701
34.38460	47233
34.39273	44192
34.40085	45173
34.40897	43010
34.41710	42355
34.42522	48041
34.43335	46519
34.44147	43625
34.44958	44155
34.45772	43352
34.46583	46124
34.47395	49076
34.48208	43951
34.49020	42423
34.49833	41903
34.50645	44108
34.51457	45683
34.52270	57631
34.53082	54992
34.53895	57286
34.54707	65939
34.55518	68230
34.56332	70000
34.57143	76664
34.57957	71517
34.58768	69352
34.59580	72965
34.60393	70320
34.61205	66136
34.62017	61965
34.62830	61864
34.63642	54306
34.64455	53261
34.65267	55278
34.66078	53465
34.66892	52343
34.67703	50874
34.68517	49757
34.69328	49737
34.70140	54729
34.70953	52311
34.71765	51449
34.72578	52075
34.73390	49517
34.74202	50235
34.75015	48707
34.75827	51965
34.76638	51049
34.77452	49813
34.78263	48726
34.79077	49703
34.79888	48419
34.80700	48787
34.81513	45046
34.82325	47228
34.83138	49411
34.83950	46247
34.84762	49692
34.85575	46415
34.86387	46798
34.87198	47915
34.88012	48562
34.88823	47503
34.89637	48275
34.90448	45898
34.91260	48648
34.92073	49134
34.92885	51423
34.93698	49600
34.94510	51986
34.95322	52126
34.96135	54411
34.96947	57216
34.97760	58607
34.98572	57459
34.99383	58445
35.00197	56457
35.01008	52254
35.01820	52848
35.02633	52043
35.03445	47228
35.04258	47933
35.05070	47522
35.05882	47172
35.06695	47704
35.07507	49528
35.08320	49811
35.09132	48548
35.09943	47017
35.10757	46936
35.11568	48146
35.12380	47846
35.13193	46865
35.14005	48896
35.14818	49422
35.15630	46803
35.16442	50246
35.17255	50601
35.18067	49947
35.18880	47337
35.19692	52855
35.20503	48329
35.21317	44835
35.22128	43703
35.22942	45470
35.23753	46840
35.24565	47104
35.25378	42374
35.26190	45676
35.27002	49333
35.27815	47071
35.28627	48760
35.29440	48596
35.30252	47505
35.31063	46219
35.31877	49232
35.32688	44248
35.33502	44476
35.34313	45415
35.35125	44366
35.35938	47146
35.36750	48062
35.37563	43055
35.38375	44406
35.39187	45941
35.40000	46016
35.40812	44111
35.41623	50871
35.42437	48630
35.43248	53662
35.44062	50570
35.44873	48730
35.45685	48437
35.46498	53836
35.47310	55914
35.48123	50866
35.48935	55016
35.49747	52225
35.50560	49337
35.51372	47476
35.52183	48828
35.52997	49474
35.53808	45840
35.54622	46237
35.55433	46295
35.56245	45458
35.57058	47158
35.57870	46442
35.58683	50314
35.59495	43824
35.60307	47103
35.61120	49852
35.61932	48141
35.62745	42637
35.63557	45549
35.64368	47915
35.65182	47173
35.65993	51379
35.66805	46317
35.67618	46864
35.68430	51337
35.69243	52354
35.70055	54981
35.70867	52464
35.71680	53212
35.72492	48633
35.73305	49088
35.74117	49849
35.74928	49354
35.75742	51944
35.76553	57660
35.77367	53201
35.78178	54653
35.78990	57784
35.79803	49916
35.80615	49877
35.81427	46859
35.82240	50123
35.83052	50731
35.83865	50350
35.84677	46864
35.85488	48776
35.86302	49801
35.87113	46702
35.87927	53475
35.88738	46946
35.89550	47192
35.90363	48120
35.91175	45674
35.91987	49326
35.92800	49789
35.93612	44922
35.94425	49995
35.95237	46350
35.96048	49155
35.96862	49721
35.97673	50295
35.98487	52046
35.99298	54184
36.00110	48091
36.00923	46883
36.01735	55326
36.02548	56386
36.03360	58254
36.04172	52842
36.04985	55186
36.05797	52489
36.06608	52759
36.07422	51090
36.08233	51892
36.09047	47029
36.09858	51767
36.10670	49899
36.11483	50311
36.12295	54042
36.13108	52144
36.13920	54945
36.14732	54163
36.15545	48931
36.16357	51594
36.17168	52411
36.17982	54607
36.18793	54000
36.19607	50895
36.20418	50068
36.21230	51089
36.22043	49685
36.22855	52961
36.23668	50825
36.24480	51090
36.25292	52762
36.26105	51290
36.26917	54914
36.27730	52401
36.28542	51067
36.29353	52264
36.30167	56141
36.30978	57859
36.31790	61064
36.32603	62286
36.33415	58927
36.34228	59265
36.35040	57545
36.35852	52330
36.36665	51623
36.37477	55425
36.38290	52484
36.39102	55170
36.39913	52658
36.40727	51931
36.41538	53167
36.42352	49341
36.43163	52711
36.43975	54456
36.44788	56169
36.45600	51467
36.46412	48565
36.47225	49377
36.48037	50482
36.48850	46499
36.49662	53833
36.50473	52751
36.51287	50040
36.52098	51460
36.52912	49131
36.53723	51728
36.54535	49587
36.55348	51027
36.56160	54993
36.56972	47363
36.57785	54272
36.58597	55696
36.59410	50766
36.60222	49305
36.61033	50235
36.61847	51731
36.62658	51021
36.63472	51506
36.64283	51178
36.65095	57237
36.65908	57759
36.66720	55789
36.67533	56142
36.68345	54888
36.69157	55910
36.69970	55994
36.70782	53215
36.71593	52647
36.72407	55178
36.73218	56269
36.74032	59072
36.74843	58452
36.75655	54548
36.76468	56085
36.77280	54059
36.78093	57876
36.78905	56508
36.79717	57723
36.80530	52501
36.81342	54987
36.82155	52666
36.82967	60552
36.83778	53919
36.84592	55603
36.85403	54606
36.86215	56505
36.87028	56265
36.87840	57334
36.88653	52318
36.89465	55274
36.90277	53919
36.91090	56709
36.91902	56220
36.92715	60285
36.93527	63619
36.94338	74016
36.95152	81589
36.95963	94903
36.96775	93820
36.97588	99629
36.98400	104423
36.99213	96192
37.00025	84115
37.00837	80033
37.01650	70568
37.02462	63173
37.03275	63262
37.04087	63822
37.04898	65072
37.05712	61985
37.06523	61583
37.07337	58495
37.08148	60567
37.08960	66707
37.09773	59367
37.10585	61840
37.11397	63414
37.12210	61335
37.13022	62631
37.13835	63491
37.14647	68228
37.15458	60519
37.16272	61166
37.17083	60227
37.17897	62212
37.18708	59594
37.19520	61122
37.20333	63979
37.21145	58372
37.21958	59897
37.22770	64721
37.23582	60427
37.24395	59952
37.25207	56598
37.26018	54817
37.26832	61462
37.27643	59745
37.28457	59830
37.29268	60421
37.30080	59600
37.30893	57462
37.31705	58630
37.32518	65301
37.33330	66776
37.34142	73049
37.34955	70925
37.35767	75933
37.36578	79677
37.37392	77904
37.38203	78632
37.39017	78313
37.39828	77148
37.40640	73944
37.41453	75005
37.42265	74882
37.43078	68561
37.43890	70369
37.44702	74186
37.45515	69304
37.46327	69899
37.47140	68399
37.47952	71511
37.48763	67254
