C:\MassHunter\GCMS\1\data\JTB-E02\BACandBLUE\JTB-E18-014-09.D Tue Jun 25 13:27:26 2019
Start of data points
2.09530	69152
2.10343	67593
2.11155	72188
2.11967	69354
2.12780	69243
2.13592	69152
2.14405	68153
2.15217	66887
2.16028	62510
2.16842	65226
2.17653	66152
2.18467	66156
2.19278	63957
2.20090	61933
2.20903	65414
2.21715	61583
2.22527	60030
2.23340	60533
2.24152	60315
2.24965	59417
2.25777	60357
2.26588	63813
2.27402	164785
2.28213	1127118
2.29027	1690048
2.29838	751948
2.30650	377418
2.31463	294964
2.32275	249293
2.33087	217328
2.33900	256062
2.34712	307562
2.35525	208787
2.36337	177991
2.37148	165360
2.37962	151795
2.38773	150369
2.39587	143532
2.40398	139007
2.41210	140839
2.42023	128556
2.42835	131183
2.43648	125319
2.44460	122521
2.45272	121011
2.46085	115233
2.46897	114932
2.47708	106114
2.48522	108932
2.49333	126476
2.50147	170228
2.50958	150669
2.51770	126903
2.52583	123855
2.53395	116173
2.54208	111472
2.55020	111390
2.55832	124674
2.56645	186193
2.57457	223814
2.58270	180181
2.59082	158654
2.59893	141138
2.60707	170091
2.61518	462142
2.62330	774389
2.63143	536496
2.63955	327058
2.64768	246771
2.65580	205038
2.66392	177127
2.67205	154682
2.68017	147532
2.68830	144182
2.69642	132191
2.70453	130585
2.71267	125553
2.72078	123148
2.72890	123957
2.73703	124061
2.74515	117953
2.75328	115014
2.76140	116655
2.76952	112222
2.77765	114189
2.78577	144822
2.79390	230117
2.80202	218616
2.81013	158984
2.81827	154770
2.82638	182119
2.83452	214697
2.84263	230554
2.85075	213125
2.85888	157839
2.86700	135097
2.87512	133153
2.88325	123082
2.89137	118228
2.89950	118714
2.90762	110481
2.91573	108055
2.92387	105485
2.93198	106860
2.94012	104066
2.94823	105516
2.95635	103452
2.96448	108291
2.97260	125976
2.98072	125683
2.98885	110854
2.99697	117956
3.00510	133943
3.01322	133357
3.02133	125017
3.02947	114462
3.03758	110509
3.04572	103845
3.05383	110773
3.06195	119999
3.07008	139452
3.07820	137896
3.08633	261038
3.09445	1058644
3.10257	2303439
3.11070	3467896
3.11882	4533490
3.12693	3547682
3.13507	2133461
3.14318	1504785
3.15132	1175853
3.15943	928916
3.16755	784022
3.17568	732464
3.18380	723110
3.19193	1013460
3.20005	1843462
3.20817	2040567
3.21630	1441772
3.22442	1064479
3.23255	868340
3.24067	747434
3.24878	640396
3.25692	554891
3.26503	504088
3.27315	439849
3.28128	413604
3.28940	475000
3.29753	1070354
3.30565	3277912
3.31377	6799236
3.32190	8246941
3.33002	6834162
3.33815	4775190
3.34627	3396056
3.35438	2557096
3.36252	2037312
3.37063	1689256
3.37875	1432785
3.38688	1235398
3.39500	1072822
3.40313	981860
3.41125	892054
3.41937	812664
3.42750	746751
3.43562	697615
3.44375	677990
3.45187	654147
3.45998	603687
3.46812	592972
3.47623	593016
3.48437	599227
3.49248	551450
3.50060	537203
3.50873	503298
3.51685	471081
3.52497	469775
3.53310	457508
3.54122	463338
3.54935	470219
3.55747	448264
3.56558	430576
3.57372	449645
3.58183	474412
3.58997	478928
3.59808	443715
3.60620	405116
3.61433	395034
3.62245	402144
3.63058	417038
3.63870	464475
3.64682	510614
3.65495	484055
3.66307	506482
3.67118	1309231
3.67932	4631954
3.68743	8598487
3.69557	8132633
3.70368	5013053
3.71180	3113521
3.71993	2392194
3.72805	1959114
3.73618	1692216
3.74430	1502522
3.75242	1351125
3.76055	1218236
3.76867	1138765
3.77678	1058198
3.78492	991459
3.79303	928094
3.80117	928086
3.80928	1169523
3.81740	1951646
3.82553	2616888
3.83365	2289865
3.84178	1614527
3.84990	1250813
3.85802	1092685
3.86615	968779
3.87427	903996
3.88240	839503
3.89052	780194
3.89863	744042
3.90677	704450
3.91488	689869
3.92300	772490
3.93113	965256
3.93925	1078100
3.94738	1045165
3.95550	1372356
3.96362	2912736
3.97175	5186321
3.97987	5542468
3.98800	3828908
3.99612	2543825
4.00423	4222040
4.01237	1.126119E+07
4.02048	2.027144E+07
4.02862	2.159141E+07
4.03673	1.430509E+07
4.04485	7112703
4.05298	3815478
4.06110	2526588
4.06922	1865363
4.07735	1507696
4.08547	1288627
4.09360	1121675
4.10172	1014115
4.10983	922051
4.11797	852818
4.12608	788745
4.13422	763283
4.14233	839261
4.15045	1216367
4.15858	1670563
4.16670	1696315
4.17482	1368918
4.18295	1106813
4.19107	930196
4.19920	812496
4.20732	785765
4.21543	1367659
4.22357	4274328
4.23168	1.052552E+07
4.23982	1.660636E+07
4.24793	1.788144E+07
4.25605	1.359329E+07
4.26418	8064771
4.27230	5112607
4.28043	3698206
4.28855	2772710
4.29667	2211576
4.30480	1822625
4.31292	1569333
4.32103	1388497
4.32917	1281421
4.33728	1209538
4.34542	1123399
4.35353	1094453
4.36165	1086415
4.36978	1076459
4.37790	1026111
4.38603	939329
4.39415	840061
4.40227	775294
4.41040	724147
4.41852	695697
4.42663	662249
4.43477	636321
4.44288	617269
4.45102	588699
4.45913	582751
4.46725	576060
4.47538	539816
4.48350	528158
4.49163	507734
4.49975	509071
4.50787	493655
4.51600	479386
4.52412	473043
4.53225	469957
4.54037	459457
4.54848	446835
4.55662	465020
4.56473	445525
4.57285	429024
4.58098	413388
4.58910	416903
4.59723	398976
4.60535	395614
4.61347	388500
4.62160	417296
4.62972	528941
4.63785	830405
4.64597	1241576
4.65408	1351141
4.66222	1123147
4.67033	803733
4.67847	602597
4.68658	543607
4.69470	500722
4.70283	454765
4.71095	415832
4.71907	401783
4.72720	376467
4.73532	364999
4.74345	348371
4.75157	346624
4.75968	340452
4.76782	326036
4.77593	320852
4.78407	322330
4.79218	338399
4.80030	378183
4.80843	464291
4.81655	510584
4.82467	482991
4.83280	420241
4.84092	409095
4.84905	418219
4.85717	426107
4.86528	420501
4.87342	387978
4.88153	381420
4.88967	356217
4.89778	335287
4.90590	327713
4.91403	323201
4.92215	311530
4.93028	335215
4.93840	452577
4.94652	894772
4.95465	1900307
4.96277	3244292
4.97088	4210410
4.97902	4172674
4.98713	3409986
4.99527	2535193
5.00338	1887192
5.01150	1468831
5.01963	1222591
5.02775	1113153
5.03588	1282608
5.04400	1630975
5.05212	1781066
5.06025	1581050
5.06837	1271359
5.07650	1059205
5.08462	928643
5.09273	840754
5.10087	761069
5.10898	730490
5.11710	696488
5.12523	666149
5.13335	637989
5.14148	600765
5.14960	581381
5.15772	615256
5.16585	676773
5.17397	729517
5.18210	737666
5.19022	675963
5.19833	646283
5.20647	672148
5.21458	720255
5.22270	734839
5.23083	678513
5.23895	612618
5.24708	565501
5.25520	510081
5.26332	472148
5.27145	443999
5.27957	393774
5.28770	391175
5.29582	385156
5.30393	360763
5.31207	366140
5.32018	373773
5.32832	376255
5.33643	407426
5.34455	435911
5.35268	454194
5.36080	426837
5.36892	401708
5.37705	381737
5.38517	381907
5.39330	406125
5.40142	434946
5.40953	443383
5.41767	427920
5.42578	393849
5.43392	368598
5.44203	342751
5.45015	354289
5.45828	358746
5.46640	367642
5.47452	359156
5.48265	337643
5.49077	316051
5.49890	301503
5.50702	297527
5.51513	300151
5.52327	307143
5.53138	325695
5.53952	307925
5.54763	307689
5.55575	314129
5.56388	342250
5.57200	417121
5.58013	491058
5.58825	505616
5.59637	446886
5.60450	374137
5.61262	319127
5.62073	310096
5.62887	304971
5.63698	314409
5.64512	318218
5.65323	317566
5.66135	307390
5.66948	296377
5.67760	288138
5.68573	310536
5.69385	336287
5.70197	361448
5.71010	341075
5.71822	322170
5.72635	301134
5.73447	280092
5.74258	269474
5.75072	262856
5.75883	260504
5.76695	254238
5.77508	250131
5.78320	251659
5.79133	241340
5.79945	245473
5.80757	248278
5.81570	239644
5.82382	248756
5.83195	247704
5.84007	244740
5.84818	252962
5.85632	251342
5.86443	258158
5.87255	252160
5.88068	237093
5.88880	237305
5.89693	233136
5.90505	223387
5.91317	200046
5.92130	181084
5.92942	176542
5.93755	176387
5.94567	184200
5.95378	184839
5.96192	209865
5.97003	250626
5.97817	273304
5.98628	318680
5.99440	359222
6.00253	345029
6.01065	307085
6.01877	256398
6.02690	221970
6.03502	219106
6.04315	208871
6.05127	191883
6.05938	187245
6.06752	173898
6.07563	176342
6.08377	163106
6.09188	165970
6.10000	168102
6.10813	169034
6.11625	163537
6.12438	186103
6.13250	258460
6.14062	413302
6.14875	604970
6.15687	686981
6.16498	610478
6.17312	477584
6.18123	357565
6.18937	298524
6.19748	259261
6.20560	242218
6.21373	231907
6.22185	233632
6.22998	226992
6.23810	228318
6.24622	228015
6.25435	244120
6.26247	262550
6.27058	274436
6.27872	263357
6.28683	251626
6.29497	229839
6.30308	225539
6.31120	221181
6.31933	218472
6.32745	227295
6.33558	233923
6.34370	239395
6.35182	237279
6.35995	230902
6.36807	223380
6.37620	234833
6.38432	223609
6.39243	225841
6.40057	231473
6.40868	212685
6.41680	223545
6.42493	213846
6.43305	224498
6.44118	223515
6.44930	217032
6.45742	214537
6.46555	217148
6.47367	218612
6.48180	206222
6.48992	222665
6.49803	221555
6.50617	228662
6.51428	226310
6.52240	233251
6.53053	227993
6.53865	235151
6.54678	224884
6.55490	229079
6.56302	236789
6.57115	291315
6.57927	370384
6.58740	454472
6.59552	460994
6.60363	400607
6.61177	333675
6.61988	289122
6.62802	267625
6.63613	274369
6.64425	312178
6.65238	582944
6.66050	1577636
6.66862	3491980
6.67675	5346919
6.68487	5686856
6.69300	4371602
6.70112	2677615
6.70923	1799065
6.71737	1211247
6.72548	929424
6.73362	765873
6.74173	659729
6.74985	572530
6.75798	519746
6.76610	470550
6.77423	435880
6.78235	408702
6.79047	369318
6.79860	339294
6.80672	333552
6.81483	311852
6.82297	289863
6.83108	284927
6.83922	276797
6.84733	271011
6.85545	274744
6.86358	290119
6.87170	306165
6.87983	292956
6.88795	265707
6.89607	221836
6.90420	186835
6.91232	170338
6.92045	162520
6.92857	155293
6.93668	138636
6.94482	133115
6.95293	126323
6.96105	127841
6.96918	138320
6.97730	172606
6.98543	200062
6.99355	221607
7.00167	222734
7.00980	208769
7.01792	186675
7.02605	172826
7.03417	167222
7.04228	159292
7.05042	157305
7.05853	159521
7.06665	169937
7.07478	177902
7.08290	178800
7.09103	164506
7.09915	158209
7.10727	150538
7.11540	133816
7.12352	135865
7.13165	127696
7.13977	136013
7.14788	164198
7.15602	217375
7.16413	290313
7.17227	340666
7.18038	307309
7.18850	260194
7.19663	237634
7.20475	331559
7.21287	652144
7.22100	1180007
7.22912	1574413
7.23725	1551259
7.24537	1125385
7.25348	676106
7.26162	409296
7.26973	283792
7.27787	203569
7.28598	167533
7.29410	142324
7.30223	132359
7.31035	130316
7.31847	137491
7.32660	135071
7.33472	136558
7.34285	144668
7.35097	147540
7.35908	147002
7.36722	136074
7.37533	130954
7.38347	124466
7.39158	124732
7.39970	128366
7.40783	126354
7.41595	132936
7.42408	129248
7.43220	123112
7.44032	117946
7.44845	117196
7.45657	118180
7.46468	112626
7.47282	116201
7.48093	111959
7.48907	111263
7.49718	102518
7.50530	99368
7.51343	109805
7.52155	129250
7.52968	184896
7.53780	325945
7.54592	585816
7.55405	973660
7.56217	1394255
7.57030	1734291
7.57842	1756959
7.58653	1512130
7.59467	1131716
7.60278	754781
7.61090	456198
7.61903	286902
7.62715	210485
7.63528	160687
7.64340	141352
7.65152	122416
7.65965	117740
7.66777	102210
7.67590	104144
7.68402	103080
7.69213	94693
7.70027	95315
7.70838	93256
7.71650	93889
7.72463	100325
7.73275	101071
7.74088	100895
7.74900	102062
7.75712	104294
7.76525	106106
7.77337	115663
7.78150	120914
7.78962	114941
7.79773	117190
7.80587	124905
7.81398	136598
7.82212	133532
7.83023	121742
7.83835	113040
7.84648	105906
7.85460	103537
7.86272	109210
7.87085	123656
7.87897	135069
7.88710	153176
7.89522	169646
7.90333	170831
7.91147	152779
7.91958	143463
7.92772	127642
7.93583	140303
7.94395	168555
7.95208	185675
7.96020	178678
7.96833	160877
7.97645	126753
7.98457	109751
7.99270	97665
8.00082	89978
8.00893	82081
8.01707	84502
8.02518	82803
8.03332	82952
8.04143	84369
8.04955	82225
8.05768	84998
8.06580	82330
8.07393	78728
8.08205	82791
8.09017	78962
8.09830	77997
8.10642	74368
8.11453	74016
8.12267	77974
8.13078	78669
8.13892	94915
8.14703	109779
8.15515	125219
8.16328	128322
8.17140	123590
8.17953	104313
8.18765	94704
8.19577	87816
8.20390	77694
8.21202	83646
8.22015	81737
8.22827	79291
8.23638	81714
8.24452	83373
8.25263	79115
8.26075	75097
8.26888	76231
8.27700	72348
8.28513	69320
8.29325	72034
8.30137	69724
8.30950	73592
8.31762	77431
8.32575	79046
8.33387	85251
8.34198	78506
8.35012	71216
8.35823	78658
8.36635	73345
8.37448	74977
8.38260	78702
8.39073	74854
8.39885	79273
8.40697	72501
8.41510	68583
8.42322	67719
8.43135	66009
8.43947	66013
8.44758	64676
8.45572	64355
8.46383	68379
8.47197	67278
8.48008	70545
8.48820	63664
8.49633	63235
8.50445	68867
8.51257	67390
8.52070	86398
8.52882	140211
8.53695	228911
8.54507	331708
8.55318	341442
8.56132	303067
8.56943	215207
8.57757	140842
8.58568	104609
8.59380	93558
8.60193	92297
8.61005	92771
8.61818	91060
8.62630	91698
8.63442	92863
8.64255	82320
8.65067	74201
8.65878	74091
8.66692	74964
8.67503	73885
8.68317	74045
8.69128	78204
8.69940	88442
8.70753	94691
8.71565	102235
8.72378	95722
8.73190	86875
8.74002	79227
8.74815	88358
8.75627	152135
8.76438	342207
8.77252	715037
8.78063	1294391
8.78877	1811541
8.79688	1854626
8.80500	1577542
8.81313	1098291
8.82125	684561
8.82938	447795
8.83750	345143
8.84562	307346
8.85375	288558
8.86187	273801
8.87000	252898
8.87812	233612
8.88623	202555
8.89437	193337
8.90248	184909
8.91060	175005
8.91873	161857
8.92685	164918
8.93498	166648
8.94310	176812
8.95122	187270
8.95935	183843
8.96747	170340
8.97560	161120
8.98372	166545
8.99183	170641
8.99997	168129
9.00808	167301
9.01622	154155
9.02433	145971
9.03245	134288
9.04058	121338
9.04870	124646
9.05682	118119
9.06495	119191
9.07307	119383
9.08120	113431
9.08932	119861
9.09743	127592
9.10557	150815
9.11368	174000
9.12182	200778
9.12993	212982
9.13805	196902
9.14618	172690
9.15430	146903
9.16242	132065
9.17055	119954
9.17867	119198
9.18680	120993
9.19492	112937
9.20303	104729
9.21117	105828
9.21928	100818
9.22742	104739
9.23553	99460
9.24365	100294
9.25178	104985
9.25990	101488
9.26803	101603
9.27615	100233
9.28427	104308
9.29240	99593
9.30052	98423
9.30863	91553
9.31677	94716
9.32488	90684
9.33302	97399
9.34113	99343
9.34925	92842
9.35738	102987
9.36550	93731
9.37363	92240
9.38175	89501
9.38987	88413
9.39800	87947
9.40612	100374
9.41423	117600
9.42237	148974
9.43048	207895
9.43862	270086
9.44673	307790
9.45485	309776
9.46298	265901
9.47110	225932
9.47923	171291
9.48735	142559
9.49547	116610
9.50360	100432
9.51172	106855
9.51985	124904
9.52797	144426
9.53608	147989
9.54422	138184
9.55233	123321
9.56045	103332
9.56858	89595
9.57670	79246
9.58483	83940
9.59295	80413
9.60107	80750
9.60920	80609
9.61732	75704
9.62545	65840
9.63357	63961
9.64168	68566
9.64982	70506
9.65793	72757
9.66607	76456
9.67418	68172
9.68230	70499
9.69043	59993
9.69855	56530
9.70667	59720
9.71480	54458
9.72292	47559
9.73105	51086
9.73917	51646
9.74728	53074
9.75542	47976
9.76353	51631
9.77167	48211
9.77978	50326
9.78790	50307
9.79603	49953
9.80415	49431
9.81227	47414
9.82040	48690
9.82852	49037
9.83665	48707
9.84477	52303
9.85288	50185
9.86102	53699
9.86913	57794
9.87727	53141
9.88538	53736
9.89350	54077
9.90163	52792
9.90975	53877
9.91788	53745
9.92600	61796
9.93412	76459
9.94225	93677
9.95037	131462
9.95848	165944
9.96662	179028
9.97473	169090
9.98287	145057
9.99098	120679
9.99910	100059
10.00723	86175
10.01535	82780
10.02348	77119
10.03160	70745
10.03972	62864
10.04785	64416
10.05597	63907
10.06410	64486
10.07222	65612
10.08033	63610
10.08847	65391
10.09658	64078
10.10470	64507
10.11283	63117
10.12095	61873
10.12908	60933
10.13720	65039
10.14532	59303
10.15345	61507
10.16157	61489
10.16970	59505
10.17782	57116
10.18593	58571
10.19407	58793
10.20218	53630
10.21030	53447
10.21843	51947
10.22655	55818
10.23468	59602
10.24280	69861
10.25092	78081
10.25905	101233
10.26717	194045
10.27530	439915
10.28342	868606
10.29153	1558626
10.29967	2291623
10.30778	3263327
10.31592	4678118
10.32403	6558893
10.33215	8461881
10.34028	9045050
10.34840	7747021
10.35652	5878964
10.36465	4258789
10.37277	3653240
10.38090	3434026
10.38902	2975837
10.39713	2284327
10.40527	1524949
10.41338	963637
10.42152	616419
10.42963	459460
10.43775	397110
10.44588	389040
10.45400	378987
10.46213	360728
10.47025	323690
10.47837	274144
10.48650	252095
10.49462	228235
10.50273	198878
10.51087	191904
10.51898	169712
10.52712	157772
10.53523	153357
10.54335	144707
10.55148	140671
10.55960	144637
10.56773	137013
10.57585	140438
10.58397	134099
10.59210	133054
10.60022	127323
10.60833	123597
10.61647	117107
10.62458	112639
10.63272	111577
10.64083	107966
10.64895	99826
10.65708	97460
10.66520	98003
10.67333	93367
10.68145	95017
10.68957	92624
10.69770	99992
10.70582	97586
10.71395	102509
10.72207	102350
10.73018	100245
10.73832	100695
10.74643	98486
10.75455	93261
10.76268	88879
10.77080	87456
10.77893	90000
10.78705	78822
10.79517	86593
10.80330	92859
10.81142	99160
10.81955	104036
10.82767	102816
10.83578	102352
10.84392	87056
10.85203	81951
10.86015	75107
10.86828	70726
10.87640	67536
10.88453	67432
10.89265	66689
10.90077	68122
10.90890	74490
10.91702	63723
10.92515	67960
10.93327	71068
10.94138	64921
10.94952	65406
10.95763	59361
10.96577	65154
10.97388	63022
10.98200	67160
10.99013	65963
10.99825	71740
11.00637	69842
11.01450	79917
11.02262	86422
11.03075	82953
11.03887	77125
11.04698	67056
11.05512	68587
11.06323	62523
11.07137	70299
11.07948	73271
11.08760	84390
11.09573	87211
11.10385	92482
11.11198	89998
11.12010	82054
11.12822	76459
11.13635	79401
11.14447	63569
11.15258	60897
11.16072	63447
11.16883	63284
11.17697	71506
11.18508	71253
11.19320	69170
11.20133	69445
11.20945	66120
11.21758	63066
11.22570	58357
11.23382	58130
11.24195	54561
11.25007	51981
11.25818	51483
11.26632	46174
11.27443	49034
11.28257	52307
11.29068	59010
11.29880	76304
11.30693	142586
11.31505	305823
11.32318	683910
11.33130	1321909
11.33942	2130909
11.34755	2827528
11.35567	2994282
11.36380	2716033
11.37192	2112559
11.38003	1441262
11.38817	958577
11.39628	676669
11.40440	532197
11.41253	412141
11.42065	357074
11.42878	282969
11.43690	242137
11.44502	204512
11.45315	167490
11.46127	143851
11.46940	140792
11.47752	152483
11.48563	185820
11.49377	214412
11.50188	245391
11.51002	247043
11.51813	222417
11.52625	182406
11.53438	153618
11.54250	141552
11.55062	133812
11.55875	130041
11.56687	133528
11.57500	135504
11.58312	127912
11.59123	130854
11.59937	133338
11.60748	146022
11.61562	165112
11.62373	173757
11.63185	158539
11.63998	133391
11.64810	117629
11.65622	96727
11.66435	85183
11.67247	77913
11.68060	82033
11.68872	86093
11.69683	96378
11.70497	92798
11.71308	99304
11.72122	93298
11.72933	87664
11.73745	83068
11.74558	75393
11.75370	66744
11.76183	66613
11.76995	70911
11.77807	61961
11.78620	65160
11.79432	64635
11.80243	60349
11.81057	58865
11.81868	61781
11.82682	60952
11.83493	60682
11.84305	63003
11.85118	64908
11.85930	67640
11.86743	63733
11.87555	65314
11.88367	66760
11.89180	53057
11.89992	52703
11.90803	53899
11.91617	57077
11.92428	57749
11.93242	63506
11.94053	63688
11.94865	60187
11.95678	58121
11.96490	56117
11.97303	57132
11.98115	62232
11.98927	81305
11.99740	117856
12.00552	154000
12.01365	183938
12.02177	181962
12.02988	162675
12.03802	128069
12.04613	101750
12.05425	85380
12.06238	79728
12.07050	76025
12.07863	87449
12.08675	90210
12.09487	97006
12.10300	106176
12.11112	105535
12.11925	121461
12.12737	133718
12.13548	151494
12.14362	157596
12.15173	153513
12.15987	139190
12.16798	113117
12.17610	91658
12.18423	74284
12.19235	69127
12.20047	67357
12.20860	69874
12.21672	70429
12.22485	68351
12.23297	67357
12.24108	64637
12.24922	62912
12.25733	62318
12.26547	64805
12.27358	65402
12.28170	64115
12.28983	61554
12.29795	62047
12.30608	57471
12.31420	51698
12.32232	57756
12.33045	52766
12.33857	56425
12.34668	53702
12.35482	51824
12.36293	52282
12.37107	51090
12.37918	52552
12.38730	54372
12.39543	59824
12.40355	75948
12.41168	96303
12.41980	118806
12.42792	136566
12.43605	132080
12.44417	125377
12.45228	104056
12.46042	92030
12.46853	82195
12.47667	78527
12.48478	75221
12.49290	72812
12.50103	68028
12.50915	64471
12.51728	63876
12.52540	60709
12.53352	67001
12.54165	83559
12.54977	105438
12.55790	124800
12.56602	153432
12.57413	151927
12.58227	145178
12.59038	115880
12.59850	104013
12.60663	91124
12.61475	80809
12.62288	74091
12.63100	71256
12.63912	73918
12.64725	68216
12.65537	61068
12.66350	55831
12.67162	58744
12.67973	54931
12.68787	52796
12.69598	49874
12.70410	49806
12.71223	50483
12.72035	50502
12.72848	56512
12.73660	56879
12.74472	68609
12.75285	61345
12.76097	59682
12.76910	54048
12.77722	54048
12.78533	46692
12.79347	48025
12.80158	49100
12.80972	48572
12.81783	48216
12.82595	47552
12.83408	42264
12.84220	42382
12.85032	41549
12.85845	40652
12.86657	45113
12.87470	38585
12.88282	40040
12.89093	40327
12.89907	43324
12.90718	38638
12.91532	42610
12.92343	41768
12.93155	40189
12.93968	44002
12.94780	42109
12.95593	48966
12.96405	57103
12.97217	70497
12.98030	88306
12.98842	94967
12.99653	94204
13.00467	79579
13.01278	72201
13.02092	66989
13.02903	58640
13.03715	59339
13.04528	51958
13.05340	46494
13.06153	47866
13.06965	48695
13.07777	47594
13.08590	50682
13.09402	50095
13.10213	46821
13.11027	46430
13.11838	44108
13.12652	44430
13.13463	41018
13.14275	42219
13.15088	40553
13.15900	46232
13.16713	42114
13.17525	45592
13.18337	48256
13.19150	49257
13.19962	49942
13.20775	53795
13.21587	54234
13.22398	55719
13.23212	55508
13.24023	56771
13.24835	52220
13.25648	49412
13.26460	45972
13.27273	48654
13.28085	44331
13.28897	54838
13.29710	47803
13.30522	48842
13.31335	42690
13.32147	43428
13.32958	42324
13.33772	43515
13.34583	47115
13.35397	44020
13.36208	42838
13.37020	40923
13.37833	40752
13.38645	42968
13.39457	39553
13.40270	40697
13.41082	39255
13.41895	39584
13.42707	38635
13.43518	40366
13.44332	42338
13.45143	45907
13.45957	43051
13.46768	47110
13.47580	51363
13.48393	52071
13.49205	48872
13.50017	51022
13.50830	42768
13.51642	45085
13.52455	41903
13.53267	40438
13.54078	42663
13.54892	40491
13.55703	45363
13.56517	43722
13.57328	45554
13.58140	50390
13.58953	55731
13.59765	73131
13.60578	86708
13.61390	123005
13.62202	145539
13.63015	153820
13.63827	141667
13.64638	114205
13.65452	87448
13.66263	69563
13.67077	58030
13.67888	52270
13.68700	54159
13.69513	45396
13.70325	44245
13.71138	42632
13.71950	45922
13.72762	48519
13.73575	65396
13.74387	115923
13.75198	255430
13.76012	492566
13.76823	897388
13.77637	1270990
13.78448	1444906
13.79260	1385073
13.80073	1148725
13.80885	882986
13.81698	732157
13.82510	731357
13.83322	804200
13.84135	861635
13.84947	848630
13.85760	741699
13.86572	602770
13.87383	453287
13.88197	333973
13.89008	258189
13.89820	213751
13.90633	180926
13.91445	152024
13.92258	149943
13.93070	134897
13.93882	131708
13.94695	121711
13.95507	120521
13.96320	120275
13.97132	129084
13.97943	128232
13.98757	128152
13.99568	131358
14.00382	120420
14.01193	117713
14.02005	113412
14.02818	107572
14.03630	101560
14.04442	94804
14.05255	96000
14.06067	106736
14.06880	95609
14.07692	95857
14.08503	96351
14.09317	90752
14.10128	89147
14.10942	91740
14.11753	87339
14.12565	84991
14.13378	95423
14.14190	89105
14.15002	97583
14.15815	99823
14.16627	119704
14.17440	147134
14.18252	220071
14.19063	339553
14.19877	498588
14.20688	623464
14.21502	651817
14.22313	592306
14.23125	435292
14.23938	316887
14.24750	261656
14.25563	236094
14.26375	210779
14.27187	186680
14.28000	170712
14.28812	152881
14.29623	139367
14.30437	124776
14.31248	119968
14.32062	118440
14.32873	115509
14.33685	108404
14.34498	102440
14.35310	97518
14.36123	85622
14.36935	78989
14.37747	72238
14.38560	77000
14.39372	95316
14.40185	142476
14.40997	225008
14.41808	334174
14.42622	411805
14.43433	402841
14.44245	332986
14.45058	244763
14.45870	178920
14.46683	137269
14.47495	116358
14.48307	108471
14.49120	109469
14.49932	110857
14.50745	95576
14.51557	96532
14.52368	88574
14.53182	87706
14.53993	84038
14.54805	79364
14.55618	69877
14.56430	69810
14.57243	68938
14.58055	61881
14.58867	60641
14.59680	60548
14.60492	58949
14.61305	57884
14.62117	54888
14.62928	55849
14.63742	55509
14.64553	52904
14.65367	55071
14.66178	51477
14.66990	55736
14.67803	54511
14.68615	48198
14.69427	53226
14.70240	58727
14.71052	55098
14.71865	55954
14.72677	58432
14.73488	56602
14.74302	62386
14.75113	64255
14.75927	61027
14.76738	66064
14.77550	65207
14.78363	70901
14.79175	107339
14.79988	209761
14.80800	485824
14.81612	1048087
14.82425	1830835
14.83237	2576979
14.84048	2900244
14.84862	2626079
14.85673	1942536
14.86487	1254018
14.87298	790251
14.88110	510710
14.88923	356993
14.89735	282366
14.90548	238385
14.91360	209012
14.92172	196303
14.92985	180325
14.93797	168278
14.94608	164045
14.95422	152210
14.96233	137332
14.97047	132601
14.97858	125173
14.98670	117768
14.99483	113662
15.00295	114001
15.01108	103261
15.01920	106616
15.02732	107292
15.03545	103090
15.04357	104758
15.05170	99843
15.05982	94251
15.06793	93690
15.07607	83760
15.08418	78959
15.09230	82506
15.10043	78523
15.10855	77167
15.11668	78439
15.12480	73534
15.13292	80223
15.14105	80377
15.14917	87887
15.15730	90732
15.16542	79183
15.17353	74197
15.18167	67945
15.18978	63126
15.19790	62281
15.20603	60521
15.21415	59882
15.22228	56948
15.23040	58524
15.23852	56956
15.24665	55657
15.25477	59160
15.26290	53463
15.27102	52704
15.27913	49069
15.28727	47760
15.29538	48282
15.30352	50056
15.31163	45181
15.31975	43108
15.32788	45164
15.33600	46544
15.34412	41604
15.35225	42309
15.36037	42650
15.36850	43543
15.37662	44488
15.38473	45886
15.39287	43753
15.40098	47321
15.40912	43238
15.41723	42151
15.42535	49359
15.43348	46648
15.44160	49566
15.44973	50592
15.45785	55826
15.46597	73217
15.47410	110892
15.48222	186060
15.49033	304882
15.49847	440484
15.50658	543032
15.51472	615445
15.52283	644670
15.53095	633379
15.53908	649929
15.54720	690116
15.55533	719311
15.56345	686684
15.57157	565604
15.57970	409651
15.58782	295843
15.59593	187952
15.60407	137381
15.61218	111957
15.62032	98597
15.62843	84587
15.63655	80242
15.64468	70953
15.65280	66528
15.66093	67886
15.66905	60808
15.67717	64066
15.68530	55527
15.69342	52858
15.70155	53811
15.70967	54934
15.71778	53564
15.72592	55250
15.73403	53236
15.74215	57445
15.75028	63377
15.75840	74563
15.76653	109632
15.77465	163395
15.78277	232156
15.79090	279502
15.79902	306942
15.80715	268410
15.81527	204990
15.82338	155130
15.83152	110882
15.83963	89160
15.84777	79354
15.85588	75574
15.86400	72833
15.87213	74258
15.88025	70567
15.88837	68777
15.89650	69693
15.90462	66196
15.91275	65037
15.92087	62518
15.92898	62832
15.93712	64458
15.94523	65913
15.95337	69315
15.96148	77221
15.96960	98016
15.97773	105698
15.98585	107266
15.99397	103151
16.00210	102926
16.01022	97283
16.01835	88696
16.02647	88843
16.03458	88637
16.04272	85634
16.05083	82776
16.05897	72424
16.06708	69310
16.07520	66439
16.08333	62061
16.09145	56815
16.09958	57814
16.10770	60105
16.11582	61153
16.12395	64209
16.13207	72211
16.14018	73517
16.14832	78727
16.15643	85950
16.16457	82134
16.17268	81285
16.18080	66721
16.18893	64837
16.19705	62162
16.20518	61113
16.21330	58134
16.22142	60766
16.22955	58053
16.23767	58994
16.24578	52589
16.25392	53498
16.26203	53879
16.27017	52737
16.27828	58512
16.28640	60148
16.29453	65253
16.30265	76364
16.31078	86344
16.31890	76958
16.32702	73786
16.33515	72341
16.34327	67994
16.35140	65950
16.35952	77677
16.36763	87956
16.37577	102360
16.38388	112446
16.39200	108444
16.40013	99926
16.40825	79187
16.41638	71109
16.42450	69876
16.43262	61957
16.44075	64625
16.44887	77911
16.45700	110339
16.46512	177920
16.47323	251368
16.48137	353037
16.48948	407682
16.49762	386281
16.50573	310127
16.51385	220432
16.52198	156666
16.53010	113432
16.53822	100720
16.54635	86319
16.55447	84686
16.56260	71569
16.57072	74418
16.57883	84748
16.58697	82566
16.59508	84484
16.60322	96077
16.61133	105092
16.61945	122928
16.62758	114638
16.63570	113391
16.64382	96643
16.65195	87136
16.66007	75778
16.66820	66397
16.67632	67822
16.68443	65270
16.69257	61742
16.70068	60393
16.70882	61197
16.71693	59989
16.72505	58140
16.73318	61512
16.74130	60063
16.74943	54242
16.75755	55153
16.76567	56018
16.77380	56932
16.78192	55641
16.79003	54809
16.79817	51113
16.80628	49417
16.81442	51943
16.82253	45607
16.83065	48838
16.83878	48184
16.84690	48180
16.85503	48611
16.86315	48117
16.87127	48458
16.87940	48794
16.88752	47070
16.89565	44325
16.90377	44319
16.91188	47498
16.92002	46547
16.92813	45482
16.93625	44693
16.94438	47719
16.95250	44775
16.96063	46432
16.96875	50432
16.97687	45380
16.98500	51818
16.99312	49970
17.00125	51637
17.00937	49112
17.01748	47889
17.02562	48559
17.03373	52868
17.04185	54641
17.04998	58158
17.05810	63216
17.06623	59385
17.07435	56173
17.08247	57948
17.09060	50725
17.09872	52916
17.10685	54439
17.11497	56416
17.12308	58142
17.13122	59063
17.13933	60434
17.14747	63150
17.15558	61360
17.16370	60860
17.17183	59671
17.17995	58813
17.18807	58007
17.19620	53210
17.20432	52842
17.21245	47728
17.22057	45059
17.22868	45379
17.23682	48858
17.24493	47626
17.25307	48722
17.26118	50678
17.26930	45960
17.27743	47277
17.28555	45919
17.29367	45589
17.30180	45012
17.30992	42432
17.31805	49599
17.32617	51547
17.33428	57229
17.34242	74253
17.35053	79245
17.35867	78123
17.36678	77235
17.37490	80207
17.38303	75387
17.39115	69583
17.39928	71077
17.40740	72056
17.41552	73109
17.42365	79225
17.43177	76585
17.43988	79089
17.44802	79006
17.45613	76425
17.46427	67040
17.47238	60252
17.48050	55395
17.48863	54466
17.49675	50143
17.50488	49131
17.51300	49163
17.52112	53324
17.52925	50458
17.53737	50577
17.54550	48663
17.55362	59137
17.56173	82222
17.56987	112831
17.57798	190000
17.58610	325636
17.59423	567635
17.60235	857897
17.61048	1026400
17.61860	1012304
17.62672	863209
17.63485	646627
17.64297	425187
17.65110	297277
17.65922	218232
17.66733	175426
17.67547	156616
17.68358	142129
17.69172	129061
17.69983	112590
17.70795	108503
17.71608	102300
17.72420	101689
17.73232	98294
17.74045	93020
17.74857	95723
17.75670	90066
17.76482	87644
17.77293	84821
17.78107	81853
17.78918	72879
17.79732	78112
17.80543	79758
17.81355	92011
17.82168	121464
17.82980	120865
17.83792	142006
17.84605	135823
17.85417	136546
17.86230	129698
17.87042	127811
17.87853	106771
17.88667	97973
17.89478	86879
17.90292	76473
17.91103	72968
17.91915	67105
17.92728	60280
17.93540	62380
17.94353	64922
17.95165	58756
17.95977	56070
17.96790	58436
17.97602	53242
17.98413	53332
17.99227	56087
18.00038	53030
18.00852	57057
18.01663	65002
18.02475	74549
18.03288	88968
18.04100	106113
18.04913	120776
18.05725	170497
18.06537	277151
18.07350	537242
18.08162	968451
18.08973	1480289
18.09787	1858701
18.10598	1873607
18.11412	1620590
18.12223	1233824
18.13035	881948
18.13848	621605
18.14660	484989
18.15473	404382
18.16285	346988
18.17097	314895
18.17910	274847
18.18722	259819
18.19535	222960
18.20347	220352
18.21158	200890
18.21972	184189
18.22783	173443
18.23595	166533
18.24408	150294
18.25220	142605
18.26033	139675
18.26845	132035
18.27657	113830
18.28470	106271
18.29282	90744
18.30095	80313
18.30907	64842
18.31718	63045
18.32532	60528
18.33343	61021
18.34157	60008
18.34968	57694
18.35780	59581
18.36593	63325
18.37405	59419
18.38217	61429
18.39030	58365
18.39842	62607
18.40655	63646
18.41467	68449
18.42278	88207
18.43092	103364
18.43903	125446
18.44717	150277
18.45528	179957
18.46340	219950
18.47153	255367
18.47965	296014
18.48777	321684
18.49590	308652
18.50402	271096
18.51215	206356
18.52027	161300
18.52838	122624
18.53652	100702
18.54463	89044
18.55277	83503
18.56088	76632
18.56900	74602
18.57713	73044
18.58525	73291
18.59338	73628
18.60150	81449
18.60962	85174
18.61775	103102
18.62587	109572
18.63398	110771
18.64212	112876
18.65023	106503
18.65837	98436
18.66648	90795
18.67460	76326
18.68273	64389
18.69085	63371
18.69898	63022
18.70710	66337
18.71522	86447
18.72335	106894
18.73147	119000
18.73960	132656
18.74772	134003
18.75583	147229
18.76397	144715
18.77208	151217
18.78020	155683
18.78833	151812
18.79645	159171
18.80458	165179
18.81270	158138
18.82082	158426
18.82895	159052
18.83707	162072
18.84520	163887
18.85332	160730
18.86143	159055
18.86957	163238
18.87768	162758
18.88580	170069
18.89393	168606
18.90205	165327
18.91018	165696
18.91830	161753
18.92642	160550
18.93455	160081
18.94267	161501
18.95080	164034
18.95892	171749
18.96703	165417
18.97517	173608
18.98328	172142
18.99142	154404
18.99953	150580
19.00765	154145
19.01578	148852
19.02390	147531
19.03202	142930
19.04015	144518
19.04827	149363
19.05640	157194
19.06452	189560
19.07263	289312
19.08077	513449
19.08888	884263
19.09702	1364226
19.10513	1870376
19.11325	2068220
19.12138	1930066
19.12950	1517361
19.13762	1068489
19.14575	671445
19.15387	456146
19.16200	319624
19.17012	263683
19.17823	222525
19.18637	199571
19.19448	182266
19.20262	172540
19.21073	165787
19.21885	153748
19.22698	155232
19.23510	150639
19.24323	142716
19.25135	138746
19.25947	133446
19.26760	129615
19.27572	134449
19.28383	128761
19.29197	144184
19.30008	140515
19.30822	145315
19.31633	150378
19.32445	139036
19.33258	136142
19.34070	137148
19.34883	135570
19.35695	154486
19.36507	165960
19.37320	190183
19.38132	201787
19.38945	196833
19.39757	183618
19.40568	161456
19.41382	149129
19.42193	138864
19.43005	136041
19.43818	135478
19.44630	122804
19.45443	117120
19.46255	118780
19.47067	126235
19.47880	157520
19.48692	202653
19.49505	272521
19.50317	381219
19.51128	451970
19.51942	462811
19.52753	394135
19.53565	309406
19.54378	231498
19.55190	179034
19.56003	166141
19.56815	145187
19.57627	132183
19.58440	121044
19.59252	112715
19.60065	109223
19.60877	106538
19.61688	99348
19.62502	107717
19.63313	112667
19.64127	128013
19.64938	164413
19.65750	217795
19.66563	273678
19.67375	331153
19.68187	386226
19.69000	376855
19.69812	349819
19.70625	321030
19.71437	266342
19.72248	231098
19.73062	215156
19.73873	188617
19.74687	169013
19.75498	158532
19.76310	155745
19.77123	156837
19.77935	183406
19.78748	201511
19.79560	235204
19.80372	268962
19.81185	276000
19.81997	262163
19.82808	234121
19.83622	194152
19.84433	181646
19.85247	212710
19.86058	386215
19.86870	919919
19.87683	2116867
19.88495	3989311
19.89308	6247406
19.90120	8299504
19.90932	9155315
19.91745	8532039
19.92557	6737677
19.93368	4690941
19.94182	3093109
19.94993	2054037
19.95807	1464007
19.96618	1196526
19.97430	1018849
19.98243	914878
19.99055	850470
19.99868	780769
20.00680	735751
20.01492	698798
20.02305	655607
20.03117	625297
20.03930	567231
20.04742	507073
20.05553	453954
20.06367	412359
20.07178	395789
20.07990	399691
20.08803	441148
20.09615	439482
20.10428	399630
20.11240	355584
20.12052	298338
20.12865	251209
20.13677	216406
20.14490	206473
20.15302	239970
20.16113	317292
20.16927	443203
20.17738	635085
20.18552	867016
20.19363	1062146
20.20175	1165712
20.20988	1155945
20.21800	1000682
20.22612	818935
20.23425	646194
20.24237	535896
20.25050	505067
20.25862	556310
20.26673	677253
20.27487	791075
20.28298	856223
20.29112	835458
20.29923	754877
20.30735	626474
20.31548	487072
20.32360	351788
20.33172	260167
20.33985	197893
20.34797	159839
20.35610	133615
20.36422	128034
20.37233	106031
20.38047	107170
20.38858	97787
20.39672	95592
20.40483	94090
20.41295	93790
20.42108	98872
20.42920	105575
20.43733	110376
20.44545	113831
20.45357	124065
20.46170	120285
20.46982	114025
20.47793	103553
20.48607	99034
20.49418	92309
20.50232	91650
20.51043	82973
20.51855	77092
20.52668	80752
20.53480	74288
20.54293	84345
20.55105	78932
20.55917	78787
20.56730	76013
20.57542	78942
20.58353	77566
20.59167	72061
20.59978	70714
20.60792	74165
20.61603	74852
20.62415	77111
20.63228	77387
20.64040	82425
20.64853	91150
20.65665	89388
20.66477	93278
20.67290	88343
20.68102	91188
20.68915	80863
20.69727	70668
20.70538	72995
20.71352	69248
20.72163	68291
20.72975	65423
20.73788	67363
20.74600	72855
20.75413	75287
20.76225	75920
20.77037	84172
20.77850	103939
20.78662	139577
20.79475	219920
20.80287	364211
20.81098	587963
20.81912	758895
20.82723	798312
20.83537	747212
20.84348	564348
20.85160	375833
20.85973	236239
20.86785	155825
20.87597	115633
20.88410	105798
20.89222	100270
20.90035	99914
20.90847	96875
20.91658	112498
20.92472	113767
20.93283	126124
20.94097	127256
20.94908	120770
20.95720	116458
20.96533	108134
20.97345	99335
20.98157	86990
20.98970	81051
20.99782	76844
21.00595	75053
21.01407	79882
21.02218	76435
21.03032	77800
21.03843	80147
21.04657	81746
21.05468	82796
21.06280	79310
21.07093	73523
21.07905	65911
21.08718	64795
21.09530	68181
21.10342	64511
21.11155	67348
21.11967	69172
21.12778	74425
21.13592	87484
21.14403	106360
21.15217	134647
21.16028	163970
21.16840	178577
21.17653	185096
21.18465	165524
21.19278	132245
21.20090	118236
21.20902	100275
21.21715	91612
21.22527	79080
21.23340	74257
21.24152	73236
21.24963	76539
21.25777	69015
21.26588	76217
21.27400	70349
21.28213	70123
21.29025	70973
21.29838	71911
21.30650	64106
21.31462	62417
21.32275	65304
21.33087	61344
21.33900	59933
21.34712	59819
21.35523	61586
21.36337	62669
21.37148	59002
21.37960	65846
21.38773	69642
21.39585	82782
21.40398	93970
21.41210	99303
21.42022	103858
21.42835	96728
21.43647	92645
21.44460	80595
21.45272	72370
21.46083	69729
21.46897	67372
21.47708	67009
21.48522	64996
21.49333	63267
21.50145	59558
21.50958	62130
21.51770	63604
21.52582	59807
21.53395	59636
21.54207	58632
21.55020	59999
21.55832	59609
21.56643	62667
21.57457	60758
21.58268	66470
21.59082	72370
21.59893	79944
21.60705	83495
21.61518	87778
21.62330	84309
21.63142	93229
21.63955	100289
21.64767	107211
21.65580	112401
21.66392	110485
21.67203	115558
21.68017	115559
21.68828	107869
21.69642	105822
21.70453	99051
21.71265	88714
21.72078	78943
21.72890	71707
21.73703	67867
21.74515	65998
21.75327	65233
21.76140	64206
21.76952	63257
21.77763	70427
21.78577	65422
21.79388	68225
21.80202	68110
21.81013	70749
21.81825	73257
21.82638	79306
21.83450	86631
21.84263	90098
21.85075	88756
21.85887	86495
21.86700	78420
21.87512	76087
21.88325	74931
21.89137	69965
21.89948	70626
21.90762	66373
21.91573	66103
21.92385	64860
21.93198	58082
21.94010	57738
21.94823	57203
21.95635	55041
21.96447	49714
21.97260	54222
21.98072	54318
21.98885	54854
21.99697	50301
22.00508	54830
22.01322	53755
22.02133	58215
22.02945	60611
22.03758	57869
22.04570	55844
22.05383	54422
22.06195	54822
22.07007	60174
22.07820	59198
22.08632	65890
22.09445	68806
22.10257	69956
22.11068	71788
22.11882	74879
22.12693	76574
22.13507	73196
22.14318	77599
22.15130	83002
22.15943	74429
22.16755	78865
22.17567	74110
22.18380	76657
22.19192	76838
22.20005	78153
22.20817	82768
22.21628	79525
22.22442	83087
22.23253	85665
22.24067	85753
22.24878	82090
22.25690	81681
22.26503	87333
22.27315	89769
22.28128	96929
22.28940	101469
22.29752	107666
22.30565	98783
22.31377	99526
22.32188	90913
22.33002	87511
22.33813	87339
22.34627	81336
22.35438	71268
22.36250	71529
22.37063	70953
22.37875	70434
22.38688	77992
22.39500	103006
22.40312	134215
22.41125	175987
22.41937	206637
22.42748	232942
22.43562	218261
22.44373	181404
22.45187	150330
22.45998	115938
22.46810	100025
22.47623	95763
22.48435	99150
22.49248	114195
22.50060	136127
22.50872	153409
22.51685	151615
22.52497	151437
22.53310	135699
22.54122	126205
22.54933	109587
22.55747	99388
22.56558	89254
22.57370	81704
22.58183	70927
22.58995	69209
22.59808	69398
22.60620	78081
22.61432	93101
22.62245	94782
22.63057	108075
22.63870	109397
22.64682	119226
22.65493	125956
22.66307	130835
22.67118	127370
22.67932	136359
22.68743	140016
22.69555	145034
22.70368	154595
22.71180	163677
22.71992	186679
22.72805	179203
22.73617	171113
22.74430	162711
22.75242	155618
22.76053	151598
22.76867	140913
22.77678	143091
22.78492	149467
22.79303	157605
22.80115	173868
22.80928	185622
22.81740	192673
22.82552	193864
22.83365	182149
22.84177	165891
22.84990	154365
22.85802	160991
22.86613	157531
22.87427	173726
22.88238	199332
22.89052	226891
22.89863	250694
22.90675	259202
22.91488	271803
22.92300	290502
22.93113	281744
22.93925	276492
22.94737	246796
22.95550	214541
22.96362	183178
22.97173	169787
22.97987	149270
22.98798	145742
22.99612	127005
23.00423	126646
23.01235	123130
23.02048	116518
23.02860	114304
23.03673	109077
23.04485	119557
23.05297	115772
23.06110	116864
23.06922	119911
23.07735	121350
23.08547	122958
23.09358	116252
23.10172	106817
23.10983	109424
23.11795	100429
23.12608	97896
23.13420	100272
23.14233	91739
23.15045	91322
23.15857	91492
23.16670	90543
23.17482	93125
23.18295	86230
23.19107	86906
23.19918	83169
23.20732	83547
23.21543	81894
23.22355	91855
23.23168	87969
23.23980	84882
23.24793	89999
23.25605	94962
23.26417	102051
23.27230	109878
23.28042	102284
23.28855	100551
23.29667	88448
23.30478	91801
23.31292	86061
23.32103	93260
23.32917	95149
23.33728	105941
23.34540	131133
23.35353	152182
23.36165	186282
23.36977	208828
23.37790	220631
23.38602	216442
23.39415	205911
23.40227	197495
23.41038	181210
23.41852	173547
23.42663	172388
23.43477	160553
23.44288	151320
23.45100	157334
23.45913	140591
23.46725	139238
23.47537	130337
23.48350	123949
23.49162	127005
23.49975	116478
23.50787	110536
23.51598	115724
23.52412	112926
23.53223	113585
23.54037	113754
23.54848	123344
23.55660	128555
23.56473	152878
23.57285	189597
23.58098	214801
23.58910	298286
23.59722	365568
23.60535	414160
23.61347	417208
23.62158	378113
23.62972	310045
23.63783	254494
23.64597	218752
23.65408	203956
23.66220	207750
23.67033	209919
23.67845	195809
23.68658	181067
23.69470	148636
23.70282	124332
23.71095	110347
23.71907	99800
23.72720	93021
23.73532	93305
23.74343	122297
23.75157	201949
23.75968	379927
23.76780	816923
23.77593	1564170
23.78405	2478764
23.79218	3232944
23.80030	3584850
23.80842	3322396
23.81655	2709295
23.82467	2165900
23.83280	1613155
23.84092	1199648
23.84903	940765
23.85717	742564
23.86528	613044
23.87340	519247
23.88153	446922
23.88965	406615
23.89778	360767
23.90590	346855
23.91402	336519
23.92215	324386
23.93027	298381
23.93840	271844
23.94652	240836
23.95463	225237
23.96277	215492
23.97088	199188
23.97902	192998
23.98713	178586
23.99525	172504
24.00338	170444
24.01150	186936
24.01962	197542
24.02775	215610
24.03587	237267
24.04400	240855
24.05212	227913
24.06023	194833
24.06837	174151
24.07648	150167
24.08462	138778
24.09273	128531
24.10085	122905
24.10898	124324
24.11710	123866
24.12523	130893
24.13335	131944
24.14147	138867
24.14960	144200
24.15772	144293
24.16583	147033
24.17397	142813
24.18208	141811
24.19022	139827
24.19833	149941
24.20645	146981
24.21458	142572
24.22270	132834
24.23083	125931
24.23895	119245
24.24707	105210
24.25520	99510
24.26332	95168
24.27143	93928
24.27957	91817
24.28768	92746
24.29582	94093
24.30393	90931
24.31205	96344
24.32018	83246
24.32830	89334
24.33643	88404
24.34455	89500
24.35267	85237
24.36080	92714
24.36892	108734
24.37705	139770
24.38517	193036
24.39328	250742
24.40142	284558
24.40953	287700
24.41765	264229
24.42578	235640
24.43390	203227
24.44203	189582
24.45015	183366
24.45827	191606
24.46640	208009
24.47452	226592
24.48265	250814
24.49077	265039
24.49888	271157
24.50702	281049
24.51513	288506
24.52325	290586
24.53138	302540
24.53950	321760
24.54763	376032
24.55575	415050
24.56387	438095
24.57200	420563
24.58012	371905
24.58825	317922
24.59637	269033
24.60448	224496
24.61262	208667
24.62073	196291
24.62887	185662
24.63698	173998
24.64510	174392
24.65323	177840
24.66135	177465
24.66947	173014
24.67760	175982
24.68572	170213
24.69385	171939
24.70197	168944
24.71008	160993
24.71822	157975
24.72633	155340
24.73447	156315
24.74258	157538
24.75070	154356
24.75883	160097
24.76695	157589
24.77508	161051
24.78320	165854
24.79132	164102
24.79945	169413
24.80757	167715
24.81568	168890
24.82382	175502
24.83193	192059
24.84007	223941
24.84818	262281
24.85630	317262
24.86443	414866
24.87255	515959
24.88068	633322
24.88880	762688
24.89692	797243
24.90505	767901
24.91317	667705
24.92128	514847
24.92942	374846
24.93753	282790
24.94567	221330
24.95378	192057
24.96190	170443
24.97003	160946
24.97815	154023
24.98628	149140
24.99440	153733
25.00252	151438
25.01065	140405
25.01877	135624
25.02690	139840
25.03502	128413
25.04313	135345
25.05127	129981
25.05938	124224
25.06750	122512
25.07563	128256
25.08375	128262
25.09188	149648
25.10000	189359
25.10812	339806
25.11625	670038
25.12437	1315932
25.13250	2231699
25.14062	3249248
25.14873	3974142
25.15687	3929278
25.16498	3352848
25.17312	2367636
25.18123	1457346
25.18935	840419
25.19748	486039
25.20560	291013
25.21372	193380
25.22185	161992
25.22997	150128
25.23810	161870
25.24622	185847
25.25433	233073
25.26247	294507
25.27058	344908
25.27872	369418
25.28683	348618
25.29495	307459
25.30308	242680
25.31120	190169
25.31932	156167
25.32745	125963
25.33557	114784
25.34370	106830
25.35182	93717
25.35993	90720
25.36807	87423
25.37618	83972
25.38432	83081
25.39243	79918
25.40055	80495
25.40868	75243
25.41680	74794
25.42493	70672
25.43305	71229
25.44117	77258
25.44930	76918
25.45742	80138
25.46553	78532
25.47367	82140
25.48178	78143
25.48992	79725
25.49803	72473
25.50615	72239
25.51428	70267
25.52240	71079
25.53053	67977
25.53865	74704
25.54677	82056
25.55490	101313
25.56302	121037
25.57115	148122
25.57927	161882
25.58738	176907
25.59552	181891
25.60363	186052
25.61175	196265
25.61988	194343
25.62800	190981
25.63613	193806
25.64425	200337
25.65237	201269
25.66050	199623
25.66862	195189
25.67675	201488
25.68487	215984
25.69298	210761
25.70112	217919
25.70923	210551
25.71735	214378
25.72548	204140
25.73360	196112
25.74173	198500
25.74985	193955
25.75797	182233
25.76610	188736
25.77422	187561
25.78235	187531
25.79047	192256
25.79858	180324
25.80672	187114
25.81483	186131
25.82297	177830
25.83108	184809
25.83920	189545
25.84733	189873
25.85545	192127
25.86357	182223
25.87170	176566
25.87982	172592
25.88795	170586
25.89607	169896
25.90418	156536
25.91232	160798
25.92043	162128
25.92857	159418
25.93668	161377
25.94480	151780
25.95293	150221
25.96105	150874
25.96917	147494
25.97730	142300
25.98542	145196
25.99355	140105
26.00167	136800
26.00978	135943
26.01792	129984
26.02603	132393
26.03417	132384
26.04228	127490
26.05040	128830
26.05853	130837
26.06665	131079
26.07478	127706
26.08290	127300
26.09102	128022
26.09915	131426
26.10727	126265
26.11538	128351
26.12352	128137
26.13163	125285
26.13977	128575
26.14788	128305
26.15600	130387
26.16413	136086
26.17225	130437
26.18038	125365
26.18850	121463
26.19662	117994
26.20475	112633
26.21287	114004
26.22100	106756
26.22912	108736
26.23723	103047
26.24537	103238
26.25348	99936
26.26160	103611
26.26973	100478
26.27785	94491
26.28598	95341
26.29410	92628
26.30222	91085
26.31035	89272
26.31847	92799
26.32660	88421
26.33472	89417
26.34283	91685
26.35097	102977
26.35908	115083
26.36720	143486
26.37533	187425
26.38345	252988
26.39158	346572
26.39970	393106
26.40782	412111
26.41595	397458
26.42407	350251
26.43220	265084
26.44032	210356
26.44843	160481
26.45657	121359
26.46468	107107
26.47282	95735
26.48093	90097
26.48905	85620
26.49718	85900
26.50530	82602
26.51342	80496
26.52155	79890
26.52967	81368
26.53780	75533
26.54592	68712
26.55403	73893
26.56217	74758
26.57028	73844
26.57842	68984
26.58653	71443
26.59465	69966
26.60278	67240
26.61090	71560
26.61903	66612
26.62715	69007
26.63527	66875
26.64340	68386
26.65152	72482
26.65963	77053
26.66777	73420
26.67588	74026
26.68402	72067
26.69213	73146
26.70025	68718
26.70838	68958
26.71650	66767
26.72463	71418
26.73275	68715
26.74087	66867
26.74900	69054
26.75712	68923
26.76523	72464
26.77337	70280
26.78148	68118
26.78962	70841
26.79773	73926
26.80585	74567
26.81398	74120
26.82210	75077
26.83023	71756
26.83835	71537
26.84647	65781
26.85460	63713
26.86272	64279
26.87085	63207
26.87897	61782
26.88708	69676
26.89522	65419
26.90333	61633
26.91145	63143
26.91958	61167
26.92770	62103
26.93583	62353
26.94395	59774
26.95207	67134
26.96020	70187
26.96832	86129
26.97645	120007
26.98457	174860
26.99268	283886
27.00082	441429
27.00893	651440
27.01705	897904
27.02518	1135063
27.03330	1227157
27.04143	1175342
27.04955	1032548
27.05767	880968
27.06580	716085
27.07392	580217
27.08205	471294
27.09017	392839
27.09828	319759
27.10642	277612
27.11453	249510
27.12267	230645
27.13078	209397
27.13890	204481
27.14703	190301
27.15515	180821
27.16327	179280
27.17140	180080
27.17952	187407
27.18765	194319
27.19577	190538
27.20388	173988
27.21202	166092
27.22013	155753
27.22827	140758
27.23638	130812
27.24450	128951
27.25263	123695
27.26075	125497
27.26888	113861
27.27700	107849
27.28512	103783
27.29325	107104
27.30137	101552
27.30948	98005
27.31762	99223
27.32573	97264
27.33387	103675
27.34198	102548
27.35010	95651
27.35823	96221
27.36635	97692
27.37448	94851
27.38260	100788
27.39072	91283
27.39885	84569
27.40697	86625
27.41510	87145
27.42322	87762
27.43133	88159
27.43947	81163
27.44758	86935
27.45570	83570
27.46383	76815
27.47195	73212
27.48008	75629
27.48820	72237
27.49632	76804
27.50445	76192
27.51257	78473
27.52070	86535
27.52882	85879
27.53693	87286
27.54507	82687
27.55318	80623
27.56130	73755
27.56943	78115
27.57755	80513
27.58568	97303
27.59380	107700
27.60192	111202
27.61005	115321
27.61817	110764
27.62630	100793
27.63442	103223
27.64253	88942
27.65067	88965
27.65878	89795
27.66692	93322
27.67503	101739
27.68315	112915
27.69128	123105
27.69940	127517
27.70752	119578
27.71565	109405
27.72377	94742
27.73190	80393
27.74002	74013
27.74813	69386
27.75627	69879
27.76438	65462
27.77252	65667
27.78063	69201
27.78875	64968
27.79688	65185
27.80500	69763
27.81312	69020
27.82125	67158
27.82937	67191
27.83750	65275
27.84562	64045
27.85373	65308
27.86187	63355
27.86998	65062
27.87812	62833
27.88623	57047
27.89435	60765
27.90248	55905
27.91060	58793
27.91873	61123
27.92685	59224
27.93497	59488
27.94310	59057
27.95122	58249
27.95933	58507
27.96747	61059
27.97558	57795
27.98372	59246
27.99183	59648
27.99995	66396
28.00808	74469
28.01620	90727
28.02433	132005
28.03245	164776
28.04057	203962
28.04870	251228
28.05682	275044
28.06495	254443
28.07307	218403
28.08118	176409
28.08932	132176
28.09743	107934
28.10555	94628
28.11368	85061
28.12180	76637
28.12993	70847
28.13805	69411
28.14617	63480
28.15430	64145
28.16242	59451
28.17055	62152
28.17867	68498
28.18678	71468
28.19492	79543
28.20303	95214
28.21115	101995
28.21928	107991
28.22740	107784
28.23553	108530
28.24365	98893
28.25177	86228
28.25990	75762
28.26802	70763
28.27615	66660
28.28427	68445
28.29238	67182
28.30052	80234
28.30863	98616
28.31677	121618
28.32488	141425
28.33300	177722
28.34113	203367
28.34925	243576
28.35737	276874
28.36550	305929
28.37362	329674
28.38175	364926
28.38987	363279
28.39798	371775
28.40612	358944
28.41423	336866
28.42237	322498
28.43048	293205
28.43860	274693
28.44673	254498
28.45485	225150
28.46298	206798
28.47110	198758
28.47922	183261
28.48735	188303
28.49547	179728
28.50358	166399
28.51172	163512
28.51983	150126
28.52797	140936
28.53608	127990
28.54420	127421
28.55233	110294
28.56045	108404
28.56858	105349
28.57670	101332
28.58482	100740
28.59295	91328
28.60107	90694
28.60918	98444
28.61732	100225
28.62543	99560
28.63357	98483
28.64168	101336
28.64980	101368
28.65793	99618
28.66605	100223
28.67418	101373
28.68230	92622
28.69042	86539
28.69855	89324
28.70667	84216
28.71480	82006
28.72292	79471
28.73103	81068
28.73917	85741
28.74728	89228
28.75540	100822
28.76353	112833
28.77165	124496
28.77978	126797
28.78790	117664
28.79602	110085
28.80415	110167
28.81227	102002
28.82040	94400
28.82852	84362
28.83663	85230
28.84477	78498
28.85288	80851
28.86100	79183
28.86913	77257
28.87725	83380
28.88538	89027
28.89350	94806
28.90162	101350
28.90975	99841
28.91787	98415
28.92600	97725
28.93412	84208
28.94223	86231
28.95037	86772
28.95848	89780
28.96662	85893
28.97473	80032
28.98285	78675
28.99098	71045
28.99910	68992
29.00722	67706
29.01535	67574
29.02347	64313
29.03160	65800
29.03972	67872
29.04783	63301
29.05597	70952
29.06408	62676
29.07222	63654
29.08033	68282
29.08845	68858
29.09658	69195
29.10470	63866
29.11283	65728
29.12095	64526
29.12907	64813
29.13720	59900
29.14532	59085
29.15343	59811
29.16157	65149
29.16968	65692
29.17782	68822
29.18593	76055
29.19405	81110
29.20218	94893
29.21030	115862
29.21843	123450
29.22655	127349
29.23467	131666
29.24280	143918
29.25092	172598
29.25903	192491
29.26717	208097
29.27528	214203
29.28342	188280
29.29153	168419
29.29965	131129
29.30778	102438
29.31590	81942
29.32403	70237
29.33215	67155
29.34027	63605
29.34840	65104
29.35652	59321
29.36465	58862
29.37277	59239
29.38088	58009
29.38902	60513
29.39713	65191
29.40525	61452
29.41338	65988
29.42150	65131
29.42963	64306
29.43775	69222
29.44587	72237
29.45400	63797
29.46212	63019
29.47025	61563
29.47837	64515
29.48648	61876
29.49462	66674
29.50273	65306
29.51087	70301
29.51898	62373
29.52710	60216
29.53523	62999
29.54335	60739
29.55147	56381
29.55960	57540
29.56772	55723
29.57585	56145
29.58397	57838
29.59208	54770
29.60022	56571
29.60833	52354
29.61647	56226
29.62458	51489
29.63270	54143
29.64083	48873
29.64895	52174
29.65707	55015
29.66520	51128
29.67332	52753
29.68145	55951
29.68957	59087
29.69768	60069
29.70582	66310
29.71393	66757
29.72207	60036
29.73018	63444
29.73830	59840
29.74643	57305
29.75455	59008
29.76268	54724
29.77080	51528
29.77892	54878
29.78705	49695
29.79517	53543
29.80328	47947
29.81142	48774
29.81953	49660
29.82767	45863
29.83578	46749
29.84390	50055
29.85203	52383
29.86015	50491
29.86828	54044
29.87640	63254
29.88452	66429
29.89265	78417
29.90077	85789
29.90888	92452
29.91702	85167
29.92513	78410
29.93327	75525
29.94138	76272
29.94950	70961
29.95763	78394
29.96575	86821
29.97388	103776
29.98200	111816
29.99012	138512
29.99825	145740
30.00637	164951
30.01450	167393
30.02262	175636
30.03073	189908
30.03887	187431
30.04698	188440
30.05510	180300
30.06323	180220
30.07135	174437
30.07948	172215
30.08760	175325
30.09572	167001
30.10385	155609
30.11197	149139
30.12010	147522
30.12822	137035
30.13633	129776
30.14447	127088
30.15258	130304
30.16072	122681
30.16883	110762
30.17695	110760
30.18508	120316
30.19320	129542
30.20132	121778
30.20945	120558
30.21757	123408
30.22570	112938
30.23382	98296
30.24193	89894
30.25007	85575
30.25818	76859
30.26632	80553
30.27443	74037
30.28255	75605
30.29068	73768
30.29880	73283
30.30692	71137
30.31505	70199
30.32317	73613
30.33130	73055
30.33942	70759
30.34753	70143
30.35567	71096
30.36378	72128
30.37192	68338
30.38003	68000
30.38815	67830
30.39628	63658
30.40440	59098
30.41253	61453
30.42065	58390
30.42877	56785
30.43690	60282
30.44502	62617
30.45313	60016
30.46127	61201
30.46938	56746
30.47752	61914
30.48563	62707
30.49375	62354
30.50188	59395
30.51000	57850
30.51813	56607
30.52625	56445
30.53437	56051
30.54250	58991
30.55062	60275
30.55875	56222
30.56687	65070
30.57498	56476
30.58312	63134
30.59123	60027
30.59935	61542
30.60748	60772
30.61560	54972
30.62373	59855
30.63185	57640
30.63997	59423
30.64810	54333
30.65622	53804
30.66435	53429
30.67247	53128
30.68058	52456
30.68872	55585
30.69683	51472
30.70495	52153
30.71308	55696
30.72120	52321
30.72933	54962
30.73745	55764
30.74557	59666
30.75370	57331
30.76182	60940
30.76995	66331
30.77807	75434
30.78618	87390
30.79432	97197
30.80243	102399
30.81057	118148
30.81868	120597
30.82680	103506
30.83493	98958
30.84305	82891
30.85117	71282
30.85930	70473
30.86742	73163
30.87555	82104
30.88367	80907
30.89178	81930
30.89992	82895
30.90803	81942
30.91617	79847
30.92428	74638
30.93240	72769
30.94053	73972
30.94865	73778
30.95678	70956
30.96490	72037
30.97302	72185
30.98115	71620
30.98927	69280
30.99738	67671
31.00552	70071
31.01363	69533
31.02177	72842
31.02988	70222
31.03800	74356
31.04613	73834
31.05425	78559
31.06238	75817
31.07050	79128
31.07862	80091
31.08675	86375
31.09487	91783
31.10298	102728
31.11112	103474
31.11923	103767
31.12737	98503
31.13548	90677
31.14360	85902
31.15173	85242
31.15985	85101
31.16798	86538
31.17610	89591
31.18422	100061
31.19235	113154
31.20047	125459
31.20860	153677
31.21672	176903
31.22483	195576
31.23297	194730
31.24108	189826
31.24920	162345
31.25733	132360
31.26545	103858
31.27358	89358
31.28170	78382
31.28982	73724
31.29795	73573
31.30607	68715
31.31420	65924
31.32232	69746
31.33043	70121
31.33857	74452
31.34668	72373
31.35480	68593
31.36293	67462
31.37105	68694
31.37918	68543
31.38730	70418
31.39542	67709
31.40355	70547
31.41167	69189
31.41980	63817
31.42792	65210
31.43603	65156
31.44417	64244
31.45228	61398
31.46042	60933
31.46853	63622
31.47665	64167
31.48478	68052
31.49290	68016
31.50102	68245
31.50915	73707
31.51727	73046
31.52540	79492
31.53352	73919
31.54163	84700
31.54977	82067
31.55788	78964
31.56602	78713
31.57413	70152
31.58225	68073
31.59038	66667
31.59850	65325
31.60663	66321
31.61475	61127
31.62287	61653
31.63100	64864
31.63912	59963
31.64723	59847
31.65537	64223
31.66348	66060
31.67162	71583
31.67973	70311
31.68785	67547
31.69598	62563
31.70410	62305
31.71223	63880
31.72035	63405
31.72847	61477
31.73660	59135
31.74472	57342
31.75283	54974
31.76097	60958
31.76908	54259
31.77722	57630
31.78533	61475
31.79345	60378
31.80158	63761
31.80970	64872
31.81783	57229
31.82595	63055
31.83407	59349
31.84220	58232
31.85032	54646
31.85845	57429
31.86657	61140
31.87468	67884
31.88282	64571
31.89093	71368
31.89905	74543
31.90718	82166
31.91530	93042
31.92343	107851
31.93155	114051
31.93967	125364
31.94780	131584
31.95592	129139
31.96405	135734
31.97217	144832
31.98028	151429
31.98842	146800
31.99653	154101
32.00467	151119
32.01278	151576
32.02090	142883
32.02903	133743
32.03715	135258
32.04527	125957
32.05340	119945
32.06152	123324
32.06965	107586
32.07777	103678
32.08588	103541
32.09402	103669
32.10213	95238
32.11027	92055
32.11838	85915
32.12650	87542
32.13463	81813
32.14275	79772
32.15087	75303
32.15900	80473
32.16712	72555
32.17525	81643
32.18337	77714
32.19148	78825
32.19962	76198
32.20773	74680
32.21587	74119
32.22398	76045
32.23210	73124
32.24023	67022
32.24835	70490
32.25648	68380
32.26460	69345
32.27272	69399
32.28085	74685
32.28897	76543
32.29708	70259
32.30522	65196
32.31333	70354
32.32147	62648
32.32958	64717
32.33770	64146
32.34583	69106
32.35395	71198
32.36208	69604
32.37020	68565
32.37832	66233
32.38645	66581
32.39457	58794
32.40268	56466
32.41082	63153
32.41893	61315
32.42707	61081
32.43518	63442
32.44330	60767
32.45143	57017
32.45955	54846
32.46768	56948
32.47580	61305
32.48392	58812
32.49205	59398
32.50017	53599
32.50830	58010
32.51642	59205
32.52453	57563
32.53267	59346
32.54078	58274
32.54890	55126
32.55703	61550
32.56515	57456
32.57328	60220
32.58140	59181
32.58952	56337
32.59765	56064
32.60577	57338
32.61390	50640
32.62202	58872
32.63013	62058
32.63827	64290
32.64638	70250
32.65452	84468
32.66263	87722
32.67075	85689
32.67888	88726
32.68700	82088
32.69512	75091
32.70325	70956
32.71137	65543
32.71950	63751
32.72762	64092
32.73573	65537
32.74387	62298
32.75198	61466
32.76012	62341
32.76823	62424
32.77635	59087
32.78448	55388
32.79260	58491
32.80073	63014
32.80885	56876
32.81697	55944
32.82510	57482
32.83322	58974
32.84133	58864
32.84947	59332
32.85758	65584
32.86572	64078
32.87383	64803
32.88195	71450
32.89008	77166
32.89820	79954
32.90633	84545
32.91445	89322
32.92257	84630
32.93070	81511
32.93882	76668
32.94693	70235
32.95507	63133
32.96318	61173
32.97132	60983
32.97943	70540
32.98755	76012
32.99568	78957
33.00380	87230
33.01193	85627
33.02005	87415
33.02817	75649
33.03630	74318
33.04442	65908
33.05255	69071
33.06067	70444
33.06878	74110
33.07692	82364
33.08503	89324
33.09315	105931
33.10128	110076
33.10940	116621
33.11753	106874
33.12565	105524
33.13377	98001
33.14190	97556
33.15002	92721
33.15815	77442
33.16627	70625
33.17438	71533
33.18252	68351
33.19063	69347
33.19875	66142
33.20688	66616
33.21500	70336
33.22313	65713
33.23125	68979
33.23937	66057
33.24750	65444
33.25562	69731
33.26375	67753
33.27187	69233
33.27998	62184
33.28812	63964
33.29623	67761
33.30437	63795
33.31248	61543
33.32060	68322
33.32873	67972
33.33685	68027
33.34497	72256
33.35310	73917
33.36122	72253
33.36935	73389
33.37747	67258
33.38558	69859
33.39372	65653
33.40183	64961
33.40997	57281
33.41808	58273
33.42620	57862
33.43433	60011
33.44245	55036
33.45058	59254
33.45870	60675
33.46682	63985
33.47495	59298
33.48307	62026
33.49118	64675
33.49932	59763
33.50743	64825
33.51557	64026
33.52368	59276
33.53180	65155
33.53993	70317
33.54805	66462
33.55618	70141
33.56430	75946
33.57242	63463
33.58055	68202
33.58867	68901
33.59678	69695
33.60492	66950
33.61303	63590
33.62117	56386
33.62928	60014
33.63740	61787
33.64553	61962
33.65365	63913
33.66178	58542
33.66990	61246
33.67802	61123
33.68615	64471
33.69427	58896
33.70240	61692
33.71052	57941
33.71863	55713
33.72677	58374
33.73488	56418
33.74300	56851
33.75113	53717
33.75925	55881
33.76738	53302
33.77550	55833
33.78362	54542
33.79175	54861
33.79987	54539
33.80800	55486
33.81612	53999
33.82423	57894
33.83237	58086
33.84048	57294
33.84862	62528
33.85673	61276
33.86485	60640
33.87298	61866
33.88110	60051
33.88922	66919
33.89735	72238
33.90547	72182
33.91360	75619
33.92172	73706
33.92983	71577
33.93797	65318
33.94608	61729
33.95422	59811
33.96233	56792
33.97045	59557
33.97858	58093
33.98670	62645
33.99482	56895
34.00295	54554
34.01107	53838
34.01920	54738
34.02732	53651
34.03543	59021
34.04357	56402
34.05168	58843
34.05982	59471
34.06793	55234
34.07605	57066
34.08418	57616
34.09230	66476
34.10043	59000
34.10855	64858
34.11667	61136
34.12480	60196
34.13292	61651
34.14103	58753
34.14917	61783
34.15728	63496
34.16542	63592
34.17353	64397
34.18165	60835
34.18978	60873
34.19790	61293
34.20603	62128
34.21415	61031
34.22227	60611
34.23040	66241
34.23852	61151
34.24663	61878
34.25477	59737
34.26288	61647
34.27102	60548
34.27913	58336
34.28725	62308
34.29538	56564
34.30350	59294
34.31163	57782
34.31975	61542
34.32787	70771
34.33600	63131
34.34412	59281
34.35225	61396
34.36037	58214
34.36848	58008
34.37662	62187
34.38473	57095
34.39285	58984
34.40098	60545
34.40910	58916
34.41723	53913
34.42535	54293
34.43347	58995
34.44160	58414
34.44972	58855
34.45785	54779
34.46597	54142
34.47408	56802
34.48222	56849
34.49033	57626
34.49847	65634
34.50658	70801
34.51470	87199
34.52283	102447
34.53095	115365
34.53907	122227
34.54720	132235
34.55532	141478
34.56345	147915
34.57157	143370
34.57968	140318
34.58782	131870
34.59593	114229
34.60407	113371
34.61218	103780
34.62030	96438
34.62843	95127
34.63655	84220
34.64467	81207
34.65280	81197
34.66092	81054
34.66905	80128
34.67717	77361
34.68528	75053
34.69342	75124
34.70153	73913
34.70967	76642
34.71778	71583
34.72590	70572
34.73403	76896
34.74215	69230
34.75028	73200
34.75840	66276
34.76652	71427
34.77465	72176
34.78277	73604
34.79088	70328
34.79902	73918
34.80713	71782
34.81527	71913
34.82338	73224
34.83150	66836
34.83963	70573
34.84775	68312
34.85588	69291
34.86400	70022
34.87212	68174
34.88025	68300
34.88837	67503
34.89650	66599
34.90462	68208
34.91273	65593
34.92087	73025
34.92898	70981
34.93710	72966
34.94523	77835
34.95335	73700
34.96148	74074
34.96960	75394
34.97772	75793
34.98585	78564
34.99397	77797
35.00210	76824
35.01022	73927
35.01833	70087
35.02647	66240
35.03458	67196
35.04270	62830
35.05083	67962
35.05895	66753
35.06708	65871
35.07520	62873
35.08332	66644
35.09145	63412
35.09957	59210
35.10770	65612
35.11582	61565
35.12393	61066
35.13207	64590
35.14018	66607
35.14832	61202
35.15643	67567
35.16455	65179
35.17268	67484
35.18080	64649
35.18892	63072
35.19705	61777
35.20517	61374
35.21330	54280
35.22142	59513
35.22953	58916
35.23767	61447
35.24578	58692
35.25392	63252
35.26203	61200
35.27015	60889
35.27828	63039
35.28640	63478
35.29452	61249
35.30265	62612
35.31077	59254
35.31890	57086
35.32702	60798
35.33513	56959
35.34327	54057
35.35138	62848
35.35952	62209
35.36763	62432
35.37575	59920
35.38388	67691
35.39200	75620
35.40013	92119
35.40825	111592
35.41637	137029
35.42450	146540
35.43262	165534
35.44073	161643
35.44887	146514
35.45698	121119
35.46512	105845
35.47323	92344
35.48135	84139
35.48948	75269
35.49760	76193
35.50573	76688
35.51385	70607
35.52197	67193
35.53010	67380
35.53822	65525
35.54635	67462
35.55447	64677
35.56258	64283
35.57072	67775
35.57883	65171
35.58695	64173
35.59508	62916
35.60320	61047
35.61133	62631
35.61945	62455
35.62757	61687
35.63570	63710
35.64382	61103
35.65195	60129
35.66007	65701
35.66818	66864
35.67632	66374
35.68443	68770
35.69255	67197
35.70068	69779
35.70880	72114
35.71693	62413
35.72505	68354
35.73317	64918
35.74130	70747
35.74942	74467
35.75755	78930
35.76567	75528
35.77378	83995
35.78192	78401
35.79003	72439
35.79817	69955
35.80628	65819
35.81440	62018
35.82253	63382
35.83065	62000
35.83877	65773
35.84690	65744
35.85502	64356
35.86315	65535
35.87127	64418
35.87938	62606
35.88752	64550
35.89563	62511
35.90377	65309
35.91188	59812
35.92000	60981
35.92813	62873
35.93625	63038
35.94438	63065
35.95250	61881
35.96062	66368
35.96875	60533
35.97687	67492
35.98498	62312
35.99312	64395
36.00123	66077
36.00937	63567
36.01748	68524
36.02560	68849
36.03373	66317
36.04185	69154
36.04998	63452
36.05810	64383
36.06622	66087
36.07435	69711
36.08247	63107
36.09058	66952
36.09872	63955
36.10683	63159
36.11497	64792
36.12308	62823
36.13120	68549
36.13933	66978
36.14745	70637
36.15558	69399
36.16370	70154
36.17182	69348
36.17995	67190
36.18807	67981
36.19620	65529
36.20432	67864
36.21243	65725
36.22057	68212
36.22868	64924
36.23680	69762
36.24493	66867
36.25305	62681
36.26118	65098
36.26930	65731
36.27742	65385
36.28555	68281
36.29367	76885
36.30180	86804
36.30992	93586
36.31803	95885
36.32617	84615
36.33428	86380
36.34242	72680
36.35053	72886
36.35865	74078
36.36678	71613
36.37490	68629
36.38302	68766
36.39115	74991
36.39927	73228
36.40740	72156
36.41552	69555
36.42363	75533
36.43177	71984
36.43988	75250
36.44802	70409
36.45613	70170
36.46425	70803
36.47238	75593
36.48050	71063
36.48862	72535
36.49675	71367
36.50487	71763
36.51300	72784
36.52112	74901
36.52923	69900
36.53737	71624
36.54548	72856
36.55362	72569
36.56173	79157
36.56985	77230
36.57798	73324
36.58610	68904
36.59423	74616
36.60235	67964
36.61047	74393
36.61860	69155
36.62672	66526
36.63483	67730
36.64297	81879
36.65108	71052
36.65922	70082
36.66733	79153
36.67545	73356
36.68358	64828
36.69170	71073
36.69983	70759
36.70795	66115
36.71607	64645
36.72420	68506
36.73232	69551
36.74043	70075
36.74857	72033
36.75668	69004
36.76482	70877
36.77293	66110
36.78105	72848
36.78918	68242
36.79730	65774
36.80543	70976
36.81355	71210
36.82167	70752
36.82980	70840
36.83792	68213
36.84605	70262
36.85417	72767
36.86228	63345
36.87042	69008
36.87853	72821
36.88665	67921
36.89478	69851
36.90290	68972
36.91103	70799
36.91915	72596
36.92727	72150
36.93540	72232
36.94352	73878
36.95165	82488
36.95977	85993
36.96788	80374
36.97602	89663
36.98413	84497
36.99227	85943
37.00038	78914
37.00850	76706
37.01663	72314
37.02475	74834
37.03287	70458
37.04100	72081
37.04912	71687
37.05725	71644
37.06537	72251
37.07348	72623
37.08162	77416
37.08973	72939
37.09787	73237
37.10598	78365
37.11410	77630
37.12223	72054
37.13035	69186
37.13847	67146
37.14660	72545
37.15472	72167
37.16285	71724
37.17097	72681
37.17908	69438
37.18722	75567
37.19533	70125
37.20347	76853
37.21158	73044
37.21970	69642
37.22783	76702
37.23595	74396
37.24408	69987
37.25220	71293
37.26032	70732
37.26845	76291
37.27657	68834
37.28468	74390
37.29282	72464
37.30093	75217
37.30907	79271
37.31718	88023
37.32530	104672
37.33343	108775
37.34155	124523
37.34968	132187
37.35780	137351
37.36592	130005
37.37405	125327
37.38217	121637
37.39030	115241
37.39842	107890
37.40653	111117
37.41467	108006
37.42278	101338
37.43090	108339
37.43903	99906
37.44715	98743
37.45528	94398
37.46340	96685
37.47152	90748
37.47965	96263
37.48777	86616
