C:\MassHunter\GCMS\1\data\JTB-E18\JTB-E18-030-09.D Wed Oct 02 14:19:05 2019
Start of data points
2.09517	114489
2.10330	101125
2.11142	108397
2.11953	105951
2.12767	106988
2.13578	102600
2.14392	102892
2.15203	103586
2.16015	95382
2.16828	97881
2.17640	95700
2.18453	91236
2.19265	91828
2.20077	90016
2.20890	85187
2.21702	84380
2.22513	86703
2.23327	82021
2.24138	80719
2.24952	85717
2.25763	107313
2.26575	371932
2.27388	726340
2.28200	859159
2.29013	585994
2.29825	369606
2.30637	281929
2.31450	240545
2.32262	220213
2.33075	203127
2.33887	187120
2.34698	173539
2.35512	162783
2.36323	163202
2.37135	178362
2.37948	204376
2.38760	200928
2.39573	171144
2.40385	154985
2.41197	150108
2.42010	150821
2.42822	149480
2.43635	143134
2.44447	153104
2.45258	146004
2.46072	139073
2.46883	128803
2.47695	126583
2.48508	134180
2.49320	144626
2.50133	134969
2.50945	121755
2.51757	126852
2.52570	117211
2.53382	122744
2.54195	126029
2.55007	151878
2.55818	158847
2.56632	142773
2.57443	130243
2.58257	127282
2.59068	133185
2.59880	187858
2.60693	362382
2.61505	472821
2.62317	376706
2.63130	259159
2.63942	202413
2.64755	179499
2.65567	167819
2.66378	174497
2.67192	200040
2.68003	207707
2.68817	165242
2.69628	144802
2.70440	125480
2.71253	122348
2.72065	124738
2.72878	113525
2.73690	117087
2.74502	117020
2.75315	114146
2.76127	115048
2.76938	124585
2.77752	151941
2.78563	180581
2.79377	175209
2.80188	161487
2.81000	191275
2.81813	347986
2.82625	652867
2.83438	758956
2.84250	510270
2.85062	327408
2.85875	282430
2.86687	245891
2.87498	204378
2.88312	174632
2.89123	156475
2.89937	140514
2.90748	140369
2.91560	134858
2.92373	125327
2.93185	116979
2.93998	118477
2.94810	115210
2.95622	119346
2.96435	121425
2.97247	123211
2.98060	120219
2.98872	127866
2.99683	132145
3.00497	147262
3.01308	196223
3.02120	417537
3.02933	832211
3.03745	1365969
3.04558	3329488
3.05370	7873846
3.06182	1.0422E+07
3.06995	7647693
3.07807	4291976
3.08620	3049042
3.09432	2872454
3.10243	2917415
3.11057	2798679
3.11868	2237546
3.12682	1623427
3.13493	1227994
3.14305	999039
3.15118	830810
3.15930	754363
3.16742	734773
3.17555	776530
3.18367	1031110
3.19180	1378602
3.19992	1360939
3.20803	1060291
3.21617	845401
3.22428	720266
3.23242	639233
3.24053	547443
3.24865	502340
3.25678	447527
3.26490	415843
3.27302	435623
3.28115	728547
3.28927	1662816
3.29740	3091870
3.30552	3955329
3.31363	3631545
3.32177	2790741
3.32988	2071753
3.33802	1672289
3.34613	1395312
3.35425	1222342
3.36238	1198042
3.37050	1408177
3.37863	1572100
3.38675	1474201
3.39487	1508565
3.40300	2504623
3.41112	4123477
3.41923	4344038
3.42737	3059392
3.43548	1819864
3.44362	1231163
3.45173	981541
3.45985	853079
3.46798	766754
3.47610	683497
3.48423	621329
3.49235	573243
3.50047	526703
3.50860	483611
3.51672	474241
3.52483	463281
3.53297	449557
3.54108	440340
3.54922	417456
3.55733	424646
3.56545	493409
3.57358	569083
3.58170	553119
3.58983	465512
3.59795	437847
3.60607	466542
3.61420	773382
3.62232	1670846
3.63045	2668294
3.63857	2772100
3.64668	1994360
3.65482	1424240
3.66293	2118531
3.67105	4206280
3.67918	5553126
3.68730	4589134
3.69543	2887283
3.70355	1899834
3.71167	1453676
3.71980	1195551
3.72792	1046904
3.73605	936972
3.74417	853678
3.75228	803220
3.76042	753437
3.76853	698431
3.77667	652279
3.78478	631605
3.79290	629265
3.80103	755414
3.80915	973100
3.81727	1080203
3.82540	945092
3.83352	750511
3.84165	624050
3.84977	550469
3.85788	507526
3.86602	476032
3.87413	463745
3.88227	447593
3.89038	436774
3.89850	424039
3.90663	435819
3.91475	516964
3.92288	642713
3.93100	681987
3.93912	723917
3.94725	1103088
3.95537	2051404
3.96348	2794731
3.97162	2558095
3.97973	1771251
3.98787	1718876
3.99598	3707592
4.00410	7808313
4.01223	1.059997E+07
4.02035	9264866
4.02848	5797345
4.03660	3257554
4.04472	2074952
4.05285	1518943
4.06097	1212018
4.06908	1002926
4.07722	872507
4.08533	764471
4.09347	678351
4.10158	610346
4.10970	558800
4.11783	520150
4.12595	517086
4.13408	559221
4.14220	690085
4.15032	771450
4.15845	744624
4.16657	621273
4.17470	545032
4.18282	480585
4.19093	430847
4.19907	474619
4.20718	1055798
4.21530	3342319
4.22343	7531945
4.23155	1.187807E+07
4.23968	1.367192E+07
4.24780	1.183943E+07
4.25592	8020834
4.26405	5247405
4.27217	3671394
4.28030	2725461
4.28842	2139270
4.29653	1767468
4.30467	1494304
4.31278	1286058
4.32090	1153909
4.32903	1019912
4.33715	941194
4.34528	939540
4.35340	889240
4.36152	848372
4.36965	776287
4.37777	717370
4.38590	652682
4.39402	611825
4.40213	572384
4.41027	545303
4.41838	522473
4.42652	494039
4.43463	489987
4.44275	481637
4.45088	500392
4.45900	480051
4.46712	469265
4.47525	445519
4.48337	416972
4.49150	400154
4.49962	392734
4.50773	377308
4.51587	380774
4.52398	364938
4.53212	352800
4.54023	347508
4.54835	339575
4.55648	334688
4.56460	323805
4.57273	316251
4.58085	305183
4.58897	295796
4.59710	296667
4.60522	296552
4.61333	320487
4.62147	417800
4.62958	595032
4.63772	764390
4.64583	736511
4.65395	587234
4.66208	448890
4.67020	382991
4.67833	348929
4.68645	320690
4.69457	308202
4.70270	286506
4.71082	273065
4.71893	256628
4.72707	258107
4.73518	253555
4.74332	253633
4.75143	253128
4.75955	237371
4.76768	227352
4.77580	234180
4.78393	248990
4.79205	295337
4.80017	357161
4.80830	371727
4.81642	346592
4.82455	302037
4.83267	293891
4.84078	287954
4.84892	295881
4.85703	285815
4.86515	276847
4.87328	270561
4.88140	253696
4.88953	240084
4.89765	240179
4.90577	248497
4.91390	312960
4.92202	512210
4.93015	952455
4.93827	1525692
4.94638	1913481
4.95452	1879777
4.96263	1581028
4.97077	1201306
4.97888	953158
4.98700	759378
4.99513	653583
5.00325	603135
5.01137	552984
5.01950	608315
5.02762	835264
5.03575	1119665
5.04387	1216271
5.05198	1054817
5.06012	839962
5.06823	682595
5.07637	595507
5.08448	541532
5.09260	530635
5.10073	553959
5.10885	596339
5.11697	623191
5.12510	571118
5.13322	512532
5.14135	457467
5.14947	458632
5.15758	475012
5.16572	535945
5.17383	599461
5.18197	608364
5.19008	605611
5.19820	595363
5.20633	543393
5.21445	477724
5.22258	430000
5.23070	393351
5.23882	377275
5.24695	365859
5.25507	344365
5.26318	314617
5.27132	296721
5.27943	294072
5.28757	293678
5.29568	285463
5.30380	279724
5.31193	274898
5.32005	264560
5.32818	275294
5.33630	283489
5.34442	276017
5.35255	269223
5.36067	256232
5.36878	243017
5.37692	237845
5.38503	235178
5.39317	239462
5.40128	238234
5.40940	242624
5.41753	219055
5.42565	216474
5.43378	215716
5.44190	223846
5.45002	223504
5.45815	228582
5.46627	225177
5.47440	200741
5.48252	196409
5.49063	204076
5.49877	210927
5.50688	200451
5.51500	201203
5.52313	201706
5.53125	198202
5.53938	196970
5.54750	208384
5.55562	215168
5.56375	250046
5.57187	262803
5.58000	253724
5.58812	235502
5.59623	216239
5.60437	204518
5.61248	208414
5.62062	198961
5.62873	210803
5.63685	212911
5.64498	212444
5.65310	204069
5.66122	203405
5.66935	203338
5.67747	208229
5.68560	220350
5.69372	234883
5.70183	249173
5.70997	261842
5.71808	280703
5.72622	281811
5.73433	284353
5.74245	270948
5.75058	267481
5.75870	273689
5.76682	288970
5.77495	288461
5.78307	276934
5.79120	272179
5.79932	338375
5.80743	556171
5.81557	944286
5.82368	1432592
5.83182	1710099
5.83993	1544972
5.84805	1138747
5.85618	775523
5.86430	531542
5.87243	396249
5.88055	322815
5.88867	281384
5.89680	304288
5.90492	362574
5.91303	488963
5.92117	663943
5.92928	779611
5.93742	774816
5.94553	643002
5.95365	478610
5.96178	390720
5.96990	378238
5.97803	380664
5.98615	399899
5.99427	367123
6.00240	317493
6.01052	276094
6.01865	235511
6.02677	209541
6.03488	199685
6.04302	179046
6.05113	174842
6.05925	169199
6.06738	165887
6.07550	153468
6.08363	155109
6.09175	154031
6.09987	151145
6.10800	152132
6.11612	174305
6.12425	235255
6.13237	373592
6.14048	494043
6.14862	525518
6.15673	443272
6.16485	358157
6.17298	275311
6.18110	251347
6.18923	244070
6.19735	252201
6.20547	252998
6.21360	229604
6.22172	208344
6.22985	193425
6.23797	187103
6.24608	193665
6.25422	191287
6.26233	194392
6.27047	189206
6.27858	183882
6.28670	186018
6.29483	185344
6.30295	186878
6.31107	197727
6.31920	196888
6.32732	208567
6.33545	233067
6.34357	227050
6.35168	229299
6.35982	219864
6.36793	222449
6.37607	211871
6.38418	212474
6.39230	209064
6.40043	206228
6.40855	203820
6.41667	202579
6.42480	210015
6.43292	209238
6.44105	210514
6.44917	210969
6.45728	216241
6.46542	215606
6.47353	226628
6.48167	213866
6.48978	224910
6.49790	227197
6.50603	229404
6.51415	229289
6.52228	240644
6.53040	239242
6.53852	242955
6.54665	251304
6.55477	247103
6.56288	263898
6.57102	276695
6.57913	285386
6.58727	280129
6.59538	269498
6.60350	256952
6.61163	243907
6.61975	244777
6.62788	241733
6.63600	243281
6.64412	262080
6.65225	309229
6.66037	391161
6.66850	398448
6.67662	395741
6.68473	364037
6.69287	360430
6.70098	353055
6.70910	324907
6.71723	261881
6.72535	209338
6.73348	171967
6.74160	153377
6.74972	148539
6.75785	134130
6.76597	130705
6.77410	132596
6.78222	131917
6.79033	152100
6.79847	219908
6.80658	374921
6.81470	614725
6.82283	920554
6.83095	1080120
6.83908	1047348
6.84720	833067
6.85532	606517
6.86345	461327
6.87157	359638
6.87970	271377
6.88782	202742
6.89593	161878
6.90407	132977
6.91218	117025
6.92032	107465
6.92843	107545
6.93655	107557
6.94468	123479
6.95280	157362
6.96092	239378
6.96905	340822
6.97717	420231
6.98530	449952
6.99342	419031
7.00153	328158
7.00967	246039
7.01778	183100
7.02592	144049
7.03403	121617
7.04215	114255
7.05028	102996
7.05840	110509
7.06653	106281
7.07465	105590
7.08277	104822
7.09090	99965
7.09902	94258
7.10713	90301
7.11527	86597
7.12338	87225
7.13152	96481
7.13963	104400
7.14775	124231
7.15588	141485
7.16400	154847
7.17213	154475
7.18025	203751
7.18837	357789
7.19650	727657
7.20462	1190126
7.21273	1442939
7.22087	1348233
7.22898	998847
7.23712	636632
7.24523	398041
7.25335	254630
7.26148	186966
7.26960	173888
7.27773	169715
7.28585	177001
7.29397	164299
7.30210	145462
7.31022	139743
7.31835	144724
7.32647	179254
7.33458	231154
7.34272	306887
7.35083	340124
7.35895	347815
7.36708	315589
7.37520	241464
7.38333	185811
7.39145	150732
7.39957	128067
7.40770	118379
7.41582	119779
7.42395	125665
7.43207	138018
7.44018	166539
7.44832	196156
7.45643	229248
7.46457	234886
7.47268	210841
7.48080	180442
7.48893	148052
7.49705	120500
7.50517	104424
7.51330	95516
7.52142	100422
7.52955	113921
7.53767	137840
7.54578	172467
7.55392	223996
7.56203	264019
7.57017	279435
7.57828	253244
7.58640	224915
7.59453	179607
7.60265	147372
7.61077	121317
7.61890	110541
7.62702	102951
7.63515	91874
7.64327	91896
7.65138	92791
7.65952	84515
7.66763	83044
7.67577	84141
7.68388	83627
7.69200	80620
7.70013	81641
7.70825	76339
7.71638	83241
7.72450	81484
7.73262	78588
7.74075	81336
7.74887	84022
7.75698	76914
7.76512	80887
7.77323	79334
7.78137	81919
7.78948	79888
7.79760	80660
7.80573	82387
7.81385	88940
7.82198	83724
7.83010	81230
7.83822	78726
7.84635	78592
7.85447	75474
7.86258	74212
7.87072	77822
7.87883	85842
7.88697	85370
7.89508	89691
7.90320	88495
7.91133	83439
7.91945	83588
7.92758	90949
7.93570	102358
7.94382	109502
7.95195	108963
7.96007	101923
7.96820	94816
7.97632	83179
7.98443	75641
7.99257	70134
8.00068	70753
8.00880	65723
8.01693	62813
8.02505	68238
8.03318	69275
8.04130	65560
8.04942	64040
8.05755	64977
8.06567	64172
8.07380	62995
8.08192	66635
8.09003	59906
8.09817	61798
8.10628	64528
8.11442	59523
8.12253	61745
8.13065	67986
8.13878	74196
8.14690	84405
8.15502	88648
8.16315	83040
8.17127	72335
8.17940	67270
8.18752	62315
8.19563	62719
8.20377	59900
8.21188	57642
8.22002	60395
8.22813	58562
8.23625	58762
8.24438	60910
8.25250	57424
8.26062	52164
8.26875	54175
8.27687	53806
8.28500	54943
8.29312	52547
8.30123	55160
8.30937	59736
8.31748	62563
8.32562	71205
8.33373	67419
8.34185	64787
8.34998	59960
8.35810	60365
8.36623	56078
8.37435	55241
8.38247	58205
8.39060	52182
8.39872	53389
8.40683	52201
8.41497	50845
8.42308	50524
8.43122	53840
8.43933	53400
8.44745	52732
8.45558	50054
8.46370	51278
8.47183	52650
8.47995	53372
8.48807	50371
8.49620	51623
8.50432	59916
8.51245	75623
8.52057	99721
8.52868	137175
8.53682	154388
8.54493	144830
8.55305	110986
8.56118	89924
8.56930	75911
8.57743	61128
8.58555	63794
8.59367	57275
8.60180	60967
8.60992	56438
8.61805	60020
8.62617	55503
8.63428	58045
8.64242	55253
8.65053	54143
8.65865	52931
8.66678	54374
8.67490	50795
8.68303	55047
8.69115	54563
8.69927	66547
8.70740	66439
8.71552	70855
8.72365	100195
8.73177	176442
8.73988	295494
8.74802	444909
8.75613	524622
8.76427	508237
8.77238	406151
8.78050	292506
8.78863	203419
8.79675	165576
8.80487	151130
8.81300	145579
8.82112	142017
8.82925	135632
8.83737	121303
8.84548	117535
8.85362	115866
8.86173	103899
8.86987	100095
8.87798	98301
8.88610	90920
8.89423	90372
8.90235	86085
8.91047	89154
8.91860	88714
8.92672	96439
8.93485	97476
8.94297	103274
8.95108	96455
8.95922	92484
8.96733	90908
8.97547	84103
8.98358	81801
8.99170	94748
8.99983	85799
9.00795	80438
9.01608	74747
9.02420	78594
9.03232	73365
9.04045	70755
9.04857	73695
9.05668	67881
9.06482	67599
9.07293	67976
9.08107	69445
9.08918	71335
9.09730	76690
9.10543	92156
9.11355	105853
9.12168	98602
9.12980	96140
9.13792	86963
9.14605	78565
9.15417	76092
9.16230	73696
9.17042	64183
9.17853	66073
9.18667	65431
9.19478	60402
9.20290	63059
9.21103	60076
9.21915	62540
9.22728	60780
9.23540	64870
9.24352	63051
9.25165	60355
9.25977	60238
9.26790	66082
9.27602	69178
9.28413	71741
9.29227	65266
9.30038	66687
9.30852	65314
9.31663	60610
9.32475	66680
9.33288	63651
9.34100	70058
9.34912	66389
9.35725	67570
9.36537	62949
9.37350	61398
9.38162	61167
9.38973	59708
9.39787	61265
9.40598	65268
9.41412	74328
9.42223	80056
9.43035	90942
9.43848	94893
9.44660	94088
9.45472	91088
9.46285	80099
9.47097	66841
9.47910	65863
9.48722	57567
9.49533	61353
9.50347	63508
9.51158	69189
9.51972	67171
9.52783	73801
9.53595	59039
9.54408	60185
9.55220	56181
9.56033	55758
9.56845	51348
9.57657	53300
9.58470	56637
9.59282	62954
9.60093	57329
9.60907	54568
9.61718	54674
9.62532	49792
9.63343	49125
9.64155	49134
9.64968	51018
9.65780	49395
9.66593	46896
9.67405	46821
9.68217	42746
9.69030	42875
9.69842	40993
9.70653	41651
9.71467	39783
9.72278	40510
9.73092	42066
9.73903	42396
9.74715	35513
9.75528	37373
9.76340	38583
9.77153	39511
9.77965	37640
9.78777	32966
9.79590	36634
9.80402	35789
9.81215	38140
9.82027	36022
9.82838	36458
9.83652	37056
9.84463	38722
9.85275	37613
9.86088	37204
9.86900	38638
9.87713	38818
9.88525	38323
9.89337	36846
9.90150	39801
9.90962	41483
9.91775	43348
9.92587	53699
9.93398	69701
9.94212	95709
9.95023	107174
9.95837	116873
9.96648	107880
9.97460	87742
9.98273	74706
9.99085	61912
9.99897	55268
10.00710	49045
10.01522	43770
10.02335	43777
10.03147	41643
10.03958	43627
10.04772	42197
10.05583	43607
10.06397	43626
10.07208	45936
10.08020	40829
10.08833	41399
10.09645	41704
10.10457	43065
10.11270	43265
10.12082	40266
10.12895	37223
10.13707	40035
10.14518	36661
10.15332	40657
10.16143	38648
10.16957	42570
10.17768	40451
10.18580	38893
10.19393	36278
10.20205	37951
10.21018	38572
10.21830	42348
10.22642	41272
10.23455	49055
10.24267	55062
10.25078	81371
10.25892	160094
10.26703	349022
10.27517	704780
10.28328	1167096
10.29140	1736003
10.29953	2469883
10.30765	3650850
10.31578	5053895
10.32390	6097001
10.33202	5836570
10.34015	4500010
10.34827	2856442
10.35640	1723999
10.36452	1162749
10.37263	860024
10.38077	684788
10.38888	511562
10.39700	385112
10.40513	290575
10.41325	236656
10.42138	204094
10.42950	192627
10.43762	174846
10.44575	172749
10.45387	145160
10.46200	144524
10.47012	128295
10.47823	124438
10.48637	117755
10.49448	112733
10.50260	108807
10.51073	110739
10.51885	103100
10.52698	113356
10.53510	96637
10.54322	97265
10.55135	90593
10.55947	89403
10.56760	92792
10.57572	92393
10.58383	84014
10.59197	82094
10.60008	80494
10.60822	79526
10.61633	68003
10.62445	69801
10.63258	70371
10.64070	70485
10.64882	67559
10.65695	63735
10.66507	65833
10.67320	64964
10.68132	65910
10.68943	71384
10.69757	67513
10.70568	78475
10.71382	75617
10.72193	67787
10.73005	64483
10.73818	68172
10.74630	65279
10.75442	64255
10.76255	67229
10.77067	62378
10.77880	58775
10.78692	58291
10.79503	56586
10.80317	59777
10.81128	55655
10.81942	57362
10.82753	57611
10.83565	55453
10.84378	50927
10.85190	48417
10.86003	47918
10.86815	53297
10.87627	47545
10.88440	52682
10.89252	45291
10.90063	44408
10.90877	47130
10.91688	44860
10.92502	45476
10.93313	44373
10.94125	46176
10.94938	46685
10.95750	45521
10.96563	48590
10.97375	51165
10.98187	48578
10.99000	49001
10.99812	45754
11.00625	50837
11.01437	44673
11.02248	48033
11.03062	46753
11.03873	45049
11.04685	44452
11.05498	46524
11.06310	47102
11.07123	45537
11.07935	47173
11.08747	50396
11.09560	48531
11.10372	48376
11.11185	48080
11.11997	51051
11.12808	48545
11.13622	50821
11.14433	45661
11.15245	48996
11.16058	44715
11.16870	46600
11.17683	46037
11.18495	45001
11.19307	46973
11.20120	48100
11.20932	45562
11.21745	49370
11.22557	42945
11.23368	41736
11.24182	40257
11.24993	42599
11.25807	50120
11.26618	63286
11.27430	87537
11.28243	107219
11.29055	141373
11.29867	147254
11.30680	176747
11.31492	218019
11.32305	292710
11.33117	381897
11.33928	473461
11.34742	490276
11.35553	433262
11.36367	330082
11.37178	259762
11.37990	195731
11.38803	159256
11.39615	139066
11.40428	123046
11.41240	110452
11.42052	99228
11.42865	86741
11.43677	82424
11.44488	79105
11.45302	70505
11.46113	69620
11.46927	69251
11.47738	79886
11.48550	88081
11.49363	94578
11.50175	91014
11.50988	92820
11.51800	94432
11.52612	92872
11.53425	95060
11.54237	88995
11.55048	88937
11.55862	82804
11.56673	77912
11.57487	72973
11.58298	74968
11.59110	86486
11.59923	93813
11.60735	104591
11.61548	111441
11.62360	104176
11.63172	90552
11.63985	80409
11.64797	67172
11.65610	60933
11.66422	60224
11.67233	58462
11.68047	61609
11.68858	67646
11.69670	71589
11.70483	78347
11.71295	78904
11.72108	81252
11.72920	77359
11.73732	85682
11.74545	76483
11.75357	69219
11.76170	61295
11.76982	56452
11.77793	60752
11.78607	59226
11.79418	60992
11.80230	55512
11.81043	52964
11.81855	52155
11.82668	51680
11.83480	47905
11.84292	49933
11.85105	47246
11.85917	43819
11.86730	40541
11.87542	44766
11.88353	40624
11.89167	49479
11.89978	48600
11.90792	50001
11.91603	53284
11.92415	60726
11.93228	64803
11.94040	71502
11.94852	71513
11.95665	62946
11.96477	58461
11.97290	53975
11.98102	58289
11.98913	61382
11.99727	61473
12.00538	60548
12.01352	62230
12.02163	55413
12.02975	51454
12.03788	52699
12.04600	47094
12.05413	43077
12.06225	43157
12.07037	43939
12.07850	42190
12.08662	44085
12.09473	47169
12.10287	45684
12.11098	47833
12.11912	50102
12.12723	47298
12.13535	46769
12.14348	42387
12.15160	43149
12.15973	40809
12.16785	40357
12.17597	39631
12.18410	38216
12.19222	43916
12.20033	41059
12.20847	41434
12.21658	36790
12.22472	37521
12.23283	44335
12.24095	39579
12.24908	37286
12.25720	38035
12.26533	41011
12.27345	37777
12.28157	37267
12.28970	37389
12.29782	36997
12.30595	36535
12.31407	38597
12.32218	36976
12.33032	36248
12.33843	35046
12.34655	33883
12.35468	37708
12.36280	38117
12.37093	36732
12.37905	37560
12.38717	43439
12.39530	54067
12.40342	65986
12.41155	82049
12.41967	92827
12.42778	88625
12.43592	77194
12.44403	71207
12.45217	57180
12.46028	50673
12.46840	48847
12.47653	49382
12.48465	43511
12.49277	44488
12.50090	42566
12.50902	42489
12.51715	40790
12.52527	43119
12.53338	49418
12.54152	65096
12.54963	79510
12.55777	93821
12.56588	91695
12.57400	86790
12.58213	69058
12.59025	59685
12.59837	49712
12.60650	48278
12.61462	49739
12.62275	41727
12.63087	43855
12.63898	37533
12.64712	40292
12.65523	37479
12.66337	38760
12.67148	33495
12.67960	36889
12.68773	36200
12.69585	34272
12.70398	37106
12.71210	40855
12.72022	42398
12.72835	47001
12.73647	48828
12.74458	45560
12.75272	44414
12.76083	42401
12.76897	42711
12.77708	43765
12.78520	43738
12.79333	50085
12.80145	45691
12.80958	43964
12.81770	42440
12.82582	42786
12.83395	39071
12.84207	42376
12.85020	39727
12.85832	37517
12.86643	37614
12.87457	35849
12.88268	39918
12.89080	34736
12.89893	37506
12.90705	33428
12.91518	33863
12.92330	40163
12.93142	42922
12.93955	53359
12.94767	67410
12.95580	88559
12.96392	114299
12.97203	123253
12.98017	124878
12.98828	112833
12.99640	100379
13.00453	85679
13.01265	83634
13.02078	75963
13.02890	71841
13.03702	67139
13.04515	61630
13.05327	55766
13.06140	56203
13.06952	51530
13.07763	49387
13.08577	47130
13.09388	47621
13.10202	44709
13.11013	43134
13.11825	38284
13.12638	38013
13.13450	41369
13.14262	39479
13.15075	38254
13.15887	40053
13.16700	37852
13.17512	40282
13.18323	40140
13.19137	41957
13.19948	40500
13.20762	39655
13.21573	40205
13.22385	42330
13.23198	43366
13.24010	42627
13.24822	54525
13.25635	51898
13.26447	53602
13.27260	54481
13.28072	58095
13.28883	55897
13.29697	52185
13.30508	52050
13.31322	56379
13.32133	54519
13.32945	54560
13.33758	53888
13.34570	51982
13.35383	47612
13.36195	46633
13.37007	50477
13.37820	43418
13.38632	43337
13.39443	41572
13.40257	38967
13.41068	41742
13.41882	40171
13.42693	41841
13.43505	37081
13.44318	38189
13.45130	37470
13.45943	37505
13.46755	33871
13.47567	36566
13.48380	41755
13.49192	36931
13.50005	36731
13.50817	36120
13.51628	35806
13.52442	38224
13.53253	42363
13.54065	45189
13.54878	44306
13.55690	47981
13.56503	48730
13.57315	50514
13.58127	57304
13.58940	61612
13.59752	72320
13.60565	100360
13.61377	119822
13.62188	133497
13.63002	136704
13.63813	120075
13.64625	96345
13.65438	86361
13.66250	69368
13.67063	64453
13.67875	60444
13.68687	55239
13.69500	56056
13.70312	51033
13.71125	52409
13.71937	48265
13.72748	47492
13.73562	51252
13.74373	54611
13.75187	61898
13.75998	86903
13.76810	99736
13.77623	109807
13.78435	122828
13.79247	133824
13.80060	141100
13.80872	148758
13.81685	179711
13.82497	200146
13.83308	215193
13.84122	204677
13.84933	173164
13.85747	147876
13.86558	117626
13.87370	98876
13.88183	89586
13.88995	79817
13.89808	77098
13.90620	71902
13.91432	73178
13.92245	69430
13.93057	67618
13.93868	63188
13.94682	61512
13.95493	58115
13.96307	60073
13.97118	62591
13.97930	55211
13.98743	60020
13.99555	55397
14.00368	54798
14.01180	51546
14.01992	52138
14.02805	54065
14.03617	49514
14.04428	46744
14.05242	45380
14.06053	44934
14.06867	51558
14.07678	45833
14.08490	43773
14.09303	40254
14.10115	40394
14.10928	38830
14.11740	43722
14.12552	53000
14.13365	73417
14.14177	111093
14.14990	148922
14.15802	203356
14.16613	214806
14.17427	200454
14.18238	168547
14.19050	134192
14.19863	112628
14.20675	96520
14.21488	88495
14.22300	86378
14.23112	80433
14.23925	75221
14.24737	81283
14.25550	73200
14.26362	67689
14.27173	64107
14.27987	61457
14.28798	54797
14.29610	57060
14.30423	56466
14.31235	50706
14.32048	44008
14.32860	39586
14.33672	39458
14.34485	39841
14.35297	37260
14.36110	35733
14.36922	35031
14.37733	41189
14.38547	52540
14.39358	79525
14.40172	115017
14.40983	161307
14.41795	196758
14.42608	201128
14.43420	177468
14.44232	140618
14.45045	104202
14.45857	80691
14.46670	66849
14.47482	59781
14.48293	63424
14.49107	58257
14.49918	53017
14.50732	52885
14.51543	49385
14.52355	47915
14.53168	44770
14.53980	41906
14.54793	44294
14.55605	39776
14.56417	44530
14.57230	44742
14.58042	38935
14.58853	40845
14.59667	35916
14.60478	37074
14.61292	37853
14.62103	36363
14.62915	38366
14.63728	34596
14.64540	35885
14.65353	39198
14.66165	35057
14.66977	32466
14.67790	35998
14.68602	33354
14.69415	35306
14.70227	32390
14.71038	39289
14.71852	34050
14.72663	41907
14.73475	34963
14.74288	37079
14.75100	41019
14.75913	36671
14.76725	37493
14.77537	44548
14.78350	64334
14.79162	129676
14.79975	307201
14.80787	629094
14.81598	1072857
14.82412	1465033
14.83223	1557995
14.84035	1323243
14.84848	945205
14.85660	603788
14.86473	373233
14.87285	253122
14.88097	182231
14.88910	147360
14.89722	125873
14.90535	111822
14.91347	103034
14.92158	88202
14.92972	92547
14.93783	85197
14.94597	78654
14.95408	80527
14.96220	71668
14.97033	67438
14.97845	68251
14.98657	66094
14.99470	64732
15.00282	61415
15.01095	60751
15.01907	57529
15.02718	57513
15.03532	59801
15.04343	54556
15.05157	53443
15.05968	50602
15.06780	52924
15.07593	51486
15.08405	51389
15.09217	47658
15.10030	47972
15.10842	49607
15.11655	49704
15.12467	51219
15.13278	56141
15.14092	57600
15.14903	54861
15.15717	49214
15.16528	49513
15.17340	45932
15.18153	44269
15.18965	41109
15.19778	40320
15.20590	42561
15.21402	38745
15.22215	38312
15.23027	35107
15.23838	39197
15.24652	37146
15.25463	34602
15.26277	38723
15.27088	38717
15.27900	36864
15.28713	33037
15.29525	36855
15.30338	36656
15.31150	34373
15.31962	31479
15.32775	34545
15.33587	32182
15.34400	34863
15.35212	36524
15.36023	34751
15.36837	36052
15.37648	35051
15.38460	34749
15.39273	33803
15.40085	34680
15.40898	33586
15.41710	33215
15.42522	32419
15.43335	32771
15.44147	34343
15.44960	34098
15.45772	42953
15.46583	44410
15.47397	54932
15.48208	71417
15.49020	86047
15.49833	96527
15.50645	102234
15.51458	99259
15.52270	85603
15.53082	69028
15.53895	67789
15.54707	55752
15.55520	51623
15.56332	50126
15.57143	45012
15.57957	41137
15.58768	40903
15.59582	41719
15.60393	39061
15.61205	37360
15.62018	37370
15.62830	37935
15.63642	35418
15.64455	35686
15.65267	35801
15.66080	33449
15.66892	37037
15.67703	37082
15.68517	34432
15.69328	33037
15.70142	37293
15.70953	30679
15.71765	32886
15.72578	34271
15.73390	32583
15.74203	37413
15.75015	47905
15.75827	62963
15.76640	81780
15.77452	117611
15.78263	144106
15.79077	140357
15.79888	123360
15.80702	101354
15.81513	80658
15.82325	65872
15.83138	55144
15.83950	50429
15.84763	46121
15.85575	44703
15.86387	45831
15.87200	44643
15.88012	42011
15.88823	40858
15.89637	41966
15.90448	41515
15.91262	40708
15.92073	35392
15.92885	38248
15.93698	38674
15.94510	39852
15.95323	35177
15.96135	36086
15.96947	40803
15.97760	39832
15.98572	46614
15.99385	44430
16.00197	46056
16.01008	51592
16.01822	51830
16.02633	52461
16.03445	48220
16.04258	48388
16.05070	46966
16.05883	42684
16.06695	36645
16.07507	39999
16.08320	36060
16.09132	34675
16.09945	34666
16.10757	34958
16.11568	33805
16.12382	40255
16.13193	41163
16.14005	40802
16.14818	43593
16.15630	37174
16.16443	39932
16.17255	39436
16.18067	39937
16.18880	35317
16.19692	37171
16.20505	36158
16.21317	35041
16.22128	35810
16.22942	35180
16.23753	34877
16.24567	31181
16.25378	34067
16.26190	35659
16.27003	34253
16.27815	38072
16.28627	36115
16.29440	40985
16.30252	42611
16.31065	40248
16.31877	38106
16.32688	36529
16.33502	34536
16.34313	36324
16.35127	38276
16.35938	41395
16.36750	38968
16.37563	40196
16.38375	39946
16.39188	41274
16.40000	37928
16.40812	35784
16.41625	33320
16.42437	36880
16.43248	37674
16.44062	45439
16.44873	65896
16.45687	97252
16.46498	150901
16.47310	185146
16.48123	205245
16.48935	188229
16.49748	152966
16.50560	113305
16.51372	82946
16.52185	68392
16.52997	59611
16.53808	53888
16.54622	49707
16.55433	46922
16.56247	44702
16.57058	43340
16.57870	43760
16.58683	44356
16.59495	42762
16.60308	42170
16.61120	42590
16.61932	38948
16.62745	43688
16.63557	36710
16.64370	43761
16.65182	34418
16.65993	38257
16.66807	43024
16.67618	41276
16.68430	37311
16.69243	35499
16.70055	35640
16.70868	39937
16.71680	39062
16.72492	33752
16.73305	37003
16.74117	35350
16.74930	35557
16.75742	36170
16.76553	35476
16.77367	35139
16.78178	35141
16.78992	33970
16.79803	31983
16.80615	33690
16.81428	31035
16.82240	35303
16.83052	34462
16.83865	33118
16.84677	33339
16.85490	30131
16.86302	34757
16.87113	37038
16.87927	31798
16.88738	31067
16.89552	33211
16.90363	36067
16.91175	29618
16.91988	29287
16.92800	34159
16.93612	31186
16.94425	35559
16.95237	32902
16.96050	34667
16.96862	33326
16.97673	30125
16.98487	31561
16.99298	32476
17.00112	30928
17.00923	33336
17.01735	35723
17.02548	36095
17.03360	33880
17.04173	36637
17.04985	39851
17.05797	34597
17.06610	38798
17.07422	35852
17.08233	34159
17.09047	33119
17.09858	35853
17.10672	34220
17.11483	35986
17.12295	33999
17.13108	34450
17.13920	36303
17.14733	37948
17.15545	37354
17.16357	37018
17.17170	35179
17.17982	34809
17.18793	33512
17.19607	31651
17.20418	30211
17.21232	31387
17.22043	34858
17.22855	33442
17.23668	32872
17.24480	31853
17.25293	32999
17.26105	30587
17.26917	34736
17.27730	31191
17.28542	29792
17.29355	30390
17.30167	28350
17.30978	32387
17.31792	38741
17.32603	40592
17.33415	40965
17.34228	42151
17.35040	45436
17.35853	40684
17.36665	41018
17.37477	39572
17.38290	39995
17.39102	44008
17.39915	40542
17.40727	43543
17.41538	40460
17.42352	43950
17.43163	42114
17.43977	40671
17.44788	43113
17.45600	40050
17.46413	38130
17.47225	35494
17.48037	36294
17.48850	33865
17.49662	36483
17.50475	36452
17.51287	42543
17.52098	44401
17.52912	48888
17.53723	54063
17.54537	57402
17.55348	65194
17.56160	79851
17.56973	100314
17.57785	133664
17.58597	175491
17.59410	210064
17.60222	228551
17.61035	230792
17.61847	195720
17.62658	161261
17.63472	130276
17.64283	106846
17.65097	89632
17.65908	78376
17.66720	73920
17.67533	72350
17.68345	68544
17.69158	63470
17.69970	66064
17.70782	57511
17.71595	54351
17.72407	52981
17.73218	56672
17.74032	54553
17.74843	49527
17.75657	46577
17.76468	47720
17.77280	46534
17.78093	46427
17.78905	50225
17.79718	56448
17.80530	61092
17.81342	76446
17.82155	84511
17.82967	92578
17.83780	96974
17.84592	89382
17.85403	81055
17.86217	76578
17.87028	76318
17.87840	65436
17.88653	61070
17.89465	50621
17.90278	49110
17.91090	45971
17.91902	46559
17.92715	45452
17.93527	44063
17.94340	39688
17.95152	43503
17.95963	43924
17.96777	45582
17.97588	40026
17.98400	39937
17.99213	40550
18.00025	43800
18.00838	47857
18.01650	55089
18.02462	65785
18.03275	66124
18.04087	76220
18.04900	93970
18.05712	140504
18.06523	290479
18.07337	576857
18.08148	959094
18.08962	1321974
18.09773	1423420
18.10585	1301919
18.11398	1039968
18.12210	787162
18.13022	625806
18.13835	528739
18.14647	475916
18.15460	448326
18.16272	436346
18.17083	407956
18.17897	398585
18.18708	379409
18.19522	366307
18.20333	360580
18.21145	342911
18.21958	332878
18.22770	326155
18.23582	318690
18.24395	308462
18.25207	295448
18.26020	291433
18.26832	275056
18.27643	261220
18.28457	254403
18.29268	240282
18.30082	237846
18.30893	232477
18.31705	223042
18.32518	223314
18.33330	208653
18.34143	207922
18.34955	198051
18.35767	207648
18.36580	195554
18.37392	194018
18.38203	195824
18.39017	190926
18.39828	183249
18.40642	176774
18.41453	180223
18.42265	184067
18.43078	184579
18.43890	189108
18.44703	200070
18.45515	208502
18.46327	220248
18.47140	229115
18.47952	222176
18.48765	226354
18.49577	198201
18.50388	203273
18.51202	172993
18.52013	163642
18.52825	151258
18.53638	148470
18.54450	145029
18.55263	140503
18.56075	135060
18.56887	130772
18.57700	130843
18.58512	137683
18.59325	135816
18.60137	130145
18.60948	137229
18.61762	135848
18.62573	129283
18.63385	128380
18.64198	126044
18.65010	121560
18.65823	115538
18.66635	112070
18.67447	110401
18.68260	104622
18.69072	107250
18.69885	105423
18.70697	103320
18.71508	99067
18.72322	93965
18.73133	92910
18.73947	95924
18.74758	90776
18.75570	87333
18.76383	88644
18.77195	86951
18.78007	82696
18.78820	82842
18.79632	85449
18.80445	84151
18.81257	82400
18.82068	78148
18.82882	74886
18.83693	82003
18.84507	76150
18.85318	76972
18.86130	75783
18.86943	75551
18.87755	80304
18.88568	75873
18.89380	76799
18.90192	75920
18.91005	78292
18.91817	75000
18.92628	74901
18.93442	71820
18.94253	76593
18.95067	74755
18.95878	73097
18.96690	71399
18.97503	68789
18.98315	67182
18.99128	70666
18.99940	69307
19.00752	66135
19.01565	68959
19.02377	73557
19.03188	65650
19.04002	65118
19.04813	64107
19.05627	60272
19.06438	62471
19.07250	68495
19.08063	68672
19.08875	76721
19.09688	85473
19.10500	82829
19.11312	81815
19.12125	79978
19.12937	78890
19.13750	79651
19.14562	79279
19.15373	84315
19.16187	78023
19.16998	74933
19.17810	70768
19.18623	72388
19.19435	65143
19.20248	62854
19.21060	61516
19.21872	58194
19.22685	59367
19.23497	56795
19.24310	53795
19.25122	54289
19.25933	54290
19.26747	55568
19.27558	58224
19.28372	57434
19.29183	59613
19.29995	58493
19.30808	57401
19.31620	57543
19.32432	52965
19.33245	53597
19.34057	58951
19.34870	62914
19.35682	73425
19.36493	76535
19.37307	79819
19.38118	77320
19.38932	75091
19.39743	66107
19.40555	63180
19.41368	59075
19.42180	61660
19.42992	72046
19.43805	90074
19.44617	117581
19.45430	143693
19.46242	158261
19.47053	141285
19.47867	126350
19.48678	102374
19.49492	77722
19.50303	69498
19.51115	61701
19.51928	58840
19.52740	61877
19.53553	57767
19.54365	56876
19.55177	58390
19.55990	58753
19.56802	53411
19.57613	49143
19.58427	48788
19.59238	49083
19.60052	46653
19.60863	44644
19.61675	50815
19.62488	52331
19.63300	59516
19.64113	76180
19.64925	82306
19.65737	97446
19.66550	105150
19.67362	104871
19.68173	98750
19.68987	93831
19.69798	87693
19.70612	78994
19.71423	73039
19.72235	63917
19.73048	61026
19.73860	59460
19.74673	58370
19.75485	57515
19.76297	65286
19.77110	62439
19.77922	68192
19.78735	69889
19.79547	72552
19.80358	74176
19.81172	70448
19.81983	63826
19.82795	61324
19.83608	56352
19.84420	63498
19.85233	85817
19.86045	151694
19.86857	279416
19.87670	507369
19.88482	804531
19.89295	1070471
19.90107	1208135
19.90918	1102628
19.91732	886957
19.92543	626288
19.93357	437319
19.94168	293049
19.94980	233738
19.95793	193777
19.96605	169703
19.97417	156739
19.98230	142114
19.99042	136798
19.99855	136687
20.00667	127780
20.01478	123194
20.02292	112739
20.03103	105155
20.03917	97653
20.04728	96386
20.05540	91334
20.06353	89616
20.07165	85334
20.07977	86293
20.08790	82793
20.09602	84802
20.10415	71887
20.11227	69441
20.12038	61463
20.12852	62240
20.13663	66859
20.14477	65548
20.15288	67916
20.16100	79043
20.16913	91060
20.17725	92462
20.18538	103638
20.19350	101882
20.20162	99161
20.20975	90379
20.21787	85068
20.22598	79475
20.23412	85439
20.24223	92545
20.25037	100930
20.25848	106661
20.26660	125260
20.27473	113886
20.28285	101650
20.29098	91778
20.29910	83860
20.30722	71450
20.31535	66068
20.32347	60316
20.33160	55166
20.33972	50055
20.34783	55468
20.35597	52226
20.36408	49396
20.37220	52576
20.38033	46698
20.38845	50959
20.39658	49118
20.40470	49648
20.41282	54496
20.42095	50576
20.42907	48670
20.43720	53570
20.44532	52485
20.45343	55593
20.46157	48312
20.46968	49363
20.47780	51315
20.48593	43597
20.49405	43758
20.50218	44293
20.51030	49385
20.51842	41803
20.52655	45452
20.53467	45732
20.54280	45125
20.55092	42461
20.55903	43834
20.56717	46821
20.57528	42354
20.58342	39105
20.59153	40192
20.59965	40207
20.60778	42816
20.61590	40984
20.62402	42045
20.63215	41339
20.64027	46347
20.64840	45698
20.65652	45573
20.66463	44999
20.67277	46389
20.68088	41532
20.68902	40090
20.69713	42480
20.70525	43040
20.71338	40860
20.72150	42949
20.72962	40748
20.73775	43306
20.74587	41454
20.75400	45092
20.76212	43815
20.77023	51965
20.77837	65111
20.78648	81720
20.79462	112619
20.80273	144351
20.81085	179611
20.81898	175161
20.82710	159972
20.83523	134405
20.84335	99219
20.85147	79393
20.85960	69484
20.86772	59735
20.87583	59407
20.88397	52073
20.89208	55731
20.90022	51217
20.90833	52600
20.91645	53907
20.92458	50443
20.93270	46500
20.94083	48964
20.94895	52991
20.95707	45262
20.96520	44620
20.97332	46695
20.98145	40706
20.98957	41830
20.99768	41102
21.00582	45084
21.01393	42355
21.02205	44333
21.03018	45120
21.03830	45279
21.04643	43402
21.05455	46099
21.06267	47059
21.07080	44787
21.07892	47253
21.08705	41933
21.09517	43160
21.10328	38975
21.11142	42944
21.11953	45500
21.12767	52341
21.13578	57028
21.14390	65044
21.15203	70891
21.16015	70476
21.16827	74404
21.17640	72680
21.18452	64313
21.19265	64560
21.20077	63682
21.20888	60376
21.21702	59846
21.22513	56663
21.23327	59337
21.24138	60262
21.24950	55976
21.25763	61690
21.26575	56117
21.27387	59979
21.28200	55842
21.29012	57576
21.29825	56945
21.30637	52472
21.31448	52710
21.32262	55480
21.33073	55004
21.33887	51672
21.34698	51763
21.35510	53802
21.36323	54143
21.37135	52596
21.37948	54334
21.38760	56288
21.39572	59897
21.40385	66455
21.41197	69759
21.42008	63518
21.42822	67786
21.43633	59793
21.44447	59411
21.45258	56982
21.46070	55625
21.46883	57230
21.47695	53982
21.48508	56600
21.49320	51289
21.50132	55456
21.50945	53347
21.51757	52558
21.52568	49535
21.53382	49812
21.54193	48087
21.55007	45304
21.55818	45400
21.56630	50920
21.57443	49880
21.58255	52380
21.59068	61545
21.59880	63325
21.60692	63854
21.61505	62079
21.62317	59186
21.63130	60565
21.63942	57523
21.64753	56403
21.65567	53815
21.66378	57214
21.67190	59828
21.68003	65534
21.68815	56475
21.69628	55234
21.70440	50183
21.71252	49316
21.72065	47551
21.72877	44909
21.73690	47375
21.74502	45757
21.75313	46480
21.76127	47397
21.76938	46448
21.77752	48663
21.78563	47503
21.79375	47032
21.80188	47556
21.81000	51327
21.81812	48065
21.82625	45459
21.83437	48016
21.84250	42157
21.85062	47352
21.85873	44049
21.86687	46887
21.87498	61165
21.88312	74593
21.89123	96910
21.89935	102615
21.90748	112952
21.91560	119685
21.92372	126899
21.93185	124823
21.93997	131854
21.94810	130388
21.95622	133174
21.96433	129684
21.97247	130804
21.98058	134144
21.98872	125019
21.99683	126835
22.00495	123193
22.01308	124102
22.02120	126276
22.02933	121772
22.03745	113701
22.04557	120924
22.05370	111613
22.06182	111597
22.06993	107555
22.07807	102481
22.08618	101912
22.09432	106132
22.10243	98209
22.11055	96348
22.11868	106043
22.12680	94540
22.13493	87109
22.14305	90462
22.15117	85286
22.15930	88734
22.16742	81886
22.17555	85014
22.18367	86692
22.19178	80010
22.19992	77015
22.20803	79683
22.21615	73143
22.22428	72510
22.23240	70196
22.24053	72618
22.24865	63949
22.25677	72600
22.26490	67875
22.27302	70152
22.28115	69341
22.28927	66893
22.29738	68832
22.30552	66169
22.31363	65753
22.32175	65419
22.32988	61111
22.33800	62186
22.34613	64812
22.35425	60496
22.36237	61222
22.37050	59436
22.37862	63015
22.38675	65056
22.39487	76445
22.40298	87516
22.41112	94398
22.41923	93136
22.42737	93289
22.43548	85488
22.44360	78402
22.45173	68718
22.45985	64240
22.46797	69168
22.47610	70955
22.48422	73001
22.49235	79547
22.50047	82800
22.50858	74206
22.51672	67516
22.52483	68573
22.53297	64440
22.54108	57995
22.54920	53152
22.55733	53365
22.56545	52290
22.57357	54595
22.58170	47571
22.58982	46247
22.59795	47219
22.60607	48457
22.61418	49063
22.62232	47048
22.63043	44263
22.63857	45468
22.64668	46683
22.65480	44552
22.66293	46709
22.67105	46407
22.67918	44735
22.68730	48716
22.69542	48922
22.70355	53535
22.71167	47556
22.71978	49318
22.72792	49275
22.73603	52834
22.74417	46720
22.75228	48147
22.76040	47598
22.76853	47254
22.77665	45848
22.78478	53512
22.79290	53609
22.80102	62805
22.80915	58576
22.81727	60403
22.82540	54528
22.83352	54367
22.84163	51287
22.84977	49657
22.85788	57435
22.86600	55230
22.87413	60590
22.88225	65077
22.89038	75023
22.89850	80154
22.90662	98498
22.91475	116503
22.92287	130378
22.93100	134330
22.93912	124990
22.94723	104464
22.95537	87324
22.96348	76668
22.97160	66796
22.97973	60517
22.98785	53411
22.99598	53577
23.00410	49148
23.01222	51968
23.02035	48425
23.02847	43786
23.03660	41283
23.04472	44945
23.05283	43018
23.06097	47010
23.06908	44572
23.07722	41359
23.08533	43729
23.09345	42667
23.10158	44950
23.10970	44361
23.11782	43008
23.12595	40590
23.13407	39393
23.14220	38014
23.15032	40603
23.15843	41958
23.16657	39452
23.17468	38095
23.18282	38925
23.19093	38329
23.19905	35437
23.20718	37447
23.21530	36761
23.22343	42724
23.23155	42553
23.23967	40936
23.24780	41830
23.25592	43472
23.26403	42993
23.27217	46867
23.28028	44929
23.28842	49659
23.29653	40917
23.30465	37732
23.31278	40145
23.32090	46587
23.32903	51187
23.33715	60125
23.34527	77908
23.35340	86589
23.36152	110610
23.36963	122632
23.37777	149645
23.38588	161715
23.39402	168716
23.40213	171227
23.41025	172218
23.41838	166183
23.42650	163488
23.43463	164289
23.44275	157472
23.45087	143174
23.45900	136835
23.46712	133740
23.47525	123677
23.48337	111180
23.49148	109463
23.49962	101463
23.50773	100710
23.51585	96030
23.52398	89108
23.53210	89716
23.54023	85014
23.54835	86142
23.55647	83990
23.56460	87958
23.57272	93892
23.58085	99911
23.58897	114379
23.59708	122540
23.60522	120664
23.61333	111374
23.62145	105416
23.62958	107915
23.63770	120205
23.64583	141125
23.65395	151179
23.66207	174206
23.67020	177205
23.67832	178457
23.68645	182219
23.69457	177552
23.70268	182346
23.71082	173319
23.71893	180154
23.72707	190927
23.73518	218095
23.74330	292765
23.75143	476183
23.75955	847700
23.76767	1331284
23.77580	1855125
23.78392	2156329
23.79205	2197243
23.80017	1955743
23.80828	1610838
23.81642	1240859
23.82453	959838
23.83267	740543
23.84078	602763
23.84890	505402
23.85703	426966
23.86515	380153
23.87328	350781
23.88140	324398
23.88952	293889
23.89765	270253
23.90577	263787
23.91388	251211
23.92202	229891
23.93013	215865
23.93827	212404
23.94638	194526
23.95450	191345
23.96263	180743
23.97075	173262
23.97888	158749
23.98700	156791
23.99512	159207
24.00325	146887
24.01137	148379
24.01948	145512
24.02762	147887
24.03573	142419
24.04387	136975
24.05198	131076
24.06010	124567
24.06823	117234
24.07635	122510
24.08448	115630
24.09260	111999
24.10072	115008
24.10885	105848
24.11697	104074
24.12510	110684
24.13322	105609
24.14133	111083
24.14947	110536
24.15758	109819
24.16570	111351
24.17383	110925
24.18195	112870
24.19008	107460
24.19820	114295
24.20632	102769
24.21445	99655
24.22257	96142
24.23070	90460
24.23882	85405
24.24693	81234
24.25507	76638
24.26318	85799
24.27132	82705
24.27943	80728
24.28755	77759
24.29568	81341
24.30380	79638
24.31192	85227
24.32005	90426
24.32817	105464
24.33630	124078
24.34442	127215
24.35253	128502
24.36067	115299
24.36878	95949
24.37692	80418
24.38503	72234
24.39315	67982
24.40128	63749
24.40940	64891
24.41752	63174
24.42565	64289
24.43377	65076
24.44190	66744
24.45002	72163
24.45813	73612
24.46627	79012
24.47438	81460
24.48252	81157
24.49063	71393
24.49875	71961
24.50688	74153
24.51500	70602
24.52313	73262
24.53125	82005
24.53937	84483
24.54750	90033
24.55562	90873
24.56373	94861
24.57187	83070
24.57998	80134
24.58812	70583
24.59623	66190
24.60435	63076
24.61248	58154
24.62060	56864
24.62873	55192
24.63685	54242
24.64497	55974
24.65310	59286
24.66122	53788
24.66935	56738
24.67747	53041
24.68558	51431
24.69372	48999
24.70183	49815
24.70995	48895
24.71808	47587
24.72620	48768
24.73433	51419
24.74245	51334
24.75057	52496
24.75870	52224
24.76682	52885
24.77495	54096
24.78307	57435
24.79118	56925
24.79932	52472
24.80743	54874
24.81555	61734
24.82368	62141
24.83180	68695
24.83993	88271
24.84805	117730
24.85617	153796
24.86430	201393
24.87242	253318
24.88055	298849
24.88867	328046
24.89678	326261
24.90492	308721
24.91303	261532
24.92117	236550
24.92928	220893
24.93740	201810
24.94553	188340
24.95365	184567
24.96177	186679
24.96990	178704
24.97802	181354
24.98615	179079
24.99427	172567
25.00238	178187
25.01052	165540
25.01863	161314
25.02677	159010
25.03488	156078
25.04300	156795
25.05113	149165
25.05925	142993
25.06737	147793
25.07550	149937
25.08362	146635
25.09175	163455
25.09987	212597
25.10798	309436
25.11612	519756
25.12423	821953
25.13237	1128225
25.14048	1345980
25.14860	1319895
25.15673	1128738
25.16485	811120
25.17298	543076
25.18110	363074
25.18922	252479
25.19735	185561
25.20547	171424
25.21358	146390
25.22172	138823
25.22983	145490
25.23797	146810
25.24608	164557
25.25420	180746
25.26233	195321
25.27045	190947
25.27858	185634
25.28670	170446
25.29482	146791
25.30295	125156
25.31107	109538
25.31920	107623
25.32732	99403
25.33543	93020
25.34357	87313
25.35168	91897
25.35980	79736
25.36793	74272
25.37605	77342
25.38418	75301
25.39230	74819
25.40042	67666
25.40855	72245
25.41667	67410
25.42480	69529
25.43292	73371
25.44103	70823
25.44917	68368
25.45728	61275
25.46540	62830
25.47353	58960
25.48165	62766
25.48978	59628
25.49790	63395
25.50602	63395
25.51415	57908
25.52227	60116
25.53040	60816
25.53852	59891
25.54663	58026
25.55477	56050
25.56288	54349
25.57102	55663
25.57913	55924
25.58725	52069
25.59538	63189
25.60350	54289
25.61162	49806
25.61975	52970
25.62787	53691
25.63600	58248
25.64412	52613
25.65223	52415
25.66037	51960
25.66848	52084
25.67662	52553
25.68473	53226
25.69285	55350
25.70098	55271
25.70910	49902
25.71723	49941
25.72535	48985
25.73347	47946
25.74160	51825
25.74972	47678
25.75783	50225
25.76597	48966
25.77408	49411
25.78222	51801
25.79033	49104
25.79845	53936
25.80658	47197
25.81470	47904
25.82283	50802
25.83095	47732
25.83907	47311
25.84720	48043
25.85532	52702
25.86343	48409
25.87157	47106
25.87968	45440
25.88782	44043
25.89593	44503
25.90405	42336
25.91218	44259
25.92030	45313
25.92843	45075
25.93655	46147
25.94467	45292
25.95280	45760
25.96092	44448
25.96905	47515
25.97717	42184
25.98528	39037
25.99342	46702
26.00153	46618
26.00965	43416
26.01778	42921
26.02590	37329
26.03403	43218
26.04215	43885
26.05027	51577
26.05840	39878
26.06652	44881
26.07465	44308
26.08277	44068
26.09088	45074
26.09902	42153
26.10713	44284
26.11525	47993
26.12338	44522
26.13150	51595
26.13963	47609
26.14775	53117
26.15587	46696
26.16400	47270
26.17212	45569
26.18025	49400
26.18837	45314
26.19648	44361
26.20462	41942
26.21273	43768
26.22087	42080
26.22898	39272
26.23710	41623
26.24523	41987
26.25335	41614
26.26147	38699
26.26960	42125
26.27772	36865
26.28585	41500
26.29397	38318
26.30208	37061
26.31022	38703
26.31833	40037
26.32647	38979
26.33458	36268
26.34270	37755
26.35083	41284
26.35895	42641
26.36708	44300
26.37520	51562
26.38332	51432
26.39145	51591
26.39957	49389
26.40768	50625
26.41582	48224
26.42393	43185
26.43207	43028
26.44018	43671
26.44830	40205
26.45643	39419
26.46455	37251
26.47268	41822
26.48080	48436
26.48892	42694
26.49705	39247
26.50517	35658
26.51330	40543
26.52142	39788
26.52953	36156
26.53767	35483
26.54578	38675
26.55390	37266
26.56203	37029
26.57015	37671
26.57828	40191
26.58640	37296
26.59452	36146
26.60265	36773
26.61077	35423
26.61890	38021
26.62702	35649
26.63513	36146
26.64327	38734
26.65138	35259
26.65950	36444
26.66763	37226
26.67575	39900
26.68388	39902
26.69200	37777
26.70012	38968
26.70825	39447
26.71637	38278
26.72450	37807
26.73262	40630
26.74073	36653
26.74887	39568
26.75698	37099
26.76512	40471
26.77323	37255
26.78135	41419
26.78948	42650
26.79760	43600
26.80572	40527
26.81385	38618
26.82197	40206
26.83010	42098
26.83822	38435
26.84633	36866
26.85447	39593
26.86258	36648
26.87072	35383
26.87883	38550
26.88695	32220
26.89508	35868
26.90320	35996
26.91132	35486
26.91945	32701
26.92757	32684
26.93570	43196
26.94382	46538
26.95193	57607
26.96007	88886
26.96818	130845
26.97632	186469
26.98443	261693
26.99255	313654
27.00068	361129
27.00880	373354
27.01693	345019
27.02505	300343
27.03317	260957
27.04130	195391
27.04942	160149
27.05753	134293
27.06567	123549
27.07378	108164
27.08192	90450
27.09003	88548
27.09815	82780
27.10628	76631
27.11440	72954
27.12253	70288
27.13065	74108
27.13877	70240
27.14690	71819
27.15502	70814
27.16315	69089
27.17127	69825
27.17938	69498
27.18752	64657
27.19563	66701
27.20375	67143
27.21188	53407
27.22000	54762
27.22813	55685
27.23625	54804
27.24437	49331
27.25250	50637
27.26062	48527
27.26875	50364
27.27687	51059
27.28498	50387
27.29312	45060
27.30123	45019
27.30935	47046
27.31748	46213
27.32560	49332
27.33373	46124
27.34185	45545
27.34997	43924
27.35810	45524
27.36622	44783
27.37435	45214
27.38247	48146
27.39058	43713
27.39872	42093
27.40683	43164
27.41497	43640
27.42308	41671
27.43120	44373
27.43933	40717
27.44745	42595
27.45557	42130
27.46370	41400
27.47182	41610
27.47995	41908
27.48807	39598
27.49618	43097
27.50432	42748
27.51243	41853
27.52057	45526
27.52868	40071
27.53680	42453
27.54493	42852
27.55305	44273
27.56118	41729
27.56930	42555
27.57742	46566
27.58555	50577
27.59367	49771
27.60178	48973
27.60992	49105
27.61803	46066
27.62617	47984
27.63428	40881
27.64240	41532
27.65053	40723
27.65865	39992
27.66678	43696
27.67490	44134
27.68302	47213
27.69115	48533
27.69927	45059
27.70738	42147
27.71552	41176
27.72363	42621
27.73177	47002
27.73988	47657
27.74800	50670
27.75613	52853
27.76425	48886
27.77238	47127
27.78050	42538
27.78862	46071
27.79675	42691
27.80487	40322
27.81300	37782
27.82112	38931
27.82923	39452
27.83737	38220
27.84548	38719
27.85360	40187
27.86173	37908
27.86985	38155
27.87798	37689
27.88610	37443
27.89422	41614
27.90235	37046
27.91047	39154
27.91860	35410
27.92672	35932
27.93483	36944
27.94297	38575
27.95108	36760
27.95920	36476
27.96733	37006
27.97545	39460
27.98358	41518
27.99170	43337
27.99982	46396
28.00795	48765
28.01607	51781
28.02420	59483
28.03232	64388
28.04043	65893
28.04857	65389
28.05668	62110
28.06482	60161
28.07293	58210
28.08105	54580
28.08918	56426
28.09730	61685
28.10542	65085
28.11355	62937
28.12167	63698
28.12980	63152
28.13792	51707
28.14603	46751
28.15417	46104
28.16228	43679
28.17042	41170
28.17853	40140
28.18665	39196
28.19478	46866
28.20290	50104
28.21103	51042
28.21915	50967
28.22727	48341
28.23540	50289
28.24352	49672
28.25163	53482
28.25977	56234
28.26788	64349
28.27602	80739
28.28413	105986
28.29225	129116
28.30038	153715
28.30850	162853
28.31663	174885
28.32475	184607
28.33287	186235
28.34100	166968
28.34912	161040
28.35723	151046
28.36537	141226
28.37348	128240
28.38162	110896
28.38973	100825
28.39785	100687
28.40598	87956
28.41410	80314
28.42223	80778
28.43035	75334
28.43847	66967
28.44660	65795
28.45472	65046
28.46285	58620
28.47097	57890
28.47908	60186
28.48722	56656
28.49533	59951
28.50345	56092
28.51158	53103
28.51970	52141
28.52783	50219
28.53595	48631
28.54407	45974
28.55220	48615
28.56032	48609
28.56845	46442
28.57657	48728
28.58468	48288
28.59282	45201
28.60093	46100
28.60907	49059
28.61718	44125
28.62530	43750
28.63343	45077
28.64155	50252
28.64967	46956
28.65780	46837
28.66592	51055
28.67405	47219
28.68217	54420
28.69028	52766
28.69842	58616
28.70653	63983
28.71467	70141
28.72278	65340
28.73090	60605
28.73903	52855
28.74715	47267
28.75527	41166
28.76340	44589
28.77152	40809
28.77965	41216
28.78777	43464
28.79588	42216
28.80402	43362
28.81213	41739
28.82027	44687
28.82838	43592
28.83650	44061
28.84463	41883
28.85275	39783
28.86088	41536
28.86900	42558
28.87712	41372
28.88525	48975
28.89337	48490
28.90148	48429
28.90962	43804
28.91773	47203
28.92587	43550
28.93398	42069
28.94210	45379
28.95023	41617
28.95835	39545
28.96648	42043
28.97460	38950
28.98272	39402
28.99085	36424
28.99897	38030
29.00708	37704
29.01522	35167
29.02333	33481
29.03147	41150
29.03958	41290
29.04770	41080
29.05583	37450
29.06395	38526
29.07208	43835
29.08020	35910
29.08832	40357
29.09645	37206
29.10457	39137
29.11270	37410
29.12082	39485
29.12893	39037
29.13707	37642
29.14518	36082
29.15330	37416
29.16143	36681
29.16955	36964
29.17768	41404
29.18580	42514
29.19392	51055
29.20205	53984
29.21017	57827
29.21830	56277
29.22642	54701
29.23453	57123
29.24267	53008
29.25078	53359
29.25892	49699
29.26703	52035
29.27515	47818
29.28328	42920
29.29140	38532
29.29952	40667
29.30765	39303
29.31577	38857
29.32390	40038
29.33202	40746
29.34013	38353
29.34827	38648
29.35638	38753
29.36452	33596
29.37263	34559
29.38075	35684
29.38888	38476
29.39700	35268
29.40512	38470
29.41325	38620
29.42137	37254
29.42950	40566
29.43762	37620
29.44573	38238
29.45387	32581
29.46198	34614
29.47012	33943
29.47823	37925
29.48635	34855
29.49448	36104
29.50260	37343
29.51073	38888
29.51885	38331
29.52697	35109
29.53510	36119
29.54322	34550
29.55133	36451
29.55947	37986
29.56758	36719
29.57572	43034
29.58383	40919
29.59195	47697
29.60008	44105
29.60820	45580
29.61633	43295
29.62445	39530
29.63257	39651
29.64070	37687
29.64882	38502
29.65695	37771
29.66507	36227
29.67318	37186
29.68132	37044
29.68943	35348
29.69755	37814
29.70568	37173
29.71380	33899
29.72193	34131
29.73005	32482
29.73817	34227
29.74630	37908
29.75442	33925
29.76255	33530
29.77067	37015
29.77878	35530
29.78692	34836
29.79503	32452
29.80315	30252
29.81128	37635
29.81940	31777
29.82753	39790
29.83565	30337
29.84377	32767
29.85190	33047
29.86002	32326
29.86815	39919
29.87627	46521
29.88438	52812
29.89252	62768
29.90063	73472
29.90877	81925
29.91688	84471
29.92500	92239
29.93313	101602
29.94125	101826
29.94937	114566
29.95750	111732
29.96562	114981
29.97375	111034
29.98187	112026
29.98998	107275
29.99812	105093
30.00623	101176
30.01437	97551
30.02248	92015
30.03060	96921
30.03873	85801
30.04685	76569
30.05498	77540
30.06310	76532
30.07122	68090
30.07935	70187
30.08747	64589
30.09558	68985
30.10372	60466
30.11183	60570
30.11997	58571
30.12808	53910
30.13620	54139
30.14433	56609
30.15245	58670
30.16058	54539
30.16870	57004
30.17682	54429
30.18495	55560
30.19307	52761
30.20118	52922
30.20932	57117
30.21743	48363
30.22557	49972
30.23368	46938
30.24180	45762
30.24993	46026
30.25805	42857
30.26618	40812
30.27430	45789
30.28242	46412
30.29055	44154
30.29867	43645
30.30680	39954
30.31492	44130
30.32303	42001
30.33117	42991
30.33928	41748
30.34740	44419
30.35553	45827
30.36365	43584
30.37178	43602
30.37990	43545
30.38802	39066
30.39615	41658
30.40427	46094
30.41240	40589
30.42052	39454
30.42863	42314
30.43677	38766
30.44488	40461
30.45300	37451
30.46113	43640
30.46925	38132
30.47738	43316
30.48550	41228
30.49362	39790
30.50175	37386
30.50987	39734
30.51800	39471
30.52612	38835
30.53423	39146
30.54237	38548
30.55048	41180
30.55862	33341
30.56673	39932
30.57485	38148
30.58298	39071
30.59110	35590
30.59922	36680
30.60735	38421
30.61547	38413
30.62360	40196
30.63172	39217
30.63983	37092
30.64797	36339
30.65608	36244
30.66422	37428
30.67233	37562
30.68045	36809
30.68858	41295
30.69670	35274
30.70483	38446
30.71295	37155
30.72107	38401
30.72920	34508
30.73732	36312
30.74543	41629
30.75357	38064
30.76168	41921
30.76982	42485
30.77793	48105
30.78605	50299
30.79418	58117
30.80230	59554
30.81043	62620
30.81855	53383
30.82667	52184
30.83480	47733
30.84292	42319
30.85103	38531
30.85917	39743
30.86728	36673
30.87542	38266
30.88353	38429
30.89165	41067
30.89978	37968
30.90790	37813
30.91603	37745
30.92415	34963
30.93227	35251
30.94040	38566
30.94852	33850
30.95665	35634
30.96477	34913
30.97288	35874
30.98102	36286
30.98913	34882
30.99725	38854
31.00538	37736
31.01350	37403
31.02163	34580
31.02975	36268
31.03787	37910
31.04600	34920
31.05412	35840
31.06225	39943
31.07037	35024
31.07848	38375
31.08662	46554
31.09473	46478
31.10287	50063
31.11098	41363
31.11910	44781
31.12723	40519
31.13535	42058
31.14347	40212
31.15160	39732
31.15972	42196
31.16785	47807
31.17597	57692
31.18408	69788
31.19222	88856
31.20033	99754
31.20847	116151
31.21658	117508
31.22470	104211
31.23283	84938
31.24095	70516
31.24907	56612
31.25720	49458
31.26532	46562
31.27345	39515
31.28157	40544
31.28968	40753
31.29782	39053
31.30593	40845
31.31407	36953
31.32218	36115
31.33030	38333
31.33843	38146
31.34655	37591
31.35468	36843
31.36280	38667
31.37092	37036
31.37905	38970
31.38717	36449
31.39528	35337
31.40342	37465
31.41153	37414
31.41967	35923
31.42778	34102
31.43590	35501
31.44403	37125
31.45215	36965
31.46028	39189
31.46840	34103
31.47652	35886
31.48465	40879
31.49277	39264
31.50088	37991
31.50902	40847
31.51713	39614
31.52527	37946
31.53338	37638
31.54150	37085
31.54963	38307
31.55775	36567
31.56588	39873
31.57400	38863
31.58212	38876
31.59025	34549
31.59837	32963
31.60650	34822
31.61462	36214
31.62273	35123
31.63087	38282
31.63898	36770
31.64710	37744
31.65523	41433
31.66335	44045
31.67148	44250
31.67960	46608
31.68772	49623
31.69585	44245
31.70397	43263
31.71210	44855
31.72022	41445
31.72833	38126
31.73647	35825
31.74458	38394
31.75272	35572
31.76083	37373
31.76895	35092
31.77708	37431
31.78520	35984
31.79332	37597
31.80145	43254
31.80957	37111
31.81770	47305
31.82582	40284
31.83393	43824
31.84207	45084
31.85018	52764
31.85832	57807
31.86643	69047
31.87455	72723
31.88268	72443
31.89080	79340
31.89892	74521
31.90705	78160
31.91517	78253
31.92330	68887
31.93142	68295
31.93953	64502
31.94767	64990
31.95578	64181
31.96392	63020
31.97203	56677
31.98015	58934
31.98828	55446
31.99640	54461
32.00453	53246
32.01265	50420
32.02077	49288
32.02890	50260
32.03702	50485
32.04513	45646
32.05327	45484
32.06138	47277
32.06952	40034
32.07763	43356
32.08575	40797
32.09388	42862
32.10200	46704
32.11013	43177
32.11825	40865
32.12637	40915
32.13450	39325
32.14262	38501
32.15075	39885
32.15887	41151
32.16698	37490
32.17512	41985
32.18323	40330
32.19135	38372
32.19948	36633
32.20760	37643
32.21573	39638
32.22385	40602
32.23197	37089
32.24010	39738
32.24822	40838
32.25635	36767
32.26447	41500
32.27258	43074
32.28072	39762
32.28883	42384
32.29695	41321
32.30508	39420
32.31320	39764
32.32133	39379
32.32945	38304
32.33757	43001
32.34570	40668
32.35382	40964
32.36195	36998
32.37007	35664
32.37818	35914
32.38632	39003
32.39443	36090
32.40257	35378
32.41068	38295
32.41880	39167
32.42693	37415
32.43505	36722
32.44317	36324
32.45130	39700
32.45942	38121
32.46755	38269
32.47567	34998
32.48378	37916
32.49192	37925
32.50003	38517
32.50817	33888
32.51628	36807
32.52440	38231
32.53253	38719
32.54065	36683
32.54877	37116
32.55690	37317
32.56502	39158
32.57315	44357
32.58127	48180
32.58938	54985
32.59752	58896
32.60563	57033
32.61377	54526
32.62188	51694
32.63000	45625
32.63813	40850
32.64625	35331
32.65438	37948
32.66250	41034
32.67062	38383
32.67875	40421
32.68687	36166
32.69498	39497
32.70312	41321
32.71123	38877
32.71937	38597
32.72748	37873
32.73560	39182
32.74373	35876
32.75185	37549
32.75998	39089
32.76810	38960
32.77622	38042
32.78435	38925
32.79247	35947
32.80060	34432
32.80872	36369
32.81683	38286
32.82497	36142
32.83308	35842
32.84120	36785
32.84933	34938
32.85745	37893
32.86558	35451
32.87370	43888
32.88182	40882
32.88995	40728
32.89807	46506
32.90620	39571
32.91432	41686
32.92243	42986
32.93057	39377
32.93868	38510
32.94682	36616
32.95493	40276
32.96305	37381
32.97118	41160
32.97930	45989
32.98742	51822
32.99555	52029
33.00367	49826
33.01180	49849
33.01992	48959
33.02803	44704
33.03617	46071
33.04428	41779
33.05242	41409
33.06053	41383
33.06865	43880
33.07678	45231
33.08490	44928
33.09302	44278
33.10115	44360
33.10927	48260
33.11740	50829
33.12552	50196
33.13363	50622
33.14177	45596
33.14988	43721
33.15802	42988
33.16613	38131
33.17425	38511
33.18238	37466
33.19050	36383
33.19863	41707
33.20675	38465
33.21487	36935
33.22300	37860
33.23112	38472
33.23923	37663
33.24737	39405
33.25548	36618
33.26362	33797
33.27173	40824
33.27985	37571
33.28798	37201
33.29610	38123
33.30423	40982
33.31235	39427
33.32047	39432
33.32860	40556
33.33672	38107
33.34483	39186
33.35297	39917
33.36108	38429
33.36922	41078
33.37733	42909
33.38545	36217
33.39358	39197
33.40170	36523
33.40983	37401
33.41795	38725
33.42607	38566
33.43420	36586
33.44232	38291
33.45045	35563
33.45857	34440
33.46668	39065
33.47482	36808
33.48293	37049
33.49105	37123
33.49918	37031
33.50730	38679
33.51543	38038
33.52355	35825
33.53167	39369
33.53980	37361
33.54792	45155
33.55605	41856
33.56417	43384
33.57228	38619
33.58042	41081
33.58853	37798
33.59667	37799
33.60478	37946
33.61290	39588
33.62103	39379
33.62915	37174
33.63727	43786
33.64540	38510
33.65352	40307
33.66165	40644
33.66977	40189
33.67788	38631
33.68602	37828
33.69413	36934
33.70227	39092
33.71038	42215
33.71850	38924
33.72663	40645
33.73475	41102
33.74287	43990
33.75100	44704
33.75912	40561
33.76725	40206
33.77537	42114
33.78348	44137
33.79162	41786
33.79973	45115
33.80787	40485
33.81598	45696
33.82410	43029
33.83223	42105
33.84035	42550
33.84848	43085
33.85660	42990
33.86472	44289
33.87285	44902
33.88097	44908
33.88908	43480
33.89722	42913
33.90533	42661
33.91347	44607
33.92158	41200
33.92970	41438
33.93783	45231
33.94595	43749
33.95408	42733
33.96220	40785
33.97032	42967
33.97845	43841
33.98657	44582
33.99470	41496
34.00282	46516
34.01093	39761
34.01907	38345
34.02718	40978
34.03530	42083
34.04343	40180
34.05155	39696
34.05968	41513
34.06780	42483
34.07592	40087
34.08405	40276
34.09217	40412
34.10030	39002
34.10842	42817
34.11653	41057
34.12467	45940
34.13278	40544
34.14090	38070
34.14903	40871
34.15715	40037
34.16528	41213
34.17340	43391
34.18152	41111
34.18965	39761
34.19777	39581
34.20590	37140
34.21402	37688
34.22213	39307
34.23027	38172
34.23838	37212
34.24652	38980
34.25463	39769
34.26275	37485
34.27088	39958
34.27900	39977
34.28712	36781
34.29525	37211
34.30337	39754
34.31150	42569
34.31962	38592
34.32773	36839
34.33587	38554
34.34398	41296
34.35212	39601
34.36023	39637
34.36835	41933
34.37648	39739
34.38460	37679
34.39272	38778
34.40085	42148
34.40897	39378
34.41710	39448
34.42522	42224
34.43333	43192
34.44147	45877
34.44958	51821
34.45772	56421
34.46583	63182
34.47395	71064
34.48208	75887
34.49020	77017
34.49833	74924
34.50645	76842
34.51457	72603
34.52270	66777
34.53082	68040
34.53893	62202
34.54707	60750
34.55518	62060
34.56332	54591
34.57143	56590
34.57955	52744
34.58768	53906
34.59580	47841
34.60393	52243
34.61205	53183
34.62017	51397
34.62830	50613
34.63642	53950
34.64455	48674
34.65267	46443
34.66078	47538
34.66892	51259
34.67703	46903
34.68515	47643
34.69328	48461
34.70140	51775
34.70953	46014
34.71765	46158
34.72577	46480
34.73390	46478
34.74202	48524
34.75015	44757
34.75827	45496
34.76638	42729
34.77452	45513
34.78263	47074
34.79075	42982
34.79888	48624
34.80700	44490
34.81513	43632
34.82325	42849
34.83137	41034
34.83950	46536
34.84762	43651
34.85575	46683
34.86387	42644
34.87198	44347
34.88012	47923
34.88823	45252
34.89637	43872
34.90448	40716
34.91260	45270
34.92073	43220
34.92885	45737
34.93697	43981
34.94510	44077
34.95322	45928
34.96135	47737
34.96947	46746
34.97758	49827
34.98572	47063
34.99383	42226
35.00197	48848
35.01008	46069
35.01820	45128
35.02633	42101
35.03445	42200
35.04258	41957
35.05070	42995
35.05882	39574
35.06695	41932
35.07507	47593
35.08318	42702
35.09132	46537
35.09943	42882
35.10757	44426
35.11568	45396
35.12380	44884
35.13193	45041
35.14005	43098
35.14818	44224
35.15630	46430
35.16442	44242
35.17255	45564
35.18067	42098
35.18878	46119
35.19692	44219
35.20503	44061
35.21317	41899
35.22128	40441
35.22940	45423
35.23753	42384
35.24565	43698
35.25378	42623
35.26190	41967
35.27002	47515
35.27815	47139
35.28627	43204
35.29440	44643
35.30252	44331
35.31063	39732
35.31877	43312
35.32688	46653
35.33500	42749
35.34313	42213
35.35125	43259
35.35938	47901
35.36750	46298
35.37562	44880
35.38375	50504
35.39187	49833
35.40000	55692
35.40812	58676
35.41623	58283
35.42437	58855
35.43248	60491
35.44062	57780
35.44873	56825
35.45685	56016
35.46498	54788
35.47310	52758
35.48122	53752
35.48935	54245
35.49747	49858
35.50560	54157
35.51372	54390
35.52183	50598
35.52997	48500
35.53808	47171
35.54622	49862
35.55433	46208
35.56245	50081
35.57058	49752
35.57870	48459
35.58682	50806
35.59495	47777
35.60307	48781
35.61120	50837
35.61932	50644
35.62743	48832
35.63557	51689
35.64368	48291
35.65182	49268
35.65993	48292
35.66805	44491
35.67618	48829
35.68430	49278
35.69243	48697
35.70055	48022
35.70867	48836
35.71680	49237
35.72492	46303
35.73303	47692
35.74117	52260
35.74928	51411
35.75742	53781
35.76553	50407
35.77365	52939
35.78178	47681
35.78990	48657
35.79803	48695
35.80615	48623
35.81427	53974
35.82240	50082
35.83052	52909
35.83863	48457
35.84677	45358
35.85488	47634
35.86302	42974
35.87113	48105
35.87925	45316
35.88738	49584
35.89550	51571
35.90363	48387
35.91175	45786
35.91987	46789
35.92800	46258
35.93612	48459
35.94425	46433
35.95237	47997
35.96048	46432
35.96862	45525
35.97673	47403
35.98485	47059
35.99298	49894
36.00110	47824
36.00923	51002
36.01735	52246
36.02547	51345
36.03360	53380
36.04172	47109
36.04985	55185
36.05797	50651
36.06608	52237
36.07422	51020
36.08233	50077
36.09047	51424
36.09858	48730
36.10670	49567
36.11483	48172
36.12295	50215
36.13107	51551
36.13920	55183
36.14732	50636
36.15545	49255
36.16357	51234
36.17168	50758
36.17982	51250
36.18793	56566
36.19607	46385
36.20418	50384
36.21230	52192
36.22043	58570
36.22855	61169
36.23667	67422
36.24480	72384
36.25292	70932
36.26105	67605
36.26917	63680
36.27728	53373
36.28542	55579
36.29353	50518
36.30167	50597
36.30978	52959
36.31790	50222
36.32603	47715
36.33415	50127
36.34228	52574
36.35040	48617
36.35852	48201
36.36665	51285
36.37477	53240
36.38288	56841
36.39102	57764
36.39913	54824
36.40727	57268
36.41538	53854
36.42350	53566
36.43163	50988
36.43975	54271
36.44788	56861
36.45600	49255
36.46412	48936
36.47225	50938
36.48037	48840
36.48850	53579
36.49662	54544
36.50473	49678
36.51287	50977
36.52098	50805
36.52910	50263
36.53723	51772
36.54535	50960
36.55348	49813
36.56160	52034
36.56972	51689
36.57785	48349
36.58597	51819
36.59410	52265
36.60222	52185
36.61033	53959
36.61847	52784
36.62658	53113
36.63470	53522
36.64283	56438
36.65095	52741
36.65908	52413
36.66720	54011
36.67532	50536
36.68345	50671
36.69157	52311
36.69970	50554
36.70782	53085
36.71593	50116
36.72407	52228
36.73218	52121
36.74032	53092
36.74843	51392
36.75655	53486
36.76468	53641
36.77280	52054
36.78092	51055
36.78905	55224
36.79717	51636
36.80530	52529
36.81342	49929
36.82153	54323
36.82967	48919
36.83778	46940
36.84592	50585
36.85403	50466
36.86215	52544
36.87028	54687
36.87840	52682
36.88652	53361
36.89465	54036
36.90277	54400
36.91090	55479
36.91902	56505
36.92713	53302
36.93527	56681
36.94338	58050
36.95152	64248
36.95963	63987
36.96775	62236
36.97588	65563
36.98400	64725
36.99213	63447
37.00025	69979
37.00837	76505
37.01650	81848
37.02462	86113
37.03273	85886
37.04087	83162
37.04898	74407
37.05712	70648
37.06523	67978
37.07335	64297
37.08148	60991
37.08960	58047
37.09773	56559
37.10585	59838
37.11397	57838
37.12210	57044
37.13022	61708
37.13835	60463
37.14647	59285
37.15458	58779
37.16272	59687
37.17083	61986
37.17895	56468
37.18708	55422
37.19520	57884
37.20333	57928
37.21145	58224
37.21957	56277
37.22770	56348
37.23582	61579
37.24395	65788
37.25207	68543
37.26018	73861
37.26832	82131
37.27643	86700
37.28455	87468
37.29268	89939
37.30080	93673
37.30893	87954
37.31705	82862
37.32517	79199
37.33330	76186
37.34142	74299
37.34955	69711
37.35767	69575
37.36578	68215
37.37392	67225
37.38203	65738
37.39017	66366
37.39828	64173
37.40640	66297
37.41453	67645
37.42265	66062
37.43077	65578
37.43890	62806
37.44702	62957
37.45515	64858
37.46327	65761
37.47138	64147
37.47952	63222
37.48763	62622
