C:\MassHunter\GCMS\1\data\JTB-E18\JTB-E18-026-06.D Tue Sep 17 12:41:24 2019
Start of data points
2.09515	128813
2.10327	121879
2.11140	128098
2.11952	126596
2.12765	119860
2.13577	121009
2.14388	129492
2.15202	122742
2.16013	116650
2.16827	111758
2.17638	114341
2.18450	108015
2.19263	107487
2.20075	112273
2.20888	104231
2.21700	101752
2.22512	99479
2.23325	102189
2.24137	104348
2.24948	102552
2.25762	98205
2.26573	120297
2.27387	530258
2.28198	1753729
2.29010	1551746
2.29823	695228
2.30635	436446
2.31448	362449
2.32260	335394
2.33072	290791
2.33885	285337
2.34697	266587
2.35508	230627
2.36322	220263
2.37133	213819
2.37947	214927
2.38758	301786
2.39570	259747
2.40383	207306
2.41195	207406
2.42008	194258
2.42820	209596
2.43632	192378
2.44445	179556
2.45257	183539
2.46070	164443
2.46882	162064
2.47693	154973
2.48507	158492
2.49318	207607
2.50130	245221
2.50943	194411
2.51755	173393
2.52568	169276
2.53380	160577
2.54192	156134
2.55005	180587
2.55817	213911
2.56630	255409
2.57442	222324
2.58253	182447
2.59067	174498
2.59878	174136
2.60692	252078
2.61503	578929
2.62315	633412
2.63128	406690
2.63940	280969
2.64752	232712
2.65565	200841
2.66377	197142
2.67190	184146
2.68002	211104
2.68813	213334
2.69627	173122
2.70438	164156
2.71252	151899
2.72063	148567
2.72875	146269
2.73688	144192
2.74500	149104
2.75312	141659
2.76125	141046
2.76937	138636
2.77750	164179
2.78562	294591
2.79373	395730
2.80187	299481
2.80998	231056
2.81812	264151
2.82623	505850
2.83435	1063430
2.84248	1073870
2.85060	600662
2.85873	369654
2.86685	336723
2.87497	291527
2.88310	220786
2.89122	196266
2.89933	185316
2.90747	174978
2.91558	159743
2.92372	154515
2.93183	150470
2.93995	142995
2.94808	140868
2.95620	142081
2.96433	142342
2.97245	147492
2.98057	142831
2.98870	147287
2.99682	156381
3.00495	161772
3.01307	168760
3.02118	195117
3.02932	344008
3.03743	627085
3.04555	922518
3.05368	2618525
3.06180	6641591
3.06993	7786082
3.07805	4745261
3.08617	2535855
3.09430	2235586
3.10242	2592612
3.11055	3530882
3.11867	3711617
3.12678	2475278
3.13492	1575774
3.14303	1196509
3.15115	942502
3.15928	782901
3.16740	738744
3.17553	775356
3.18365	882808
3.19177	1481048
3.19990	2143462
3.20802	1764368
3.21615	1204439
3.22427	940025
3.23238	793224
3.24052	694583
3.24863	590905
3.25677	524165
3.26488	463657
3.27300	433639
3.28113	520536
3.28925	1320016
3.29737	4085790
3.30550	8234698
3.31362	9890959
3.32175	7743265
3.32987	4978474
3.33798	3234006
3.34612	2315663
3.35423	1783716
3.36237	1447004
3.37048	1313285
3.37860	1401401
3.38673	1440478
3.39485	1242248
3.40297	1413840
3.41110	2710866
3.41922	4243060
3.42735	3854666
3.43547	2345878
3.44358	1410468
3.45172	1002903
3.45983	814805
3.46797	720068
3.47608	650710
3.48420	580652
3.49233	529282
3.50045	473012
3.50858	444358
3.51670	417511
3.52482	400725
3.53295	389750
3.54107	400693
3.54918	392273
3.55732	373020
3.56543	368752
3.57357	397424
3.58168	417380
3.58980	387017
3.59793	340409
3.60605	326492
3.61418	400706
3.62230	782237
3.63042	1707835
3.63855	2539467
3.64667	2300444
3.65480	1500281
3.66292	1353460
3.67103	3539574
3.67917	7947683
3.68728	9222355
3.69540	6164081
3.70353	3373846
3.71165	2224581
3.71978	1739937
3.72790	1477616
3.73602	1294523
3.74415	1142029
3.75227	1043007
3.76040	964901
3.76852	909586
3.77663	850194
3.78477	776659
3.79288	741036
3.80102	855764
3.80913	1448665
3.81725	2389561
3.82538	2503829
3.83350	1773479
3.84162	1199338
3.84975	958155
3.85787	833017
3.86600	743991
3.87412	678106
3.88223	628913
3.89037	610102
3.89848	567298
3.90662	563378
3.91473	607888
3.92285	759281
3.93098	930331
3.93910	908866
3.94722	846215
3.95535	1258954
3.96347	2193561
3.97160	2624225
3.97972	2013496
3.98783	1316206
3.99597	1636466
4.00408	4292366
4.01222	8840913
4.02033	1.075381E+07
4.02845	7732200
4.03658	3951191
4.04470	2021541
4.05283	1281198
4.06095	981968
4.06907	797038
4.07720	685230
4.08532	607161
4.09343	561692
4.10157	510636
4.10968	465708
4.11782	439044
4.12593	438120
4.13405	559055
4.14218	1095839
4.15030	2038350
4.15843	2406910
4.16655	1929413
4.17467	1328659
4.18280	978634
4.19092	774799
4.19903	636824
4.20717	664490
4.21528	1506248
4.22342	4705592
4.23153	1.024145E+07
4.23965	1.482587E+07
4.24778	1.482016E+07
4.25590	1.033487E+07
4.26403	6116229
4.27215	3909162
4.28027	2759089
4.28840	2048099
4.29652	1609645
4.30465	1322290
4.31277	1111947
4.32088	990756
4.32902	891980
4.33713	821272
4.34525	794891
4.35338	802072
4.36150	798061
4.36963	749103
4.37775	693581
4.38587	608921
4.39400	557722
4.40212	514700
4.41025	474151
4.41837	464640
4.42648	448110
4.43462	437585
4.44273	418372
4.45087	426592
4.45898	427458
4.46710	413734
4.47523	396869
4.48335	389829
4.49147	369312
4.49960	369927
4.50772	344875
4.51585	341860
4.52397	325802
4.53208	321678
4.54022	333738
4.54833	326742
4.55647	326493
4.56458	308689
4.57270	303621
4.58083	289971
4.58895	285409
4.59707	279377
4.60520	280136
4.61332	294678
4.62145	368761
4.62957	580808
4.63768	885281
4.64582	1053105
4.65393	886885
4.66207	631057
4.67018	468897
4.67830	399045
4.68643	373827
4.69455	339729
4.70268	308350
4.71080	285543
4.71892	276730
4.72705	264357
4.73517	256056
4.74328	252698
4.75142	261218
4.75953	242924
4.76767	244845
4.77578	236571
4.78390	235789
4.79203	266851
4.80015	326638
4.80828	368971
4.81640	378189
4.82452	331868
4.83265	304302
4.84077	312445
4.84890	316583
4.85702	309958
4.86513	304949
4.87327	277101
4.88138	261405
4.88950	255537
4.89763	248044
4.90575	237754
4.91388	274661
4.92200	441407
4.93012	943201
4.93825	1914487
4.94637	3039503
4.95450	3644138
4.96262	3316255
4.97073	2551184
4.97887	1809068
4.98698	1310506
4.99510	997340
5.00323	784239
5.01135	671837
5.01948	640228
5.02760	797045
5.03572	1171743
5.04385	1434910
5.05197	1344918
5.06010	1039830
5.06822	827587
5.07633	697204
5.08447	604829
5.09258	558767
5.10072	578889
5.10883	616621
5.11695	642025
5.12508	626527
5.13320	565052
5.14132	521050
5.14945	485182
5.15757	531390
5.16570	600362
5.17382	654703
5.18193	690659
5.19007	693849
5.19818	678577
5.20632	670706
5.21443	618901
5.22255	567152
5.23068	494223
5.23880	477531
5.24692	444173
5.25505	406465
5.26317	369405
5.27130	332041
5.27942	312360
5.28753	312559
5.29567	302234
5.30378	292301
5.31192	277758
5.32003	294403
5.32815	302631
5.33628	326132
5.34440	335249
5.35253	323693
5.36065	304882
5.36877	280906
5.37690	294019
5.38502	311657
5.39313	323850
5.40127	335787
5.40938	312132
5.41752	288389
5.42563	263007
5.43375	251497
5.44188	248415
5.45000	261214
5.45813	265072
5.46625	260386
5.47437	253620
5.48250	229427
5.49062	223939
5.49875	221483
5.50687	227998
5.51498	227668
5.52312	232868
5.53123	228638
5.53935	225651
5.54748	233272
5.55560	273887
5.56373	346514
5.57185	405987
5.57997	404145
5.58810	351193
5.59622	303693
5.60435	250574
5.61247	237369
5.62058	236883
5.62872	251769
5.63683	257899
5.64495	251553
5.65308	245281
5.66120	228948
5.66933	225299
5.67745	241243
5.68557	275301
5.69370	317460
5.70182	328387
5.70995	318658
5.71807	302272
5.72618	304882
5.73432	296596
5.74243	278475
5.75057	279484
5.75868	270160
5.76680	296280
5.77493	297689
5.78305	282208
5.79117	274569
5.79930	297446
5.80742	415030
5.81555	698900
5.82367	1114429
5.83178	1445531
5.83992	1497925
5.84803	1256860
5.85617	893797
5.86428	598827
5.87240	437035
5.88053	349448
5.88865	284807
5.89678	273028
5.90490	297289
5.91302	388901
5.92115	532747
5.92927	679040
5.93738	737216
5.94552	648441
5.95363	518604
5.96177	408825
5.96988	349486
5.97800	355264
5.98613	379742
5.99425	360715
6.00238	330080
6.01050	266202
6.01862	224238
6.02675	201048
6.03487	189307
6.04298	172354
6.05112	159088
6.05923	160689
6.06737	157889
6.07548	148349
6.08360	142966
6.09173	141663
6.09985	149209
6.10798	140082
6.11610	152948
6.12422	208993
6.13235	343682
6.14047	515342
6.14860	619290
6.15672	559012
6.16483	423967
6.17297	311800
6.18108	256128
6.18920	244252
6.19733	245261
6.20545	258287
6.21358	248338
6.22170	215821
6.22982	202709
6.23795	191452
6.24607	200807
6.25420	213313
6.26232	227059
6.27043	216886
6.27857	212449
6.28668	192757
6.29480	194531
6.30293	194629
6.31105	191349
6.31918	208527
6.32730	197085
6.33542	200351
6.34355	202250
6.35167	208775
6.35980	214869
6.36792	214179
6.37603	216442
6.38417	219686
6.39228	210593
6.40042	210403
6.40853	210916
6.41665	203041
6.42478	211656
6.43290	217716
6.44102	212764
6.44915	215017
6.45727	226428
6.46540	215701
6.47352	227667
6.48163	228153
6.48977	227103
6.49788	232229
6.50602	243713
6.51413	237482
6.52225	238586
6.53038	241949
6.53850	253936
6.54663	249588
6.55475	268080
6.56287	293790
6.57100	357312
6.57912	405469
6.58723	418812
6.59537	369930
6.60348	330411
6.61162	293461
6.61973	289694
6.62785	280899
6.63598	274628
6.64410	332264
6.65223	523293
6.66035	973657
6.66847	1419307
6.67660	1510396
6.68472	1252335
6.69283	884432
6.70097	632126
6.70908	497622
6.71722	400023
6.72533	317950
6.73345	261260
6.74158	223659
6.74970	198004
6.75783	176823
6.76595	184513
6.77407	173924
6.78220	166714
6.79032	183348
6.79845	221590
6.80657	329658
6.81468	534431
6.82282	809836
6.83093	1066468
6.83905	1149770
6.84718	984931
6.85530	719445
6.86343	478885
6.87155	320039
6.87967	232270
6.88780	172765
6.89592	149614
6.90405	130352
6.91217	116988
6.92028	106875
6.92842	106810
6.93653	103970
6.94467	118424
6.95278	143117
6.96090	217023
6.96903	339988
6.97715	471292
6.98527	556987
6.99340	558226
7.00152	461614
7.00965	330773
7.01777	234724
7.02588	184292
7.03402	143641
7.04213	124688
7.05027	120567
7.05838	116948
7.06650	121153
7.07463	119927
7.08275	120681
7.09087	118602
7.09900	109876
7.10712	101135
7.11525	97263
7.12337	88650
7.13148	98589
7.13962	114134
7.14773	144900
7.15587	183041
7.16398	209860
7.17210	202075
7.18023	219436
7.18835	335429
7.19648	680828
7.20460	1182979
7.21272	1510024
7.22085	1420641
7.22897	1017333
7.23708	636632
7.24522	371401
7.25333	237289
7.26147	185764
7.26958	177088
7.27770	172869
7.28583	176391
7.29395	170685
7.30208	155963
7.31020	144606
7.31832	138600
7.32645	158923
7.33457	208118
7.34270	270527
7.35082	336683
7.35893	367252
7.36707	343534
7.37518	292897
7.38330	217986
7.39143	170989
7.39955	139361
7.40768	125693
7.41580	116077
7.42392	125844
7.43205	126751
7.44017	142024
7.44830	181785
7.45642	225036
7.46453	248383
7.47267	243379
7.48078	214259
7.48890	173752
7.49703	141439
7.50515	110474
7.51328	107091
7.52140	122525
7.52952	162236
7.53765	240806
7.54577	396218
7.55390	628462
7.56202	842614
7.57013	995816
7.57827	982943
7.58638	811483
7.59452	586474
7.60263	373873
7.61075	247452
7.61888	169351
7.62700	135402
7.63512	110349
7.64325	106422
7.65137	100026
7.65950	92234
7.66762	90073
7.67573	85006
7.68387	88530
7.69198	85632
7.70012	84990
7.70823	82805
7.71635	88537
7.72448	87531
7.73260	89175
7.74072	91190
7.74885	94462
7.75697	93933
7.76510	87546
7.77322	84396
7.78133	87020
7.78947	89921
7.79758	91543
7.80572	93213
7.81383	102642
7.82195	95064
7.83008	92577
7.83820	82433
7.84633	86796
7.85445	81843
7.86257	91988
7.87070	105335
7.87882	111287
7.88693	132224
7.89507	133116
7.90318	120437
7.91132	114241
7.91943	121287
7.92755	123786
7.93568	165772
7.94380	176623
7.95193	182332
7.96005	158134
7.96817	126186
7.97630	105916
7.98442	95406
7.99255	82100
8.00067	82689
8.00878	74548
8.01692	73276
8.02503	73409
8.03315	71045
8.04128	74358
8.04940	73657
8.05753	70700
8.06565	68449
8.07377	74729
8.08190	71687
8.09002	75246
8.09815	69121
8.10627	70670
8.11438	69872
8.12252	68440
8.13063	79036
8.13875	89870
8.14688	103131
8.15500	103894
8.16313	101015
8.17125	92498
8.17937	81154
8.18750	78737
8.19562	74193
8.20375	65110
8.21187	69233
8.21998	73766
8.22812	70482
8.23623	73621
8.24437	66232
8.25248	70761
8.26060	69444
8.26873	65964
8.27685	69029
8.28497	65465
8.29310	69121
8.30122	66977
8.30935	73137
8.31747	78746
8.32558	81010
8.33372	83436
8.34183	88846
8.34997	77134
8.35808	76328
8.36620	72051
8.37433	76723
8.38245	69624
8.39058	68399
8.39870	67698
8.40682	61770
8.41495	66565
8.42307	64228
8.43118	65637
8.43932	62311
8.44743	63131
8.45557	61691
8.46368	63956
8.47180	63145
8.47993	64403
8.48805	61260
8.49618	67196
8.50430	71935
8.51242	91176
8.52055	143223
8.52867	214276
8.53678	256831
8.54492	243701
8.55303	197194
8.56117	132416
8.56928	99911
8.57740	86930
8.58553	81384
8.59365	81223
8.60178	82005
8.60990	80989
8.61802	81692
8.62615	82306
8.63427	76208
8.64240	72808
8.65052	76315
8.65863	69068
8.66677	71612
8.67488	72953
8.68300	79444
8.69113	79791
8.69925	75866
8.70738	79151
8.71550	81082
8.72362	100926
8.73175	175617
8.73987	352529
8.74800	667759
8.75612	989078
8.76423	1153767
8.77237	1076623
8.78048	796115
8.78860	512676
8.79673	320589
8.80485	230308
8.81298	193293
8.82110	179154
8.82922	166772
8.83735	161453
8.84547	147058
8.85360	143501
8.86172	135267
8.86983	132252
8.87797	124948
8.88608	119151
8.89422	112070
8.90233	116808
8.91045	115835
8.91858	117918
8.92670	129289
8.93482	129711
8.94295	126814
8.95107	129810
8.95920	116821
8.96732	118315
8.97543	116191
8.98357	125488
8.99168	120695
8.99982	120266
9.00793	113541
9.01605	111014
9.02418	102242
9.03230	100622
9.04043	97065
9.04855	96287
9.05667	95147
9.06480	93835
9.07292	99554
9.08103	94308
9.08917	100288
9.09728	110528
9.10542	125273
9.11353	155545
9.12165	158587
9.12978	150706
9.13790	131367
9.14603	111596
9.15415	99823
9.16227	92809
9.17040	87726
9.17852	85521
9.18665	85764
9.19477	82873
9.20288	81343
9.21102	81911
9.21913	81992
9.22725	75574
9.23538	81985
9.24350	81916
9.25163	77308
9.25975	77223
9.26787	77519
9.27600	69490
9.28412	77301
9.29225	74565
9.30037	76671
9.30848	78313
9.31662	79795
9.32473	79514
9.33285	79388
9.34098	77982
9.34910	79866
9.35723	80466
9.36535	72873
9.37347	81695
9.38160	73949
9.38972	75004
9.39785	78651
9.40597	84892
9.41408	106467
9.42222	130292
9.43033	149852
9.43847	168222
9.44658	177261
9.45470	161261
9.46283	135496
9.47095	111482
9.47907	95072
9.48720	86045
9.49532	85070
9.50345	89728
9.51157	99821
9.51968	103268
9.52782	107791
9.53593	98636
9.54407	88402
9.55218	75710
9.56030	65890
9.56843	60919
9.57655	59303
9.58467	61893
9.59280	57629
9.60092	56998
9.60905	55231
9.61717	49686
9.62528	51687
9.63342	51413
9.64153	47877
9.64967	50618
9.65778	46948
9.66590	51137
9.67403	49106
9.68215	45227
9.69028	45352
9.69840	43312
9.70652	51451
9.71465	48525
9.72277	50875
9.73088	47209
9.73902	49126
9.74713	44602
9.75527	43840
9.76338	47708
9.77150	45116
9.77963	42887
9.78775	43797
9.79588	47325
9.80400	44814
9.81212	44459
9.82025	43964
9.82837	43688
9.83650	42826
9.84462	42017
9.85273	45092
9.86087	48211
9.86898	47325
9.87710	46073
9.88523	47134
9.89335	44869
9.90148	45891
9.90960	43927
9.91772	46702
9.92585	47743
9.93397	57335
9.94210	64337
9.95022	74382
9.95833	82014
9.96647	86059
9.97458	79376
9.98270	76276
9.99083	66956
9.99895	56220
10.00708	55703
10.01520	49221
10.02332	45148
10.03145	47091
10.03957	52216
10.04770	49674
10.05582	44617
10.06393	53392
10.07207	49131
10.08018	45991
10.08832	50542
10.09643	50731
10.10455	49505
10.11268	49183
10.12080	49052
10.12892	47425
10.13705	46677
10.14517	45540
10.15330	47599
10.16142	46253
10.16953	42420
10.17767	42756
10.18578	42084
10.19392	46193
10.20203	45545
10.21015	45160
10.21828	46503
10.22640	53688
10.23453	54633
10.24265	64522
10.25077	86819
10.25890	159084
10.26702	344040
10.27513	672846
10.28327	1152231
10.29138	1709666
10.29952	2508200
10.30763	3730862
10.31575	5294565
10.32388	6639407
10.33200	6789931
10.34013	5463774
10.34825	3795801
10.35637	2670036
10.36450	2218180
10.37262	2034749
10.38073	1721647
10.38887	1280764
10.39698	839371
10.40512	527576
10.41323	368329
10.42135	294287
10.42948	257651
10.43760	233139
10.44573	213085
10.45385	192163
10.46197	169106
10.47010	151424
10.47822	137900
10.48635	131776
10.49447	130369
10.50258	124623
10.51072	126476
10.51883	119738
10.52695	117394
10.53508	110208
10.54320	105805
10.55133	99218
10.55945	101987
10.56757	97889
10.57570	99644
10.58382	93217
10.59195	89819
10.60007	84557
10.60818	86565
10.61632	82878
10.62443	81277
10.63255	80104
10.64068	78943
10.64880	72678
10.65693	73043
10.66505	70241
10.67317	70947
10.68130	73081
10.68942	78070
10.69755	82339
10.70567	83306
10.71378	88419
10.72192	82601
10.73003	79262
10.73817	74930
10.74628	69395
10.75440	71107
10.76253	72707
10.77065	70011
10.77877	63159
10.78690	66725
10.79502	70213
10.80315	72650
10.81127	72206
10.81938	71506
10.82752	72853
10.83563	68315
10.84377	64292
10.85188	58668
10.86000	55213
10.86813	56063
10.87625	52005
10.88438	54271
10.89250	59243
10.90062	57101
10.90875	56345
10.91687	56752
10.92498	57367
10.93312	53153
10.94123	56885
10.94937	54337
10.95748	52309
10.96560	59016
10.97373	56546
10.98185	58040
10.98998	60208
10.99810	63116
11.00622	62068
11.01435	63615
11.02247	66123
11.03058	59612
11.03872	53099
11.04683	53380
11.05497	54217
11.06308	57213
11.07120	60613
11.07933	61393
11.08745	68843
11.09558	70081
11.10370	72666
11.11182	73596
11.11995	76018
11.12807	68201
11.13620	73364
11.14432	68705
11.15243	61173
11.16057	59733
11.16868	58655
11.17680	56968
11.18493	59187
11.19305	59538
11.20118	62002
11.20930	60648
11.21742	61965
11.22555	58210
11.23367	53248
11.24180	48405
11.24992	48982
11.25803	62699
11.26617	77894
11.27428	105788
11.28242	148813
11.29053	197704
11.29865	265778
11.30678	372850
11.31490	574016
11.32302	919575
11.33115	1330549
11.33927	1673219
11.34740	1772515
11.35552	1561336
11.36363	1198411
11.37177	820256
11.37988	570952
11.38802	410830
11.39613	317715
11.40425	251713
11.41238	199929
11.42050	163792
11.42862	135134
11.43675	118079
11.44487	105303
11.45300	95198
11.46112	89764
11.46923	92633
11.47737	100099
11.48548	108198
11.49362	120390
11.50173	121393
11.50985	121585
11.51798	111356
11.52610	108304
11.53423	122030
11.54235	120034
11.55047	117591
11.55860	113574
11.56672	109996
11.57483	100701
11.58297	98259
11.59108	99743
11.59922	110521
11.60733	122629
11.61545	123468
11.62358	121165
11.63170	106901
11.63983	85196
11.64795	77227
11.65607	70971
11.66420	73866
11.67232	70557
11.68045	70571
11.68857	72565
11.69668	80309
11.70482	89546
11.71293	98512
11.72105	98382
11.72918	102036
11.73730	105135
11.74543	97332
11.75355	88042
11.76167	79189
11.76980	76703
11.77792	70840
11.78605	71038
11.79417	73604
11.80228	70899
11.81042	64105
11.81853	66648
11.82665	59224
11.83478	61913
11.84290	59519
11.85103	57850
11.85915	55941
11.86727	55562
11.87540	53302
11.88352	49621
11.89165	47027
11.89977	49531
11.90788	57654
11.91602	67256
11.92413	77876
11.93227	91082
11.94038	91846
11.94850	95307
11.95663	87905
11.96475	77645
11.97287	74243
11.98100	76434
11.98912	87500
11.99725	104840
12.00537	112948
12.01348	107097
12.02162	96068
12.02973	82380
12.03787	71708
12.04598	69673
12.05410	63989
12.06223	62337
12.07035	66894
12.07847	72271
12.08660	74255
12.09472	76212
12.10285	73861
12.11097	75114
12.11908	78122
12.12722	82287
12.13533	81120
12.14347	82184
12.15158	79987
12.15970	71177
12.16783	60661
12.17595	56751
12.18408	54366
12.19220	54512
12.20032	52806
12.20845	49958
12.21657	51279
12.22468	51570
12.23282	50433
12.24093	45966
12.24907	48675
12.25718	50728
12.26530	49507
12.27343	47689
12.28155	47634
12.28968	48270
12.29780	48021
12.30592	49103
12.31405	52029
12.32217	47101
12.33030	48435
12.33842	44984
12.34653	45309
12.35467	42105
12.36278	45227
12.37090	45326
12.37903	45433
12.38715	57287
12.39528	71591
12.40340	91111
12.41152	122260
12.41965	132214
12.42777	131059
12.43590	114959
12.44402	97449
12.45213	79053
12.46027	72463
12.46838	67512
12.47650	59803
12.48463	59729
12.49275	56754
12.50088	56220
12.50900	51050
12.51712	52693
12.52525	56953
12.53337	60321
12.54150	72809
12.54962	92239
12.55773	107508
12.56587	112821
12.57398	106485
12.58212	88505
12.59023	80706
12.59835	62607
12.60648	63103
12.61460	54221
12.62272	55948
12.63085	52675
12.63897	53210
12.64710	47206
12.65522	42114
12.66333	47815
12.67147	43896
12.67958	44449
12.68772	45215
12.69583	45730
12.70395	46364
12.71208	45685
12.72020	46854
12.72833	48643
12.73645	46583
12.74457	44515
12.75270	48464
12.76082	47600
12.76893	48803
12.77707	52884
12.78518	57694
12.79332	56241
12.80143	56987
12.80955	60902
12.81768	55870
12.82580	53319
12.83393	48730
12.84205	49279
12.85017	48640
12.85830	52407
12.86642	49780
12.87453	47694
12.88267	45808
12.89078	45153
12.89892	44748
12.90703	44197
12.91515	42577
12.92328	48621
12.93140	52675
12.93953	72803
12.94765	97000
12.95577	128469
12.96390	153546
12.97202	174725
12.98015	187687
12.98827	160738
12.99638	143904
13.00452	131952
13.01263	130390
13.02075	117668
13.02888	115376
13.03700	104771
13.04513	95615
13.05325	87751
13.06137	75887
13.06950	70321
13.07762	62969
13.08575	55531
13.09387	57388
13.10198	56174
13.11012	55876
13.11823	47886
13.12635	48105
13.13448	45711
13.14260	47846
13.15073	47505
13.15885	46801
13.16697	48870
13.17510	46822
13.18322	48582
13.19135	48738
13.19947	46849
13.20758	47674
13.21572	50904
13.22383	50643
13.23197	51683
13.24008	54445
13.24820	60317
13.25633	68811
13.26445	72788
13.27257	79033
13.28070	79515
13.28882	70073
13.29695	75172
13.30507	71879
13.31318	74783
13.32132	84908
13.32943	79170
13.33757	83021
13.34568	74925
13.35380	72134
13.36193	69085
13.37005	61903
13.37818	64022
13.38630	59057
13.39442	57663
13.40255	59058
13.41067	55280
13.41878	50960
13.42692	51263
13.43503	49471
13.44317	46433
13.45128	46397
13.45940	52230
13.46753	51901
13.47565	50379
13.48378	47985
13.49190	46888
13.50002	46298
13.50815	44425
13.51627	49042
13.52438	48852
13.53252	52342
13.54063	53517
13.54877	58778
13.55688	67773
13.56500	70391
13.57313	77363
13.58125	80246
13.58938	89626
13.59750	108111
13.60562	131659
13.61375	159632
13.62187	168338
13.63000	165822
13.63812	150947
13.64623	123432
13.65437	103701
13.66248	96895
13.67060	89505
13.67873	78387
13.68685	75439
13.69498	71102
13.70310	64964
13.71122	68404
13.71935	64337
13.72747	68074
13.73560	89456
13.74372	130675
13.75183	216118
13.75997	358479
13.76808	499603
13.77622	575961
13.78433	562758
13.79245	486662
13.80058	397524
13.80870	360890
13.81682	351820
13.82495	359556
13.83307	386244
13.84120	348764
13.84932	314625
13.85743	239326
13.86557	182248
13.87368	147486
13.88182	123912
13.88993	116797
13.89805	112284
13.90618	115288
13.91430	114039
13.92242	104710
13.93055	100417
13.93867	94012
13.94680	93716
13.95492	89158
13.96303	86202
13.97117	86064
13.97928	89680
13.98742	86224
13.99553	81811
14.00365	75453
14.01178	76346
14.01990	75640
14.02803	77838
14.03615	71166
14.04427	74576
14.05240	71315
14.06052	71840
14.06863	69313
14.07677	71988
14.08488	68473
14.09302	71627
14.10113	68264
14.10925	64302
14.11738	65779
14.12550	69296
14.13363	94407
14.14175	144524
14.14987	238720
14.15800	366028
14.16612	474155
14.17423	500912
14.18237	444001
14.19048	341857
14.19862	260537
14.20673	194923
14.21485	159318
14.22298	140971
14.23110	131609
14.23923	126699
14.24735	128105
14.25547	115739
14.26360	109495
14.27172	99467
14.27985	95268
14.28797	84612
14.29608	82514
14.30422	74133
14.31233	71969
14.32045	68981
14.32858	62676
14.33670	59406
14.34483	52998
14.35295	53723
14.36107	51572
14.36920	49485
14.37732	51440
14.38545	67452
14.39357	90248
14.40168	129352
14.40982	173571
14.41793	211952
14.42607	217303
14.43418	188524
14.44230	139517
14.45043	110086
14.45855	88161
14.46667	72140
14.47480	71400
14.48292	66968
14.49105	58767
14.49917	61631
14.50728	63034
14.51542	62798
14.52353	59137
14.53167	52670
14.53978	53574
14.54790	51561
14.55603	51667
14.56415	50161
14.57228	48095
14.58040	44181
14.58852	45827
14.59665	41827
14.60477	46357
14.61288	45174
14.62102	45844
14.62913	47576
14.63727	46239
14.64538	42014
14.65350	47761
14.66163	40754
14.66975	45703
14.67788	44327
14.68600	39334
14.69412	46715
14.70225	43387
14.71037	45486
14.71848	43446
14.72662	46459
14.73473	46218
14.74287	47144
14.75098	47489
14.75910	50372
14.76723	50558
14.77535	58141
14.78348	79903
14.79160	142865
14.79972	307315
14.80785	629742
14.81597	1039348
14.82410	1356290
14.83222	1462562
14.84033	1211776
14.84847	857205
14.85658	542020
14.86470	339420
14.87283	228304
14.88095	170904
14.88908	145322
14.89720	125003
14.90532	113223
14.91345	108478
14.92157	108487
14.92970	94838
14.93782	90066
14.94593	84459
14.95407	83915
14.96218	78803
14.97030	73745
14.97843	69049
14.98655	69981
14.99468	68755
15.00280	64884
15.01092	67124
15.01905	68969
15.02717	69885
15.03530	66770
15.04342	66185
15.05153	58075
15.05967	58845
15.06778	54189
15.07592	60293
15.08403	54938
15.09215	55212
15.10028	53534
15.10840	54027
15.11652	50156
15.12465	57227
15.13277	59110
15.14090	59852
15.14902	62047
15.15713	54006
15.16527	51817
15.17338	50381
15.18152	51182
15.18963	52218
15.19775	51057
15.20588	43514
15.21400	52645
15.22213	47397
15.23025	45552
15.23837	43296
15.24650	43558
15.25462	41797
15.26273	43918
15.27087	40502
15.27898	43495
15.28712	37778
15.29523	42215
15.30335	38226
15.31148	42559
15.31960	38525
15.32773	41079
15.33585	39236
15.34397	38127
15.35210	42269
15.36022	37702
15.36833	38492
15.37647	43207
15.38458	39397
15.39272	39656
15.40083	44613
15.40895	41478
15.41708	39721
15.42520	40903
15.43333	49200
15.44145	43067
15.44957	51639
15.45770	61247
15.46582	85222
15.47395	127279
15.48207	185543
15.49018	251212
15.49832	299546
15.50643	305718
15.51455	283393
15.52268	238619
15.53080	211017
15.53893	176940
15.54705	145912
15.55517	125103
15.56330	104614
15.57142	81299
15.57955	68893
15.58767	62079
15.59578	52857
15.60392	56562
15.61203	50899
15.62017	50128
15.62828	51184
15.63640	46473
15.64453	49970
15.65265	43818
15.66077	46994
15.66890	48018
15.67702	44329
15.68515	43903
15.69327	45064
15.70138	44864
15.70952	43254
15.71763	42399
15.72577	39577
15.73388	43756
15.74200	48470
15.75013	59988
15.75825	82950
15.76637	107594
15.77450	132533
15.78262	155375
15.79075	159176
15.79887	141017
15.80698	111113
15.81512	89447
15.82323	74177
15.83137	62085
15.83948	57988
15.84760	55743
15.85573	54885
15.86385	55628
15.87198	52457
15.88010	55193
15.88822	53102
15.89635	52018
15.90447	48692
15.91258	53830
15.92072	48875
15.92883	47625
15.93697	47981
15.94508	50070
15.95320	51739
15.96133	60840
15.96945	58995
15.97758	66550
15.98570	66654
15.99382	62180
16.00195	60584
16.01007	60742
16.01818	59267
16.02632	59703
16.03443	57798
16.04257	56793
16.05068	51746
16.05880	48521
16.06693	50569
16.07505	45884
16.08318	46692
16.09130	47348
16.09942	44068
16.10755	43890
16.11567	48202
16.12380	47638
16.13192	48879
16.14003	54743
16.14817	55435
16.15628	53914
16.16440	50386
16.17253	50913
16.18065	47920
16.18878	45575
16.19690	42454
16.20502	45775
16.21315	48288
16.22127	42461
16.22940	44905
16.23752	47561
16.24563	43476
16.25377	45684
16.26188	48465
16.27002	46349
16.27813	51086
16.28625	49486
16.29438	54542
16.30250	56751
16.31062	54505
16.31875	52103
16.32687	52026
16.33500	48042
16.34312	50891
16.35123	49937
16.35937	52313
16.36748	49696
16.37562	55070
16.38373	53184
16.39185	52059
16.39998	49321
16.40810	46235
16.41622	51169
16.42435	42524
16.43247	44663
16.44060	54303
16.44872	75575
16.45683	107579
16.46497	146513
16.47308	191293
16.48122	204809
16.48933	191605
16.49745	153591
16.50558	115255
16.51370	94388
16.52183	69425
16.52995	66264
16.53807	62685
16.54620	54119
16.55432	55112
16.56243	54612
16.57057	55961
16.57868	53476
16.58682	56446
16.59493	63863
16.60305	67193
16.61118	68719
16.61930	65595
16.62743	64428
16.63555	56718
16.64367	60348
16.65180	49940
16.65992	52058
16.66805	48986
16.67617	49069
16.68428	45288
16.69242	45642
16.70053	45707
16.70865	43578
16.71678	41479
16.72490	42753
16.73303	45208
16.74115	47347
16.74927	45201
16.75740	48237
16.76552	43911
16.77365	44080
16.78177	43558
16.78988	48808
16.79802	44513
16.80613	42307
16.81425	43784
16.82238	43127
16.83050	44087
16.83863	45025
16.84675	44408
16.85487	40977
16.86300	45153
16.87112	48262
16.87925	42260
16.88737	44108
16.89548	48400
16.90362	41788
16.91173	45322
16.91987	43692
16.92798	44702
16.93610	44269
16.94423	41010
16.95235	43049
16.96047	43785
16.96860	42161
16.97672	44393
16.98485	41297
16.99297	43691
17.00108	44918
17.00922	44858
17.01733	47306
17.02547	47595
17.03358	48668
17.04170	49983
17.04983	48264
17.05795	48117
17.06607	51061
17.07420	50580
17.08232	52039
17.09045	61771
17.09857	60175
17.10668	57866
17.11482	61429
17.12293	60625
17.13107	61114
17.13918	66484
17.14730	60081
17.15543	53518
17.16355	54821
17.17168	49186
17.17980	45481
17.18792	48899
17.19605	44810
17.20417	44845
17.21228	44044
17.22042	43849
17.22853	41981
17.23667	40899
17.24478	40195
17.25290	39713
17.26103	41689
17.26915	41697
17.27728	43317
17.28540	38184
17.29352	41101
17.30165	44751
17.30977	44247
17.31790	43635
17.32602	51313
17.33413	56732
17.34227	63788
17.35038	59496
17.35850	59983
17.36663	54725
17.37475	59951
17.38288	59371
17.39100	60791
17.39912	65606
17.40725	65809
17.41537	67127
17.42350	66173
17.43162	67578
17.43973	64086
17.44787	60174
17.45598	54331
17.46410	48867
17.47223	50351
17.48035	47619
17.48848	51700
17.49660	49591
17.50472	50511
17.51285	58671
17.52097	62599
17.52910	77572
17.53722	80028
17.54533	92689
17.55347	107025
17.56158	130089
17.56972	151139
17.57783	184643
17.58595	233674
17.59408	258906
17.60220	280753
17.61032	265381
17.61845	229604
17.62657	185383
17.63470	135736
17.64282	110198
17.65093	96059
17.65907	85936
17.66718	83867
17.67532	77423
17.68343	80657
17.69155	77446
17.69968	72306
17.70780	73752
17.71593	69484
17.72405	71730
17.73217	73893
17.74030	71769
17.74842	68504
17.75653	64264
17.76467	60368
17.77278	60341
17.78092	55646
17.78903	59839
17.79715	56732
17.80528	56561
17.81340	58428
17.82153	67746
17.82965	75771
17.83777	77346
17.84590	81504
17.85402	83512
17.86213	83724
17.87027	80814
17.87838	76530
17.88652	62744
17.89463	60390
17.90275	55243
17.91088	56410
17.91900	52603
17.92713	48510
17.93525	49310
17.94337	50849
17.95150	49587
17.95962	44947
17.96775	47008
17.97587	46232
17.98398	46489
17.99212	46429
18.00023	54686
18.00835	56300
18.01648	66592
18.02460	73093
18.03273	78842
18.04085	88853
18.04897	107219
18.05710	152948
18.06522	264798
18.07335	467808
18.08147	761121
18.08958	987920
18.09772	1005370
18.10583	885370
18.11397	665346
18.12208	466268
18.13020	326844
18.13833	242381
18.14645	203950
18.15457	190821
18.16270	184079
18.17082	195746
18.17895	203001
18.18707	202251
18.19518	207847
18.20332	205923
18.21143	199883
18.21957	197821
18.22768	202293
18.23580	194875
18.24393	190633
18.25205	187856
18.26017	182410
18.26830	172455
18.27642	167313
18.28455	162114
18.29267	148001
18.30078	148376
18.30892	137970
18.31703	136649
18.32517	129894
18.33328	130918
18.34140	128394
18.34953	127608
18.35765	123306
18.36578	122376
18.37390	124220
18.38202	121512
18.39015	121996
18.39827	125661
18.40638	126222
18.41452	131823
18.42263	135029
18.43077	144593
18.43888	153578
18.44700	158226
18.45513	169522
18.46325	172144
18.47138	178108
18.47950	178815
18.48762	165095
18.49575	149121
18.50387	134617
18.51198	117517
18.52012	110026
18.52823	103596
18.53637	96275
18.54448	95935
18.55260	89694
18.56073	89141
18.56885	90638
18.57698	93737
18.58510	92307
18.59322	95737
18.60135	103676
18.60947	109869
18.61760	118411
18.62572	114829
18.63383	104563
18.64197	108871
18.65008	97078
18.65820	84868
18.66633	80968
18.67445	82224
18.68258	78189
18.69070	76763
18.69882	71842
18.70695	73814
18.71507	77086
18.72320	75334
18.73132	75919
18.73943	70668
18.74757	69895
18.75568	67252
18.76382	67056
18.77193	63319
18.78005	61613
18.78818	60520
18.79630	69289
18.80442	68416
18.81255	61814
18.82067	61030
18.82880	63357
18.83692	63602
18.84503	62888
18.85317	59241
18.86128	64835
18.86942	66549
18.87753	66141
18.88565	73963
18.89378	69967
18.90190	72541
18.91002	70611
18.91815	71728
18.92627	69402
18.93440	65862
18.94252	71004
18.95063	68411
18.95877	63486
18.96688	62710
18.97502	64525
18.98313	60179
18.99125	62102
18.99938	61334
19.00750	59630
19.01563	61465
19.02375	65160
19.03187	61846
19.04000	64172
19.04812	64511
19.05623	67093
19.06437	81511
19.07248	110080
19.08062	161581
19.08873	213772
19.09685	248466
19.10498	257271
19.11310	230063
19.12123	195996
19.12935	153763
19.13747	138857
19.14560	130884
19.15372	123777
19.16185	130972
19.16997	120953
19.17808	117556
19.18622	103864
19.19433	87814
19.20245	84558
19.21058	75117
19.21870	71451
19.22683	65762
19.23495	60380
19.24307	60719
19.25120	57842
19.25932	56050
19.26745	56105
19.27557	59531
19.28368	60483
19.29182	66247
19.29993	62808
19.30805	61951
19.31618	58024
19.32430	58008
19.33243	62424
19.34055	58777
19.34867	63566
19.35680	71497
19.36492	79001
19.37305	88773
19.38117	84378
19.38928	83636
19.39742	72917
19.40553	66674
19.41367	65326
19.42178	65255
19.42990	72634
19.43803	89409
19.44615	134660
19.45427	196389
19.46240	253516
19.47052	300263
19.47865	295765
19.48677	240706
19.49488	184041
19.50302	131442
19.51113	101987
19.51927	89289
19.52738	80432
19.53550	75063
19.54363	77043
19.55175	72428
19.55987	72497
19.56800	65357
19.57612	63798
19.58425	61229
19.59237	57450
19.60048	52621
19.60862	55058
19.61673	57272
19.62487	60537
19.63298	74193
19.64110	91631
19.64923	114860
19.65735	132518
19.66548	144252
19.67360	142027
19.68172	136104
19.68985	125996
19.69797	112123
19.70608	101321
19.71422	88716
19.72233	81091
19.73047	78156
19.73858	75486
19.74670	69415
19.75483	74231
19.76295	75066
19.77108	88027
19.77920	102243
19.78732	104763
19.79545	107367
19.80357	106311
19.81170	98949
19.81982	89286
19.82793	83898
19.83607	84818
19.84418	122654
19.85230	242990
19.86043	589569
19.86855	1368675
19.87668	2740530
19.88480	4646417
19.89292	6316996
19.90105	6911342
19.90917	6349321
19.91730	4787509
19.92542	3196431
19.93353	2015891
19.94167	1307390
19.94978	893139
19.95790	700149
19.96603	593680
19.97415	512300
19.98228	470573
19.99040	437119
19.99852	396986
20.00665	378525
20.01477	355191
20.02290	332072
20.03102	296111
20.03913	271664
20.04727	247968
20.05538	229111
20.06352	214296
20.07163	211702
20.07975	215969
20.08788	203166
20.09600	186232
20.10412	159726
20.11225	144296
20.12037	126154
20.12850	128618
20.13662	132180
20.14473	158383
20.15287	221909
20.16098	316315
20.16912	424281
20.17723	525294
20.18535	604885
20.19348	619877
20.20160	568832
20.20973	473241
20.21785	372051
20.22597	301138
20.23410	279621
20.24222	299816
20.25033	354250
20.25847	414099
20.26658	445568
20.27472	444927
20.28283	389547
20.29095	328082
20.29908	257819
20.30720	194051
20.31533	153477
20.32345	119671
20.33157	110214
20.33970	100970
20.34782	91802
20.35593	88575
20.36407	91276
20.37218	85728
20.38032	83308
20.38843	83637
20.39655	82696
20.40468	82904
20.41280	88585
20.42093	88153
20.42905	81716
20.43717	82695
20.44530	88513
20.45342	85168
20.46155	77971
20.46967	79185
20.47778	79713
20.48592	76165
20.49403	78604
20.50215	72754
20.51028	71332
20.51840	68241
20.52653	66052
20.53465	70801
20.54277	67307
20.55090	65680
20.55902	61872
20.56715	64121
20.57527	63431
20.58338	62706
20.59152	63147
20.59963	60021
20.60775	62166
20.61588	62150
20.62400	62751
20.63213	70589
20.64025	66889
20.64837	69074
20.65650	67482
20.66462	66868
20.67275	63855
20.68087	62116
20.68898	63566
20.69712	62822
20.70523	62242
20.71337	62563
20.72148	62205
20.72960	64580
20.73773	64701
20.74585	64780
20.75397	71485
20.76210	70646
20.77022	76899
20.77835	98190
20.78647	121173
20.79458	169127
20.80272	215159
20.81083	258318
20.81897	259575
20.82708	230580
20.83520	189618
20.84333	140833
20.85145	108894
20.85958	92044
20.86770	83998
20.87582	80027
20.88395	84770
20.89207	78839
20.90018	83943
20.90832	87472
20.91643	94734
20.92457	91815
20.93268	92333
20.94080	94558
20.94893	83372
20.95705	78820
20.96518	78075
20.97330	70234
20.98142	72026
20.98955	67181
20.99767	70829
21.00580	71419
21.01392	71341
21.02203	72301
21.03017	75617
21.03828	73559
21.04640	78349
21.05453	77487
21.06265	77395
21.07078	80596
21.07890	74402
21.08702	73982
21.09515	72886
21.10327	67323
21.11140	74619
21.11952	75425
21.12763	88786
21.13577	90343
21.14388	105500
21.15200	121581
21.16013	124857
21.16825	121574
21.17638	103569
21.18450	93103
21.19262	86000
21.20075	81939
21.20887	75928
21.21700	75562
21.22512	74598
21.23323	75487
21.24137	74673
21.24948	73527
21.25762	72778
21.26573	67208
21.27385	66335
21.28198	69281
21.29010	69292
21.29822	67510
21.30635	68655
21.31447	70011
21.32260	68107
21.33072	67696
21.33883	64351
21.34697	63382
21.35508	65780
21.36322	64436
21.37133	66702
21.37945	67790
21.38758	71730
21.39570	79368
21.40382	81951
21.41195	85578
21.42007	87253
21.42820	78761
21.43632	75717
21.44443	73706
21.45257	68547
21.46068	64454
21.46882	65018
21.47693	69086
21.48505	62380
21.49318	60532
21.50130	61617
21.50943	63194
21.51755	59388
21.52567	61572
21.53380	62274
21.54192	61093
21.55003	58013
21.55817	59418
21.56628	63345
21.57442	69305
21.58253	73553
21.59065	78472
21.59878	83633
21.60690	92147
21.61503	87516
21.62315	88420
21.63127	79322
21.63940	77923
21.64752	72387
21.65565	73697
21.66377	73453
21.67188	71227
21.68002	72148
21.68813	68043
21.69625	69716
21.70438	58259
21.71250	59592
21.72063	59939
21.72875	56946
21.73687	57744
21.74500	59893
21.75312	60379
21.76125	66169
21.76937	60063
21.77748	61758
21.78562	64316
21.79373	68868
21.80185	75453
21.80998	74019
21.81810	75161
21.82623	81034
21.83435	90459
21.84247	90108
21.85060	100348
21.85872	100947
21.86685	105380
21.87497	97913
21.88308	94347
21.89122	103776
21.89933	101606
21.90747	102011
21.91558	96874
21.92370	91654
21.93183	86903
21.93995	83545
21.94807	86288
21.95620	79947
21.96432	78340
21.97245	80516
21.98057	81011
21.98868	78785
21.99682	75865
22.00493	72282
22.01307	74141
22.02118	72880
22.02930	75504
22.03743	73690
22.04555	71194
22.05368	70374
22.06180	66627
22.06992	67623
22.07805	64290
22.08617	67428
22.09428	62903
22.10242	66866
22.11053	63570
22.11867	60962
22.12678	64101
22.13490	63291
22.14303	57718
22.15115	58969
22.15928	54831
22.16740	60551
22.17552	53701
22.18365	57438
22.19177	59572
22.19988	56666
22.20802	55652
22.21613	55403
22.22427	54652
22.23238	50339
22.24050	57006
22.24863	50383
22.25675	56473
22.26488	56633
22.27300	63610
22.28112	64518
22.28925	64676
22.29737	67539
22.30550	62087
22.31362	63546
22.32173	62619
22.32987	61383
22.33798	60494
22.34610	62013
22.35423	54083
22.36235	55736
22.37048	58463
22.37860	56529
22.38672	66522
22.39485	79477
22.40297	86437
22.41110	94760
22.41922	93966
22.42733	95398
22.43547	84247
22.44358	76426
22.45170	66681
22.45983	64925
22.46795	61124
22.47608	66822
22.48420	69432
22.49232	76463
22.50045	89103
22.50857	85554
22.51670	82888
22.52482	75473
22.53293	75191
22.54107	69081
22.54918	63860
22.55732	63660
22.56543	57767
22.57355	54201
22.58168	53435
22.58980	50118
22.59792	50547
22.60605	47826
22.61417	47616
22.62230	47564
22.63042	51214
22.63853	50287
22.64667	49573
22.65478	50144
22.66292	52288
22.67103	60819
22.67915	58523
22.68728	66273
22.69540	75727
22.70353	88976
22.71165	87973
22.71977	90196
22.72790	82862
22.73602	75586
22.74413	68344
22.75227	65540
22.76038	60424
22.76852	55897
22.77663	65719
22.78475	71198
22.79288	79754
22.80100	88375
22.80913	83962
22.81725	84824
22.82537	75492
22.83350	71861
22.84162	66141
22.84973	66433
22.85787	73720
22.86598	80367
22.87412	84337
22.88223	97061
22.89035	103214
22.89848	105781
22.90660	115472
22.91473	122217
22.92285	137280
22.93097	138482
22.93910	126938
22.94722	112499
22.95535	101621
22.96347	88902
22.97158	83100
22.97972	72342
22.98783	72242
22.99595	66572
23.00408	63438
23.01220	61713
23.02033	57623
23.02845	59830
23.03657	57069
23.04470	57453
23.05282	56505
23.06095	54330
23.06907	58692
23.07718	57415
23.08532	54769
23.09343	51503
23.10157	56274
23.10968	55169
23.11780	54022
23.12593	51641
23.13405	49363
23.14217	49985
23.15030	47007
23.15842	45749
23.16655	46455
23.17467	49344
23.18278	50055
23.19092	53217
23.19903	44423
23.20717	51203
23.21528	46253
23.22340	49806
23.23153	50038
23.23965	51173
23.24777	52319
23.25590	58493
23.26402	55186
23.27215	56698
23.28027	56066
23.28838	50096
23.29652	57068
23.30463	54900
23.31277	49796
23.32088	59849
23.32900	66246
23.33713	73404
23.34525	78965
23.35338	87331
23.36150	92114
23.36962	91558
23.37775	88484
23.38587	89660
23.39398	81441
23.40212	74507
23.41023	64454
23.41837	63249
23.42648	59137
23.43460	55733
23.44273	55520
23.45085	54327
23.45898	53345
23.46710	53899
23.47522	54484
23.48335	50831
23.49147	52447
23.49960	54577
23.50772	49516
23.51583	48780
23.52397	53028
23.53208	49453
23.54020	52729
23.54833	59784
23.55645	65394
23.56458	74009
23.57270	93611
23.58082	108156
23.58895	129923
23.59707	148949
23.60520	156924
23.61332	154867
23.62143	146785
23.62957	129825
23.63768	136198
23.64580	135997
23.65393	140345
23.66205	144884
23.67018	137756
23.67830	136598
23.68642	134152
23.69455	118319
23.70267	112792
23.71080	105737
23.71892	103457
23.72703	113053
23.73517	152775
23.74328	272985
23.75142	576707
23.75953	1210714
23.76765	2082728
23.77578	3036204
23.78390	3572915
23.79202	3488953
23.80015	3001650
23.80827	2314535
23.81640	1721512
23.82452	1251406
23.83263	922981
23.84077	721516
23.84888	576525
23.85702	478625
23.86513	402058
23.87325	347611
23.88138	318577
23.88950	281394
23.89762	278187
23.90575	245272
23.91387	230790
23.92200	214676
23.93012	199488
23.93823	192699
23.94637	176891
23.95448	166487
23.96262	157795
23.97073	150244
23.97885	148989
23.98698	148303
23.99510	135368
24.00323	134323
24.01135	127997
24.01947	132778
24.02760	134260
24.03572	133815
24.04383	127066
24.05197	126197
24.06008	122080
24.06822	111396
24.07633	106642
24.08445	109181
24.09258	107365
24.10070	106680
24.10883	111135
24.11695	106313
24.12507	108543
24.13320	112648
24.14132	108641
24.14945	113905
24.15757	112277
24.16568	109707
24.17382	116969
24.18193	120886
24.19005	118974
24.19818	115840
24.20630	115935
24.21443	99746
24.22255	93656
24.23067	85020
24.23880	85277
24.24692	84016
24.25505	77926
24.26317	77186
24.27128	76920
24.27942	74266
24.28753	72210
24.29565	72861
24.30378	75533
24.31190	79764
24.32003	84152
24.32815	98027
24.33627	124260
24.34440	152643
24.35252	185918
24.36065	195472
24.36877	183094
24.37688	149879
24.38502	118789
24.39313	95892
24.40127	86638
24.40938	88398
24.41750	89433
24.42563	92997
24.43375	96283
24.44187	100071
24.45000	95307
24.45812	98442
24.46625	101957
24.47437	99645
24.48248	103776
24.49062	95788
24.49873	92914
24.50687	91730
24.51498	95255
24.52310	95224
24.53123	110452
24.53935	125200
24.54748	137014
24.55560	144546
24.56372	134171
24.57185	131989
24.57997	107840
24.58808	94935
24.59622	80504
24.60433	78379
24.61247	73291
24.62058	66732
24.62870	69099
24.63683	69297
24.64495	64742
24.65308	69461
24.66120	64439
24.66932	69082
24.67745	63046
24.68557	63605
24.69368	63767
24.70182	62474
24.70993	62584
24.71807	59832
24.72618	63035
24.73430	60597
24.74243	57856
24.75055	63943
24.75868	61519
24.76680	62051
24.77492	68530
24.78305	74006
24.79117	84256
24.79930	88532
24.80742	100574
24.81553	113481
24.82367	136341
24.83178	145174
24.83990	164645
24.84803	188586
24.85615	206988
24.86428	234522
24.87240	273882
24.88052	303052
24.88865	306896
24.89677	287826
24.90490	249553
24.91302	199437
24.92113	169703
24.92927	146008
24.93738	130747
24.94550	124555
24.95363	106876
24.96175	104418
24.96988	100226
24.97800	94669
24.98612	96310
24.99425	91967
25.00237	88945
25.01050	86208
25.01862	88901
25.02673	89689
25.03487	84786
25.04298	86644
25.05112	77420
25.05923	79823
25.06735	81448
25.07548	80141
25.08360	82280
25.09172	99303
25.09985	144560
25.10797	244471
25.11610	417981
25.12422	659739
25.13233	956169
25.14047	1174026
25.14858	1124264
25.15672	948329
25.16483	663119
25.17295	415132
25.18108	271337
25.18920	179955
25.19733	134726
25.20545	105360
25.21357	104138
25.22170	92553
25.22982	96693
25.23793	116141
25.24607	142853
25.25418	160779
25.26232	180958
25.27043	184570
25.27855	176308
25.28668	157093
25.29480	133510
25.30293	110928
25.31105	102985
25.31917	94456
25.32730	85907
25.33542	80501
25.34353	78578
25.35167	70073
25.35978	70467
25.36792	69248
25.37603	65514
25.38415	63989
25.39228	62882
25.40040	68356
25.40853	64149
25.41665	61313
25.42477	67565
25.43290	62970
25.44102	64633
25.44915	62673
25.45727	64245
25.46538	63215
25.47352	57624
25.48163	57833
25.48975	55511
25.49788	55982
25.50600	59852
25.51413	60013
25.52225	60894
25.53037	57038
25.53850	58567
25.54662	60361
25.55475	59160
25.56287	61510
25.57098	55013
25.57912	56029
25.58723	49683
25.59537	57885
25.60348	60898
25.61160	54077
25.61973	52723
25.62785	52846
25.63597	54896
25.64410	52185
25.65222	51579
25.66035	60782
25.66847	57357
25.67658	56792
25.68472	52892
25.69283	58866
25.70097	57515
25.70908	57175
25.71720	55990
25.72533	53484
25.73345	53540
25.74157	53121
25.74970	54247
25.75782	51468
25.76595	55100
25.77407	52256
25.78218	48873
25.79032	48537
25.79843	58277
25.80657	53987
25.81468	54926
25.82280	55272
25.83093	52908
25.83905	52680
25.84718	53978
25.85530	55235
25.86342	54274
25.87155	49663
25.87967	46645
25.88778	49864
25.89592	53662
25.90403	48249
25.91217	43234
25.92028	46021
25.92840	49546
25.93653	51324
25.94465	51082
25.95278	51208
25.96090	47092
25.96902	44729
25.97715	45768
25.98527	50096
25.99338	46397
26.00152	48554
26.00963	46501
26.01777	43368
26.02588	45331
26.03400	44767
26.04213	42845
26.05025	45563
26.05838	48001
26.06650	49176
26.07462	50103
26.08275	51558
26.09087	49809
26.09900	50002
26.10712	51674
26.11523	49846
26.12337	53625
26.13148	57991
26.13960	60977
26.14773	62225
26.15585	56615
26.16398	60359
26.17210	57315
26.18022	49866
26.18835	49394
26.19647	54026
26.20460	52282
26.21272	52813
26.22083	48242
26.22897	46091
26.23708	44298
26.24522	45646
26.25333	44390
26.26145	43332
26.26958	48130
26.27770	47661
26.28582	43598
26.29395	46883
26.30207	44699
26.31020	45861
26.31832	41951
26.32643	44760
26.33457	51130
26.34268	58828
26.35082	66597
26.35893	87016
26.36705	111898
26.37518	144891
26.38330	169366
26.39143	186926
26.39955	184333
26.40767	167089
26.41580	134363
26.42392	107173
26.43203	85651
26.44017	68415
26.44828	60064
26.45642	54889
26.46453	50512
26.47265	48442
26.48078	47991
26.48890	48488
26.49703	48898
26.50515	45002
26.51327	42403
26.52140	42011
26.52952	47998
26.53763	41853
26.54577	43808
26.55388	44281
26.56202	42123
26.57013	43816
26.57825	44111
26.58638	47650
26.59450	45497
26.60263	42379
26.61075	41902
26.61887	42917
26.62700	42105
26.63512	45960
26.64325	47540
26.65137	42581
26.65948	41051
26.66762	45308
26.67573	45939
26.68385	47989
26.69198	46208
26.70010	46392
26.70823	49458
26.71635	50106
26.72447	47524
26.73260	51328
26.74072	52885
26.74885	48786
26.75697	53946
26.76508	45526
26.77322	50425
26.78133	52388
26.78945	50767
26.79758	48361
26.80570	52146
26.81383	52324
26.82195	49527
26.83007	49524
26.83820	49694
26.84632	49575
26.85445	48803
26.86257	48433
26.87068	46150
26.87882	44576
26.88693	47513
26.89507	46216
26.90318	47069
26.91130	45862
26.91943	53798
26.92755	51287
26.93567	53535
26.94380	68550
26.95192	100273
26.96005	158497
26.96817	264179
26.97628	419689
26.98442	651565
26.99253	896623
27.00067	1114878
27.00878	1186870
27.01690	1127750
27.02503	954730
27.03315	752901
27.04128	566002
27.04940	445932
27.05752	347175
27.06565	279134
27.07377	223487
27.08188	192503
27.09002	175124
27.09813	155397
27.10627	147848
27.11438	133648
27.12250	124531
27.13063	116059
27.13875	115823
27.14688	118684
27.15500	117422
27.16312	113422
27.17125	116809
27.17937	116756
27.18748	109823
27.19562	100968
27.20373	94873
27.21187	87994
27.21998	81029
27.22810	80745
27.23623	81712
27.24435	79316
27.25248	73652
27.26060	73210
27.26872	67193
27.27685	74420
27.28497	69966
27.29310	67918
27.30122	66047
27.30933	72231
27.31747	64440
27.32558	66479
27.33370	65729
27.34183	71767
27.34995	69765
27.35808	64910
27.36620	66432
27.37432	66252
27.38245	63095
27.39057	66582
27.39870	61013
27.40682	63895
27.41493	58219
27.42307	61837
27.43118	56769
27.43932	58067
27.44743	55848
27.45555	57768
27.46368	56287
27.47180	52267
27.47992	57289
27.48805	55712
27.49617	55904
27.50430	55114
27.51242	57769
27.52053	53006
27.52867	57577
27.53678	53292
27.54492	55909
27.55303	56453
27.56115	53841
27.56928	61137
27.57740	62013
27.58552	65683
27.59365	61253
27.60177	66636
27.60990	61535
27.61802	58603
27.62613	59577
27.63427	55021
27.64238	54529
27.65052	55783
27.65863	57675
27.66675	59947
27.67488	66759
27.68300	67180
27.69113	73025
27.69925	70841
27.70737	64851
27.71550	63364
27.72362	60372
27.73173	63480
27.73987	67680
27.74798	65198
27.75612	62303
27.76423	61032
27.77235	59402
27.78048	57448
27.78860	58451
27.79673	54100
27.80485	47695
27.81297	51902
27.82110	47499
27.82922	51533
27.83733	48705
27.84547	45288
27.85358	46402
27.86172	47397
27.86983	47201
27.87795	48994
27.88608	48317
27.89420	47443
27.90233	42921
27.91045	44934
27.91857	47317
27.92670	44620
27.93482	46293
27.94295	44924
27.95107	42881
27.95918	43958
27.96732	50664
27.97543	51594
27.98355	59796
27.99168	62795
27.99980	62117
28.00793	66720
28.01605	79862
28.02417	94243
28.03230	105127
28.04042	111984
28.04855	112718
28.05667	111234
28.06478	94415
28.07292	89827
28.08103	78356
28.08917	74170
28.09728	74652
28.10540	78004
28.11353	75579
28.12165	74716
28.12977	68006
28.13790	65579
28.14602	60761
28.15415	55809
28.16227	56931
28.17038	56273
28.17852	54144
28.18663	58412
28.19477	65428
28.20288	56790
28.21100	59225
28.21913	57962
28.22725	64367
28.23537	61100
28.24350	58248
28.25162	68137
28.25975	85193
28.26787	109932
28.27598	149791
28.28412	202000
28.29223	274147
28.30037	328040
28.30848	387919
28.31660	429268
28.32473	442125
28.33285	446122
28.34098	426203
28.34910	395119
28.35722	342967
28.36535	308738
28.37347	275435
28.38158	238839
28.38972	220158
28.39783	188289
28.40597	166531
28.41408	146571
28.42220	133672
28.43033	121767
28.43845	118644
28.44658	103771
28.45470	103776
28.46282	102115
28.47095	97950
28.47907	88956
28.48720	95447
28.49532	93858
28.50343	82917
28.51157	88612
28.51968	80886
28.52780	75175
28.53593	75842
28.54405	77733
28.55218	76975
28.56030	73239
28.56842	65463
28.57655	66199
28.58467	68641
28.59280	68552
28.60092	68414
28.60903	65583
28.61717	69298
28.62528	67560
28.63340	68664
28.64153	70207
28.64965	72266
28.65778	71439
28.66590	67474
28.67402	70067
28.68215	72245
28.69027	66664
28.69840	70044
28.70652	89986
28.71463	94725
28.72277	109340
28.73088	108791
28.73902	104408
28.74713	86469
28.75525	71183
28.76338	66173
28.77150	59905
28.77962	58078
28.78775	56070
28.79587	59044
28.80400	61175
28.81212	60248
28.82023	58634
28.82837	61105
28.83648	57769
28.84462	54719
28.85273	56833
28.86085	61097
28.86898	59007
28.87710	60951
28.88523	59637
28.89335	60596
28.90147	63398
28.90960	60767
28.91772	63591
28.92583	58922
28.93397	54243
28.94208	63624
28.95022	53907
28.95833	56595
28.96645	55902
28.97458	58036
28.98270	55830
28.99083	55685
28.99895	51027
29.00707	52293
29.01520	53997
29.02332	53311
29.03143	56522
29.03957	56273
29.04768	56688
29.05582	49571
29.06393	52162
29.07205	56590
29.08018	52321
29.08830	53199
29.09643	56798
29.10455	48824
29.11267	48096
29.12080	46513
29.12892	49840
29.13705	50266
29.14517	47994
29.15328	49613
29.16142	49565
29.16953	50905
29.17765	53136
29.18578	56805
29.19390	61253
29.20203	65401
29.21015	68251
29.21827	71492
29.22640	73562
29.23452	69804
29.24265	74687
29.25077	76335
29.25888	76404
29.26702	71629
29.27513	71680
29.28325	66631
29.29138	60705
29.29950	57906
29.30763	50501
29.31575	55162
29.32387	55742
29.33200	49087
29.34012	49714
29.34825	50238
29.35637	47806
29.36448	49144
29.37262	47974
29.38073	51278
29.38887	45631
29.39698	58420
29.40510	48494
29.41323	50866
29.42135	51811
29.42947	52252
29.43760	48892
29.44572	46344
29.45385	52369
29.46197	49599
29.47008	49635
29.47822	52303
29.48633	44692
29.49447	50136
29.50258	50837
29.51070	48732
29.51883	54360
29.52695	48559
29.53508	47795
29.54320	48591
29.55132	46491
29.55945	49470
29.56757	55648
29.57568	57339
29.58382	63141
29.59193	63492
29.60007	66686
29.60818	61478
29.61630	57169
29.62443	51765
29.63255	52788
29.64068	49410
29.64880	48013
29.65692	47277
29.66505	44512
29.67317	58289
29.68128	52066
29.68942	52661
29.69753	49418
29.70567	51183
29.71378	54146
29.72190	47898
29.73003	47460
29.73815	46571
29.74628	47213
29.75440	45791
29.76252	45790
29.77065	51431
29.77877	48436
29.78690	49843
29.79502	49422
29.80313	48593
29.81127	55478
29.81938	48102
29.82750	50086
29.83563	49275
29.84375	49800
29.85188	52623
29.86000	55199
29.86812	58507
29.87625	68174
29.88437	80631
29.89250	102265
29.90062	116745
29.90873	132634
29.91687	147990
29.92498	160514
29.93312	178274
29.94123	183065
29.94935	192697
29.95748	200943
29.96560	199036
29.97372	209472
29.98185	205244
29.98997	194236
29.99810	183461
30.00622	177240
30.01433	159591
30.02247	142874
30.03058	136962
30.03872	128942
30.04683	118622
30.05495	109513
30.06308	105808
30.07120	98850
30.07932	98917
30.08745	91938
30.09557	85585
30.10370	81597
30.11182	76371
30.11993	75304
30.12807	71483
30.13618	69653
30.14432	75328
30.15243	76226
30.16055	75408
30.16868	73806
30.17680	76012
30.18493	73524
30.19305	70337
30.20117	70903
30.20930	70493
30.21742	64691
30.22553	61335
30.23367	58783
30.24178	56892
30.24992	57261
30.25803	55746
30.26615	55356
30.27428	56803
30.28240	57739
30.29053	54043
30.29865	55418
30.30677	58166
30.31490	61223
30.32302	56630
30.33113	52674
30.33927	54485
30.34738	51846
30.35552	57170
30.36363	55086
30.37175	53584
30.37988	55554
30.38800	52550
30.39613	50899
30.40425	50195
30.41237	49250
30.42050	55024
30.42862	51252
30.43675	51264
30.44487	51619
30.45298	50481
30.46112	49430
30.46923	48785
30.47735	50682
30.48548	50328
30.49360	50681
30.50173	54090
30.50985	51754
30.51797	51955
30.52610	49679
30.53422	49859
30.54235	51809
30.55047	49688
30.55858	51546
30.56672	47347
30.57483	49847
30.58297	50576
30.59108	48737
30.59920	49065
30.60733	46837
30.61545	51491
30.62357	48975
30.63170	52572
30.63982	52688
30.64795	46541
30.65607	51614
30.66418	48030
30.67232	44030
30.68043	47871
30.68857	46557
30.69668	47027
30.70480	46367
30.71293	48245
30.72105	45241
30.72917	45848
30.73730	44806
30.74542	50579
30.75355	46168
30.76167	48693
30.76978	53560
30.77792	53709
30.78603	60925
30.79417	64659
30.80228	67778
30.81040	68816
30.81853	66484
30.82665	65476
30.83478	54721
30.84290	56492
30.85102	54792
30.85915	51516
30.86727	51631
30.87538	51355
30.88352	51448
30.89163	50683
30.89977	49763
30.90788	49502
30.91600	46845
30.92413	47271
30.93225	49154
30.94038	44083
30.94850	50489
30.95662	49633
30.96475	49670
30.97287	47250
30.98100	49415
30.98912	47244
30.99723	44524
31.00537	46404
31.01348	46955
31.02160	46284
31.02973	48284
31.03785	51257
31.04598	48089
31.05410	50775
31.06222	50609
31.07035	52159
31.07847	58495
31.08660	60418
31.09472	63077
31.10283	60766
31.11097	64032
31.11908	60020
31.12720	55984
31.13533	52588
31.14345	51599
31.15158	55880
31.15970	57035
31.16782	71069
31.17595	83673
31.18407	103515
31.19220	135046
31.20032	165281
31.20843	186589
31.21657	190447
31.22468	182833
31.23282	146670
31.24093	111779
31.24905	90723
31.25718	69753
31.26530	60840
31.27342	53287
31.28155	52452
31.28967	48051
31.29780	50971
31.30592	54194
31.31403	49299
31.32217	47256
31.33028	47871
31.33842	49418
31.34653	52346
31.35465	50787
31.36278	53224
31.37090	55854
31.37902	52723
31.38715	53115
31.39527	49744
31.40340	48743
31.41152	51451
31.41963	48577
31.42777	48699
31.43588	50016
31.44402	49187
31.45213	50571
31.46025	48213
31.46838	50519
31.47650	51921
31.48463	49054
31.49275	52788
31.50087	53772
31.50900	51027
31.51712	51192
31.52523	55284
31.53337	55806
31.54148	52510
31.54962	54888
31.55773	51512
31.56585	52633
31.57398	51662
31.58210	50684
31.59023	48443
31.59835	43714
31.60647	52754
31.61460	54929
31.62272	48361
31.63085	47468
31.63897	53413
31.64708	52287
31.65522	56176
31.66333	52589
31.67145	55742
31.67958	67110
31.68770	69403
31.69583	65938
31.70395	66341
31.71207	61177
31.72020	53934
31.72832	56332
31.73645	49788
31.74457	53828
31.75268	49987
31.76082	50523
31.76893	50049
31.77707	51435
31.78518	46345
31.79330	51953
31.80143	51881
31.80955	51864
31.81767	48080
31.82580	56727
31.83392	60759
31.84205	66358
31.85017	77189
31.85828	89301
31.86642	104666
31.87453	116381
31.88267	129172
31.89078	136137
31.89890	135015
31.90703	142939
31.91515	142354
31.92327	137412
31.93140	131004
31.93952	124842
31.94765	115725
31.95577	112275
31.96388	103084
31.97202	97376
31.98013	91306
31.98827	87795
31.99638	90649
32.00450	89398
32.01263	85617
32.02075	77048
32.02888	75012
32.03700	76792
32.04512	69129
32.05325	69459
32.06137	69209
32.06948	73272
32.07762	59616
32.08573	60595
32.09387	61323
32.10198	59506
32.11010	59571
32.11823	58135
32.12635	57823
32.13448	57535
32.14260	56148
32.15072	56838
32.15885	59202
32.16697	56269
32.17508	56942
32.18322	52525
32.19133	55969
32.19947	55385
32.20758	53676
32.21570	55121
32.22383	56359
32.23195	54878
32.24008	53811
32.24820	52473
32.25632	55344
32.26445	57556
32.27257	62244
32.28070	61091
32.28882	53553
32.29693	55293
32.30507	52668
32.31318	51250
32.32130	48107
32.32943	54337
32.33755	57200
32.34568	51360
32.35380	54222
32.36192	52264
32.37005	50765
32.37817	50410
32.38630	54707
32.39442	53550
32.40253	51587
32.41067	49395
32.41878	48883
32.42692	48373
32.43503	50021
32.44315	49605
32.45128	51229
32.45940	49928
32.46752	49323
32.47565	47706
32.48377	50475
32.49190	47392
32.50002	51370
32.50813	51670
32.51627	48416
32.52438	55521
32.53252	49133
32.54063	49081
32.54875	50681
32.55688	52808
32.56500	51512
32.57312	54148
32.58125	55931
32.58937	56062
32.59750	65423
32.60562	77146
32.61373	75281
32.62187	84224
32.62998	73352
32.63812	72986
32.64623	57414
32.65435	57490
32.66248	54260
32.67060	57236
32.67873	52726
32.68685	53684
32.69497	53789
32.70310	56967
32.71122	52845
32.71933	55497
32.72747	54717
32.73558	56447
32.74372	56341
32.75183	52922
32.75995	52021
32.76808	49118
32.77620	48741
32.78433	49841
32.79245	49853
32.80057	50756
32.80870	51252
32.81682	55875
32.82495	48945
32.83307	50171
32.84118	51895
32.84932	52685
32.85743	52062
32.86555	57520
32.87368	57701
32.88180	60371
32.88993	69118
32.89805	69254
32.90617	71443
32.91430	63788
32.92242	61382
32.93055	61296
32.93867	55162
32.94678	52086
32.95492	57617
32.96303	54355
32.97115	58670
32.97928	59743
32.98740	65865
32.99553	67149
33.00365	71711
33.01177	69090
33.01990	64978
33.02802	60243
33.03615	57368
33.04427	54395
33.05238	54490
33.06052	54969
33.06863	63272
33.07677	61399
33.08488	65836
33.09300	69772
33.10113	68159
33.10925	71259
33.11737	74829
33.12550	72948
33.13362	66404
33.14175	65832
33.14987	62752
33.15798	61996
33.16612	59143
33.17423	56313
33.18237	50307
33.19048	53838
33.19860	51246
33.20673	51428
33.21485	50835
33.22297	50129
33.23110	53677
33.23922	55347
33.24735	53881
33.25547	51760
33.26358	57705
33.27172	54655
33.27983	52611
33.28797	54927
33.29608	54339
33.30420	53619
33.31233	52258
33.32045	57479
33.32858	55228
33.33670	55957
33.34482	50300
33.35295	54899
33.36107	56006
33.36918	52637
33.37732	57746
33.38543	54630
33.39357	50386
33.40168	54521
33.40980	50495
33.41793	52913
33.42605	50233
33.43418	53133
33.44230	48937
33.45042	51546
33.45855	51113
33.46667	53135
33.47480	52761
33.48292	53191
33.49103	55477
33.49917	53938
33.50728	54460
33.51540	56649
33.52353	55346
33.53165	57947
33.53978	51652
33.54790	52634
33.55602	59483
33.56415	57587
33.57227	54347
33.58040	57874
33.58852	54234
33.59663	50452
33.60477	52128
33.61288	55482
33.62100	52562
33.62913	54857
33.63725	54324
33.64538	57983
33.65350	55523
33.66162	54632
33.66975	50905
33.67787	53815
33.68600	53020
33.69412	53356
33.70223	47658
33.71037	52057
33.71848	54971
33.72662	56764
33.73473	54992
33.74285	52297
33.75098	54489
33.75910	57978
33.76722	53745
33.77535	55221
33.78347	56151
33.79160	59099
33.79972	56425
33.80783	55471
33.81597	57728
33.82408	54094
33.83222	60526
33.84033	61402
33.84845	62765
33.85658	62204
33.86470	65170
33.87283	71424
33.88095	74002
33.88907	74105
33.89720	79494
33.90532	79427
33.91343	83292
33.92157	82646
33.92968	82763
33.93782	88675
33.94593	81499
33.95405	88016
33.96218	90682
33.97030	90364
33.97843	87607
33.98655	86664
33.99467	86675
34.00280	86826
34.01092	80526
34.01903	77558
34.02717	81047
34.03528	74637
34.04342	75313
34.05153	71334
34.05965	71293
34.06778	68028
34.07590	74430
34.08403	67912
34.09215	68428
34.10027	69074
34.10840	62078
34.11652	60454
34.12465	66658
34.13277	64869
34.14088	59713
34.14902	58677
34.15713	61718
34.16525	60091
34.17338	60333
34.18150	68358
34.18963	57865
34.19775	59509
34.20587	58107
34.21400	62589
34.22212	58121
34.23025	61908
34.23837	56333
34.24648	59228
34.25462	56419
34.26273	54979
34.27087	55957
34.27898	62716
34.28710	63223
34.29523	64408
34.30335	56406
34.31147	59246
34.31960	57646
34.32772	58638
34.33585	54447
34.34397	58544
34.35208	60746
34.36022	57540
34.36833	58296
34.37647	61320
34.38458	59897
34.39270	58873
34.40083	57447
34.40895	56885
34.41707	57536
34.42520	59347
34.43332	60535
34.44145	58664
34.44957	68117
34.45768	81330
34.46582	89912
34.47393	110287
34.48207	124824
34.49018	134472
34.49830	137919
34.50643	143807
34.51455	141609
34.52268	131666
34.53080	121705
34.53892	115213
34.54705	103911
34.55517	98274
34.56328	93295
34.57142	88071
34.57953	83073
34.58767	80369
34.59578	84874
34.60390	82779
34.61203	81495
34.62015	79544
34.62828	81183
34.63640	76988
34.64452	79731
34.65265	84307
34.66077	79032
34.66888	77833
34.67702	76728
34.68513	78866
34.69327	77164
34.70138	74191
34.70950	76539
34.71763	75495
34.72575	75527
34.73388	74980
34.74200	75255
34.75012	77200
34.75825	76438
34.76637	75750
34.77450	76564
34.78262	75904
34.79073	72088
34.79887	71886
34.80698	74247
34.81510	75154
34.82323	70143
34.83135	67572
34.83948	72787
34.84760	70508
34.85572	67143
34.86385	67983
34.87197	67966
34.88010	65787
34.88822	66608
34.89633	64964
34.90447	70766
34.91258	68817
34.92072	68866
34.92883	72009
34.93695	71928
34.94508	68091
34.95320	70961
34.96132	71299
34.96945	68178
34.97757	71257
34.98570	65179
34.99382	66688
35.00193	69162
35.01007	62723
35.01818	64089
35.02632	63694
35.03443	62038
35.04255	64498
35.05068	60992
35.05880	67342
35.06692	67534
35.07505	64430
35.08317	64122
35.09130	65648
35.09942	63334
35.10753	70357
35.11567	62024
35.12378	67683
35.13192	65435
35.14003	60060
35.14815	63840
35.15628	69469
35.16440	67529
35.17253	64129
35.18065	64517
35.18877	63431
35.19690	66205
35.20502	67813
35.21313	71080
35.22127	70537
35.22938	66800
35.23752	69638
35.24563	64956
35.25375	64227
35.26188	65680
35.27000	65239
35.27813	65026
35.28625	71568
35.29437	70205
35.30250	68773
35.31062	67274
35.31875	65152
35.32687	71205
35.33498	72234
35.34312	61642
35.35123	63411
35.35935	72087
35.36748	70687
35.37560	72826
35.38373	79780
35.39185	82859
35.39997	86391
35.40810	92931
35.41622	99028
35.42435	101289
35.43247	103887
35.44058	95413
35.44872	86970
35.45683	82332
35.46495	78962
35.47308	78992
35.48120	72623
35.48933	65760
35.49745	74847
35.50557	68544
35.51370	67198
35.52182	69591
35.52995	67759
35.53807	71487
35.54618	70027
35.55432	69464
35.56243	73564
35.57057	68510
35.57868	70843
35.58680	69254
35.59493	66968
35.60305	67343
35.61117	68913
35.61930	73851
35.62742	77060
35.63555	70866
35.64367	74271
35.65178	70070
35.65992	65291
35.66803	66767
35.67617	71844
35.68428	71432
35.69240	65769
35.70053	66754
35.70865	63941
35.71677	67487
35.72490	68147
35.73302	69442
35.74115	70529
35.74927	76648
35.75738	73338
35.76552	73071
35.77363	70852
35.78177	67751
35.78988	75390
35.79800	71357
35.80613	71129
35.81425	71637
35.82238	74361
35.83050	68935
35.83862	72255
35.84675	74245
35.85487	78447
35.86298	68624
35.87112	71296
35.87923	69988
35.88737	68916
35.89548	73127
35.90360	71286
35.91173	69164
35.91985	71597
35.92798	72771
35.93610	68229
35.94422	65982
35.95235	72308
35.96047	70664
35.96860	70764
35.97672	73142
35.98483	74762
35.99297	73695
36.00108	77008
36.00920	73219
36.01733	72741
36.02545	74828
36.03358	76983
36.04170	74742
36.04982	74697
36.05795	71761
36.06607	71500
36.07420	68494
36.08232	72886
36.09043	69578
36.09857	75226
36.10668	75113
36.11482	73498
36.12293	71009
36.13105	72398
36.13918	71315
36.14730	75034
36.15542	69844
36.16355	74068
36.17167	73189
36.17980	68207
36.18792	75839
36.19603	71124
36.20417	71690
36.21228	67196
36.22042	72774
36.22853	75227
36.23665	87302
36.24478	88229
36.25290	97882
36.26102	107058
36.26915	105488
36.27727	94764
36.28540	88959
36.29352	87593
36.30163	79747
36.30977	79184
36.31788	73873
36.32602	69653
36.33413	73041
36.34225	78156
36.35038	77114
36.35850	72900
36.36663	74473
36.37475	78964
36.38287	74496
36.39100	75932
36.39912	73345
36.40723	76032
36.41537	76881
36.42348	87241
36.43162	74013
36.43973	74481
36.44785	75739
36.45598	72150
36.46410	74147
36.47223	78691
36.48035	73922
36.48847	70916
36.49660	67544
36.50472	73394
36.51283	74472
36.52097	70760
36.52908	76413
36.53722	75512
36.54533	72489
36.55345	77160
36.56158	77225
36.56970	77624
36.57783	75212
36.58595	77763
36.59407	76159
36.60220	74475
36.61032	82005
36.61845	75000
36.62657	79864
36.63468	75298
36.64282	77506
36.65093	84703
36.65905	75696
36.66718	77035
36.67530	78423
36.68343	80961
36.69155	74861
36.69967	77992
36.70780	77960
36.71592	77716
36.72405	76146
36.73217	79800
36.74028	78400
36.74842	75627
36.75653	77769
36.76467	78778
36.77278	76253
36.78090	75781
36.78903	77606
36.79715	76227
36.80527	79411
36.81340	71088
36.82152	79638
36.82965	79834
36.83777	79649
36.84588	81550
36.85402	77257
36.86213	79452
36.87027	81063
36.87838	80706
36.88650	81329
36.89463	78101
36.90275	76835
36.91087	79817
36.91900	78394
36.92712	77803
36.93525	81764
36.94337	88775
36.95148	84268
36.95962	90893
36.96773	88172
36.97587	89092
36.98398	90646
36.99210	92855
37.00023	106562
37.00835	116167
37.01648	133891
37.02460	148054
37.03272	156529
37.04085	141310
37.04897	127415
37.05708	111683
37.06522	100301
37.07333	93452
37.08147	91663
37.08958	84465
37.09770	86032
37.10583	85016
37.11395	86251
37.12208	84069
37.13020	80923
37.13832	81995
37.14645	83449
37.15457	86586
37.16270	85617
37.17082	91167
37.17893	83381
37.18707	90899
37.19518	83333
37.20330	85628
37.21143	82697
37.21955	85833
37.22768	81491
37.23580	83827
37.24392	84775
37.25205	88929
37.26017	95966
37.26830	111463
37.27642	131530
37.28453	144509
37.29267	153313
37.30078	155766
37.30890	152581
37.31703	151559
37.32515	147646
37.33328	132736
37.34140	120416
37.34952	116592
37.35765	112956
37.36577	109971
37.37390	104425
37.38202	99641
37.39013	98425
37.39827	99512
37.40638	101522
37.41452	96923
37.42263	94002
37.43075	99455
37.43888	97566
37.44700	94362
37.45512	94898
37.46325	93437
37.47137	95506
37.47950	98689
37.48762	96336
