C:\MassHunter\GCMS\1\data\JTB-E02\BACandBLUE\JTB-E18-012-12.D Wed Jun 19 12:29:36 2019
Start of data points
2.09515	53869
2.10328	52131
2.11140	54812
2.11952	50580
2.12765	54499
2.13577	55809
2.14390	52896
2.15202	54934
2.16013	53228
2.16827	47901
2.17638	48753
2.18452	47832
2.19263	47339
2.20075	51450
2.20888	45914
2.21700	44149
2.22512	47569
2.23325	43850
2.24137	46250
2.24950	44177
2.25762	84869
2.26573	406772
2.27387	629023
2.28198	669813
2.29012	500000
2.29823	301568
2.30635	219943
2.31448	191918
2.32260	168910
2.33072	153714
2.33885	142427
2.34697	134149
2.35510	125448
2.36322	115374
2.37133	112774
2.37947	111426
2.38758	107822
2.39572	104830
2.40383	102023
2.41195	106592
2.42008	107822
2.42820	104770
2.43633	99970
2.44445	96826
2.45257	101636
2.46070	92178
2.46882	91871
2.47693	98690
2.48507	112941
2.49318	132317
2.50132	125423
2.50943	110373
2.51755	98917
2.52568	100181
2.53380	95678
2.54193	104978
2.55005	137124
2.55817	174659
2.56630	185359
2.57442	155008
2.58255	130680
2.59067	127852
2.59878	296200
2.60692	622410
2.61503	851102
2.62315	703661
2.63128	439266
2.63940	298495
2.64753	229604
2.65565	197939
2.66377	165740
2.67190	150524
2.68002	140054
2.68815	125022
2.69627	117127
2.70438	114129
2.71252	114103
2.72063	115051
2.72875	108748
2.73688	104554
2.74500	98736
2.75313	105813
2.76125	100835
2.76937	122190
2.77750	197907
2.78562	280818
2.79375	285645
2.80187	221603
2.80998	173786
2.81812	168630
2.82623	165010
2.83437	158150
2.84248	143107
2.85060	128533
2.85873	118357
2.86685	113695
2.87497	111194
2.88310	101991
2.89122	105574
2.89935	99339
2.90747	96760
2.91558	95328
2.92372	92053
2.93183	87472
2.93997	91444
2.94808	93244
2.95620	93917
2.96433	99861
2.97245	103466
2.98057	95172
2.98870	92523
2.99682	92453
3.00495	96293
3.01307	93139
3.02118	94176
3.02932	86828
3.03743	83989
3.04557	82595
3.05368	86090
3.06180	89050
3.06993	147215
3.07805	582950
3.08618	1709057
3.09430	3073588
3.10242	4198555
3.11055	4557330
3.11867	3940603
3.12678	2705307
3.13492	1872271
3.14303	1420761
3.15117	1148393
3.15928	957499
3.16740	830806
3.17553	782863
3.18365	870297
3.19178	1057898
3.19990	1110139
3.20802	935713
3.21615	740139
3.22427	620105
3.23240	545946
3.24052	485875
3.24863	439099
3.25677	395193
3.26488	361507
3.27300	362431
3.28113	565687
3.28925	1643922
3.29738	4285729
3.30550	7218233
3.31362	7925908
3.32175	6317186
3.32987	4277830
3.33800	2938217
3.34612	2191371
3.35423	1766449
3.36237	1449886
3.37048	1235014
3.37860	1079224
3.38673	975702
3.39485	862063
3.40298	774689
3.41110	719214
3.41922	668230
3.42735	633884
3.43547	593395
3.44360	565425
3.45172	549981
3.45983	536833
3.46797	549396
3.47608	533530
3.48422	503202
3.49233	479222
3.50045	463667
3.50858	434904
3.51670	423994
3.52482	411756
3.53295	415018
3.54107	414074
3.54920	393475
3.55732	392531
3.56543	394252
3.57357	418197
3.58168	429223
3.58982	401066
3.59793	377701
3.60605	370471
3.61418	363749
3.62230	375984
3.63043	384775
3.63855	376448
3.64667	387346
3.65480	523321
3.66292	1548345
3.67103	4225627
3.67917	6815851
3.68728	6882854
3.69542	4923781
3.70353	3147234
3.71165	2299198
3.71978	1855371
3.72790	1587706
3.73603	1380207
3.74415	1246032
3.75227	1155007
3.76040	1051464
3.76852	979323
3.77663	920285
3.78477	872169
3.79288	876096
3.80102	1089454
3.80913	1535550
3.81725	1899975
3.82538	1843400
3.83350	1466545
3.84163	1160785
3.84975	988556
3.85787	872405
3.86600	805709
3.87412	750180
3.88225	717774
3.89037	676767
3.89848	636038
3.90662	629194
3.91473	661406
3.92285	718318
3.93098	748609
3.93910	876489
3.94723	1711699
3.95535	3927478
3.96347	6447358
3.97160	7157333
3.97972	5700967
3.98785	4401987
3.99597	7011457
4.00408	1.548892E+07
4.01222	2.47668E+07
4.02033	2.709587E+07
4.02845	2.120219E+07
4.03658	1.272574E+07
4.04470	7421046
4.05283	4931322
4.06095	3673612
4.06907	2887535
4.07720	2386763
4.08532	2026346
4.09345	1747141
4.10157	1536275
4.10968	1387488
4.11782	1257177
4.12593	1164478
4.13407	1111834
4.14218	1093664
4.15030	1071710
4.15843	1019857
4.16655	976395
4.17467	923050
4.18280	870610
4.19092	813953
4.19905	869549
4.20717	1452911
4.21528	3611835
4.22342	7398992
4.23153	1.090831E+07
4.23967	1.212963E+07
4.24778	1.044337E+07
4.25590	7309012
4.26403	4849065
4.27215	3520750
4.28028	2717700
4.28840	2205811
4.29652	1834570
4.30465	1580202
4.31277	1382719
4.32088	1257094
4.32902	1142141
4.33713	1064484
4.34527	1000896
4.35338	960558
4.36150	948427
4.36963	911662
4.37775	849544
4.38588	808795
4.39400	743976
4.40212	713575
4.41025	676026
4.41837	653277
4.42648	627248
4.43462	609434
4.44273	586560
4.45087	572158
4.45898	554037
4.46710	534317
4.47523	531321
4.48335	513520
4.49148	501817
4.49960	486358
4.50772	481057
4.51585	473869
4.52397	473455
4.53210	443477
4.54022	460302
4.54833	448464
4.55647	436627
4.56458	436406
4.57270	406075
4.58083	409357
4.58895	397009
4.59708	388675
4.60520	377842
4.61332	384443
4.62145	414486
4.62957	489611
4.63770	594261
4.64582	641257
4.65393	589950
4.66207	521146
4.67018	453838
4.67832	429835
4.68643	403785
4.69455	392071
4.70268	374032
4.71080	367743
4.71892	367274
4.72705	361149
4.73517	354178
4.74330	347254
4.75142	334120
4.75953	318914
4.76767	318333
4.77578	327614
4.78392	393733
4.79203	612605
4.80015	1011809
4.80828	1334248
4.81640	1304769
4.82452	1015951
4.83265	793520
4.84077	681356
4.84890	634937
4.85702	578689
4.86513	518832
4.87327	487029
4.88138	447419
4.88952	423461
4.89763	395534
4.90575	382331
4.91388	382930
4.92200	390081
4.93013	496012
4.93825	968183
4.94637	2097184
4.95450	3773517
4.96262	5149467
4.97073	5194229
4.97887	4231431
4.98698	3030016
4.99512	2089401
5.00323	1532031
5.01135	1221550
5.01948	1034297
5.02760	926050
5.03573	905047
5.04385	877112
5.05197	824337
5.06010	738826
5.06822	666302
5.07635	616235
5.08447	579569
5.09258	540659
5.10072	540081
5.10883	511878
5.11695	496170
5.12508	464534
5.13320	452323
5.14133	440971
5.14945	467431
5.15757	490875
5.16570	516027
5.17382	523602
5.18195	501486
5.19007	468385
5.19818	456415
5.20632	467900
5.21443	468264
5.22255	460012
5.23068	448375
5.23880	431666
5.24693	429521
5.25505	407991
5.26317	383700
5.27130	363029
5.27942	352691
5.28755	338612
5.29567	325652
5.30378	328144
5.31192	327785
5.32003	328870
5.32817	337124
5.33628	358054
5.34440	374155
5.35253	358078
5.36065	345332
5.36877	327492
5.37690	331738
5.38502	323377
5.39315	330438
5.40127	333671
5.40938	319361
5.41752	309062
5.42563	301629
5.43377	310448
5.44188	297559
5.45000	298704
5.45813	309950
5.46625	311638
5.47437	302984
5.48250	290161
5.49062	279474
5.49875	268400
5.50687	276326
5.51498	282721
5.52312	279897
5.53123	283637
5.53937	274504
5.54748	281819
5.55560	295023
5.56373	329849
5.57185	370317
5.57998	383606
5.58810	360401
5.59622	329433
5.60435	290081
5.61247	275169
5.62058	275599
5.62872	282013
5.63683	284177
5.64497	296507
5.65308	297482
5.66120	274249
5.66933	266919
5.67745	279186
5.68558	293779
5.69370	321495
5.70182	315457
5.70995	310135
5.71807	284977
5.72620	268105
5.73432	249470
5.74243	253992
5.75057	239016
5.75868	237522
5.76680	238994
5.77493	232195
5.78305	239353
5.79118	239292
5.79930	224885
5.80742	220594
5.81555	226422
5.82367	230947
5.83180	218782
5.83992	236935
5.84803	238992
5.85617	225489
5.86428	225003
5.87240	224292
5.88053	220915
5.88865	226123
5.89678	211130
5.90490	209697
5.91302	187192
5.92115	179289
5.92927	171342
5.93740	168717
5.94552	170246
5.95363	186262
5.96177	205017
5.96988	233290
5.97802	264983
5.98613	292440
5.99425	303165
6.00238	286863
6.01050	265489
6.01862	238666
6.02675	220535
6.03487	207961
6.04300	196763
6.05112	176471
6.05923	164447
6.06737	158867
6.07548	157382
6.08362	163134
6.09173	155489
6.09985	173371
6.10798	190527
6.11610	205078
6.12423	232144
6.13235	287081
6.14047	378046
6.14860	417220
6.15672	399206
6.16483	328634
6.17297	276338
6.18108	235055
6.18922	215591
6.19733	209944
6.20545	222240
6.21358	218486
6.22170	207971
6.22983	199287
6.23795	189816
6.24607	189740
6.25420	197084
6.26232	200368
6.27043	194616
6.27857	192770
6.28668	194148
6.29482	192853
6.30293	187261
6.31105	195277
6.31918	219592
6.32730	255486
6.33543	334115
6.34355	371975
6.35167	352731
6.35980	304300
6.36792	253307
6.37605	230957
6.38417	215978
6.39228	211976
6.40042	206283
6.40853	204972
6.41665	207167
6.42478	205724
6.43290	193625
6.44103	198784
6.44915	200372
6.45727	195890
6.46540	197360
6.47352	197713
6.48165	204117
6.48977	196238
6.49788	200612
6.50602	197956
6.51413	200237
6.52225	208871
6.53038	195475
6.53850	197328
6.54663	200107
6.55475	202284
6.56287	218105
6.57100	238691
6.57912	264184
6.58725	288648
6.59537	268692
6.60348	248102
6.61162	240652
6.61973	223869
6.62787	211470
6.63598	223561
6.64410	246514
6.65223	323682
6.66035	514838
6.66847	743574
6.67660	842874
6.68472	724731
6.69285	547843
6.70097	397893
6.70908	328282
6.71722	283915
6.72533	239346
6.73347	223011
6.74158	212709
6.74970	203139
6.75783	194320
6.76595	184926
6.77408	175250
6.78220	168759
6.79032	161014
6.79845	164322
6.80657	154825
6.81468	152841
6.82282	149067
6.83093	148255
6.83907	154226
6.84718	166036
6.85530	191700
6.86343	204660
6.87155	206724
6.87968	187793
6.88780	152032
6.89592	128719
6.90405	111370
6.91217	101308
6.92030	96629
6.92842	94725
6.93653	95938
6.94467	93115
6.95278	91126
6.96090	97484
6.96903	105757
6.97715	117679
6.98528	127877
6.99340	128718
7.00152	113264
7.00965	105926
7.01777	101820
7.02590	94861
7.03402	94425
7.04213	90489
7.05027	87397
7.05838	93837
7.06650	99861
7.07463	105698
7.08275	98320
7.09088	92265
7.09900	92262
7.10712	91594
7.11525	83012
7.12337	83235
7.13150	91515
7.13962	115801
7.14773	179044
7.15587	243123
7.16398	313323
7.17212	337537
7.18023	292536
7.18835	224802
7.19648	229638
7.20460	383347
7.21272	777778
7.22085	1366079
7.22897	1743384
7.23710	1677480
7.24522	1243878
7.25333	798736
7.26147	486892
7.26958	305318
7.27772	194828
7.28583	138934
7.29395	121302
7.30208	111306
7.31020	113160
7.31832	106693
7.32645	114225
7.33457	112653
7.34270	118484
7.35082	111308
7.35893	102960
7.36707	107823
7.37518	102507
7.38332	99943
7.39143	99300
7.39955	102573
7.40768	103783
7.41580	101185
7.42393	102146
7.43205	98242
7.44017	97131
7.44830	98922
7.45642	93256
7.46453	96539
7.47267	84293
7.48078	89609
7.48892	85388
7.49703	82912
7.50515	82831
7.51328	83817
7.52140	100038
7.52953	118810
7.53765	178196
7.54577	257121
7.55390	378652
7.56202	460129
7.57015	478506
7.57827	448785
7.58638	362488
7.59452	267817
7.60263	201216
7.61075	150243
7.61888	125477
7.62700	108243
7.63513	99202
7.64325	94208
7.65137	85902
7.65950	89805
7.66762	83987
7.67575	82239
7.68387	76214
7.69198	76583
7.70012	74463
7.70823	76969
7.71635	72902
7.72448	81951
7.73260	71896
7.74073	79153
7.74885	75263
7.75697	84243
7.76510	85241
7.77322	96068
7.78135	89710
7.78947	95802
7.79758	99372
7.80572	108965
7.81383	107417
7.82197	99063
7.83008	92935
7.83820	87587
7.84633	79260
7.85445	76880
7.86257	78009
7.87070	85402
7.87882	84941
7.88695	91795
7.89507	91577
7.90318	92511
7.91132	87385
7.91943	84221
7.92757	88678
7.93568	101859
7.94380	124996
7.95193	119662
7.96005	119284
7.96818	107079
7.97630	95713
7.98442	86575
7.99255	76222
8.00067	72638
8.00878	69088
8.01692	69661
8.02503	64761
8.03317	67990
8.04128	71131
8.04940	67942
8.05753	64247
8.06565	62927
8.07378	59214
8.08190	64888
8.09002	58578
8.09815	63837
8.10627	61309
8.11438	65629
8.12252	66209
8.13063	73471
8.13877	82402
8.14688	89834
8.15500	101304
8.16313	95420
8.17125	83553
8.17938	75687
8.18750	71585
8.19562	65255
8.20375	59920
8.21187	63662
8.22000	66578
8.22812	61981
8.23623	62526
8.24437	66231
8.25248	63949
8.26060	59246
8.26873	63040
8.27685	54639
8.28498	59062
8.29310	57809
8.30122	63402
8.30935	59494
8.31747	64555
8.32560	69663
8.33372	68079
8.34183	65155
8.34997	63802
8.35808	65380
8.36620	61052
8.37433	62794
8.38245	62980
8.39058	64030
8.39870	63909
8.40682	61431
8.41495	59459
8.42307	53111
8.43120	51848
8.43932	55533
8.44743	50767
8.45557	50660
8.46368	52047
8.47182	52062
8.47993	53240
8.48805	55388
8.49618	54359
8.50430	54463
8.51242	70790
8.52055	103576
8.52867	186274
8.53680	307208
8.54492	399957
8.55303	414550
8.56117	329124
8.56928	217490
8.57742	139314
8.58553	108757
8.59365	109704
8.60178	120706
8.60990	143888
8.61803	145062
8.62615	131694
8.63427	104139
8.64240	86721
8.65052	74595
8.65863	69441
8.66677	63296
8.67488	69380
8.68302	66901
8.69113	65158
8.69925	71555
8.70738	70897
8.71550	69506
8.72363	63838
8.73175	63475
8.73987	62871
8.74800	75124
8.75612	152344
8.76423	352880
8.77237	738654
8.78048	1301571
8.78862	1725156
8.79673	1795125
8.80485	1453760
8.81298	970527
8.82110	588264
8.82923	397711
8.83735	316188
8.84547	278354
8.85360	271960
8.86172	241442
8.86985	219477
8.87797	203697
8.88608	187987
8.89422	172601
8.90233	166230
8.91045	161813
8.91858	160898
8.92670	157898
8.93483	167672
8.94295	177302
8.95107	174612
8.95920	166773
8.96732	155168
8.97545	151794
8.98357	143764
8.99168	144570
8.99982	142842
9.00793	132429
9.01607	123046
9.02418	124026
9.03230	114746
9.04043	105304
9.04855	106091
9.05667	103254
9.06480	102424
9.07292	101151
9.08105	104357
9.08917	108095
9.09728	110621
9.10542	123526
9.11353	138310
9.12167	142129
9.12978	138557
9.13790	132619
9.14603	122483
9.15415	111926
9.16227	104512
9.17040	104805
9.17852	95193
9.18665	94897
9.19477	97493
9.20288	94832
9.21102	92819
9.21913	91483
9.22727	89238
9.23538	90720
9.24350	96036
9.25163	92050
9.25975	88515
9.26788	82466
9.27600	87347
9.28412	87139
9.29225	88454
9.30037	82319
9.30848	80355
9.31662	84327
9.32473	81023
9.33287	79105
9.34098	76762
9.34910	75142
9.35723	76805
9.36535	74181
9.37348	77285
9.38160	76401
9.38972	75924
9.39785	78153
9.40597	78625
9.41408	89065
9.42222	96116
9.43033	106424
9.43847	112255
9.44658	113956
9.45470	114729
9.46283	101737
9.47095	96454
9.47908	84283
9.48720	80059
9.49532	77551
9.50345	83033
9.51157	93969
9.51970	113916
9.52782	121174
9.53593	123866
9.54407	115756
9.55218	105126
9.56030	91653
9.56843	84816
9.57655	77212
9.58468	69627
9.59280	65911
9.60092	63387
9.60905	65866
9.61717	58446
9.62530	54103
9.63342	54057
9.64153	51254
9.64967	47150
9.65778	48892
9.66592	49810
9.67403	51822
9.68215	47180
9.69028	51062
9.69840	54045
9.70652	48412
9.71465	46537
9.72277	43439
9.73090	45394
9.73902	49622
9.74713	47665
9.75527	49128
9.76338	42714
9.77152	41145
9.77963	44950
9.78775	39504
9.79588	42553
9.80400	41655
9.81212	41375
9.82025	42688
9.82837	44750
9.83650	42860
9.84462	40465
9.85273	48618
9.86087	52120
9.86898	53092
9.87712	50080
9.88523	47146
9.89335	47428
9.90148	44203
9.90960	47146
9.91773	51129
9.92585	62710
9.93397	86241
9.94210	134500
9.95022	198447
9.95833	244111
9.96647	252558
9.97458	220993
9.98272	169681
9.99083	132068
9.99895	103453
10.00708	89067
10.01520	85996
10.02333	79629
10.03145	74595
10.03957	70987
10.04770	71072
10.05582	61600
10.06395	62576
10.07207	60925
10.08018	62296
10.08832	60884
10.09643	63260
10.10455	60844
10.11268	58097
10.12080	55609
10.12893	58981
10.13705	55825
10.14517	46986
10.15330	56274
10.16142	52999
10.16955	53579
10.17767	51813
10.18578	46842
10.19392	48567
10.20203	48635
10.21015	49879
10.21828	52964
10.22640	52730
10.23453	55105
10.24265	57849
10.25077	72875
10.25890	112142
10.26702	228257
10.27515	542192
10.28327	1091398
10.29138	1793053
10.29952	2628233
10.30763	3752775
10.31577	5492511
10.32388	8020849
10.33200	1.026737E+07
10.34013	1.057368E+07
10.34825	8858508
10.35637	6305455
10.36450	4260595
10.37262	3032721
10.38075	2303887
10.38887	1654540
10.39698	1199747
10.40512	867897
10.41323	662498
10.42137	536422
10.42948	476614
10.43760	436316
10.44573	399395
10.45385	386494
10.46198	356447
10.47010	329253
10.47822	307306
10.48635	275149
10.49447	267612
10.50258	247016
10.51072	240277
10.51883	230846
10.52697	223137
10.53508	206080
10.54320	210166
10.55133	196892
10.55945	190431
10.56758	189842
10.57570	177447
10.58382	169435
10.59195	171782
10.60007	167229
10.60818	158210
10.61632	149944
10.62443	149356
10.63257	138662
10.64068	138335
10.64880	133663
10.65693	127772
10.66505	123543
10.67318	123429
10.68130	121207
10.68942	120942
10.69755	121821
10.70567	127772
10.71380	123259
10.72192	112823
10.73003	115764
10.73817	107916
10.74628	112216
10.75440	111120
10.76253	106529
10.77065	101534
10.77878	101206
10.78690	98836
10.79502	102231
10.80315	96128
10.81127	98403
10.81940	102308
10.82752	95799
10.83563	91657
10.84377	92331
10.85188	87271
10.86000	86850
10.86813	82142
10.87625	80441
10.88438	79138
10.89250	81718
10.90062	80564
10.90875	80847
10.91687	79167
10.92500	76432
10.93312	74059
10.94123	65645
10.94937	76358
10.95748	77428
10.96562	74245
10.97373	73034
10.98185	74117
10.98998	77839
10.99810	77767
11.00622	71533
11.01435	68799
11.02247	68432
11.03060	72299
11.03872	68755
11.04683	64142
11.05497	69299
11.06308	66350
11.07122	68718
11.07933	68797
11.08745	64027
11.09558	69309
11.10370	67192
11.11183	65620
11.11995	64548
11.12807	62587
11.13620	58319
11.14432	59505
11.15243	60292
11.16057	58726
11.16868	57525
11.17682	60745
11.18493	57697
11.19305	66236
11.20118	64400
11.20930	62731
11.21743	55911
11.22555	56802
11.23367	55118
11.24180	52904
11.24992	47438
11.25803	48475
11.26617	45834
11.27428	45945
11.28242	48808
11.29053	43962
11.29865	54383
11.30678	65474
11.31490	95563
11.32303	157611
11.33115	234612
11.33927	323246
11.34740	391486
11.35552	389312
11.36365	327050
11.37177	245173
11.37988	174021
11.38802	144000
11.39613	115462
11.40425	102209
11.41238	94342
11.42050	93263
11.42863	84644
11.43675	80559
11.44487	77992
11.45300	71193
11.46112	67136
11.46925	69652
11.47737	70948
11.48548	87919
11.49362	100255
11.50173	108874
11.50987	111671
11.51798	111697
11.52610	102479
11.53423	93809
11.54235	80907
11.55047	77255
11.55860	76553
11.56672	70284
11.57485	69391
11.58297	71099
11.59108	74575
11.59922	89078
11.60733	114080
11.61547	134381
11.62358	143004
11.63170	134072
11.63983	116215
11.64795	97503
11.65607	82311
11.66420	71634
11.67232	69389
11.68045	71367
11.68857	68731
11.69668	67325
11.70482	67921
11.71293	75986
11.72107	71372
11.72918	71710
11.73730	60824
11.74543	57979
11.75355	56350
11.76168	57370
11.76980	52479
11.77792	56941
11.78605	55064
11.79417	50182
11.80228	47820
11.81042	52354
11.81853	48800
11.82667	50783
11.83478	56684
11.84290	53672
11.85103	51389
11.85915	48425
11.86728	48495
11.87540	48016
11.88352	52849
11.89165	46875
11.89977	43221
11.90788	49152
11.91602	46794
11.92413	56682
11.93227	61790
11.94038	60214
11.94850	56247
11.95663	52599
11.96475	54110
11.97288	72181
11.98100	132117
11.98912	265862
11.99725	479193
12.00537	740198
12.01350	878337
12.02162	848917
12.02973	672310
12.03787	471517
12.04598	305854
12.05410	210780
12.06223	167823
12.07035	140873
12.07848	118834
12.08660	116537
12.09472	116646
12.10285	107534
12.11097	109129
12.11910	113975
12.12722	123753
12.13533	120079
12.14347	127258
12.15158	119647
12.15972	111713
12.16783	98005
12.17595	91287
12.18408	80546
12.19220	84454
12.20032	77750
12.20845	76275
12.21657	80982
12.22470	72238
12.23282	75337
12.24093	82941
12.24907	73160
12.25718	75732
12.26532	77729
12.27343	68281
12.28155	67701
12.28968	68686
12.29780	67432
12.30593	62724
12.31405	64834
12.32217	61443
12.33030	63129
12.33842	61337
12.34653	64404
12.35467	61384
12.36278	59567
12.37092	61321
12.37903	62814
12.38715	62595
12.39528	76116
12.40340	76211
12.41153	93896
12.41965	98869
12.42777	107624
12.43590	107837
12.44402	96868
12.45213	91746
12.46027	79119
12.46838	78964
12.47652	68934
12.48463	72389
12.49275	69088
12.50088	62485
12.50900	62072
12.51713	64056
12.52525	83819
12.53337	143135
12.54150	271572
12.54962	530034
12.55775	834076
12.56587	1044293
12.57398	1014048
12.58212	809728
12.59023	539124
12.59835	327350
12.60648	212752
12.61460	153831
12.62273	131300
12.63085	115253
12.63897	106219
12.64710	105127
12.65522	91209
12.66335	85142
12.67147	87752
12.67958	77231
12.68772	75212
12.69583	70583
12.70395	63986
12.71208	62019
12.72020	70210
12.72833	66462
12.73645	69783
12.74457	73935
12.75270	73560
12.76082	70499
12.76895	64013
12.77707	61224
12.78518	55160
12.79332	50901
12.80143	55308
12.80957	50302
12.81768	48915
12.82580	50870
12.83393	50129
12.84205	48351
12.85017	47969
12.85830	44771
12.86642	47001
12.87455	43715
12.88267	45002
12.89078	45362
12.89892	41208
12.90703	44187
12.91517	43793
12.92328	40911
12.93140	44708
12.93953	51091
12.94765	62311
12.95578	94319
12.96390	166709
12.97202	267661
12.98015	360447
12.98827	394527
12.99638	354347
13.00452	261331
13.01263	171806
13.02077	120439
13.02888	95135
13.03700	76770
13.04513	73738
13.05325	62869
13.06138	62520
13.06950	59739
13.07762	58458
13.08575	57870
13.09387	55508
13.10198	55163
13.11012	51873
13.11823	52145
13.12637	52499
13.13448	49771
13.14260	51645
13.15073	47568
13.15885	46572
13.16698	49840
13.17510	46260
13.18322	51061
13.19135	54660
13.19947	54020
13.20760	52305
13.21572	51174
13.22383	54090
13.23197	54329
13.24008	52941
13.24820	51350
13.25633	47172
13.26445	45341
13.27258	46825
13.28070	45664
13.28882	41025
13.29695	41108
13.30507	40154
13.31320	42502
13.32132	40171
13.32943	41424
13.33757	38316
13.34568	39858
13.35382	41024
13.36193	36072
13.37005	41304
13.37818	40439
13.38630	35246
13.39442	37738
13.40255	39321
13.41067	37023
13.41880	38819
13.42692	38304
13.43503	37281
13.44317	38692
13.45128	39282
13.45942	37298
13.46753	37816
13.47565	35670
13.48378	37870
13.49190	38102
13.50002	39518
13.50815	40660
13.51627	38148
13.52440	38135
13.53252	41062
13.54063	38476
13.54877	33908
13.55688	38025
13.56502	36200
13.57313	38455
13.58125	35870
13.58938	45030
13.59750	42281
13.60563	47059
13.61375	48096
13.62187	49956
13.63000	50735
13.63812	49998
13.64623	44507
13.65437	40423
13.66248	37124
13.67062	34373
13.67873	34353
13.68685	36160
13.69498	33915
13.70310	43082
13.71123	34203
13.71935	40905
13.72747	48974
13.73560	86762
13.74372	202587
13.75183	502096
13.75997	1086868
13.76808	1896165
13.77622	2602769
13.78433	2918698
13.79245	2676160
13.80058	2006445
13.80870	1362184
13.81683	890746
13.82495	625139
13.83307	533818
13.84120	465967
13.84932	422539
13.85745	385942
13.86557	331389
13.87368	308491
13.88182	259698
13.88993	235754
13.89805	216868
13.90618	201688
13.91430	202346
13.92243	178756
13.93055	173718
13.93867	165524
13.94680	169095
13.95492	177287
13.96305	202811
13.97117	246724
13.97928	284806
13.98742	323132
13.99553	289497
14.00367	256662
14.01178	211466
14.01990	178458
14.02803	157465
14.03615	141644
14.04427	135798
14.05240	135608
14.06052	128914
14.06865	127163
14.07677	133819
14.08488	119494
14.09302	121103
14.10113	117283
14.10927	119295
14.11738	114495
14.12550	125528
14.13363	133525
14.14175	150308
14.14987	176391
14.15800	191324
14.16612	194942
14.17425	194307
14.18237	220615
14.19048	283776
14.19862	376928
14.20673	485860
14.21487	523996
14.22298	484258
14.23110	384888
14.23923	305596
14.24735	248829
14.25548	215661
14.26360	189550
14.27172	179715
14.27985	156503
14.28797	138529
14.29608	130488
14.30422	113155
14.31233	109472
14.32047	108114
14.32858	101023
14.33670	97529
14.34483	99201
14.35295	91274
14.36108	86716
14.36920	84479
14.37732	75667
14.38545	66354
14.39357	62594
14.40170	64127
14.40982	67532
14.41793	73491
14.42607	72263
14.43418	71503
14.44230	64239
14.45043	67334
14.45855	61553
14.46668	62171
14.47480	60381
14.48292	58342
14.49105	57762
14.49917	58224
14.50730	61029
14.51542	72133
14.52353	75795
14.53167	79490
14.53978	78871
14.54790	75590
14.55603	61128
14.56415	58202
14.57228	57179
14.58040	51991
14.58852	47739
14.59665	50844
14.60477	49758
14.61290	47580
14.62102	46596
14.62913	47018
14.63727	46185
14.64538	49042
14.65352	52288
14.66163	44953
14.66975	43106
14.67788	45093
14.68600	45612
14.69412	43215
14.70225	46870
14.71037	43938
14.71850	47796
14.72662	50722
14.73473	49712
14.74287	51884
14.75098	51966
14.75912	52565
14.76723	55584
14.77535	54843
14.78348	68403
14.79160	113918
14.79973	262910
14.80785	669963
14.81597	1467651
14.82410	2530514
14.83222	3466496
14.84033	3837106
14.84847	3445765
14.85658	2588632
14.86472	1669380
14.87283	1016439
14.88095	639533
14.88908	449699
14.89720	361412
14.90533	294304
14.91345	257892
14.92157	229451
14.92970	214294
14.93782	201859
14.94593	192934
14.95407	187452
14.96218	196871
14.97032	201969
14.97843	202717
14.98655	185046
14.99468	180108
15.00280	161693
15.01093	139848
15.01905	133568
15.02717	114421
15.03530	114204
15.04342	110411
15.05155	105421
15.05967	102532
15.06778	100902
15.07592	93023
15.08403	91877
15.09215	88003
15.10028	85251
15.10840	85402
15.11653	88646
15.12465	87812
15.13277	93847
15.14090	105189
15.14902	102168
15.15715	98550
15.16527	86655
15.17338	78114
15.18152	67238
15.18963	62820
15.19775	59562
15.20588	60394
15.21400	57449
15.22213	51021
15.23025	49996
15.23837	46706
15.24650	50871
15.25462	46186
15.26275	47984
15.27087	47613
15.27898	44366
15.28712	44438
15.29523	49032
15.30337	40897
15.31148	41864
15.31960	39921
15.32773	45094
15.33585	41362
15.34397	44231
15.35210	42912
15.36022	47379
15.36835	42184
15.37647	44581
15.38458	46973
15.39272	47520
15.40083	54725
15.40897	61777
15.41708	61868
15.42520	66481
15.43333	63568
15.44145	56471
15.44958	52723
15.45770	48613
15.46582	47994
15.47395	51147
15.48207	61462
15.49018	70121
15.49832	92408
15.50643	95323
15.51457	103889
15.52268	103748
15.53080	102711
15.53893	116234
15.54705	126827
15.55518	122860
15.56330	120816
15.57142	101405
15.57955	83141
15.58767	66380
15.59578	64972
15.60392	51889
15.61203	52567
15.62017	49596
15.62828	46442
15.63640	49365
15.64453	46488
15.65265	45296
15.66078	44808
15.66890	47163
15.67702	40348
15.68515	41224
15.69327	39821
15.70140	39823
15.70952	38409
15.71763	40065
15.72577	42591
15.73388	40453
15.74200	46436
15.75013	45852
15.75825	64343
15.76638	95627
15.77450	157122
15.78262	223657
15.79075	288163
15.79887	289272
15.80700	257751
15.81512	192810
15.82323	143378
15.83137	105989
15.83948	87345
15.84762	73139
15.85573	69166
15.86385	61974
15.87198	65858
15.88010	56766
15.88822	58716
15.89635	58621
15.90447	57130
15.91260	55039
15.92072	53169
15.92883	51153
15.93697	52055
15.94508	61929
15.95322	76754
15.96133	104950
15.96945	133860
15.97758	158682
15.98570	168775
15.99382	162550
16.00195	146499
16.01007	119443
16.01820	98486
16.02632	84786
16.03443	81143
16.04257	74075
16.05068	77606
16.05882	68960
16.06693	62739
16.07505	54837
16.08318	51792
16.09130	56264
16.09943	49885
16.10755	49735
16.11567	51500
16.12380	54211
16.13192	55225
16.14003	58412
16.14817	60091
16.15628	59642
16.16442	58003
16.17253	52374
16.18065	51065
16.18878	48950
16.19690	47501
16.20503	47146
16.21315	44844
16.22127	47793
16.22940	51879
16.23752	46523
16.24563	47188
16.25377	46977
16.26188	44728
16.27002	43264
16.27813	46202
16.28625	48197
16.29438	51935
16.30250	50763
16.31063	52979
16.31875	53306
16.32687	52495
16.33500	50398
16.34312	61032
16.35125	76414
16.35937	109066
16.36748	159836
16.37562	200798
16.38373	217839
16.39185	210040
16.39998	181184
16.40810	138007
16.41623	107070
16.42435	82358
16.43247	78458
16.44060	81367
16.44872	105485
16.45685	173297
16.46497	316158
16.47308	550079
16.48122	764749
16.48933	881697
16.49747	820671
16.50558	604112
16.51370	439666
16.52183	277614
16.52995	181047
16.53807	134054
16.54620	119095
16.55432	108903
16.56245	102384
16.57057	91479
16.57868	87340
16.58682	86382
16.59493	92079
16.60307	98814
16.61118	101127
16.61930	108108
16.62743	108038
16.63555	94342
16.64368	87565
16.65180	82133
16.65992	70371
16.66805	68727
16.67617	63989
16.68428	60950
16.69242	57995
16.70053	58049
16.70867	55376
16.71678	59919
16.72490	53647
16.73303	51815
16.74115	50464
16.74928	51539
16.75740	54860
16.76552	63901
16.77365	63219
16.78177	54930
16.78988	54955
16.79802	54750
16.80613	48153
16.81427	45931
16.82238	45349
16.83050	41878
16.83863	45093
16.84675	44386
16.85488	42892
16.86300	43593
16.87112	42902
16.87925	39964
16.88737	41255
16.89550	42181
16.90362	47656
16.91173	40432
16.91987	41131
16.92798	39954
16.93610	47536
16.94423	41469
16.95235	42177
16.96048	39226
16.96860	41943
16.97672	38244
16.98485	40911
16.99297	40213
17.00110	38996
17.00922	43324
17.01733	36667
17.02547	40921
17.03358	49010
17.04170	45239
17.04983	45460
17.05795	45871
17.06608	47742
17.07420	50867
17.08232	47774
17.09045	48287
17.09857	58047
17.10670	58727
17.11482	61980
17.12293	67736
17.13107	69086
17.13918	65851
17.14732	64907
17.15543	53980
17.16355	55796
17.17168	54516
17.17980	50450
17.18792	46990
17.19605	42444
17.20417	42969
17.21230	43196
17.22042	43003
17.22853	40280
17.23667	40279
17.24478	40212
17.25292	43827
17.26103	44647
17.26915	43679
17.27728	44137
17.28540	38703
17.29353	37892
17.30165	40812
17.30977	48797
17.31790	46188
17.32602	53390
17.33413	60944
17.34227	69018
17.35038	78993
17.35852	86564
17.36663	87279
17.37475	81885
17.38288	85163
17.39100	75666
17.39913	67858
17.40725	60029
17.41537	59614
17.42350	58382
17.43162	54636
17.43973	50791
17.44787	54012
17.45598	55672
17.46412	48597
17.47223	53848
17.48035	47049
17.48848	48133
17.49660	44644
17.50473	44478
17.51285	39997
17.52097	44633
17.52910	45670
17.53722	43938
17.54535	47375
17.55347	46708
17.56158	57988
17.56972	74279
17.57783	110049
17.58595	173222
17.59408	259868
17.60220	356764
17.61033	425846
17.61845	443282
17.62657	409896
17.63470	338506
17.64282	286791
17.65095	260069
17.65907	256425
17.66718	262393
17.67532	259939
17.68343	245363
17.69157	207807
17.69968	169724
17.70780	132790
17.71593	118630
17.72405	94801
17.73217	91339
17.74030	87236
17.74842	79030
17.75655	75825
17.76467	74053
17.77278	75206
17.78092	75072
17.78903	83634
17.79717	107771
17.80528	175669
17.81340	289393
17.82153	424598
17.82965	551239
17.83777	600934
17.84590	538563
17.85402	440100
17.86215	333701
17.87027	240557
17.87838	200454
17.88652	158169
17.89463	137278
17.90277	120532
17.91088	106313
17.91900	93791
17.92713	87304
17.93525	88422
17.94338	80661
17.95150	77177
17.95962	74471
17.96775	74911
17.97587	69678
17.98398	66221
17.99212	69618
18.00023	63348
18.00837	65761
18.01648	74206
18.02460	83475
18.03273	91376
18.04085	97965
18.04898	106492
18.05710	141163
18.06522	228884
18.07335	405262
18.08147	689250
18.08958	1033589
18.09772	1291190
18.10583	1302692
18.11397	1120210
18.12208	861653
18.13020	627189
18.13833	476467
18.14645	380560
18.15458	317238
18.16270	277476
18.17082	253069
18.17895	229146
18.18707	211819
18.19520	191096
18.20332	181341
18.21143	168597
18.21957	161610
18.22768	144961
18.23580	146016
18.24393	134662
18.25205	128519
18.26018	119763
18.26830	123956
18.27642	108432
18.28455	112179
18.29267	139867
18.30080	196495
18.30892	253175
18.31703	300558
18.32517	315827
18.33328	342009
18.34142	352991
18.34953	354371
18.35765	368114
18.36578	368558
18.37390	377845
18.38202	397068
18.39015	415672
18.39827	498791
18.40640	619347
18.41452	753483
18.42263	892629
18.43077	918470
18.43888	872473
18.44702	778168
18.45513	660932
18.46325	585352
18.47138	576048
18.47950	575551
18.48762	562208
18.49575	544751
18.50387	492836
18.51200	450177
18.52012	413231
18.52823	378360
18.53637	372829
18.54448	342035
18.55262	337863
18.56073	319027
18.56885	326997
18.57698	315286
18.58510	313171
18.59323	301458
18.60135	305658
18.60947	298099
18.61760	302656
18.62572	292173
18.63383	285176
18.64197	280971
18.65008	276712
18.65822	273737
18.66633	266877
18.67445	259284
18.68258	260097
18.69070	258777
18.69883	264243
18.70695	258766
18.71507	254600
18.72320	251379
18.73132	248920
18.73945	250767
18.74757	242746
18.75568	226039
18.76382	230224
18.77193	228108
18.78005	218427
18.78818	228148
18.79630	217925
18.80443	214700
18.81255	221335
18.82067	206632
18.82880	212334
18.83692	205251
18.84505	205508
18.85317	199536
18.86128	203726
18.86942	204228
18.87753	191949
18.88565	190062
18.89378	194158
18.90190	189290
18.91003	191359
18.91815	197815
18.92627	193051
18.93440	199763
18.94252	200178
18.95065	199793
18.95877	200829
18.96688	196913
18.97502	191075
18.98313	195968
18.99127	188104
18.99938	173668
19.00750	180858
19.01563	171861
19.02375	172519
19.03187	168089
19.04000	162547
19.04812	162350
19.05625	164111
19.06437	163681
19.07248	176820
19.08062	201402
19.08873	241055
19.09687	294385
19.10498	345277
19.11310	365865
19.12123	358110
19.12935	315015
19.13747	269698
19.14560	229549
19.15372	206746
19.16185	189318
19.16997	180895
19.17808	173371
19.18622	166504
19.19433	160042
19.20247	161808
19.21058	151580
19.21870	151832
19.22683	153909
19.23495	147838
19.24308	143145
19.25120	143959
19.25932	133956
19.26745	140986
19.27557	131876
19.28368	137116
19.29182	137927
19.29993	139076
19.30807	139248
19.31618	134684
19.32430	130312
19.33243	128501
19.34055	132907
19.34868	146052
19.35680	155027
19.36492	175447
19.37305	200126
19.38117	206625
19.38930	201504
19.39742	182594
19.40553	167142
19.41367	143390
19.42178	138196
19.42990	129728
19.43803	130080
19.44615	121505
19.45428	122180
19.46240	119068
19.47052	128769
19.47865	130308
19.48677	152882
19.49490	198183
19.50302	253509
19.51113	299952
19.51927	314237
19.52738	301701
19.53550	253707
19.54363	195954
19.55175	157834
19.55988	129361
19.56800	127957
19.57612	117127
19.58425	111208
19.59237	101717
19.60050	104076
19.60862	102421
19.61673	102584
19.62487	98596
19.63298	111092
19.64112	113086
19.64923	143330
19.65735	179636
19.66548	227269
19.67360	265767
19.68172	301136
19.68985	300466
19.69797	285063
19.70610	256313
19.71422	226051
19.72233	207055
19.73047	186023
19.73858	169421
19.74672	147893
19.75483	137246
19.76295	129835
19.77108	121087
19.77920	121806
19.78733	124233
19.79545	126154
19.80357	133545
19.81170	127241
19.81982	127523
19.82793	126393
19.83607	109044
19.84418	116112
19.85232	135472
19.86043	209335
19.86855	396556
19.87668	812209
19.88480	1535246
19.89293	2446156
19.90105	3221790
19.90917	3571833
19.91730	3350335
19.92542	2672612
19.93353	1937152
19.94167	1367651
19.94978	989990
19.95792	772394
19.96603	647605
19.97415	578701
19.98228	527143
19.99040	493580
19.99853	464552
20.00665	430877
20.01477	404882
20.02290	394417
20.03102	356879
20.03915	330254
20.04727	303254
20.05538	261375
20.06352	233008
20.07163	203209
20.07975	178620
20.08788	166809
20.09600	156810
20.10413	150762
20.11225	133280
20.12037	133596
20.12850	120889
20.13662	123797
20.14475	117860
20.15287	113381
20.16098	120518
20.16912	131235
20.17723	144554
20.18537	153030
20.19348	169614
20.20160	173930
20.20973	165024
20.21785	161970
20.22597	153562
20.23410	135926
20.24222	141234
20.25035	148300
20.25847	166946
20.26658	204176
20.27472	239103
20.28283	274281
20.29097	290602
20.29908	283982
20.30720	258808
20.31533	229711
20.32345	192343
20.33157	163693
20.33970	135027
20.34782	119234
20.35595	111739
20.36407	93876
20.37218	85164
20.38032	83246
20.38843	82898
20.39657	78819
20.40468	83514
20.41280	81951
20.42093	83723
20.42905	90444
20.43718	98035
20.44530	104034
20.45342	110794
20.46155	119588
20.46967	123346
20.47778	125652
20.48592	120225
20.49403	112627
20.50217	102236
20.51028	98255
20.51840	86301
20.52653	80640
20.53465	73085
20.54278	80056
20.55090	74944
20.55902	77838
20.56715	72555
20.57527	75924
20.58338	70662
20.59152	75495
20.59963	69710
20.60777	65460
20.61588	64014
20.62400	62966
20.63213	65273
20.64025	66323
20.64838	65563
20.65650	64390
20.66462	65267
20.67275	67560
20.68087	62616
20.68900	65328
20.69712	59584
20.70523	62355
20.71337	64334
20.72148	60140
20.72960	63719
20.73773	65672
20.74585	61836
20.75398	59072
20.76210	64174
20.77022	63468
20.77835	72749
20.78647	80160
20.79460	98950
20.80272	139433
20.81083	178645
20.81897	214517
20.82708	227403
20.83522	217565
20.84333	180750
20.85145	143226
20.85958	112739
20.86770	93922
20.87582	78379
20.88395	70384
20.89207	71078
20.90020	65188
20.90832	69250
20.91643	68300
20.92457	67376
20.93268	65821
20.94082	65558
20.94893	63336
20.95705	70570
20.96518	63190
20.97330	64619
20.98142	59765
20.98955	57203
20.99767	58689
21.00580	58532
21.01392	55431
21.02203	58679
21.03017	58559
21.03828	58031
21.04642	60983
21.05453	59223
21.06265	62286
21.07078	63797
21.07890	68304
21.08703	67533
21.09515	70221
21.10327	60147
21.11140	57896
21.11952	56806
21.12763	65027
21.13577	64755
21.14388	71167
21.15202	84254
21.16013	91388
21.16825	100815
21.17638	100932
21.18450	92269
21.19263	84382
21.20075	79414
21.20887	71866
21.21700	67669
21.22512	68091
21.23325	64896
21.24137	61758
21.24948	61798
21.25762	55411
21.26573	61818
21.27385	60531
21.28198	55674
21.29010	60141
21.29823	54043
21.30635	57499
21.31447	53276
21.32260	53344
21.33072	52973
21.33885	50905
21.34697	53355
21.35508	50873
21.36322	55585
21.37133	59822
21.37945	53492
21.38758	59792
21.39570	69569
21.40383	76193
21.41195	81953
21.42007	90523
21.42820	87493
21.43632	84130
21.44445	79443
21.45257	67128
21.46068	67608
21.46882	60104
21.47693	62044
21.48507	61709
21.49318	56391
21.50130	57666
21.50943	57542
21.51755	53256
21.52567	61325
21.53380	56019
21.54192	56860
21.55005	53812
21.55817	54823
21.56628	54478
21.57442	54754
21.58253	62272
21.59067	68134
21.59878	65632
21.60690	70911
21.61503	69136
21.62315	74700
21.63127	81403
21.63940	84803
21.64752	81577
21.65565	82852
21.66377	90931
21.67188	87550
21.68002	87824
21.68813	85089
21.69627	75718
21.70438	72737
21.71250	67798
21.72063	61436
21.72875	57447
21.73688	58382
21.74500	57125
21.75312	59689
21.76125	55805
21.76937	58815
21.77748	57770
21.78562	60585
21.79373	64946
21.80187	66054
21.80998	65881
21.81810	68182
21.82623	69951
21.83435	74689
21.84248	79146
21.85060	80328
21.85872	72466
21.86685	72861
21.87497	68567
21.88310	64696
21.89122	60408
21.89933	59399
21.90747	55596
21.91558	61592
21.92370	52718
21.93183	52496
21.93995	52228
21.94808	52982
21.95620	49929
21.96432	49898
21.97245	47980
21.98057	48245
21.98870	45445
21.99682	47912
22.00493	43379
22.01307	47900
22.02118	44889
22.02932	51037
22.03743	54891
22.04555	51818
22.05368	53765
22.06180	49964
22.06992	49616
22.07805	46978
22.08617	47483
22.09430	47689
22.10242	46977
22.11053	44632
22.11867	43405
22.12678	48035
22.13492	50930
22.14303	48425
22.15115	44521
22.15928	49144
22.16740	50505
22.17552	46275
22.18365	49511
22.19177	48618
22.19990	49272
22.20802	45406
22.21613	46293
22.22427	53593
22.23238	52947
22.24052	53186
22.24863	52768
22.25675	51611
22.26488	51130
22.27300	47306
22.28113	51609
22.28925	56713
22.29737	56522
22.30550	52064
22.31362	53283
22.32173	55510
22.32987	58502
22.33798	59217
22.34612	58917
22.35423	54231
22.36235	57001
22.37048	56761
22.37860	53837
22.38673	57013
22.39485	60774
22.40297	78801
22.41110	92600
22.41922	108985
22.42733	112910
22.43547	120434
22.44358	102629
22.45172	93389
22.45983	83327
22.46795	75120
22.47608	73910
22.48420	78061
22.49233	80206
22.50045	83624
22.50857	84924
22.51670	82978
22.52482	82492
22.53295	82390
22.54107	74646
22.54918	74996
22.55732	71102
22.56543	66042
22.57355	64860
22.58168	62283
22.58980	56837
22.59793	55675
22.60605	56265
22.61417	52402
22.62230	51642
22.63042	54760
22.63855	53046
22.64667	50871
22.65478	53716
22.66292	55009
22.67103	50506
22.67917	53116
22.68728	52217
22.69540	53871
22.70353	52498
22.71165	64191
22.71977	64331
22.72790	61529
22.73602	57929
22.74415	59684
22.75227	56050
22.76038	53814
22.76852	51663
22.77663	58862
22.78477	56641
22.79288	62013
22.80100	72779
22.80913	74014
22.81725	78989
22.82537	74981
22.83350	72876
22.84162	70050
22.84975	64025
22.85787	60686
22.86598	61172
22.87412	65423
22.88223	67730
22.89037	76314
22.89848	78947
22.90660	87993
22.91473	105020
22.92285	116121
22.93098	127728
22.93910	131770
22.94722	126127
22.95535	120043
22.96347	107916
22.97158	102047
22.97972	94488
22.98783	93276
22.99597	95602
23.00408	87989
23.01220	82639
23.02033	82122
23.02845	78023
23.03658	82161
23.04470	78278
23.05282	81026
23.06095	74746
23.06907	79012
23.07720	80818
23.08532	81570
23.09343	72846
23.10157	72067
23.10968	75569
23.11780	69226
23.12593	71996
23.13405	70052
23.14218	69046
23.15030	72290
23.15842	74360
23.16655	69784
23.17467	74598
23.18280	75344
23.19092	72685
23.19903	71258
23.20717	71759
23.21528	68884
23.22340	65568
23.23153	70045
23.23965	71790
23.24778	69016
23.25590	72919
23.26402	73684
23.27215	70957
23.28027	74661
23.28840	78556
23.29652	74888
23.30463	66440
23.31277	70308
23.32088	68763
23.32902	72130
23.33713	78078
23.34525	103516
23.35338	124610
23.36150	170466
23.36962	217490
23.37775	304079
23.38587	388366
23.39400	486398
23.40212	567260
23.41023	630498
23.41837	673036
23.42648	684148
23.43462	688467
23.44273	659903
23.45085	631730
23.45898	620322
23.46710	575926
23.47522	536814
23.48335	486045
23.49147	455184
23.49960	422082
23.50772	395725
23.51583	353439
23.52397	319882
23.53208	302691
23.54022	279812
23.54833	263486
23.55645	251115
23.56458	230143
23.57270	236682
23.58083	240420
23.58895	247783
23.59707	265016
23.60520	276332
23.61332	268101
23.62143	249544
23.62957	232642
23.63768	214612
23.64582	204913
23.65393	212669
23.66205	210556
23.67018	217214
23.67830	211737
23.68643	203567
23.69455	177332
23.70267	163367
23.71080	140041
23.71892	136308
23.72705	131983
23.73517	123666
23.74328	123422
23.75142	145442
23.75953	227186
23.76765	376877
23.77578	692041
23.78390	1133162
23.79203	1563795
23.80015	1818683
23.80827	1836615
23.81640	1625999
23.82452	1341104
23.83265	1092775
23.84077	858943
23.84888	682897
23.85702	551721
23.86513	448323
23.87325	392282
23.88138	347128
23.88950	311517
23.89763	286095
23.90575	269640
23.91387	260277
23.92200	236330
23.93012	226019
23.93825	206163
23.94637	198149
23.95448	187882
23.96262	174678
23.97073	161833
23.97887	158292
23.98698	155582
23.99510	163454
24.00323	200536
24.01135	291542
24.01947	480202
24.02760	713149
24.03572	895851
24.04385	983026
24.05197	888157
24.06008	673215
24.06822	465272
24.07633	310034
24.08447	213050
24.09258	165351
24.10070	139312
24.10883	126256
24.11695	126011
24.12508	118531
24.13320	124543
24.14132	127108
24.14945	129236
24.15757	119008
24.16568	116049
24.17382	117218
24.18193	111175
24.19007	106212
24.19818	112039
24.20630	109786
24.21443	111698
24.22255	102251
24.23068	108529
24.23880	102653
24.24692	96806
24.25505	87715
24.26317	85692
24.27128	88597
24.27942	85805
24.28753	81352
24.29567	86082
24.30378	83247
24.31190	76760
24.32003	81488
24.32815	81310
24.33628	78470
24.34440	78316
24.35252	76461
24.36065	80751
24.36877	79546
24.37690	95242
24.38502	103282
24.39313	134776
24.40127	158256
24.40938	172561
24.41750	187245
24.42563	178219
24.43375	172387
24.44188	157524
24.45000	148497
24.45812	152143
24.46625	155679
24.47437	167769
24.48250	173566
24.49062	187162
24.49873	190958
24.50687	192598
24.51498	192426
24.52310	187806
24.53123	185064
24.53935	192803
24.54748	188900
24.55560	183260
24.56372	189258
24.57185	180848
24.57997	166372
24.58810	166545
24.59622	163133
24.60433	161687
24.61247	159303
24.62058	163383
24.62872	155291
24.63683	157642
24.64495	161992
24.65308	163054
24.66120	166764
24.66932	165101
24.67745	163855
24.68557	169633
24.69370	172424
24.70182	175513
24.70993	175664
24.71807	172873
24.72618	174223
24.73432	168018
24.74243	168564
24.75055	179801
24.75868	180593
24.76680	178026
24.77493	178801
24.78305	179519
24.79117	186913
24.79930	180777
24.80742	171057
24.81553	178793
24.82367	177554
24.83178	183387
24.83992	189982
24.84803	213001
24.85615	243003
24.86428	283123
24.87240	346150
24.88053	431363
24.88865	532756
24.89677	549261
24.90490	545305
24.91302	487471
24.92113	397152
24.92927	310051
24.93738	252065
24.94552	201148
24.95363	181919
24.96175	163043
24.96988	153991
24.97800	149838
24.98613	140571
24.99425	127825
25.00237	118045
25.01050	109444
25.01862	95523
25.02675	89068
25.03487	88990
25.04298	84088
25.05112	84248
25.05923	84677
25.06735	76232
25.07548	77154
25.08360	81883
25.09173	89395
25.09985	112326
25.10797	189861
25.11610	364385
25.12422	657644
25.13235	1177468
25.14047	1719186
25.14858	2066504
25.15672	2143345
25.16483	1934218
25.17297	1385616
25.18108	926242
25.18920	571972
25.19733	339577
25.20545	218952
25.21357	161022
25.22170	133618
25.22982	121835
25.23795	117001
25.24607	123920
25.25418	141924
25.26232	163567
25.27043	165501
25.27857	181367
25.28668	169488
25.29480	152860
25.30293	130757
25.31105	112661
25.31917	103845
25.32730	89300
25.33542	86559
25.34355	80844
25.35167	80123
25.35978	78561
25.36792	71812
25.37603	65398
25.38417	65865
25.39228	68632
25.40040	66141
25.40853	70825
25.41665	84828
25.42478	109177
25.43290	142443
25.44102	182517
25.44915	207543
25.45727	230363
25.46538	238818
25.47352	254518
25.48163	263198
25.48977	254058
25.49788	254364
25.50600	262901
25.51413	263575
25.52225	265160
25.53038	262345
25.53850	254134
25.54662	256883
25.55475	253728
25.56287	261617
25.57100	267034
25.57912	257456
25.58723	255539
25.59537	259569
25.60348	254945
25.61160	259265
25.61973	250322
25.62785	258801
25.63598	270792
25.64410	277844
25.65222	280677
25.66035	271114
25.66847	253009
25.67660	245694
25.68472	237523
25.69283	230361
25.70097	224415
25.70908	220563
25.71720	223890
25.72533	221746
25.73345	207150
25.74158	205663
25.74970	203131
25.75782	209880
25.76595	201054
25.77407	200834
25.78220	206469
25.79032	198467
25.79843	207994
25.80657	200108
25.81468	204862
25.82282	203075
25.83093	204797
25.83905	209489
25.84718	215583
25.85530	216282
25.86342	222262
25.87155	199953
25.87967	201932
25.88780	186042
25.89592	178307
25.90403	172310
25.91217	167969
25.92028	158531
25.92842	158096
25.93653	148335
25.94465	158153
25.95278	157092
25.96090	152523
25.96902	152679
25.97715	135562
25.98527	141863
25.99340	143830
26.00152	132726
26.00963	137741
26.01777	133030
26.02588	130952
26.03402	132985
26.04213	130578
26.05025	131884
26.05838	127560
26.06650	127109
26.07463	127259
26.08275	121450
26.09087	124891
26.09900	125183
26.10712	125278
26.11523	125865
26.12337	122440
26.13148	112697
26.13962	123595
26.14773	131014
26.15585	126771
26.16398	129616
26.17210	120476
26.18023	120269
26.18835	121678
26.19647	115098
26.20460	114364
26.21272	107715
26.22085	101309
26.22897	104647
26.23708	106491
26.24522	99247
26.25333	101734
26.26145	99603
26.26958	97279
26.27770	96200
26.28583	95574
26.29395	93295
26.30207	91013
26.31020	88268
26.31832	93789
26.32645	88218
26.33457	90954
26.34268	86368
26.35082	81869
26.35893	87148
26.36705	93747
26.37518	96916
26.38330	99839
26.39143	110643
26.39955	112579
26.40767	114187
26.41580	112777
26.42392	106738
26.43205	99197
26.44017	96910
26.44828	92520
26.45642	91092
26.46453	87579
26.47267	87878
26.48078	86268
26.48890	88181
26.49703	78018
26.50515	79480
26.51327	72795
26.52140	72190
26.52952	71391
26.53765	68477
26.54577	69094
26.55388	68577
26.56202	68967
26.57013	71986
26.57827	65560
26.58638	70590
26.59450	66585
26.60263	67283
26.61075	59708
26.61888	63713
26.62700	65471
26.63512	66157
26.64325	64540
26.65137	67504
26.65948	68176
26.66762	69156
26.67573	73126
26.68387	71658
26.69198	71565
26.70010	68248
26.70823	68132
26.71635	59899
26.72448	62834
26.73260	56688
26.74072	56838
26.74885	62773
26.75697	58977
26.76508	59274
26.77322	60945
26.78133	59670
26.78947	55756
26.79758	64166
26.80570	61097
26.81383	63586
26.82195	59926
26.83008	59846
26.83820	61170
26.84632	63734
26.85445	58896
26.86257	60955
26.87070	64107
26.87882	53196
26.88693	57220
26.89507	54403
26.90318	53835
26.91130	53890
26.91943	57416
26.92755	47993
26.93568	51189
26.94380	54644
26.95192	52152
26.96005	56196
26.96817	58852
26.97630	69055
26.98442	83536
26.99253	123216
27.00067	176404
27.00878	230870
27.01690	299302
27.02503	365297
27.03315	391552
27.04128	406484
27.04940	371453
27.05752	325122
27.06565	281373
27.07377	246588
27.08190	210624
27.09002	179631
27.09813	163462
27.10627	150741
27.11438	141984
27.12252	131489
27.13063	127779
27.13875	123796
27.14688	116818
27.15500	115675
27.16312	111283
27.17125	110438
27.17937	105671
27.18750	106903
27.19562	106374
27.20373	108468
27.21187	98049
27.21998	97145
27.22812	91714
27.23623	93908
27.24435	93653
27.25248	88368
27.26060	83987
27.26873	82992
27.27685	80332
27.28497	77198
27.29310	74213
27.30122	72498
27.30933	64917
27.31747	69349
27.32558	67016
27.33372	65265
27.34183	65918
27.34995	71893
27.35808	67655
27.36620	68317
27.37433	69455
27.38245	69152
27.39057	65897
27.39870	67387
27.40682	64230
27.41493	64288
27.42307	65951
27.43118	58211
27.43932	56794
27.44743	59507
27.45555	58405
27.46368	58477
27.47180	55448
27.47993	56804
27.48805	54559
27.49617	58949
27.50430	61170
27.51242	55134
27.52055	53694
27.52867	57928
27.53678	58936
27.54492	57213
27.55303	60520
27.56115	57033
27.56928	59117
27.57740	69581
27.58553	68546
27.59365	73036
27.60177	75186
27.60990	82833
27.61802	78308
27.62615	69991
27.63427	65582
27.64238	59998
27.65052	55344
27.65863	56259
27.66677	52869
27.67488	56013
27.68300	55484
27.69113	54110
27.69925	52229
27.70737	53870
27.71550	52479
27.72362	54264
27.73175	51979
27.73987	50379
27.74798	49439
27.75612	48097
27.76423	50722
27.77237	49374
27.78048	55015
27.78860	54672
27.79673	56116
27.80485	56067
27.81297	55312
27.82110	53543
27.82922	53998
27.83735	52393
27.84547	53507
27.85358	54227
27.86172	51020
27.86983	50135
27.87797	51524
27.88608	46647
27.89420	46027
27.90233	45996
27.91045	46089
27.91858	46757
27.92670	45785
27.93482	48481
27.94295	45761
27.95107	47708
27.95918	48505
27.96732	50828
27.97543	45315
27.98357	47363
27.99168	44475
27.99980	48254
28.00793	48299
28.01605	49050
28.02418	52755
28.03230	54871
28.04042	58523
28.04855	59082
28.05667	59767
28.06478	64416
28.07292	60577
28.08103	61516
28.08917	60829
28.09728	57088
28.10540	58577
28.11353	55056
28.12165	60032
28.12978	46375
28.13790	43647
28.14602	49142
28.15415	45160
28.16227	44565
28.17040	46943
28.17852	46462
28.18663	50761
28.19477	61516
28.20288	67124
28.21100	76254
28.21913	74619
28.22725	77094
28.23538	80188
28.24350	70292
28.25162	59860
28.25975	61297
28.26787	56245
28.27600	51483
28.28412	48436
28.29223	52610
28.30037	53303
28.30848	61654
28.31662	63288
28.32473	73293
28.33285	82240
28.34098	85301
28.34910	97993
28.35722	107528
28.36535	119584
28.37347	121816
28.38160	134106
28.38972	146279
28.39783	141086
28.40597	145526
28.41408	143872
28.42222	137082
28.43033	132145
28.43845	123364
28.44658	120297
28.45470	107359
28.46283	107874
28.47095	99072
28.47907	96666
28.48720	91410
28.49532	83017
28.50343	85947
28.51157	85577
28.51968	80364
28.52782	77391
28.53593	77061
28.54405	72968
28.55218	69067
28.56030	65525
28.56843	65444
28.57655	64258
28.58467	64166
28.59280	65203
28.60092	58836
28.60903	64227
28.61717	63535
28.62528	58926
28.63342	67703
28.64153	65638
28.64965	65947
28.65778	66605
28.66590	70426
28.67403	68678
28.68215	69191
28.69027	64885
28.69840	59480
28.70652	65085
28.71465	59412
28.72277	66140
28.73088	56221
28.73902	55560
28.74713	66692
28.75525	69350
28.76338	77822
28.77150	81267
28.77963	95514
28.78775	82425
28.79587	77606
28.80400	77826
28.81212	67571
28.82025	67081
28.82837	66388
28.83648	63336
28.84462	56354
28.85273	54184
28.86085	57830
28.86898	57706
28.87710	56302
28.88523	59516
28.89335	66222
28.90147	70735
28.90960	63247
28.91772	62515
28.92585	59371
28.93397	57151
28.94208	56672
28.95022	57248
28.95833	58859
28.96647	55886
28.97458	58260
28.98270	58396
28.99083	53936
28.99895	52250
29.00707	50786
29.01520	48564
29.02332	53924
29.03145	49649
29.03957	49942
29.04768	45705
29.05582	51802
29.06393	49892
29.07207	53272
29.08018	54888
29.08830	53582
29.09643	51931
29.10455	48799
29.11268	48476
29.12080	51207
29.12892	44718
29.13705	48890
29.14517	48967
29.15328	52402
29.16142	53870
29.16953	45881
29.17767	48501
29.18578	52941
29.19390	63408
29.20203	70895
29.21015	78896
29.21828	86859
29.22640	89985
29.23452	98281
29.24265	106239
29.25077	113569
29.25888	140485
29.26702	162543
29.27513	164453
29.28327	162218
29.29138	138344
29.29950	106462
29.30763	83739
29.31575	66913
29.32388	64484
29.33200	53774
29.34012	58423
29.34825	46971
29.35637	46852
29.36450	49170
29.37262	46366
29.38073	44481
29.38887	48983
29.39698	47818
29.40510	51173
29.41323	51092
29.42135	56750
29.42948	58211
29.43760	54740
29.44572	57638
29.45385	51074
29.46197	51634
29.47010	48695
29.47822	51657
29.48633	42459
29.49447	52568
29.50258	57790
29.51072	54793
29.51883	54190
29.52695	50776
29.53508	53627
29.54320	50634
29.55132	48793
29.55945	49090
29.56757	45004
29.57570	42944
29.58382	47089
29.59193	44119
29.60007	41219
29.60818	43175
29.61632	45059
29.62443	43518
29.63255	47802
29.64068	41783
29.64880	43117
29.65692	41898
29.66505	45970
29.67317	43576
29.68130	44846
29.68942	44774
29.69753	48586
29.70567	54754
29.71378	48759
29.72192	43748
29.73003	42802
29.73815	46103
29.74628	47769
29.75440	39512
29.76253	42286
29.77065	42916
29.77877	40624
29.78690	43754
29.79502	43524
29.80313	40730
29.81127	40240
29.81938	41139
29.82752	40758
29.83563	41405
29.84375	41954
29.85188	40173
29.86000	41695
29.86813	46271
29.87625	50073
29.88437	58418
29.89250	64191
29.90062	75454
29.90873	77647
29.91687	79123
29.92498	69242
29.93312	55406
29.94123	52048
29.94935	50534
29.95748	51383
29.96560	51981
29.97373	56418
29.98185	64354
29.98997	69114
29.99810	72110
30.00622	79685
30.01435	81353
30.02247	86802
30.03058	86167
30.03872	89715
30.04683	87094
30.05495	91118
30.06308	94083
30.07120	87167
30.07933	85727
30.08745	91272
30.09557	86357
30.10370	86145
30.11182	82520
30.11995	84672
30.12807	81601
30.13618	76570
30.14432	76041
30.15243	75294
30.16057	72265
30.16868	73698
30.17680	70400
30.18493	66691
30.19305	71271
30.20117	67813
30.20930	70434
30.21742	63537
30.22555	65307
30.23367	61823
30.24178	56766
30.24992	58033
30.25803	57402
30.26617	55449
30.27428	56887
30.28240	54262
30.29053	49339
30.29865	55487
30.30677	53462
30.31490	50291
30.32302	51943
30.33115	49274
30.33927	56875
30.34738	51736
30.35552	49176
30.36363	53727
30.37177	53864
30.37988	48916
30.38800	48880
30.39613	50870
30.40425	45760
30.41238	47295
30.42050	46934
30.42862	42957
30.43675	44818
30.44487	49790
30.45298	49144
30.46112	48709
30.46923	49646
30.47737	46381
30.48548	41403
30.49360	47263
30.50173	46113
30.50985	45201
30.51798	42227
30.52610	44338
30.53422	43935
30.54235	49466
30.55047	40997
30.55860	42434
30.56672	45555
30.57483	43679
30.58297	44720
30.59108	43597
30.59920	46782
30.60733	47129
30.61545	45548
30.62358	43578
30.63170	46798
30.63982	47112
30.64795	49455
30.65607	52094
30.66420	63714
30.67232	69260
30.68043	70527
30.68857	70657
30.69668	78937
30.70480	74463
30.71293	80078
30.72105	77121
30.72918	80818
30.73730	83279
30.74542	81688
30.75355	86168
30.76167	86782
30.76980	84689
30.77792	99782
30.78603	116006
30.79417	126393
30.80228	155154
30.81042	167200
30.81853	178503
30.82665	163430
30.83478	141188
30.84290	128627
30.85102	110824
30.85915	97031
30.86727	97348
30.87540	99756
30.88352	92426
30.89163	91253
30.89977	92124
30.90788	93758
30.91602	88648
30.92413	93805
30.93225	87961
30.94038	87638
30.94850	86912
30.95662	90709
30.96475	88348
30.97287	84327
30.98100	87451
30.98912	85214
30.99723	91092
31.00537	84550
31.01348	89616
31.02162	84850
31.02973	83037
31.03785	88761
31.04598	89278
31.05410	86145
31.06223	82594
31.07035	85124
31.07847	87381
31.08660	93304
31.09472	101877
31.10283	105411
31.11097	105634
31.11908	102589
31.12722	94609
31.13533	91012
31.14345	87038
31.15158	85332
31.15970	88451
31.16783	82737
31.17595	84527
31.18407	96267
31.19220	108773
31.20032	126975
31.20845	156292
31.21657	181435
31.22468	202223
31.23282	212619
31.24093	190066
31.24905	165130
31.25718	135673
31.26530	107364
31.27343	92193
31.28155	79040
31.28967	78932
31.29780	74719
31.30592	68801
31.31405	68400
31.32217	69439
31.33028	70187
31.33842	73206
31.34653	75308
31.35465	63834
31.36278	70349
31.37090	73126
31.37903	71273
31.38715	74214
31.39527	72667
31.40340	64764
31.41152	66736
31.41965	66394
31.42777	73958
31.43588	65540
31.44402	62001
31.45213	66334
31.46027	62948
31.46838	64557
31.47650	65097
31.48463	58138
31.49275	63464
31.50087	62830
31.50900	64930
31.51712	59368
31.52525	67303
31.53337	69720
31.54148	65214
31.54962	59804
31.55773	56215
31.56587	59699
31.57398	61453
31.58210	60081
31.59023	59628
31.59835	57832
31.60648	56224
31.61460	53839
31.62272	58158
31.63085	53164
31.63897	56016
31.64708	58701
31.65522	61795
31.66333	58310
31.67147	61894
31.67958	61186
31.68770	59500
31.69583	60659
31.70395	57352
31.71208	58327
31.72020	57785
31.72832	54288
31.73645	54016
31.74457	53268
31.75268	52163
31.76082	51923
31.76893	53626
31.77707	52418
31.78518	54659
31.79330	56707
31.80143	54288
31.80955	59519
31.81768	53754
31.82580	57163
31.83392	52366
31.84205	52251
31.85017	54996
31.85830	51473
31.86642	56266
31.87453	52937
31.88267	63314
31.89078	57812
31.89890	59392
31.90703	63655
31.91515	64730
31.92328	71979
31.93140	76048
31.93952	75498
31.94765	81155
31.95577	81383
31.96390	87469
31.97202	89480
31.98013	92693
31.98827	92707
31.99638	89467
32.00452	96616
32.01263	90712
32.02075	88067
32.02888	88743
32.03700	88178
32.04512	83032
32.05325	79943
32.06137	79868
32.06950	81108
32.07762	75432
32.08573	84483
32.09387	77764
32.10198	71927
32.11012	76125
32.11823	67787
32.12635	61957
32.13448	59189
32.14260	59689
32.15072	58293
32.15885	61261
32.16697	58579
32.17510	56415
32.18322	59719
32.19133	57299
32.19947	55771
32.20758	54995
32.21572	52144
32.22383	55546
32.23195	59695
32.24008	56575
32.24820	55231
32.25633	59634
32.26445	65546
32.27257	58890
32.28070	60695
32.28882	59131
32.29693	54077
32.30507	56510
32.31318	54008
32.32132	53748
32.32943	56186
32.33755	56133
32.34568	53684
32.35380	53492
32.36193	54910
32.37005	54367
32.37817	53769
32.38630	51019
32.39442	52460
32.40253	53721
32.41067	48613
32.41878	45904
32.42692	51802
32.43503	48755
32.44315	58340
32.45128	51775
32.45940	50452
32.46753	48674
32.47565	51568
32.48377	52777
32.49190	49111
32.50002	46985
32.50815	47673
32.51627	47825
32.52438	46952
32.53252	49869
32.54063	51187
32.54875	47822
32.55688	48479
32.56500	51639
32.57313	48142
32.58125	55169
32.58937	50540
32.59750	56106
32.60562	50103
32.61375	42608
32.62187	49007
32.62998	52426
32.63812	53336
32.64623	53640
32.65437	59413
32.66248	65678
32.67060	70990
32.67873	73555
32.68685	64497
32.69497	65616
32.70310	58713
32.71122	56104
32.71935	53837
32.72747	51781
32.73558	49105
32.74372	49806
32.75183	52623
32.75997	46057
32.76808	49645
32.77620	45638
32.78433	42864
32.79245	46503
32.80057	45392
32.80870	43846
32.81682	50634
32.82495	48891
32.83307	46638
32.84118	50170
32.84932	46167
32.85743	46503
32.86557	45527
32.87368	48475
32.88180	44144
32.88993	46007
32.89805	50171
32.90618	48969
32.91430	47777
32.92242	51158
32.93055	48096
32.93867	47038
32.94678	47989
32.95492	50011
32.96303	49651
32.97117	50466
32.97928	53910
32.98740	56932
32.99553	67416
33.00365	68517
33.01178	73069
33.01990	66457
33.02802	65465
33.03615	58759
33.04427	57249
33.05240	60890
33.06052	54881
33.06863	53900
33.07677	52716
33.08488	67766
33.09300	63850
33.10113	68849
33.10925	74817
33.11738	70521
33.12550	74974
33.13362	72421
33.14175	71588
33.14987	65168
33.15800	56709
33.16612	54432
33.17423	53563
33.18237	52559
33.19048	51757
33.19860	56468
33.20673	52893
33.21485	51782
33.22298	52832
33.23110	52218
33.23922	53687
33.24735	50504
33.25547	48470
33.26360	47070
33.27172	50610
33.27983	48115
33.28797	49705
33.29608	48876
33.30422	49511
33.31233	51726
33.32045	51039
33.32858	48898
33.33670	47014
33.34482	50026
33.35295	51850
33.36107	53044
33.36920	53308
33.37732	52020
33.38543	51117
33.39357	52278
33.40168	52970
33.40982	51002
33.41793	45963
33.42605	50617
33.43418	44432
33.44230	45732
33.45042	45883
33.45855	48476
33.46667	44298
33.47480	43494
33.48292	46208
33.49103	50414
33.49917	49737
33.50728	49036
33.51542	49771
33.52353	51106
33.53165	50454
33.53978	52603
33.54790	56698
33.55603	60824
33.56415	60514
33.57227	58141
33.58040	54538
33.58852	50227
33.59663	51060
33.60477	51468
33.61288	47666
33.62102	51947
33.62913	50385
33.63725	51909
33.64538	47829
33.65350	54688
33.66163	50421
33.66975	48078
33.67787	52109
33.68600	50590
33.69412	45205
33.70225	50852
33.71037	45350
33.71848	46145
33.72662	46001
33.73473	45491
33.74285	45441
33.75098	45914
33.75910	44812
33.76723	48064
33.77535	44018
33.78347	45305
33.79160	49471
33.79972	47696
33.80785	46922
33.81597	49511
33.82408	47227
33.83222	45265
33.84033	48442
33.84847	45103
33.85658	50088
33.86470	51777
33.87283	50525
33.88095	48353
33.88907	49130
33.89720	50135
33.90532	45391
33.91345	48807
33.92157	51352
33.92968	51352
33.93782	46888
33.94593	45880
33.95407	52078
33.96218	48617
33.97030	45885
33.97843	43927
33.98655	45865
33.99467	49891
34.00280	45497
34.01092	46615
34.01905	46905
34.02717	50235
34.03528	45765
34.04342	46112
34.05153	50495
34.05967	48048
34.06778	48492
34.07590	47500
34.08403	50287
34.09215	47501
34.10028	50421
34.10840	46237
34.11652	52042
34.12465	52261
34.13277	47563
34.14088	49466
34.14902	49681
34.15713	51240
34.16527	49827
34.17338	49844
34.18150	47905
34.18963	50183
34.19775	49657
34.20588	48677
34.21400	49809
34.22212	49433
34.23025	50983
34.23837	48631
34.24648	49737
34.25462	50687
34.26273	48707
34.27087	47369
34.27898	50113
34.28710	51697
34.29523	47649
34.30335	47730
34.31148	50014
34.31960	48315
34.32772	47652
34.33585	51684
34.34397	51245
34.35210	48393
34.36022	51697
34.36833	45829
34.37647	50171
34.38458	48572
34.39270	49385
34.40083	46090
34.40895	51164
34.41708	44039
34.42520	52829
34.43332	47146
34.44145	46985
34.44957	47190
34.45770	47504
34.46582	53517
34.47393	45957
34.48207	48052
34.49018	47828
34.49832	48355
34.50643	53385
34.51455	54636
34.52268	60888
34.53080	63295
34.53892	67666
34.54705	83613
34.55517	84782
34.56330	80912
34.57142	89757
34.57953	87949
34.58767	80683
34.59578	76342
34.60392	74005
34.61203	70836
34.62015	68709
34.62828	64769
34.63640	67145
34.64452	64906
34.65265	59761
34.66077	64722
34.66890	58867
34.67702	59224
34.68513	56362
34.69327	60081
34.70138	58014
34.70952	58445
34.71763	55472
34.72575	56787
34.73388	53599
34.74200	55309
34.75013	57130
34.75825	56053
34.76637	53061
34.77450	56682
34.78262	57036
34.79073	51848
34.79887	56658
34.80698	54511
34.81512	55646
34.82323	58479
34.83135	55396
34.83948	56139
34.84760	56012
34.85573	52389
34.86385	53880
34.87197	54525
34.88010	51852
34.88822	55638
34.89635	54220
34.90447	54497
34.91258	57029
34.92072	56283
34.92883	53415
34.93695	56400
34.94508	59611
34.95320	59581
34.96133	67180
34.96945	64802
34.97757	65045
34.98570	65821
34.99382	59376
35.00195	61639
35.01007	60480
35.01818	56466
35.02632	58300
35.03443	59631
35.04255	51810
35.05068	53033
35.05880	55088
35.06693	52157
35.07505	56858
35.08317	53599
35.09130	53551
35.09942	55759
35.10755	51851
35.11567	54370
35.12378	56928
35.13192	48982
35.14003	51577
35.14817	54340
35.15628	54040
35.16440	55159
35.17253	55259
35.18065	53117
35.18877	49940
35.19690	52030
35.20502	50503
35.21315	49446
35.22127	52727
35.22938	52025
35.23752	50909
35.24563	49763
35.25377	50553
35.26188	52807
35.27000	50141
35.27813	50322
35.28625	54953
35.29437	52826
35.30250	51162
35.31062	50849
35.31875	53214
35.32687	52635
35.33498	49038
35.34312	49581
35.35123	50171
35.35937	50749
35.36748	50953
35.37560	47437
35.38373	50037
35.39185	51187
35.39998	49698
35.40810	50259
35.41622	53557
35.42435	51326
35.43247	57095
35.44058	58264
35.44872	52963
35.45683	54984
35.46497	55345
35.47308	54361
35.48120	54315
35.48933	55669
35.49745	58261
35.50558	55942
35.51370	50952
35.52182	54034
35.52995	53040
35.53807	54712
35.54620	48767
35.55432	49380
35.56243	50804
35.57057	49537
35.57868	50982
35.58680	51282
35.59493	52767
35.60305	49528
35.61118	49595
35.61930	48026
35.62742	52348
35.63555	53362
35.64367	53933
35.65180	53314
35.65992	54777
35.66803	56234
35.67617	55595
35.68428	54222
35.69240	51391
35.70053	56829
35.70865	55594
35.71678	54097
35.72490	56168
35.73302	57167
35.74115	60263
35.74927	60655
35.75740	63564
35.76552	66657
35.77363	62342
35.78177	64146
35.78988	64216
35.79802	59785
35.80613	57127
35.81425	55956
35.82238	58368
35.83050	58567
35.83862	57049
35.84675	51036
35.85487	52439
35.86300	51214
35.87112	55313
35.87923	53836
35.88737	49778
35.89548	53021
35.90362	51540
35.91173	56090
35.91985	58075
35.92798	52808
35.93610	54925
35.94423	53660
35.95235	48897
35.96047	50396
35.96860	52315
35.97672	52572
35.98483	53206
35.99297	55324
36.00108	52830
36.00922	52594
36.01733	56369
36.02545	54977
36.03358	60496
36.04170	63396
36.04983	57039
36.05795	53669
36.06607	56263
36.07420	54140
36.08232	54734
36.09043	60436
36.09857	54920
36.10668	57432
36.11482	54476
36.12293	58126
36.13105	57726
36.13918	59699
36.14730	61410
36.15543	62609
36.16355	58447
36.17167	63407
36.17980	55030
36.18792	59194
36.19605	62831
36.20417	59307
36.21228	68049
36.22042	67281
36.22853	66826
36.23665	67071
36.24478	72735
36.25290	76387
36.26103	75001
36.26915	73913
36.27727	79739
36.28540	80541
36.29352	86227
36.30165	93422
36.30977	91217
36.31788	95090
36.32602	97108
36.33413	97283
36.34227	87864
36.35038	80232
36.35850	81792
36.36663	83584
36.37475	79906
36.38287	79886
36.39100	77193
36.39912	79209
36.40725	81661
36.41537	81903
36.42348	79351
36.43162	81410
36.43973	80807
36.44787	80161
36.45598	80280
36.46410	75151
36.47223	78576
36.48035	75833
36.48847	69496
36.49660	70744
36.50472	76247
36.51285	72977
36.52097	78105
36.52908	74793
36.53722	75756
36.54533	72893
36.55347	78922
36.56158	70990
36.56970	75811
36.57783	77555
36.58595	75192
36.59408	73546
36.60220	78551
36.61032	70275
36.61845	72193
36.62657	68716
36.63468	75760
36.64282	77059
36.65093	77339
36.65907	71501
36.66718	76060
36.67530	74488
36.68343	69652
36.69155	69610
36.69968	68716
36.70780	69879
36.71592	69325
36.72405	69126
36.73217	71355
36.74028	71665
36.74842	70262
36.75653	72317
36.76467	68463
36.77278	73665
36.78090	65302
36.78903	68060
36.79715	71618
36.80528	69355
36.81340	70397
36.82152	67491
36.82965	64646
36.83777	63093
36.84590	71328
36.85402	67268
36.86213	66586
36.87027	66027
36.87838	62573
36.88650	67324
36.89463	66639
36.90275	65900
36.91088	65745
36.91900	66965
36.92712	70078
36.93525	71396
36.94337	71539
36.95150	75494
36.95962	78238
36.96773	81171
36.97587	80329
36.98398	78629
36.99212	74677
37.00023	73483
37.00835	69656
37.01648	66731
37.02460	68323
37.03272	68203
37.04085	66991
37.04897	66803
37.05710	67825
37.06522	64997
37.07333	68315
37.08147	72778
37.08958	67733
37.09772	68098
37.10583	68089
37.11395	67148
37.12208	66527
37.13020	65049
37.13832	67565
37.14645	64472
37.15457	64819
37.16270	70785
37.17082	61598
37.17893	66838
37.18707	64632
37.19518	68332
37.20332	67105
37.21143	67638
37.21955	65813
37.22768	70457
37.23580	72342
37.24393	67805
37.25205	65493
37.26017	64524
37.26830	68342
37.27642	64213
37.28453	66359
37.29267	71061
37.30078	69409
37.30892	73063
37.31703	71053
37.32515	72290
37.33328	77570
37.34140	83500
37.34953	90751
37.35765	88341
37.36577	93561
37.37390	92164
37.38202	86938
37.39015	86442
37.39827	87502
37.40638	87125
37.41452	80461
37.42263	77590
37.43075	82036
37.43888	77647
37.44700	78123
37.45513	78285
37.46325	74519
37.47137	82439
37.47950	76326
37.48762	72852
