Z:\data\JTB-E02\BACandBLUE\JTB-E02-199-14.D Wed Feb 27 15:02:27 2019
Start of data points
2.09528	84231
2.10342	77166
2.11153	86078
2.11965	85949
2.12778	82639
2.13590	80241
2.14403	78773
2.15215	80649
2.16027	78397
2.16840	77316
2.17652	83194
2.18465	83911
2.19277	81357
2.20088	83136
2.20902	82283
2.21713	80444
2.22527	76729
2.23338	77164
2.24150	82523
2.24963	108791
2.25775	315096
2.26587	593689
2.27400	648423
2.28212	455572
2.29025	312940
2.29837	260309
2.30648	228600
2.31462	221499
2.32273	203636
2.33087	195281
2.33898	174439
2.34710	163567
2.35523	164950
2.36335	148528
2.37148	147016
2.37960	147427
2.38772	138028
2.39585	135438
2.40397	135866
2.41208	134330
2.42022	133248
2.42833	128038
2.43647	126956
2.44458	120755
2.45270	123166
2.46083	115505
2.46895	115597
2.47708	117931
2.48520	126691
2.49332	124660
2.50145	117741
2.50957	116991
2.51768	113322
2.52582	115575
2.53393	121570
2.54207	194415
2.55018	257961
2.55830	267548
2.56643	213855
2.57455	172203
2.58268	165802
2.59080	202482
2.59892	334395
2.60705	416438
2.61517	348617
2.62330	263127
2.63142	207382
2.63953	185667
2.64767	167122
2.65578	153587
2.66390	146390
2.67203	143289
2.68015	141910
2.68828	133313
2.69640	130309
2.70452	125041
2.71265	122026
2.72077	122142
2.72890	115972
2.73702	125904
2.74513	113724
2.75327	120316
2.76138	342956
2.76950	1453510
2.77763	2762879
2.78575	2733913
2.79388	1852820
2.80200	1288209
2.81012	1022688
2.81825	900844
2.82637	796997
2.83450	684205
2.84262	551766
2.85073	488402
2.85887	442834
2.86698	395966
2.87512	350540
2.88323	330912
2.89135	313216
2.89948	268938
2.90760	259505
2.91572	240811
2.92385	229622
2.93197	206931
2.94010	195007
2.94822	194427
2.95633	184881
2.96447	185402
2.97258	179556
2.98072	180685
2.98883	229635
2.99695	321691
3.00508	342336
3.01320	289262
3.02133	229584
3.02945	186997
3.03757	184062
3.04570	200398
3.05382	224883
3.06193	233714
3.07007	344038
3.07818	923367
3.08632	1808078
3.09443	3087368
3.10255	4261699
3.11068	4233566
3.11880	3200121
3.12693	2342388
3.13505	1803178
3.14317	1481288
3.15130	1230889
3.15942	1096157
3.16753	1031927
3.17567	1200018
3.18378	1747559
3.19192	2052785
3.20003	1830265
3.20815	1444486
3.21628	1192448
3.22440	1028347
3.23253	882055
3.24065	786906
3.24877	708089
3.25690	654214
3.26502	588182
3.27315	596471
3.28127	913322
3.28938	2245191
3.29752	4931153
3.30563	7160770
3.31375	7052159
3.32188	5269890
3.33000	3587246
3.33813	2570502
3.34625	2001828
3.35437	1640312
3.36250	1408675
3.37062	1240037
3.37875	1154708
3.38687	1073726
3.39498	1014629
3.40312	939183
3.41123	889530
3.41937	812293
3.42748	750205
3.43560	717247
3.44373	666839
3.45185	622589
3.45997	628352
3.46810	617382
3.47622	603327
3.48435	599022
3.49247	589347
3.50058	578339
3.50872	542667
3.51683	528416
3.52497	527880
3.53308	510643
3.54120	484225
3.54933	442356
3.55745	418041
3.56557	422052
3.57370	412601
3.58182	394330
3.58995	371104
3.59807	351937
3.60618	359240
3.61432	391837
3.62243	470983
3.63057	564804
3.63868	566704
3.64680	573056
3.65493	1345108
3.66305	5484153
3.67118	1.324811E+07
3.67930	1.80423E+07
3.68742	1.614341E+07
3.69555	1.178618E+07
3.70367	8471771
3.71178	6688063
3.71992	5556663
3.72803	4767592
3.73617	4175637
3.74428	3723410
3.75240	3323893
3.76053	2988798
3.76865	2761449
3.77678	2578557
3.78490	2509702
3.79302	2564176
3.80115	3099672
3.80927	4148065
3.81738	4647589
3.82552	4180957
3.83363	3403770
3.84177	2818262
3.84988	2436857
3.85800	2195699
3.86613	2027523
3.87425	1877808
3.88238	1747726
3.89050	1653660
3.89862	1562949
3.90675	1540176
3.91487	1581236
3.92300	1653907
3.93112	1699588
3.93923	1701514
3.94737	1985481
3.95548	2884001
3.96360	3761245
3.97173	3754610
3.97985	2979296
3.98798	2504687
3.99610	3260599
4.00422	5517480
4.01235	7570469
4.02047	7355210
4.02860	5507139
4.03672	3760016
4.04483	2683832
4.05297	2107070
4.06108	1775565
4.06922	1542276
4.07733	1374255
4.08545	1257545
4.09358	1174560
4.10170	1101884
4.10982	1035717
4.11795	978726
4.12607	916641
4.13420	909298
4.14232	909262
4.15043	933919
4.15857	936627
4.16668	936983
4.17482	903119
4.18293	847265
4.19105	790251
4.19918	805460
4.20730	1295294
4.21542	3421471
4.22355	7816672
4.23167	1.253169E+07
4.23980	1.448701E+07
4.24792	1.274772E+07
4.25603	9158741
4.26417	6416932
4.27228	4772344
4.28042	3689952
4.28853	3007112
4.29665	2523847
4.30478	2151072
4.31290	1881692
4.32103	1690618
4.32915	1489754
4.33727	1365936
4.34540	1274452
4.35352	1267184
4.36163	1328313
4.36977	1321990
4.37788	1188966
4.38602	1056516
4.39413	932333
4.40225	851437
4.41038	800585
4.41850	741794
4.42663	727496
4.43475	701839
4.44287	668862
4.45100	639551
4.45912	619569
4.46725	601378
4.47537	582253
4.48348	584749
4.49162	563501
4.49973	554782
4.50785	546023
4.51598	530211
4.52410	526172
4.53223	506659
4.54035	516161
4.54847	522460
4.55660	520863
4.56472	495669
4.57285	488403
4.58097	471335
4.58908	448843
4.59722	437562
4.60533	437190
4.61345	450423
4.62158	515493
4.62970	739335
4.63783	997810
4.64595	1145514
4.65407	1024826
4.66220	863322
4.67032	724753
4.67845	670146
4.68657	607684
4.69468	552207
4.70282	490253
4.71093	456062
4.71907	431803
4.72718	411080
4.73530	403759
4.74343	374770
4.75155	372791
4.75967	364173
4.76780	351652
4.77592	353481
4.78405	368328
4.79217	432735
4.80028	548733
4.80842	671471
4.81653	689508
4.82467	622577
4.83278	556573
4.84090	534572
4.84903	530840
4.85715	513661
4.86527	477498
4.87340	420916
4.88152	411688
4.88965	383334
4.89777	370609
4.90588	363401
4.91402	349045
4.92213	335957
4.93027	337964
4.93838	378946
4.94650	510883
4.95463	852278
4.96275	1332805
4.97088	1705422
4.97900	1756585
4.98712	1499095
4.99525	1183343
5.00337	976969
5.01148	829534
5.01962	738753
5.02773	721334
5.03587	753179
5.04398	807575
5.05210	826793
5.06023	730026
5.06835	684369
5.07648	627194
5.08460	579773
5.09272	562016
5.10085	515514
5.10897	500972
5.11710	477182
5.12522	468253
5.13333	458646
5.14147	443607
5.14958	484896
5.15770	555670
5.16583	649429
5.17395	688926
5.18208	666196
5.19020	634097
5.19832	648844
5.20645	678699
5.21457	695217
5.22270	678190
5.23082	606412
5.23893	532846
5.24707	485249
5.25518	446786
5.26332	419336
5.27143	385554
5.27955	355478
5.28768	338722
5.29580	336549
5.30392	313931
5.31205	311811
5.32017	324174
5.32830	333577
5.33642	375114
5.34453	399679
5.35267	402308
5.36078	374763
5.36892	360381
5.37703	345978
5.38515	380907
5.39328	432855
5.40140	471612
5.40952	475589
5.41765	430849
5.42577	378589
5.43390	355252
5.44202	334185
5.45013	365868
5.45827	391816
5.46638	403748
5.47452	389102
5.48263	349868
5.49075	305841
5.49888	294164
5.50700	282694
5.51513	283799
5.52325	292375
5.53137	282450
5.53950	276992
5.54762	302718
5.55573	377844
5.56387	599425
5.57198	898116
5.58012	1096549
5.58823	1113135
5.59635	892529
5.60448	670592
5.61260	515183
5.62073	420455
5.62885	379948
5.63697	352054
5.64510	324628
5.65322	309240
5.66133	291704
5.66947	272976
5.67758	278543
5.68572	296183
5.69383	337169
5.70195	378657
5.71008	386785
5.71820	360528
5.72633	338942
5.73445	302839
5.74257	283970
5.75070	267119
5.75882	242773
5.76695	240474
5.77507	239885
5.78318	234062
5.79132	231531
5.79943	217578
5.80755	223910
5.81568	219636
5.82380	227088
5.83193	215106
5.84005	229746
5.84817	247847
5.85630	230758
5.86442	226165
5.87255	219330
5.88067	208047
5.88878	211647
5.89692	205901
5.90503	217688
5.91317	219783
5.92128	235211
5.92940	240878
5.93753	228902
5.94565	215780
5.95377	222948
5.96190	306835
5.97002	529622
5.97815	933871
5.98627	1326198
5.99438	1479998
6.00252	1295860
6.01063	993319
6.01877	752833
6.02688	585292
6.03500	490300
6.04313	420965
6.05125	371692
6.05937	349186
6.06750	332143
6.07562	313966
6.08375	303089
6.09187	302682
6.09998	293072
6.10812	273887
6.11623	268400
6.12437	280210
6.13248	340567
6.14060	462580
6.14873	600175
6.15685	659830
6.16498	583390
6.17310	480080
6.18122	408509
6.18935	369336
6.19747	337950
6.20558	312132
6.21372	306624
6.22183	278678
6.22997	274315
6.23808	273434
6.24620	280858
6.25433	312735
6.26245	366244
6.27058	384015
6.27870	375100
6.28682	336000
6.29495	311097
6.30307	282780
6.31120	275567
6.31932	266962
6.32743	283191
6.33557	298492
6.34368	294178
6.35180	315094
6.35993	291536
6.36805	282434
6.37618	265498
6.38430	264524
6.39242	277278
6.40055	263053
6.40867	258149
6.41680	256867
6.42492	241883
6.43303	245380
6.44117	246262
6.44928	240785
6.45740	254862
6.46553	261133
6.47365	269661
6.48178	257491
6.48990	250099
6.49802	257434
6.50615	252825
6.51427	253456
6.52240	263464
6.53052	256427
6.53863	254706
6.54677	258531
6.55488	262624
6.56302	299312
6.57113	443618
6.57925	707389
6.58738	971841
6.59550	1081174
6.60362	917871
6.61175	680116
6.61987	491404
6.62800	414648
6.63612	332738
6.64423	367657
6.65237	673616
6.66048	1856869
6.66862	4445466
6.67673	7676197
6.68485	9605025
6.69298	8929418
6.70110	6792715
6.70922	4522637
6.71735	3046900
6.72547	2247691
6.73360	1777469
6.74172	1484690
6.74983	1298714
6.75797	1134553
6.76608	1011984
6.77422	910746
6.78233	829886
6.79045	748800
6.79858	695920
6.80670	647865
6.81483	595918
6.82295	557764
6.83107	516745
6.83920	494542
6.84732	471793
6.85543	450438
6.86357	433592
6.87168	405184
6.87982	371827
6.88793	354358
6.89605	314548
6.90418	269392
6.91230	234294
6.92043	203468
6.92855	195321
6.93667	251862
6.94480	318297
6.95292	384010
6.96105	407242
6.96917	420237
6.97728	452469
6.98542	474808
6.99353	487853
7.00165	474090
7.00978	435872
7.01790	380537
7.02603	360149
7.03415	332979
7.04227	325678
7.05040	308979
7.05852	303649
7.06665	324476
7.07477	365896
7.08288	406369
7.09102	465654
7.09913	504716
7.10725	475425
7.11538	409065
7.12350	364950
7.13163	317814
7.13975	303193
7.14787	305716
7.15600	331843
7.16412	371327
7.17225	425987
7.18037	477124
7.18848	667396
7.19662	1164986
7.20473	1945711
7.21287	2573285
7.22098	2580069
7.22910	1991693
7.23723	1291787
7.24535	710761
7.25347	387737
7.26160	276037
7.26972	232908
7.27785	227717
7.28597	229185
7.29408	223695
7.30222	217213
7.31033	231074
7.31847	200606
7.32658	207944
7.33470	198238
7.34283	196642
7.35095	199897
7.35908	210843
7.36720	202323
7.37532	199981
7.38345	196738
7.39157	194722
7.39968	185778
7.40782	191421
7.41593	178623
7.42407	169878
7.43218	168494
7.44030	168405
7.44843	152934
7.45655	172074
7.46468	158265
7.47280	172894
7.48092	163170
7.48905	168822
7.49717	164904
7.50528	161947
7.51342	157287
7.52153	153873
7.52967	163999
7.53778	196321
7.54590	319450
7.55403	629330
7.56215	1307550
7.57028	2403422
7.57840	3664508
7.58652	4894737
7.59465	5334104
7.60277	4936626
7.61090	3956038
7.61902	2779125
7.62713	1806077
7.63527	1151060
7.64338	794972
7.65150	592663
7.65963	450515
7.66775	351217
7.67588	291449
7.68400	253803
7.69212	201123
7.70025	183244
7.70837	188252
7.71650	209753
7.72462	263069
7.73273	329702
7.74087	391292
7.74898	420788
7.75712	419953
7.76523	402399
7.77335	369273
7.78148	339876
7.78960	310630
7.79772	306059
7.80585	292819
7.81397	292980
7.82210	286506
7.83022	293032
7.83833	278116
7.84647	245314
7.85458	222786
7.86272	217242
7.87083	216595
7.87895	224186
7.88708	247837
7.89520	264346
7.90332	319356
7.91145	332700
7.91957	336409
7.92770	316679
7.93582	330761
7.94393	395814
7.95207	477755
7.96018	520963
7.96832	477007
7.97643	404805
7.98455	310271
7.99268	242812
8.00080	207551
8.00893	171687
8.01705	161289
8.02517	156936
8.03330	152198
8.04142	137562
8.04953	135786
8.05767	132629
8.06578	134902
8.07392	125828
8.08203	122126
8.09015	120394
8.09828	120051
8.10640	122982
8.11453	115719
8.12265	110605
8.13077	114082
8.13890	116697
8.14702	127419
8.15513	147293
8.16327	177726
8.17138	178879
8.17952	167339
8.18763	153470
8.19575	138278
8.20388	132455
8.21200	119864
8.22013	113782
8.22825	113035
8.23637	104800
8.24450	107112
8.25262	106814
8.26075	105488
8.26887	104186
8.27698	101998
8.28512	94296
8.29323	96846
8.30135	91935
8.30948	95419
8.31760	93358
8.32573	105645
8.33385	111758
8.34197	127100
8.35010	140439
8.35822	134266
8.36635	126192
8.37447	110920
8.38258	105403
8.39072	97291
8.39883	101212
8.40697	99941
8.41508	93055
8.42320	87234
8.43133	81204
8.43945	82465
8.44757	77622
8.45570	82546
8.46382	80757
8.47195	81363
8.48007	83035
8.48818	87156
8.49632	80045
8.50443	92947
8.51257	110993
8.52068	160316
8.52880	264657
8.53693	418520
8.54505	565637
8.55317	565931
8.56130	446342
8.56942	297683
8.57755	194838
8.58567	141165
8.59378	134678
8.60192	122436
8.61003	116018
8.61817	117019
8.62628	119699
8.63440	118378
8.64253	118126
8.65065	113306
8.65878	103870
8.66690	100606
8.67502	94160
8.68315	94169
8.69127	87238
8.69938	83666
8.70752	87068
8.71563	86506
8.72377	84779
8.73188	81991
8.74000	85633
8.74813	80807
8.75625	81036
8.76438	76311
8.77250	84478
8.78062	101456
8.78875	136067
8.79687	210801
8.80500	301445
8.81312	377225
8.82123	381172
8.82937	348476
8.83748	290151
8.84560	243199
8.85373	205489
8.86185	203560
8.86998	188669
8.87810	175704
8.88622	162912
8.89435	158654
8.90247	150077
8.91060	143422
8.91872	136395
8.92683	144710
8.93497	155072
8.94308	162881
8.95120	175239
8.95933	179432
8.96745	160032
8.97558	149449
8.98370	145557
8.99182	159493
8.99995	174574
9.00807	174786
9.01620	162647
9.02432	146530
9.03243	143157
9.04057	127826
9.04868	125613
9.05682	116857
9.06493	105351
9.07305	109785
9.08118	99786
9.08930	103708
9.09742	109366
9.10555	126743
9.11367	152538
9.12180	192119
9.12992	227369
9.13803	254941
9.14617	242123
9.15428	206797
9.16242	162190
9.17053	139454
9.17865	121502
9.18678	118614
9.19490	118002
9.20302	104323
9.21115	101131
9.21927	101973
9.22740	101291
9.23552	101256
9.24363	100094
9.25177	106967
9.25988	109918
9.26802	119442
9.27613	109943
9.28425	106886
9.29238	111123
9.30050	107312
9.30863	99803
9.31675	94590
9.32487	91027
9.33300	91994
9.34112	89541
9.34923	92023
9.35737	94117
9.36548	98353
9.37362	96350
9.38173	92397
9.38985	95161
9.39798	94507
9.40610	110470
9.41423	134925
9.42235	175813
9.43047	229197
9.43860	259007
9.44672	310844
9.45485	339124
9.46297	356648
9.47108	335504
9.47922	276563
9.48733	224666
9.49545	176586
9.50358	143869
9.51170	132632
9.51983	147725
9.52795	166237
9.53607	190400
9.54420	202250
9.55232	205289
9.56045	200815
9.56857	176641
9.57668	146030
9.58482	121827
9.59293	110798
9.60105	94449
9.60918	87663
9.61730	89994
9.62543	83983
9.63355	81889
9.64167	83233
9.64980	80216
9.65792	79174
9.66605	76281
9.67417	71363
9.68228	81755
9.69042	78166
9.69853	79015
9.70667	73566
9.71478	72555
9.72290	72394
9.73103	70428
9.73915	65928
9.74727	68324
9.75540	64597
9.76352	59968
9.77165	60166
9.77977	62247
9.78788	61415
9.79602	62733
9.80413	58231
9.81227	63916
9.82038	61024
9.82850	59895
9.83663	60308
9.84475	57605
9.85288	64808
9.86100	65281
9.86912	64909
9.87725	63312
9.88537	66299
9.89348	63314
9.90162	57935
9.90973	60727
9.91787	61126
9.92598	60996
9.93410	61301
9.94223	73247
9.95035	91678
9.95848	137501
9.96660	213589
9.97472	313198
9.98285	377474
9.99097	410493
9.99908	380105
10.00722	283511
10.01533	195996
10.02347	139244
10.03158	111958
10.03970	95627
10.04783	105122
10.05595	106709
10.06408	109425
10.07220	111647
10.08032	113858
10.08845	107692
10.09657	111743
10.10470	103440
10.11282	102495
10.12093	100993
10.12907	98095
10.13718	96016
10.14530	93215
10.15343	81916
10.16155	85111
10.16968	79484
10.17780	77453
10.18592	74339
10.19405	80645
10.20217	67342
10.21030	75200
10.21842	73369
10.22653	67473
10.23467	71625
10.24278	74516
10.25090	81979
10.25903	96020
10.26715	141488
10.27528	294553
10.28340	681080
10.29152	1420866
10.29965	2485527
10.30777	3731256
10.31590	5496745
10.32402	8307231
10.33213	1.206525E+07
10.34027	1.576943E+07
10.34838	1.705926E+07
10.35652	1.501104E+07
10.36463	1.088209E+07
10.37275	7169856
10.38088	5598329
10.38900	5247665
10.39712	5002208
10.40525	4310037
10.41337	3223277
10.42150	2254327
10.42962	1593905
10.43773	1272557
10.44587	1136567
10.45398	1078024
10.46212	1029480
10.47023	947688
10.47835	844956
10.48648	718465
10.49460	652135
10.50273	557086
10.51085	502923
10.51897	477108
10.52710	423276
10.53522	392075
10.54333	372244
10.55147	349357
10.55958	328539
10.56772	313949
10.57583	303370
10.58395	293707
10.59208	276469
10.60020	272464
10.60833	251619
10.61645	235472
10.62457	222586
10.63270	214884
10.64082	211238
10.64895	206820
10.65707	205696
10.66518	187335
10.67332	180581
10.68143	180404
10.68955	173968
10.69768	178936
10.70580	178246
10.71393	187762
10.72205	192383
10.73017	196146
10.73830	183405
10.74642	171228
10.75455	164930
10.76267	152680
10.77078	150640
10.77892	148964
10.78703	148474
10.79515	141661
10.80328	134252
10.81140	138435
10.81953	145912
10.82765	169013
10.83577	164240
10.84390	166849
10.85202	145300
10.86015	139934
10.86827	123196
10.87638	115622
10.88452	116162
10.89263	105548
10.90077	103005
10.90888	110966
10.91700	104677
10.92513	101825
10.93325	98224
10.94137	97946
10.94950	97177
10.95762	95165
10.96575	97253
10.97387	87792
10.98198	90744
10.99012	93520
10.99823	98252
11.00637	103231
11.01448	107620
11.02260	117073
11.03073	128071
11.03885	125535
11.04697	120538
11.05510	113875
11.06322	105481
11.07135	98417
11.07947	101702
11.08758	109264
11.09572	124245
11.10383	137188
11.11197	145435
11.12008	142516
11.12820	145289
11.13633	128430
11.14445	116502
11.15258	103685
11.16070	94851
11.16882	91714
11.17695	93172
11.18507	91649
11.19318	89499
11.20132	88786
11.20943	84357
11.21757	78908
11.22568	83628
11.23380	79767
11.24193	74258
11.25005	69888
11.25818	63124
11.26630	67530
11.27442	63895
11.28255	65531
11.29067	59589
11.29880	64160
11.30692	66105
11.31503	112061
11.32317	212189
11.33128	465231
11.33940	999692
11.34753	1886262
11.35565	2868480
11.36378	3489283
11.37190	3653583
11.38002	3149069
11.38815	2428678
11.39627	1820173
11.40440	1394332
11.41252	1129941
11.42063	961579
11.42877	777390
11.43688	683559
11.44500	572524
11.45313	491698
11.46125	433560
11.46938	392392
11.47750	351734
11.48562	327694
11.49375	322137
11.50187	321132
11.51000	339692
11.51812	329213
11.52623	322134
11.53437	302966
11.54248	269459
11.55062	251889
11.55873	241624
11.56685	210841
11.57498	209458
11.58310	202547
11.59122	207233
11.59935	197753
11.60747	203815
11.61560	223844
11.62372	250253
11.63183	255824
11.63997	251257
11.64808	228715
11.65622	200505
11.66433	164900
11.67245	149419
11.68058	137535
11.68870	134015
11.69683	138445
11.70495	133675
11.71307	135489
11.72120	139490
11.72932	143227
11.73743	134152
11.74557	132610
11.75368	116021
11.76182	108845
11.76993	102583
11.77805	97405
11.78618	102928
11.79430	96051
11.80243	88809
11.81055	80171
11.81867	87374
11.82680	83949
11.83492	82625
11.84303	79318
11.85117	84547
11.85928	81381
11.86742	80606
11.87553	81907
11.88365	80687
11.89178	76957
11.89990	73967
11.90803	77416
11.91615	71491
11.92427	74565
11.93240	77459
11.94052	76115
11.94865	77829
11.95677	80339
11.96488	77184
11.97302	76019
11.98113	65855
11.98925	71302
11.99738	74046
12.00550	78985
12.01363	93917
12.02175	97685
12.02987	99247
12.03800	103857
12.04612	84566
12.05425	79866
12.06237	75479
12.07048	67222
12.07862	73546
12.08673	72836
12.09485	83193
12.10298	91715
12.11110	122264
12.11923	197902
12.12735	377155
12.13547	703368
12.14360	1160614
12.15172	1598009
12.15985	1855822
12.16797	1786563
12.17608	1450073
12.18422	1063580
12.19233	747048
12.20047	593386
12.20858	489162
12.21670	417530
12.22483	382798
12.23295	324008
12.24107	292842
12.24920	259126
12.25732	238802
12.26545	234378
12.27357	220686
12.28168	203113
12.28982	198541
12.29793	191066
12.30607	176620
12.31418	163559
12.32230	159484
12.33043	146631
12.33855	138140
12.34668	134457
12.35480	133439
12.36292	127691
12.37105	131468
12.37917	124841
12.38728	125904
12.39542	117260
12.40353	121811
12.41167	125975
12.41978	145138
12.42790	172792
12.43603	195181
12.44415	206446
12.45228	195328
12.46040	177560
12.46852	149612
12.47665	148556
12.48477	128416
12.49288	126386
12.50102	123436
12.50913	112093
12.51727	111481
12.52538	106063
12.53350	108966
12.54163	107870
12.54975	115724
12.55788	138393
12.56600	149603
12.57412	155046
12.58225	160264
12.59037	153862
12.59850	134253
12.60662	125650
12.61473	112870
12.62287	111675
12.63098	112398
12.63910	99145
12.64723	101566
12.65535	99315
12.66348	94970
12.67160	86568
12.67972	86075
12.68785	82316
12.69597	77820
12.70410	82693
12.71222	79533
12.72033	81519
12.72847	78427
12.73658	78513
12.74472	75869
12.75283	80952
12.76095	80774
12.76908	75035
12.77720	73893
12.78532	71661
12.79345	68858
12.80157	66993
12.80970	68376
12.81782	73634
12.82593	65823
12.83407	56732
12.84218	54997
12.85032	56010
12.85843	53142
12.86655	48347
12.87468	47486
12.88280	46092
12.89092	51787
12.89905	49085
12.90717	47248
12.91530	46566
12.92342	50731
12.93153	56762
12.93967	47617
12.94778	46690
12.95592	48498
12.96403	49383
12.97215	47165
12.98028	51970
12.98840	59016
12.99653	58051
13.00465	57655
13.01277	55215
13.02090	51619
13.02902	49622
13.03713	49812
13.04527	48429
13.05338	49425
13.06152	52434
13.06963	47697
13.07775	51823
13.08588	48926
13.09400	50601
13.10213	45428
13.11025	53539
13.11837	51094
13.12650	47254
13.13462	48006
13.14275	46049
13.15087	46788
13.15898	49231
13.16712	44265
13.17523	46288
13.18335	48998
13.19148	46905
13.19960	48757
13.20773	51789
13.21585	57003
13.22397	52068
13.23210	63476
13.24022	56559
13.24835	57399
13.25647	56716
13.26458	58357
13.27272	56268
13.28083	51527
13.28895	54782
13.29708	45050
13.30520	44971
13.31333	46963
13.32145	43136
13.32957	43918
13.33770	48119
13.34582	44053
13.35395	54271
13.36207	46540
13.37018	45360
13.37832	46554
13.38643	42607
13.39457	43870
13.40268	45265
13.41080	41706
13.41893	43675
13.42705	44512
13.43517	40817
13.44330	44035
13.45142	43416
13.45955	46327
13.46767	46412
13.47578	49725
13.48392	50504
13.49203	51832
13.50017	59816
13.50828	51476
13.51640	53810
13.52453	49816
13.53265	47818
13.54077	47716
13.54890	46275
13.55702	49515
13.56515	46952
13.57327	51034
13.58138	58933
13.58952	56003
13.59763	61155
13.60577	69880
13.61388	69615
13.62200	73787
13.63013	78398
13.63825	76517
13.64638	69365
13.65450	69568
13.66262	62387
13.67075	54197
13.67887	56841
13.68698	47482
13.69512	43803
13.70323	45423
13.71137	46756
13.71948	45095
13.72760	42039
13.73573	50146
13.74385	48971
13.75198	53775
13.76010	60441
13.76822	78818
13.77635	102021
13.78447	141089
13.79260	180884
13.80072	217033
13.80883	246053
13.81697	277986
13.82508	304560
13.83320	349333
13.84133	412777
13.84945	497503
13.85758	550910
13.86570	559252
13.87382	501155
13.88195	404618
13.89007	321792
13.89820	246841
13.90632	194568
13.91443	160109
13.92257	130428
13.93068	116691
13.93880	103251
13.94693	101635
13.95505	96758
13.96318	91895
13.97130	110857
13.97942	119524
13.98755	143580
13.99567	167216
14.00380	172267
14.01192	158679
14.02003	143543
14.02817	117635
14.03628	103273
14.04442	85901
14.05253	89846
14.06065	85331
14.06878	83334
14.07690	74382
14.08502	76116
14.09315	72899
14.10127	73314
14.10940	67577
14.11752	61564
14.12563	63414
14.13377	58128
14.14188	63601
14.15002	66855
14.15813	64434
14.16625	83988
14.17438	89725
14.18250	91082
14.19063	103431
14.19875	107451
14.20687	107535
14.21500	128498
14.22312	151365
14.23123	166061
14.23937	179964
14.24748	182186
14.25562	177532
14.26373	165282
14.27185	154960
14.27998	154381
14.28810	140717
14.29623	125145
14.30435	110199
14.31247	100524
14.32060	95178
14.32872	84800
14.33683	92592
14.34497	75746
14.35308	77561
14.36122	74076
14.36933	74769
14.37745	74363
14.38558	63675
14.39370	61993
14.40183	63504
14.40995	61265
14.41807	67341
14.42620	74547
14.43432	81638
14.44245	77582
14.45057	75530
14.45868	70379
14.46682	68561
14.47493	62900
14.48305	63101
14.49118	62321
14.49930	55622
14.50743	60380
14.51555	57592
14.52367	66195
14.53180	61041
14.53992	62496
14.54805	61249
14.55617	56182
14.56428	59643
14.57242	58748
14.58053	57828
14.58865	52690
14.59678	47859
14.60490	50773
14.61303	44754
14.62115	48392
14.62927	45291
14.63740	44262
14.64552	45559
14.65365	42765
14.66177	43301
14.66988	41239
14.67802	39485
14.68613	39967
14.69427	41907
14.70238	37376
14.71050	48990
14.71863	41638
14.72675	40808
14.73487	39563
14.74300	55441
14.75112	49447
14.75925	53231
14.76737	51237
14.77548	48568
14.78362	53038
14.79173	58960
14.79987	76469
14.80798	160206
14.81610	378426
14.82423	993547
14.83235	2152034
14.84048	3621465
14.84860	4775337
14.85672	5243198
14.86485	4568996
14.87297	3310402
14.88108	2147727
14.88922	1336295
14.89733	878000
14.90547	640812
14.91358	510058
14.92170	439813
14.92983	362291
14.93795	347327
14.94608	316014
14.95420	294182
14.96232	282103
14.97045	254796
14.97857	233446
14.98670	219128
14.99482	204547
15.00293	192919
15.01107	179066
15.01918	177383
15.02730	172198
15.03543	172878
15.04355	160955
15.05168	161286
15.05980	147244
15.06792	144122
15.07605	147526
15.08417	135094
15.09230	126709
15.10042	115872
15.10853	124582
15.11667	113013
15.12478	107404
15.13290	104813
15.14103	115193
15.14915	125880
15.15728	125667
15.16540	128151
15.17352	114145
15.18165	104451
15.18977	92987
15.19790	83734
15.20602	76574
15.21413	72789
15.22227	65140
15.23038	62491
15.23852	64866
15.24663	65070
15.25475	57899
15.26288	63008
15.27100	58955
15.27912	58037
15.28725	58770
15.29537	54983
15.30350	56733
15.31162	49342
15.31973	54771
15.32787	48843
15.33598	54692
15.34412	50360
15.35223	47343
15.36035	47407
15.36848	46000
15.37660	52254
15.38472	49353
15.39285	52839
15.40097	52672
15.40910	51799
15.41722	57335
15.42533	52005
15.43347	47286
15.44158	47048
15.44972	46837
15.45783	49887
15.46595	51482
15.47408	55457
15.48220	80048
15.49033	120572
15.49845	197523
15.50657	295131
15.51470	411186
15.52282	507274
15.53093	551978
15.53907	562124
15.54718	561868
15.55532	548143
15.56343	552965
15.57155	557299
15.57968	504717
15.58780	427226
15.59593	347378
15.60405	262015
15.61217	205860
15.62030	157963
15.62842	146093
15.63655	121387
15.64467	119478
15.65278	103368
15.66092	104981
15.66903	96183
15.67715	87756
15.68528	84376
15.69340	86418
15.70153	77709
15.70965	71907
15.71777	69661
15.72590	68282
15.73402	64852
15.74215	67054
15.75027	75134
15.75838	63764
15.76652	73802
15.77463	101839
15.78275	155430
15.79088	227985
15.79900	318010
15.80713	379045
15.81525	392216
15.82337	324806
15.83150	253345
15.83962	186591
15.84775	134619
15.85587	117444
15.86398	97132
15.87212	89203
15.88023	89441
15.88837	86906
15.89648	80957
15.90460	88550
15.91273	91749
15.92085	91911
15.92897	81082
15.93710	81002
15.94522	77753
15.95335	76604
15.96147	71516
15.96958	72004
15.97772	73910
15.98583	82544
15.99397	93363
16.00208	90714
16.01020	90164
16.01833	86109
16.02645	82465
16.03458	76704
16.04270	81755
16.05082	77310
16.05895	74053
16.06707	70454
16.07518	64588
16.08332	60552
16.09143	59497
16.09957	52746
16.10768	55581
16.11580	59046
16.12393	54027
16.13205	62867
16.14018	63289
16.14830	66397
16.15642	73435
16.16455	73579
16.17267	77671
16.18078	72901
16.18892	75636
16.19703	71154
16.20517	63448
16.21328	56574
16.22140	65189
16.22953	62021
16.23765	62524
16.24578	60211
16.25390	58868
16.26202	55322
16.27015	56629
16.27827	50746
16.28640	57019
16.29452	64444
16.30263	62866
16.31077	73039
16.31888	81431
16.32700	74230
16.33513	79302
16.34325	76733
16.35138	70643
16.35950	71675
16.36762	74091
16.37575	81172
16.38387	94173
16.39200	107794
16.40012	110133
16.40823	103979
16.41637	89613
16.42448	85655
16.43260	71261
16.44073	67190
16.44885	66952
16.45698	76607
16.46510	115041
16.47322	204949
16.48135	397566
16.48947	648998
16.49760	908501
16.50572	1031283
16.51383	903685
16.52197	706100
16.53008	460999
16.53822	304916
16.54633	197865
16.55445	154283
16.56258	136916
16.57070	114860
16.57882	108129
16.58695	100082
16.59507	99011
16.60320	101645
16.61132	101699
16.61943	106632
16.62757	115388
16.63568	109226
16.64382	103911
16.65193	97946
16.66005	90514
16.66818	81012
16.67630	72077
16.68443	71256
16.69255	67734
16.70067	68525
16.70880	65200
16.71692	63522
16.72503	61608
16.73317	58788
16.74128	57903
16.74942	57267
16.75753	54260
16.76565	60311
16.77378	61624
16.78190	63716
16.79003	61588
16.79815	61556
16.80627	58114
16.81440	52108
16.82252	55454
16.83063	49845
16.83877	50541
16.84688	50092
16.85502	47279
16.86313	46258
16.87125	50822
16.87938	45492
16.88750	48905
16.89563	43128
16.90375	45091
16.91187	45636
16.92000	44179
16.92812	47705
16.93625	43545
16.94437	50834
16.95248	49343
16.96062	50111
16.96873	45424
16.97685	48513
16.98498	43969
16.99310	44231
17.00123	44296
17.00935	44175
17.01747	45005
17.02560	44925
17.03372	49113
17.04185	48060
17.04997	51309
17.05808	52778
17.06622	55762
17.07433	62249
17.08247	58407
17.09058	63387
17.09870	67434
17.10683	88533
17.11495	103755
17.12307	128923
17.13120	151945
17.13932	169416
17.14745	192494
17.15557	173333
17.16368	160841
17.17182	143944
17.17993	113379
17.18807	96124
17.19618	85736
17.20430	82110
17.21243	69189
17.22055	66939
17.22867	64049
17.23680	57631
17.24492	58403
17.25305	57194
17.26117	57072
17.26928	55374
17.27742	53874
17.28553	48816
17.29367	54236
17.30178	52049
17.30990	53476
17.31803	52654
17.32615	48586
17.33428	58439
17.34240	59437
17.35052	62696
17.35865	73217
17.36677	76428
17.37488	76183
17.38302	78692
17.39113	75562
17.39927	73562
17.40738	75596
17.41550	75980
17.42363	79057
17.43175	70698
17.43988	77623
17.44800	80312
17.45612	78590
17.46425	70680
17.47237	70416
17.48048	65528
17.48862	65458
17.49673	53625
17.50487	53895
17.51298	52043
17.52110	50969
17.52923	52748
17.53735	49511
17.54548	54964
17.55360	53267
17.56172	51168
17.56985	61450
17.57797	73295
17.58610	100766
17.59422	165718
17.60233	270587
17.61047	417159
17.61858	572061
17.62670	645037
17.63483	664388
17.64295	548255
17.65108	451843
17.65920	367086
17.66732	319396
17.67545	317744
17.68357	334463
17.69170	315546
17.69982	275055
17.70793	254794
17.71607	198933
17.72418	170455
17.73232	151178
17.74043	129323
17.74855	121779
17.75668	117489
17.76480	116385
17.77292	111318
17.78105	103336
17.78917	91489
17.79730	82325
17.80542	78889
17.81353	73729
17.82167	76291
17.82978	79774
17.83792	77385
17.84603	85135
17.85415	92484
17.86228	98402
17.87040	104636
17.87852	121922
17.88665	118651
17.89477	117803
17.90290	101282
17.91102	91796
17.91913	77521
17.92727	66970
17.93538	64435
17.94352	63096
17.95163	56930
17.95975	55592
17.96788	62206
17.97600	57176
17.98413	51635
17.99225	51255
18.00037	54758
18.00850	51287
18.01662	50747
18.02473	57038
18.03287	67874
18.04098	87655
18.04912	110788
18.05723	121085
18.06535	130415
18.07348	165404
18.08160	246269
18.08973	434656
18.09785	718723
18.10597	1043932
18.11410	1219406
18.12222	1241369
18.13035	1069734
18.13847	801193
18.14658	597021
18.15472	488642
18.16283	396094
18.17095	320218
18.17908	289385
18.18720	265411
18.19533	234528
18.20345	225279
18.21157	209986
18.21970	191917
18.22782	169955
18.23595	163682
18.24407	152380
18.25218	141364
18.26032	137211
18.26843	128528
18.27655	124639
18.28468	115992
18.29280	107302
18.30093	95918
18.30905	79772
18.31717	73692
18.32530	63772
18.33342	66173
18.34155	60060
18.34967	62717
18.35778	61961
18.36592	58211
18.37403	58793
18.38217	54989
18.39028	52654
18.39840	54709
18.40653	53874
18.41465	56279
18.42277	59611
18.43090	70809
18.43902	88034
18.44715	106717
18.45527	132969
18.46338	158486
18.47152	185736
18.47963	209382
18.48777	245251
18.49588	269595
18.50400	278120
18.51213	260165
18.52025	233471
18.52838	185947
18.53650	142754
18.54462	114356
18.55275	100309
18.56087	89653
18.56898	83017
18.57712	78946
18.58523	70767
18.59337	72348
18.60148	71126
18.60960	75312
18.61773	75380
18.62585	84265
18.63398	91847
18.64210	94447
18.65022	98136
18.65835	103533
18.66647	96552
18.67458	86406
18.68272	76399
18.69083	71604
18.69897	61542
18.70708	61368
18.71520	59825
18.72333	59702
18.73145	56805
18.73958	58989
18.74770	56972
18.75582	57124
18.76395	53677
18.77207	55793
18.78020	50989
18.78832	53742
18.79643	53934
18.80457	50686
18.81268	55520
18.82080	56975
18.82893	55983
18.83705	47480
18.84518	49411
18.85330	48821
18.86142	52358
18.86955	57860
18.87767	60290
18.88580	66803
18.89392	73599
18.90203	78661
18.91017	82464
18.91828	79371
18.92640	70163
18.93453	67604
18.94265	67036
18.95078	65755
18.95890	67794
18.96702	67634
18.97515	63309
18.98327	64588
18.99140	59744
18.99952	62261
19.00763	58563
19.01577	63990
19.02388	52593
19.03202	58947
19.04013	53220
19.04825	52670
19.05638	50934
19.06450	54345
19.07262	49914
19.08075	48778
19.08887	57551
19.09700	64821
19.10512	77625
19.11323	99730
19.12137	111882
19.12948	115560
19.13762	115744
19.14573	105886
19.15385	88920
19.16198	81588
19.17010	71182
19.17823	74399
19.18635	78246
19.19447	72963
19.20260	81486
19.21072	83496
19.21883	77460
19.22697	70766
19.23508	73142
19.24322	62279
19.25133	55224
19.25945	52940
19.26758	52446
19.27570	53190
19.28383	52243
19.29195	55984
19.30007	56058
19.30820	65564
19.31632	65579
19.32443	67924
19.33257	66829
19.34068	67087
19.34882	66338
19.35693	69095
19.36505	69301
19.37318	83055
19.38130	98826
19.38943	117972
19.39755	150356
19.40567	149787
19.41380	148172
19.42192	145865
19.43005	133984
19.43817	131006
19.44628	133365
19.45442	126788
19.46253	127166
19.47065	125641
19.47878	122057
19.48690	123200
19.49503	132920
19.50315	137360
19.51127	151706
19.51940	174289
19.52752	197112
19.53565	223107
19.54377	240724
19.55188	221615
19.56002	204998
19.56813	184277
19.57627	176674
19.58438	151162
19.59250	151214
19.60063	139429
19.60875	133040
19.61687	123289
19.62500	132022
19.63312	128102
19.64125	124619
19.64937	143164
19.65748	166864
19.66562	223006
19.67373	302509
19.68187	405882
19.68998	485179
19.69810	505277
19.70623	494358
19.71435	440353
19.72247	376299
19.73060	321773
19.73872	266039
19.74685	240697
19.75497	223405
19.76308	193821
19.77122	181912
19.77933	168546
19.78747	178491
19.79558	185549
19.80370	204815
19.81183	234943
19.81995	257554
19.82808	247910
19.83620	247158
19.84432	223505
19.85245	209749
19.86057	249081
19.86868	481721
19.87682	1242431
19.88493	3183741
19.89307	7066359
19.90118	1.330437E+07
19.90930	2.023331E+07
19.91743	2.538893E+07
19.92555	2.734978E+07
19.93368	2.520182E+07
19.94180	2.033599E+07
19.94992	1.466436E+07
19.95805	9948603
19.96617	6933950
19.97428	5266553
19.98242	4332751
19.99053	3799548
19.99867	3434519
20.00678	3121559
20.01490	2855368
20.02303	2705553
20.03115	2474280
20.03928	2243495
20.04740	2012502
20.05552	1830291
20.06365	1567010
20.07177	1286103
20.07990	1056822
20.08802	871857
20.09613	760969
20.10427	709752
20.11238	672960
20.12050	620814
20.12863	571748
20.13675	487418
20.14488	467396
20.15300	439928
20.16112	484132
20.16925	597263
20.17737	808820
20.18550	1179843
20.19362	1681656
20.20173	2204696
20.20987	2625169
20.21798	2728854
20.22612	2630439
20.23423	2214123
20.24235	1848858
20.25048	1482564
20.25860	1365607
20.26672	1333588
20.27485	1539163
20.28297	1794823
20.29110	1964957
20.29922	2037564
20.30733	1935274
20.31547	1688787
20.32358	1381819
20.33172	1059961
20.33983	802461
20.34795	615795
20.35608	491118
20.36420	380770
20.37233	309718
20.38045	259648
20.38857	232973
20.39670	212616
20.40482	199253
20.41293	184493
20.42107	178601
20.42918	161213
20.43732	156212
20.44543	163359
20.45355	167634
20.46168	168753
20.46980	176181
20.47793	172090
20.48605	170896
20.49417	163516
20.50230	143392
20.51042	147529
20.51853	131550
20.52667	118169
20.53478	111697
20.54292	111852
20.55103	111245
20.55915	108201
20.56728	109168
20.57540	107413
20.58353	101892
20.59165	101542
20.59977	100344
20.60790	101410
20.61602	99012
20.62415	94860
20.63227	102125
20.64038	98972
20.64852	103388
20.65663	100454
20.66475	106561
20.67288	110452
20.68100	106831
20.68913	104406
20.69725	95020
20.70537	93215
20.71350	93461
20.72162	92153
20.72975	84929
20.73787	84788
20.74598	91695
20.75412	90491
20.76223	87056
20.77035	92721
20.77848	93172
20.78660	96680
20.79473	113326
20.80285	149251
20.81097	206281
20.81910	309590
20.82722	453579
20.83535	567148
20.84347	586722
20.85158	539110
20.85972	432878
20.86783	306636
20.87597	215418
20.88408	158580
20.89220	140852
20.90033	126167
20.90845	121395
20.91657	129311
20.92470	131105
20.93282	144828
20.94095	159754
20.94907	162277
20.95718	173817
20.96532	173881
20.97343	158436
20.98157	141675
20.98968	128505
20.99780	114427
21.00593	102957
21.01405	100769
21.02218	98904
21.03030	95858
21.03842	91798
21.04655	96914
21.05467	94890
21.06278	101821
21.07092	91227
21.07903	92908
21.08717	81939
21.09528	85352
21.10340	81359
21.11153	83817
21.11965	76674
21.12778	77268
21.13590	81408
21.14402	96785
21.15215	120528
21.16027	155585
21.16838	212994
21.17652	253758
21.18463	289250
21.19277	271605
21.20088	237009
21.20900	190034
21.21713	149123
21.22525	124478
21.23338	110492
21.24150	96020
21.24962	95707
21.25775	91833
21.26587	90624
21.27400	84243
21.28212	87362
21.29023	81046
21.29837	75943
21.30648	78507
21.31460	77290
21.32273	72515
21.33085	73487
21.33898	71350
21.34710	77005
21.35522	71916
21.36335	67343
21.37147	69017
21.37960	71221
21.38772	75217
21.39583	78902
21.40397	83907
21.41208	91790
21.42022	103932
21.42833	115193
21.43645	129106
21.44458	133339
21.45270	130725
21.46082	120358
21.46895	111373
21.47707	97976
21.48520	91667
21.49332	85793
21.50143	83534
21.50957	82724
21.51768	79433
21.52582	81153
21.53393	73707
21.54205	72036
21.55018	67786
21.55830	76408
21.56642	68348
21.57455	71349
21.58267	74014
21.59080	74219
21.59892	80228
21.60703	86569
21.61517	92143
21.62328	84872
21.63142	86980
21.63953	89557
21.64765	93938
21.65578	94264
21.66390	106286
21.67203	121771
21.68015	117810
21.68827	117386
21.69640	115828
21.70452	115822
21.71263	106168
21.72077	98342
21.72888	89829
21.73702	80410
21.74513	76665
21.75325	71176
21.76138	72191
21.76950	71988
21.77763	70041
21.78575	68905
21.79387	73472
21.80200	66716
21.81012	69147
21.81823	67848
21.82637	74330
21.83448	77225
21.84262	82560
21.85073	90460
21.85885	97174
21.86698	95671
21.87510	107179
21.88323	98082
21.89135	95136
21.89947	85183
21.90760	81684
21.91572	73040
21.92385	69902
21.93197	69438
21.94008	64172
21.94822	62780
21.95633	61067
21.96445	61065
21.97258	59540
21.98070	54750
21.98883	54552
21.99695	56740
22.00507	53222
22.01320	57948
22.02132	54424
22.02945	56985
22.03757	63953
22.04568	61332
22.05382	58214
22.06193	65262
22.07007	63080
22.07818	62450
22.08630	57522
22.09443	56537
22.10255	57760
22.11067	57101
22.11880	52550
22.12692	51445
22.13505	55703
22.14317	51609
22.15128	49993
22.15942	46494
22.16753	55441
22.17567	51470
22.18378	50542
22.19190	46977
22.20003	53890
22.20815	49422
22.21627	47134
22.22440	50597
22.23252	53648
22.24065	58001
22.24877	60101
22.25688	59822
22.26502	58309
22.27313	60352
22.28127	57608
22.28938	65391
22.29750	64046
22.30563	71178
22.31375	78307
22.32188	84895
22.33000	113369
22.33812	132733
22.34625	154657
22.35437	174797
22.36248	169495
22.37062	154314
22.37873	133825
22.38687	113159
22.39498	97969
22.40310	99113
22.41123	104237
22.41935	126913
22.42748	148954
22.43560	172505
22.44372	177976
22.45185	171374
22.45997	145810
22.46810	126671
22.47622	100152
22.48433	96660
22.49247	78888
22.50058	91051
22.50870	89740
22.51683	100203
22.52495	111319
22.53308	120753
22.54120	124693
22.54932	112549
22.55745	105706
22.56557	100754
22.57370	94937
22.58182	80391
22.58993	72952
22.59807	68586
22.60618	66783
22.61430	60598
22.62243	57252
22.63055	60976
22.63868	53936
22.64680	57815
22.65492	51775
22.66305	55696
22.67117	55323
22.67930	65982
22.68742	71701
22.69553	87705
22.70367	106230
22.71178	123191
22.71992	142313
22.72803	160823
22.73615	181608
22.74428	177141
22.75240	167037
22.76052	154203
22.76865	126120
22.77677	120107
22.78490	105212
22.79302	111344
22.80113	118760
22.80927	129187
22.81738	158052
22.82552	170412
22.83363	178832
22.84175	177737
22.84988	155570
22.85800	138756
22.86613	127970
22.87425	129465
22.88237	131614
22.89050	150122
22.89862	173395
22.90673	189288
22.91487	211082
22.92298	210177
22.93112	203659
22.93923	188741
22.94735	186843
22.95548	175142
22.96360	156556
22.97173	144704
22.97985	130653
22.98797	117343
22.99610	102845
23.00422	96063
23.01233	94650
23.02047	92726
23.02858	90829
23.03672	82028
23.04483	88017
23.05295	80534
23.06108	87996
23.06920	86486
23.07733	86610
23.08545	87780
23.09357	89699
23.10170	85495
23.10982	91656
23.11795	84696
23.12607	83990
23.13418	82045
23.14232	80104
23.15043	80050
23.15855	74873
23.16668	80778
23.17480	73298
23.18293	66900
23.19105	64770
23.19917	64673
23.20730	58049
23.21542	61299
23.22355	58486
23.23167	60097
23.23978	59160
23.24792	62473
23.25603	75953
23.26415	79160
23.27228	91830
23.28040	102468
23.28853	103187
23.29665	92561
23.30477	86338
23.31290	72215
23.32102	69085
23.32915	71619
23.33727	70079
23.34538	67003
23.35352	84651
23.36163	113017
23.36977	122894
23.37788	143281
23.38600	157184
23.39413	146587
23.40225	137223
23.41037	126592
23.41850	108789
23.42662	92206
23.43475	82271
23.44287	85104
23.45098	85779
23.45912	84827
23.46723	99405
23.47537	91049
23.48348	93268
23.49160	90393
23.49973	98927
23.50785	102731
23.51598	103737
23.52410	103909
23.53222	103125
23.54035	101183
23.54847	108295
23.55658	109357
23.56472	117737
23.57283	121642
23.58097	139611
23.58908	158125
23.59720	205493
23.60533	249703
23.61345	296001
23.62158	321038
23.62970	316289
23.63782	300691
23.64595	280594
23.65407	317940
23.66218	389891
23.67032	505997
23.67843	653315
23.68657	688019
23.69468	696456
23.70280	594771
23.71093	454102
23.71905	336254
23.72718	251488
23.73530	194600
23.74342	168802
23.75155	154624
23.75967	154800
23.76780	197893
23.77592	344083
23.78403	636407
23.79217	1111923
23.80028	1763114
23.80840	2295633
23.81653	2481307
23.82465	2309315
23.83278	1983789
23.84090	1524222
23.84902	1107968
23.85715	830678
23.86527	621431
23.87340	526432
23.88152	452362
23.88963	392279
23.89777	354691
23.90588	320133
23.91402	315545
23.92213	285839
23.93025	293242
23.93838	273133
23.94650	258494
23.95462	240593
23.96275	229888
23.97087	217625
23.97900	206905
23.98712	200845
23.99523	180536
24.00337	178492
24.01148	175441
24.01962	179423
24.02773	179975
24.03585	197596
24.04398	204240
24.05210	222891
24.06022	228016
24.06835	218994
24.07647	205612
24.08460	191082
24.09272	178413
24.10083	159483
24.10897	147789
24.11708	136588
24.12522	133480
24.13333	139522
24.14145	145043
24.14958	157494
24.15770	177793
24.16583	203263
24.17395	213064
24.18207	212655
24.19020	199067
24.19832	184657
24.20643	186596
24.21457	175911
24.22268	168386
24.23082	160178
24.23893	145038
24.24705	139286
24.25518	136960
24.26330	123177
24.27143	115577
24.27955	115156
24.28767	108031
24.29580	108086
24.30392	104969
24.31203	106035
24.32017	117312
24.32828	114166
24.33642	113184
24.34453	110081
24.35265	113279
24.36078	111409
24.36890	103360
24.37703	100258
24.38515	102028
24.39327	100029
24.40140	104126
24.40952	110269
24.41765	128947
24.42577	134947
24.43388	127826
24.44202	119454
24.45013	105736
24.45825	97334
24.46638	98355
24.47450	90311
24.48263	101544
24.49075	105349
24.49887	120827
24.50700	112227
24.51512	117262
24.52325	116640
24.53137	131116
24.53948	156692
24.54762	182166
24.55573	213956
24.56387	253685
24.57198	286971
24.58010	282475
24.58823	273926
24.59635	243157
24.60447	208627
24.61260	183479
24.62072	163412
24.62885	144525
24.63697	133993
24.64508	130713
24.65322	116033
24.66133	108685
24.66947	107731
24.67758	103486
24.68570	95128
24.69383	95162
24.70195	90367
24.71008	92012
24.71820	80699
24.72632	78795
24.73445	81783
24.74257	77861
24.75068	79251
24.75882	75808
24.76693	75441
24.77507	72825
24.78318	77809
24.79130	75768
24.79943	79740
24.80755	83059
24.81568	85649
24.82380	87503
24.83192	87238
24.84005	91797
24.84817	109629
24.85628	107606
24.86442	146825
24.87253	175835
24.88067	232813
24.88878	302878
24.89690	386662
24.90503	474510
24.91315	501151
24.92128	478111
24.92940	410495
24.93752	312201
24.94565	227405
24.95377	168038
24.96190	118291
24.97002	100418
24.97813	91205
24.98627	84053
24.99438	76996
25.00250	76227
25.01063	70563
25.01875	67710
25.02688	69577
25.03500	71305
25.04312	67708
25.05125	67238
25.05937	64727
25.06750	62303
25.07562	64903
25.08373	63137
25.09187	69187
25.09998	68606
25.10810	83231
25.11623	132900
25.12435	254774
25.13248	526208
25.14060	1067502
25.14872	1794278
25.15685	2546037
25.16497	2989626
25.17310	2988126
25.18122	2540840
25.18933	1849005
25.19747	1233350
25.20558	771532
25.21372	504006
25.22183	342811
25.22995	270906
25.23808	237556
25.24620	225952
25.25432	246829
25.26245	315791
25.27057	395713
25.27870	527707
25.28682	624105
25.29493	675301
25.30307	651168
25.31118	554836
25.31932	434616
25.32743	333285
25.33555	271312
25.34368	228323
25.35180	202876
25.35993	183048
25.36805	182715
25.37617	172664
25.38430	168877
25.39242	169522
25.40053	163643
25.40867	161064
25.41678	162745
25.42492	165909
25.43303	150740
25.44115	160326
25.44928	151526
25.45740	148471
25.46553	153193
25.47365	151286
25.48177	157469
25.48990	144830
25.49802	153770
25.50613	149828
25.51427	149777
25.52238	138843
25.53052	150334
25.53863	141490
25.54675	136528
25.55488	139369
25.56300	140496
25.57113	134703
25.57925	132124
25.58737	137658
25.59550	137613
25.60362	127057
25.61175	126080
25.61987	126477
25.62798	122744
25.63612	133135
25.64423	128010
25.65235	136825
25.66048	136876
25.66860	145585
25.67673	145090
25.68485	146712
25.69297	139946
25.70110	138272
25.70922	133905
25.71735	131110
25.72547	130489
25.73358	123371
25.74172	129965
25.74983	120877
25.75797	115317
25.76608	116412
25.77420	112490
25.78233	103807
25.79045	92723
25.79857	82811
25.80670	84389
25.81482	79572
25.82295	76485
25.83107	83006
25.83918	85093
25.84732	91429
25.85543	91711
25.86357	87150
25.87168	84165
25.87980	85314
25.88793	77520
25.89605	75100
25.90417	75649
25.91230	73884
25.92042	72327
25.92855	69011
25.93667	62392
25.94478	66721
25.95292	69607
25.96103	68546
25.96917	70233
25.97728	72033
25.98540	69971
25.99353	65629
26.00165	63615
26.00978	62374
26.01790	56228
26.02602	65732
26.03415	58954
26.04227	55715
26.05038	59368
26.05852	57593
26.06663	54517
26.07477	61347
26.08288	64996
26.09100	66785
26.09913	63403
26.10725	65114
26.11538	62636
26.12350	61070
26.13162	61540
26.13975	70299
26.14787	72530
26.15598	93237
26.16412	116232
26.17223	141333
26.18037	159239
26.18848	173266
26.19660	180282
26.20473	183782
26.21285	182655
26.22098	178286
26.22910	184548
26.23722	177951
26.24535	173923
26.25347	171866
26.26160	175722
26.26972	170437
26.27783	168318
26.28597	174598
26.29408	178282
26.30220	170642
26.31033	169085
26.31845	173991
26.32658	171400
26.33470	175568
26.34282	170274
26.35095	186792
26.35907	188538
26.36720	211024
26.37532	279134
26.38343	396575
26.39157	561127
26.39968	742214
26.40782	967486
26.41593	1070802
26.42405	1008441
26.43218	884808
26.44030	688184
26.44842	530096
26.45655	393512
26.46467	291920
26.47280	245917
26.48092	213479
26.48903	195917
26.49717	194002
26.50528	169007
26.51342	183687
26.52153	170434
26.52965	159712
26.53778	153748
26.54590	154881
26.55402	144941
26.56215	146214
26.57027	142860
26.57840	139486
26.58652	142441
26.59463	134982
26.60277	139971
26.61088	142897
26.61902	132247
26.62713	138506
26.63525	135690
26.64338	133661
26.65150	135249
26.65963	129623
26.66775	129419
26.67587	132527
26.68400	131781
26.69212	131669
26.70023	134811
26.70837	134793
26.71648	126612
26.72462	124643
26.73273	123648
26.74085	119522
26.74898	121826
26.75710	116665
26.76523	121993
26.77335	124146
26.78147	120293
26.78960	118240
26.79772	121845
26.80585	121006
26.81397	119747
26.82208	118677
26.83022	120106
26.83833	117994
26.84645	113404
26.85458	115729
26.86270	111818
26.87083	113117
26.87895	108009
26.88707	101689
26.89520	108703
26.90332	103083
26.91145	103933
26.91957	97599
26.92768	96945
26.93582	91457
26.94393	94509
26.95205	92650
26.96018	98619
26.96830	94698
26.97643	101534
26.98455	117291
26.99267	147284
27.00080	209950
27.00892	301991
27.01705	464914
27.02517	632209
27.03328	779167
27.04142	862460
27.04953	845843
27.05767	744014
27.06578	632780
27.07390	508145
27.08203	409421
27.09015	330257
27.09827	280030
27.10640	248019
27.11452	225514
27.12265	200998
27.13077	191925
27.13888	179751
27.14702	162300
27.15513	156613
27.16327	161011
27.17138	164363
27.17950	175685
27.18763	195253
27.19575	212166
27.20387	216463
27.21200	217080
27.22012	205902
27.22825	177482
27.23637	150897
27.24448	147517
27.25262	137227
27.26073	129845
27.26887	120071
27.27698	115441
27.28510	112526
27.29323	106940
27.30135	102401
27.30948	109519
27.31760	102207
27.32572	104882
27.33385	97059
27.34197	99542
27.35008	98766
27.35822	109108
27.36633	101723
27.37447	99238
27.38258	98942
27.39070	104879
27.39883	94228
27.40695	95399
27.41508	93223
27.42320	90840
27.43132	94806
27.43945	91084
27.44757	88589
27.45570	87698
27.46382	91482
27.47193	92910
27.48007	81292
27.48818	83195
27.49630	78380
27.50443	84092
27.51255	83529
27.52068	81778
27.52880	85361
27.53692	79279
27.54505	82199
27.55317	72100
27.56130	73166
27.56942	80272
27.57753	72932
27.58567	80548
27.59378	87730
27.60190	94977
27.61003	103926
27.61815	113413
27.62628	114216
27.63440	103941
27.64252	106266
27.65065	89437
27.65877	85408
27.66690	78260
27.67502	82513
27.68313	79441
27.69127	80907
27.69938	86137
27.70752	81458
27.71563	86108
27.72375	80735
27.73188	75314
27.74000	81432
27.74812	71970
27.75625	67053
27.76437	69714
27.77250	69896
27.78062	76898
27.78873	87008
27.79687	95526
27.80498	104167
27.81312	106153
27.82123	93767
27.82935	90511
27.83748	87551
27.84560	82560
27.85373	72925
27.86185	73009
27.86997	73185
27.87810	70919
27.88622	65109
27.89433	67663
27.90247	61066
27.91058	60191
27.91872	63019
27.92683	63976
27.93495	63202
27.94308	72327
27.95120	58979
27.95933	68668
27.96745	61973
27.97557	63731
27.98370	61883
27.99182	63223
27.99993	61663
28.00807	63658
28.01618	68640
28.02432	69039
28.03243	81201
28.04055	94990
28.04868	94021
28.05680	113945
28.06493	115954
28.07305	117485
28.08117	104908
28.08930	100434
28.09742	86670
28.10555	80643
28.11367	69982
28.12178	71369
28.12992	67638
28.13803	65374
28.14615	68284
28.15428	62655
28.16240	62467
28.17053	63158
28.17865	62989
28.18677	62058
28.19490	60645
28.20302	66426
28.21115	76000
28.21927	78108
28.22738	88808
28.23552	93333
28.24363	95517
28.25177	92717
28.25988	86557
28.26800	77426
28.27613	70809
28.28425	70339
28.29237	65852
28.30050	69554
28.30862	66673
28.31675	72412
28.32487	79373
28.33298	87154
28.34112	94589
28.34923	100063
28.35737	110604
28.36548	113634
28.37360	126771
28.38173	129057
28.38985	134144
28.39797	136342
28.40610	134074
28.41422	136564
28.42235	123603
28.43047	118344
28.43858	112923
28.44672	109428
28.45483	101016
28.46297	94340
28.47108	94668
28.47920	96351
28.48733	88821
28.49545	92969
28.50358	91311
28.51170	94966
28.51982	88359
28.52795	94990
28.53607	92702
28.54418	92032
28.55232	78506
28.56043	72849
28.56857	69928
28.57668	72080
28.58480	61799
28.59293	59839
28.60105	61541
28.60918	64707
28.61730	62381
28.62542	67003
28.63355	69619
28.64167	71862
28.64978	77889
28.65792	76343
28.66603	71584
28.67417	77022
28.68228	76304
28.69040	70502
28.69853	65072
28.70665	67400
28.71478	65710
28.72290	59510
28.73102	63697
28.73915	59887
28.74727	55551
28.75540	58189
28.76352	58287
28.77163	61425
28.77977	60957
28.78788	69323
28.79600	72043
28.80413	72596
28.81225	74805
28.82038	76074
28.82850	67292
28.83662	65145
28.84475	67021
28.85287	64125
28.86100	59781
28.86912	60973
28.87723	62829
28.88537	67002
28.89348	62296
28.90162	72475
28.90973	70808
28.91785	71445
28.92598	67536
28.93410	72090
28.94222	66427
28.95035	70633
28.95847	71482
28.96660	69841
28.97472	66949
28.98283	72671
28.99097	68640
28.99908	60810
29.00722	58573
29.01533	59551
29.02345	59349
29.03158	55059
29.03970	52785
29.04782	55182
29.05595	55525
29.06407	55390
29.07220	59668
29.08032	58164
29.08843	64800
29.09657	68372
29.10468	66751
29.11282	63687
29.12093	63140
29.12905	63769
29.13718	57549
29.14530	56700
29.15343	49633
29.16155	54532
29.16967	56637
29.17780	54266
29.18592	55826
29.19403	60340
29.20217	61791
29.21028	75178
29.21842	87166
29.22653	95023
29.23465	98916
29.24278	95419
29.25090	94927
29.25903	92788
29.26715	95449
29.27527	95480
29.28340	92109
29.29152	85063
29.29965	76879
29.30777	72620
29.31588	62257
29.32402	60186
29.33213	53892
29.34025	49386
29.34838	55934
29.35650	58866
29.36463	62000
29.37275	54476
29.38087	51368
29.38900	54032
29.39712	55487
29.40525	53280
29.41337	60175
29.42148	57676
29.42962	56167
29.43773	54077
29.44585	51083
29.45398	57205
29.46210	56233
29.47023	49980
29.47835	49769
29.48647	46255
29.49460	51103
29.50272	48852
29.51085	56284
29.51897	56851
29.52708	54396
29.53522	57140
29.54333	57956
29.55147	50026
29.55958	54887
29.56770	53239
29.57583	55097
29.58395	49437
29.59207	48767
29.60020	46787
29.60832	48800
29.61645	50952
29.62457	52885
29.63268	53151
29.64082	50177
29.64893	54113
29.65707	49712
29.66518	51878
29.67330	50515
29.68143	48883
29.68955	54094
29.69767	48969
29.70580	52197
29.71392	53301
29.72205	61290
29.73017	54211
29.73828	59182
29.74642	52666
29.75453	52133
29.76267	55132
29.77078	53788
29.77890	49273
29.78703	45498
29.79515	47502
29.80328	48080
29.81140	42923
29.81952	47206
29.82765	45086
29.83577	46352
29.84388	48951
29.85202	52382
29.86013	50720
29.86827	55593
29.87638	68732
29.88450	94901
29.89263	158904
29.90075	229820
29.90888	314316
29.91700	369575
29.92512	362181
29.93325	318434
29.94137	231998
29.94950	166247
29.95762	106530
29.96573	82526
29.97387	76162
29.98198	73975
29.99010	68153
29.99823	75986
30.00635	87319
30.01448	92105
30.02260	91538
30.03072	93052
30.03885	93263
30.04697	88316
30.05510	93008
30.06322	88260
30.07133	84172
30.07947	82420
30.08758	81555
30.09572	87668
30.10383	82212
30.11195	77680
30.12008	76299
30.12820	75122
30.13632	71513
30.14445	74898
30.15257	66317
30.16070	71970
30.16882	69432
30.17693	67097
30.18507	67108
30.19318	65703
30.20132	71055
30.20943	76985
30.21755	72879
30.22568	74753
30.23380	75920
30.24192	66578
30.25005	66594
30.25817	64741
30.26630	59061
30.27442	56243
30.28253	51956
30.29067	49478
30.29878	60587
30.30692	54075
30.31503	57127
30.32315	52882
30.33128	60696
30.33940	56345
30.34753	52205
30.35565	57741
30.36377	58992
30.37190	57590
30.38002	51898
30.38813	57727
30.39627	59227
30.40438	55744
30.41252	52044
30.42063	51771
30.42875	51561
30.43688	50010
30.44500	47210
30.45313	54961
30.46125	49271
30.46937	55940
30.47750	52898
30.48562	50774
30.49373	54792
30.50187	57604
30.50998	54903
30.51812	53661
30.52623	57318
30.53435	54387
30.54248	48687
30.55060	55304
30.55873	50547
30.56685	48293
30.57497	50727
30.58310	47393
30.59122	48542
30.59935	53999
30.60747	49954
30.61558	47143
30.62372	49163
30.63183	47327
30.63995	51415
30.64808	56975
30.65620	46312
30.66433	46075
30.67245	48693
30.68057	48344
30.68870	44228
30.69682	45421
30.70495	46637
30.71307	46417
30.72118	50310
30.72932	42989
30.73743	50796
30.74557	46702
30.75368	52701
30.76180	52713
30.76993	54651
30.77805	50049
30.78617	50090
30.79430	54161
30.80242	68619
30.81055	76688
30.81867	92727
30.82678	96149
30.83492	100309
30.84303	90331
30.85117	81402
30.85928	69907
30.86740	60118
30.87553	59690
30.88365	64223
30.89177	63338
30.89990	58480
30.90802	60254
30.91615	55387
30.92427	54717
30.93238	57449
30.94052	53085
30.94863	59113
30.95677	57203
30.96488	55421
30.97300	57051
30.98113	56778
30.98925	59918
30.99738	55265
31.00550	54470
31.01362	52170
31.02175	60845
31.02987	67233
31.03798	71361
31.04612	73602
31.05423	79758
31.06237	85582
31.07048	76734
31.07860	76277
31.08673	73719
31.09485	83396
31.10298	102882
31.11110	133851
31.11922	170666
31.12735	188774
31.13547	180152
31.14360	150470
31.15172	123134
31.15983	94019
31.16797	75187
31.17608	65128
31.18420	61903
31.19233	59957
31.20045	67823
31.20858	66098
31.21670	76151
31.22482	88834
31.23295	96998
31.24107	93946
31.24920	85464
31.25732	82379
31.26543	71665
31.27357	60538
31.28168	57377
31.28980	48702
31.29793	50607
31.30605	53169
31.31418	50827
31.32230	49865
31.33042	50093
31.33855	50841
31.34667	56204
31.35480	51709
31.36292	54221
31.37103	55799
31.37917	55064
31.38728	58883
31.39542	66264
31.40353	68687
31.41165	64699
31.41978	61629
31.42790	59824
31.43602	55959
31.44415	50251
31.45227	52583
31.46040	45806
31.46852	50926
31.47663	57369
31.48477	56352
31.49288	56219
31.50102	60704
31.50913	65102
31.51725	63665
31.52538	67638
31.53350	57471
31.54162	62991
31.54975	64128
31.55787	62943
31.56600	64277
31.57412	69437
31.58223	63384
31.59037	63619
31.59848	62962
31.60662	59454
31.61473	56443
31.62285	48378
31.63098	52218
31.63910	50362
31.64723	43623
31.65535	49729
31.66347	51049
31.67160	53428
31.67972	59106
31.68783	59575
31.69597	60925
31.70408	62860
31.71222	56863
31.72033	57809
31.72845	54005
31.73658	63256
31.74470	60376
31.75283	58839
31.76095	64676
31.76907	60377
31.77720	57717
31.78532	59028
31.79345	62194
31.80157	63889
31.80968	63676
31.81782	62958
31.82593	61670
31.83405	68111
31.84218	62875
31.85030	66312
31.85843	64052
31.86655	62897
31.87467	64745
31.88280	66588
31.89092	64801
31.89905	66602
31.90717	69132
31.91528	72443
31.92342	76159
31.93153	78728
31.93965	81462
31.94778	80547
31.95590	79862
31.96403	77205
31.97215	83283
31.98027	86460
31.98840	83644
31.99652	84103
32.00465	79056
32.01277	88639
32.02088	86669
32.02902	82349
32.03713	88870
32.04527	78799
32.05338	75151
32.06150	77404
32.06963	67221
32.07775	69950
32.08587	69146
32.09400	71623
32.10212	67924
32.11025	67452
32.11837	61936
32.12648	61516
32.13462	57682
32.14273	63491
32.15087	59064
32.15898	54520
32.16710	58646
32.17523	64077
32.18335	53586
32.19148	61945
32.19960	57923
32.20772	60415
32.21585	58817
32.22397	56553
32.23208	57227
32.24022	55065
32.24833	56146
32.25647	56524
32.26458	58098
32.27270	57150
32.28083	63382
32.28895	65781
32.29708	55843
32.30520	58710
32.31332	57999
32.32145	60921
32.32957	59003
32.33768	54584
32.34582	55289
32.35393	57844
32.36207	55670
32.37018	58504
32.37830	60854
32.38643	55996
32.39455	54288
32.40268	55259
32.41080	54299
32.41892	53684
32.42705	52484
32.43517	48626
32.44330	50264
32.45142	48775
32.45953	51276
32.46767	51027
32.47578	48787
32.48390	49036
32.49203	47478
32.50015	55600
32.50828	52885
32.51640	44947
32.52452	47308
32.53265	47373
32.54077	46916
32.54890	48861
32.55702	50332
32.56513	53056
32.57327	51433
32.58138	57358
32.58950	46771
32.59763	45931
32.60575	52361
32.61388	52785
32.62200	47767
32.63012	44812
32.63825	51255
32.64637	45959
32.65450	43732
32.66262	43576
32.67073	48862
32.67887	52346
32.68698	56030
32.69512	59882
32.70323	59816
32.71135	58997
32.71948	54007
32.72760	57095
32.73572	52399
32.74385	49676
32.75197	49200
32.76010	49560
32.76822	47487
32.77633	49535
32.78447	51708
32.79258	42317
32.80072	45472
32.80883	47078
32.81695	48071
32.82508	49705
32.83320	46667
32.84133	50050
32.84945	49523
32.85757	50758
32.86570	50189
32.87382	45857
32.88193	46503
32.89007	46687
32.89818	47647
32.90632	51163
32.91443	54222
32.92255	56799
32.93068	55908
32.93880	55439
32.94693	52856
32.95505	52151
32.96317	48398
32.97130	48971
32.97942	55143
32.98753	58423
32.99567	74110
33.00378	78656
33.01192	90939
33.02003	112352
33.02815	106006
33.03628	91591
33.04440	89571
33.05253	71866
33.06065	65091
33.06877	60663
33.07690	62382
33.08502	64162
33.09315	69416
33.10127	75941
33.10938	77493
33.11752	85120
33.12563	92711
33.13375	97886
33.14188	95507
33.15000	87554
33.15813	77610
33.16625	69174
33.17437	66468
33.18250	63422
33.19062	58737
33.19875	54459
33.20687	61133
33.21498	54819
33.22312	54021
33.23123	52886
33.23937	56629
33.24748	56439
33.25560	54614
33.26373	53734
33.27185	51815
33.27997	57400
33.28810	57068
33.29622	52521
33.30435	53891
33.31247	52744
33.32058	49782
33.32872	52929
33.33683	52040
33.34497	49079
33.35308	53411
33.36120	58368
33.36933	59875
33.37745	53242
33.38557	55619
33.39370	59950
33.40182	56532
33.40995	53112
33.41807	53587
33.42618	53054
33.43432	50890
33.44243	50055
33.45057	45827
33.45868	46013
33.46680	43686
33.47493	48918
33.48305	48861
33.49118	47236
33.49930	54603
33.50742	44894
33.51555	50607
33.52367	48663
33.53178	52768
33.53992	51551
33.54803	56857
33.55617	52943
33.56428	59468
33.57240	59624
33.58053	57582
33.58865	56205
33.59678	49532
33.60490	49651
33.61302	52819
33.62115	49219
33.62927	50539
33.63740	48573
33.64552	54511
33.65363	56075
33.66177	55009
33.66988	54830
33.67800	52188
33.68613	56721
33.69425	57639
33.70238	50082
33.71050	52071
33.71862	46836
33.72675	49285
33.73487	47248
33.74300	52689
33.75112	50715
33.75923	45606
33.76737	52246
33.77548	48457
33.78360	46934
33.79173	49544
33.79985	48971
33.80798	48918
33.81610	48759
33.82422	49105
33.83235	45675
33.84047	52013
33.84860	52822
33.85672	54341
33.86483	51711
33.87297	49803
33.88108	50597
33.88922	52579
33.89733	55298
33.90545	57457
33.91358	54789
33.92170	53187
33.92982	55096
33.93795	53519
33.94607	52260
33.95420	47648
33.96232	51737
33.97043	50776
33.97857	49005
33.98668	48544
33.99482	53737
34.00293	47625
34.01105	46836
34.01918	48809
34.02730	45183
34.03542	53449
34.04355	47187
34.05167	45245
34.05980	50994
34.06792	48210
34.07603	52621
34.08417	48316
34.09228	44188
34.10042	52409
34.10853	48295
34.11665	55069
34.12478	50602
34.13290	55882
34.14103	51788
34.14915	47322
34.15727	46862
34.16540	48573
34.17352	47362
34.18163	45638
34.18977	48403
34.19788	53426
34.20602	50670
34.21413	51769
34.22225	50569
34.23038	51737
34.23850	52990
34.24663	47147
34.25475	48280
34.26287	47483
34.27100	48403
34.27912	49968
34.28725	51143
34.29537	50576
34.30348	52523
34.31162	51982
34.31973	48164
34.32785	49315
34.33598	51311
34.34410	49227
34.35223	48840
34.36035	44816
34.36847	47967
34.37660	51409
34.38472	47687
34.39285	46683
34.40097	53618
34.40908	47240
34.41722	53649
34.42533	49864
34.43345	50782
34.44158	52902
34.44970	51501
34.45783	49196
34.46595	47107
34.47407	49736
34.48220	49359
34.49032	45562
34.49845	48302
34.50657	47317
34.51468	47794
34.52282	48906
34.53093	52309
34.53907	54937
34.54718	60078
34.55530	66090
34.56343	63516
34.57155	65696
34.57967	69475
34.58780	70501
34.59592	69081
34.60405	65213
34.61217	64655
34.62028	62249
34.62842	58409
34.63653	59437
34.64467	53905
34.65278	55637
34.66090	51697
34.66903	53271
34.67715	49277
34.68528	54751
34.69340	57126
34.70152	53805
34.70965	49304
34.71777	60716
34.72588	53761
34.73402	51414
34.74213	53183
34.75027	54415
34.75838	49015
34.76650	49619
34.77463	50359
34.78275	55882
34.79088	57979
34.79900	60310
34.80712	58152
34.81525	56318
34.82337	47406
34.83148	56069
34.83962	55789
34.84773	53782
34.85587	53400
34.86398	51678
34.87210	52448
34.88023	54043
34.88835	59369
34.89648	51814
34.90460	56475
34.91272	49693
34.92085	50156
34.92897	54366
34.93710	51646
34.94522	55912
34.95333	69382
34.96147	85105
34.96958	117806
34.97770	168786
34.98583	212163
34.99395	259228
35.00208	253260
35.01020	222450
35.01832	170052
35.02645	115170
35.03457	95624
35.04270	74225
35.05082	63393
35.05893	63076
35.06707	63396
35.07518	65739
35.08330	61205
35.09143	64621
35.09955	63938
35.10768	60299
35.11580	59632
35.12392	66200
35.13205	55063
35.14017	55463
35.14830	57080
35.15642	54361
35.16453	54025
35.17267	55366
35.18078	57728
35.18892	59528
35.19703	54693
35.20515	54909
35.21328	57759
35.22140	54563
35.22952	53469
35.23765	52305
35.24577	54370
35.25390	62612
35.26202	53862
35.27013	54885
35.27827	55170
35.28638	58869
35.29452	58796
35.30263	59510
35.31075	64073
35.31888	57912
35.32700	56111
35.33513	51392
35.34325	56603
35.35137	54002
35.35950	53988
35.36762	52405
35.37573	56818
35.38387	52745
35.39198	50887
35.40012	54155
35.40823	57620
35.41635	62507
35.42448	64387
35.43260	65769
35.44073	64149
35.44885	68333
35.45697	68409
35.46510	64685
35.47322	65317
35.48135	58826
35.48947	59932
35.49758	58815
35.50572	61769
35.51383	59558
35.52195	60014
35.53008	55826
35.53820	58463
35.54633	57855
35.55445	57888
35.56257	55982
35.57070	54661
35.57882	52220
35.58695	54978
35.59507	53766
35.60318	64258
35.61132	58297
35.61943	57016
35.62755	53423
35.63568	54224
35.64380	55652
35.65193	51666
35.66005	51348
35.66817	53028
35.67630	51837
35.68442	57272
35.69255	57320
35.70067	55579
35.70878	58954
35.71692	58436
35.72503	56271
35.73317	52323
35.74128	56057
35.74940	58773
35.75753	69507
35.76565	61725
35.77377	69282
35.78190	70318
35.79002	70155
35.79815	71297
35.80627	62046
35.81438	71804
35.82252	63421
35.83063	58864
35.83877	60120
35.84688	61298
35.85500	55576
35.86313	56510
35.87125	54868
35.87937	55059
35.88750	59691
35.89562	58679
35.90375	57759
35.91187	56226
35.91998	56795
35.92812	57148
35.93623	59638
35.94437	55509
35.95248	51739
35.96060	51729
35.96873	55654
35.97685	53402
35.98498	57075
35.99310	59906
36.00122	55790
36.00935	55920
36.01747	61278
36.02558	68212
36.03372	60108
36.04183	58956
36.04997	59970
36.05808	63998
36.06620	58507
36.07433	58554
36.08245	60770
36.09058	70287
36.09870	60776
36.10682	53683
36.11495	57969
36.12307	58972
36.13120	58479
36.13932	61165
36.14743	63035
36.15557	64978
36.16368	66695
36.17180	69903
36.17993	67424
36.18805	72376
36.19618	68765
36.20430	61122
36.21242	58344
36.22055	59465
36.22867	58491
36.23680	56139
36.24492	55452
36.25303	51379
36.26117	54362
36.26928	54153
36.27740	55963
36.28553	59755
36.29365	58721
36.30178	57554
36.30990	63627
36.31802	66244
36.32615	66663
36.33427	68860
36.34240	68582
36.35052	66868
36.35863	65300
36.36677	63265
36.37488	61106
36.38302	60089
36.39113	59244
36.39925	61043
36.40738	61177
36.41550	60156
36.42362	62963
36.43175	63108
36.43987	67290
36.44800	60096
36.45612	57159
36.46423	56526
36.47237	62036
36.48048	62011
36.48862	56703
36.49673	54291
36.50485	57547
36.51298	59421
36.52110	55912
36.52923	57864
36.53735	62739
36.54547	58225
36.55360	60071
36.56172	59241
36.56983	58182
36.57797	56844
36.58608	57223
36.59422	63315
36.60233	54046
36.61045	55090
36.61858	57458
36.62670	62368
36.63483	58764
36.64295	59791
36.65107	56016
36.65920	56027
36.66732	57911
36.67543	61540
36.68357	59471
36.69168	56860
36.69982	58472
36.70793	60856
36.71605	58190
36.72418	62969
36.73230	58157
36.74043	57789
36.74855	58705
36.75667	55038
36.76480	60482
36.77292	60276
36.78105	60142
36.78917	62292
36.79728	60063
36.80542	59787
36.81353	60976
36.82165	59272
36.82978	59975
36.83790	58864
36.84603	57669
36.85415	59456
36.86227	56842
36.87040	58579
36.87852	57352
36.88665	57726
36.89477	61548
36.90288	61541
36.91102	58491
36.91913	63406
36.92725	58033
36.93538	62396
36.94350	61788
36.95163	62934
36.95975	75318
36.96787	82879
36.97600	91570
36.98412	86989
36.99225	87074
37.00037	82689
37.00848	79398
37.01662	68576
37.02473	69912
37.03287	59643
37.04098	60885
37.04910	61602
37.05723	63037
37.06535	65173
37.07347	72266
37.08160	72005
37.08972	77979
37.09785	70345
37.10597	74220
37.11408	74710
37.12222	80790
37.13033	77923
37.13847	78272
37.14658	71623
37.15470	72142
37.16283	75278
37.17095	72223
37.17908	74269
37.18720	75171
37.19532	76997
37.20345	77490
37.21157	78772
37.21968	84006
37.22782	75699
37.23593	77620
37.24407	74564
37.25218	72313
37.26030	80157
37.26843	73052
37.27655	68727
37.28468	72048
37.29280	80192
37.30092	75593
37.30905	78464
37.31717	72230
37.32528	71515
37.33342	73023
37.34153	79534
37.34967	74278
37.35778	78549
37.36590	81819
37.37403	77956
37.38215	79278
37.39028	82136
37.39840	77809
37.40652	79839
37.41465	79700
37.42277	83410
37.43090	79000
37.43902	80752
37.44713	78118
37.45527	72668
37.46338	77202
37.47150	75582
37.47963	77954
37.48775	79337
