C:\MassHunter\GCMS\1\data\JTB-E18\JTB-E18-029-13.D Tue Oct 01 09:34:05 2019
Start of data points
2.09533,93894
2.10345,97420
2.11158,104151
2.11970,108250
2.12783,108752
2.13595,119841
2.14407,125754
2.15220,123344
2.16032,136016
2.16845,134210
2.17657,135352
2.18468,132552
2.19282,135583
2.20093,133708
2.20905,131552
2.21718,128810
2.22530,120905
2.23343,119040
2.24155,118153
2.24967,115638
2.25780,109409
2.26592,126079
2.27405,827145
2.28217,3821714
2.29028,3820396
2.29842,1772247
2.30653,1041690
2.31467,772599
2.32278,657041
2.33090,586780
2.33903,557269
2.34715,528715
2.35527,441156
2.36340,399496
2.37152,366516
2.37965,341739
2.38777,354778
2.39588,335372
2.40402,306627
2.41213,319993
2.42027,321339
2.42838,395943
2.43650,358137
2.44463,313938
2.45275,311979
2.46088,288081
2.46900,276497
2.47712,255101
2.48525,247078
2.49337,298652
2.50148,374795
2.50962,329173
2.51773,293687
2.52587,291633
2.53398,267489
2.54210,252548
2.55023,273112
2.55835,275075
2.56648,271482
2.57460,251669
2.58272,232656
2.59085,220647
2.59897,215222
2.60708,208399
2.61522,217270
2.62333,229745
2.63147,214514
2.63958,198811
2.64770,200657
2.65583,192579
2.66395,193964
2.67208,189762
2.68020,188276
2.68832,183748
2.69645,176792
2.70457,177365
2.71270,169563
2.72082,167994
2.72893,172707
2.73707,161754
2.74518,161269
2.75330,157715
2.76143,163359
2.76955,159478
2.77768,160853
2.78580,152725
2.79392,150787
2.80205,161420
2.81017,166929
2.81830,162948
2.82642,160947
2.83453,158594
2.84267,152250
2.85078,148913
2.85892,151285
2.86703,157527
2.87515,157653
2.88328,148019
2.89140,155862
2.89952,156230
2.90765,145914
2.91577,143026
2.92390,142591
2.93202,138696
2.94013,135815
2.94827,139409
2.95638,134702
2.96452,136429
2.97263,135638
2.98075,132879
2.98888,134106
2.99700,129637
3.00512,141161
3.01325,134611
3.02137,131317
3.02950,131829
3.03762,137481
3.04573,128779
3.05387,131718
3.06198,127133
3.07012,133453
3.07823,127890
3.08635,130346
3.09448,129867
3.10260,147936
3.11073,204973
3.11885,258544
3.12697,240294
3.13510,209522
3.14322,197431
3.15133,181079
3.15947,177274
3.16758,163874
3.17572,159843
3.18383,152315
3.19195,148579
3.20008,146515
3.20820,142683
3.21633,137538
3.22445,140211
3.23257,136955
3.24070,127059
3.24882,132578
3.25693,129390
3.26507,124485
3.27318,210286
3.28132,1825035
3.28943,1.796921E+07
3.29755,6.353074E+07
3.30568,9.742913E+07
3.31380,1.019392E+08
3.32193,9.030367E+07
3.33005,6.744583E+07
3.33817,4.667495E+07
3.34630,3.28785E+07
3.35442,2.461905E+07
3.36255,1.880945E+07
3.37067,1.471692E+07
3.37878,1.185046E+07
3.38692,9798220
3.39503,8212949
3.40315,7027210
3.41128,6108261
3.41940,5366132
3.42753,4843457
3.43565,4360331
3.44377,3988369
3.45190,3703448
3.46002,3446635
3.46815,3232699
3.47627,3036920
3.48438,2814470
3.49252,2624721
3.50063,2477347
3.50877,2313290
3.51688,2178204
3.52500,2086209
3.53313,1967551
3.54125,1883625
3.54937,1781790
3.55750,1722608
3.56562,1662013
3.57375,1580777
3.58187,1554055
3.58998,1486464
3.59812,1458100
3.60623,1413406
3.61437,1361967
3.62248,1371145
3.63060,1311966
3.63873,1280726
3.64685,1239027
3.65497,1177211
3.66310,1129734
3.67122,1099593
3.67935,1069343
3.68747,1047734
3.69558,1027961
3.70372,1006400
3.71183,993850
3.71997,961823
3.72808,972753
3.73620,954488
3.74433,908511
3.75245,892523
3.76058,879929
3.76870,867277
3.77682,844418
3.78495,837634
3.79307,818898
3.80118,812216
3.80932,800000
3.81743,802907
3.82557,800442
3.83368,788791
3.84180,778354
3.84993,766897
3.85805,741772
3.86618,728026
3.87430,706910
3.88242,718316
3.89055,706873
3.89867,701768
3.90680,690718
3.91492,667082
3.92303,670560
3.93117,665863
3.93928,653503
3.94740,631894
3.95553,637346
3.96365,628686
3.97178,621240
3.97990,604809
3.98802,598308
3.99615,611163
4.00427,605673
4.01240,588747
4.02052,597658
4.02863,577298
4.03677,575513
4.04488,569533
4.05300,574001
4.06113,566806
4.06925,552684
4.07738,548685
4.08550,538440
4.09362,539792
4.10175,541645
4.10987,532560
4.11800,531358
4.12612,516145
4.13423,515926
4.14237,533341
4.15048,551139
4.15862,559533
4.16673,567206
4.17485,544236
4.18298,532832
4.19110,507696
4.19922,512307
4.20735,493733
4.21547,486316
4.22360,492614
4.23172,487654
4.23983,505624
4.24797,492024
4.25608,495942
4.26422,468141
4.27233,478142
4.28045,462891
4.28858,469696
4.29670,449333
4.30482,445506
4.31295,434251
4.32107,452094
4.32920,460295
4.33732,469178
4.34543,470937
4.35357,483078
4.36168,485059
4.36982,488435
4.37793,483627
4.38605,469630
4.39418,464144
4.40230,427566
4.41043,433386
4.41855,426270
4.42667,418030
4.43480,406698
4.44292,417169
4.45103,399596
4.45917,410267
4.46728,405345
4.47542,394003
4.48353,393944
4.49165,385344
4.49978,382471
4.50790,380400
4.51603,376729
4.52415,369182
4.53227,368732
4.54040,368581
4.54852,372697
4.55665,370310
4.56477,361000
4.57288,362476
4.58102,356665
4.58913,353529
4.59725,355125
4.60538,356283
4.61350,357731
4.62163,352948
4.62975,345605
4.63787,345769
4.64600,341472
4.65412,349418
4.66225,342172
4.67037,344269
4.67848,328290
4.68662,333392
4.69473,339476
4.70285,334468
4.71098,329297
4.71910,329262
4.72723,330270
4.73535,313116
4.74347,324878
4.75160,312720
4.75972,319533
4.76785,318412
4.77597,318869
4.78408,312676
4.79222,315399
4.80033,298963
4.80847,300739
4.81658,315967
4.82470,314693
4.83283,309899
4.84095,309763
4.84907,302664
4.85720,307672
4.86532,317449
4.87345,315430
4.88157,316398
4.88968,307591
4.89782,328424
4.90593,508365
4.91407,1937067
4.92218,9300923
4.93030,3.309816E+07
4.93843,6.296698E+07
4.94655,8.13847E+07
4.95468,8.369192E+07
4.96280,7.225698E+07
4.97092,5.361501E+07
4.97905,3.629158E+07
4.98717,2.327979E+07
4.99528,1.475935E+07
5.00342,9840833
5.01153,7115415
5.01967,5529858
5.02778,4504632
5.03590,3814644
5.04403,3345389
5.05215,2918172
5.06028,2599637
5.06840,2354463
5.07652,2152653
5.08465,1963362
5.09277,1805228
5.10088,1675472
5.10902,1587557
5.11713,1483320
5.12527,1388601
5.13338,1331150
5.14150,1278414
5.14963,1199266
5.15775,1170354
5.16588,1127745
5.17400,1074625
5.18212,1030904
5.19025,1011847
5.19837,991911
5.20650,973348
5.21462,942090
5.22273,900867
5.23087,894349
5.23898,911636
5.24710,937495
5.25523,903988
5.26335,868284
5.27148,808558
5.27960,781244
5.28772,766644
5.29585,735087
5.30397,738189
5.31210,716087
5.32022,690247
5.32833,683967
5.33647,683146
5.34458,667174
5.35270,657543
5.36083,648489
5.36895,636870
5.37708,622611
5.38520,609556
5.39332,596133
5.40145,595297
5.40957,587894
5.41770,578352
5.42582,578465
5.43393,562190
5.44207,559901
5.45018,561021
5.45832,548148
5.46643,536591
5.47455,545622
5.48268,534633
5.49080,533876
5.49892,514697
5.50705,521663
5.51517,515600
5.52330,501571
5.53142,497627
5.53953,498825
5.54767,492091
5.55578,485024
5.56392,489267
5.57203,484975
5.58015,494279
5.58828,470792
5.59640,490234
5.60453,479342
5.61265,494968
5.62077,525682
5.62890,559873
5.63702,579394
5.64513,584911
5.65327,548787
5.66138,521320
5.66952,513415
5.67763,540590
5.68575,598350
5.69388,646643
5.70200,647425
5.71013,583002
5.71825,542547
5.72637,502827
5.73450,461362
5.74262,443557
5.75075,436927
5.75887,429570
5.76698,422289
5.77512,426206
5.78323,412505
5.79135,410953
5.79948,410126
5.80760,398827
5.81573,392887
5.82385,387978
5.83197,386594
5.84010,390546
5.84822,378583
5.85635,374232
5.86447,382281
5.87258,375404
5.88072,374233
5.88883,365705
5.89695,372653
5.90508,352293
5.91320,306120
5.92133,277366
5.92945,271152
5.93757,266051
5.94570,263722
5.95382,271446
5.96195,270815
5.97007,275915
5.97818,299053
5.98632,306356
5.99443,309733
6.00257,308145
6.01068,291333
6.01880,288503
6.02693,277683
6.03505,272231
6.04317,271675
6.05130,264632
6.05942,258915
6.06755,251034
6.07567,253172
6.08378,255312
6.09192,249634
6.10003,246777
6.10817,250127
6.11628,245862
6.12440,246196
6.13253,251081
6.14065,252411
6.14877,239974
6.15690,237742
6.16502,244952
6.17315,252184
6.18127,251642
6.18938,252996
6.19752,272189
6.20563,271089
6.21377,265638
6.22188,269063
6.23000,273622
6.23813,273912
6.24625,279112
6.25438,279983
6.26250,288983
6.27062,295478
6.27875,292303
6.28687,294877
6.29498,295653
6.30312,298081
6.31123,293374
6.31937,307017
6.32748,307100
6.33560,299986
6.34373,303030
6.35185,307377
6.35998,315304
6.36810,324240
6.37622,320784
6.38435,328081
6.39247,332220
6.40060,337851
6.40872,349057
6.41683,343036
6.42497,356127
6.43308,372914
6.44120,383703
6.44933,390421
6.45745,386855
6.46558,372056
6.47370,365379
6.48182,364054
6.48995,367172
6.49807,375203
6.50620,373168
6.51432,359171
6.52243,374719
6.53057,365567
6.53868,359706
6.54680,365462
6.55493,359216
6.56305,360497
6.57118,382495
6.57930,323496
6.58742,265717
6.59555,261463
6.60367,244967
6.61180,237957
6.61992,227672
6.62803,232741
6.63617,233479
6.64428,225652
6.65242,214248
6.66053,211401
6.66865,223929
6.67678,210901
6.68490,208491
6.69302,210544
6.70115,205950
6.70927,201918
6.71740,206219
6.72552,204847
6.73363,208432
6.74177,196010
6.74988,192182
6.75802,204829
6.76613,194918
6.77425,197655
6.78238,195936
6.79050,192766
6.79863,183809
6.80675,188973
6.81487,190140
6.82300,189350
6.83112,186747
6.83923,181531
6.84737,176479
6.85548,157178
6.86362,157426
6.87173,159910
6.87985,167452
6.88798,167289
6.89610,162401
6.90423,144799
6.91235,142770
6.92047,138181
6.92860,131393
6.93672,129405
6.94483,127484
6.95297,125641
6.96108,124879
6.96922,122772
6.97733,124978
6.98545,122883
6.99358,114057
7.00170,113061
7.00983,114946
7.01795,121426
7.02607,111784
7.03420,121415
7.04232,120940
7.05045,122240
7.05857,116375
7.06668,111650
7.07482,115485
7.08293,110930
7.09105,108573
7.09918,116219
7.10730,111962
7.11543,111995
7.12355,114170
7.13167,115600
7.13980,114792
7.14792,114583
7.15605,109864
7.16417,112812
7.17228,115302
7.18042,117438
7.18853,116148
7.19665,115265
7.20478,113206
7.21290,116143
7.22103,113661
7.22915,112136
7.23727,105933
7.24540,108830
7.25352,110245
7.26165,108626
7.26977,110246
7.27788,110333
7.28602,113169
7.29413,107036
7.30227,110067
7.31038,108975
7.31850,105759
7.32663,107415
7.33475,106694
7.34287,106992
7.35100,105725
7.35912,104535
7.36725,108924
7.37537,103778
7.38348,107631
7.39162,106154
7.39973,116767
7.40787,115779
7.41598,129024
7.42410,142549
7.43223,156955
7.44035,170701
7.44848,169775
7.45660,152859
7.46472,136407
7.47285,119844
7.48097,118210
7.48908,107069
7.49722,106255
7.50533,105305
7.51347,106011
7.52158,106241
7.52970,106377
7.53783,103576
7.54595,102661
7.55408,97799
7.56220,108948
7.57032,100184
7.57845,105468
7.58657,99823
7.59468,99020
7.60282,96474
7.61093,103080
7.61907,104424
7.62718,104352
7.63530,101459
7.64343,102986
7.65155,100061
7.65968,101408
7.66780,103071
7.67592,102405
7.68405,102910
7.69217,96309
7.70030,101899
7.70842,97460
7.71653,101410
7.72467,99370
7.73278,98261
7.74090,93081
7.74903,98983
7.75715,94690
7.76528,95645
7.77340,90802
7.78152,95162
7.78965,96591
7.79777,102348
7.80590,105235
7.81402,100992
7.82213,97677
7.83027,98092
7.83838,92278
7.84652,88489
7.85463,90134
7.86275,83922
7.87088,89782
7.87900,92922
7.88712,89414
7.89525,91381
7.90337,90836
7.91150,91921
7.91962,89661
7.92773,87461
7.93587,93513
7.94398,90943
7.95212,96828
7.96023,94865
7.96835,95126
7.97648,98547
7.98460,96450
7.99272,102093
8.00085,89917
8.00897,96642
8.01710,94740
8.02522,86328
8.03333,87150
8.04147,90219
8.04958,91256
8.05772,91003
8.06583,87348
8.07395,92337
8.08208,91180
8.09020,90534
8.09833,91516
8.10645,90543
8.11457,88487
8.12270,88664
8.13082,88112
8.13893,86992
8.14707,91845
8.15518,95361
8.16332,94616
8.17143,101445
8.17955,92419
8.18768,94376
8.19580,96441
8.20393,94747
8.21205,94192
8.22017,90271
8.22830,89877
8.23642,88410
8.24455,90658
8.25267,86965
8.26078,84357
8.26892,84426
8.27703,81331
8.28515,89611
8.29328,86507
8.30140,89402
8.30953,84452
8.31765,89616
8.32577,90015
8.33390,96396
8.34202,105636
8.35015,106141
8.35827,111212
8.36638,103431
8.37452,97548
8.38263,93589
8.39075,93314
8.39888,87170
8.40700,93848
8.41513,89379
8.42325,88105
8.43137,82248
8.43950,88472
8.44762,88511
8.45575,87979
8.46387,86714
8.47198,86839
8.48012,84135
8.48823,86296
8.49637,84137
8.50448,92300
8.51260,99409
8.52073,108071
8.52885,109812
8.53697,115027
8.54510,103328
8.55322,95494
8.56135,91073
8.56947,90841
8.57758,89428
8.58572,87091
8.59383,88838
8.60197,84687
8.61008,81557
8.61820,85259
8.62633,92485
8.63445,87827
8.64257,81460
8.65070,83599
8.65882,82971
8.66695,82893
8.67507,84491
8.68318,82481
8.69132,78523
8.69943,87810
8.70757,122500
8.71568,348952
8.72380,1281278
8.73193,4732890
8.74005,1.356427E+07
8.74818,2.592748E+07
8.75630,3.234177E+07
8.76442,2.975993E+07
8.77255,2.247281E+07
8.78067,1.441374E+07
8.78878,8598927
8.79692,5048913
8.80503,3100095
8.81317,2130086
8.82128,1631912
8.82940,1301666
8.83753,1069181
8.84565,895440
8.85378,766721
8.86190,686810
8.87002,621749
8.87815,562644
8.88627,521283
8.89440,483891
8.90252,449374
8.91063,440705
8.91877,416909
8.92688,405397
8.93500,382901
8.94313,364389
8.95125,338934
8.95938,334492
8.96750,330140
8.97562,306265
8.98375,309110
8.99187,293912
9.00000,283886
9.00812,271435
9.01623,271797
9.02437,263621
9.03248,258059
9.04060,253152
9.04873,243562
9.05685,248359
9.06498,241645
9.07310,234229
9.08122,224137
9.08935,225587
9.09747,218560
9.10560,216349
9.11372,212294
9.12183,215248
9.12997,218112
9.13808,216194
9.14622,221773
9.15433,224742
9.16245,382701
9.17058,6077350
9.17870,3.49822E+07
9.18682,4.244686E+07
9.19495,2.304459E+07
9.20307,1.02855E+07
9.21120,5585850
9.21932,3489306
9.22743,2367144
9.23557,1735182
9.24368,1367246
9.25182,1135140
9.25993,957812
9.26805,853188
9.27618,746808
9.28430,669951
9.29243,616491
9.30055,573145
9.30867,527877
9.31680,496041
9.32492,467947
9.33303,428280
9.34117,415853
9.34928,391686
9.35742,360586
9.36553,362419
9.37365,350273
9.38178,331398
9.38990,320876
9.39803,315993
9.40615,293689
9.41427,286831
9.42240,281322
9.43052,275741
9.43863,269957
9.44677,256329
9.45488,255630
9.46302,242564
9.47113,242034
9.47925,238692
9.48738,231319
9.49550,228460
9.50363,230543
9.51175,233889
9.51987,226440
9.52800,226293
9.53612,214884
9.54425,208408
9.55237,191577
9.56048,192431
9.56862,190948
9.57673,184114
9.58485,186405
9.59298,185267
9.60110,191281
9.60923,187243
9.61735,169355
9.62547,175576
9.63360,389320
9.64172,3515228
9.64985,1.73239E+07
9.65797,2.841503E+07
9.66608,2.024231E+07
9.67422,9799628
9.68233,4974430
9.69045,2979091
9.69858,2023621
9.70670,1449591
9.71483,1116547
9.72295,885506
9.73107,745370
9.73920,621081
9.74732,542057
9.75545,490888
9.76357,434714
9.77168,409017
9.77982,366486
9.78793,353495
9.79607,333318
9.80418,320028
9.81230,292621
9.82043,276473
9.82855,264371
9.83667,260625
9.84480,254246
9.85292,245914
9.86105,242910
9.86917,232040
9.87728,217981
9.88542,214662
9.89353,200105
9.90167,196273
9.90978,200149
9.91790,195359
9.92603,197356
9.93415,190029
9.94228,191417
9.95040,189104
9.95852,205912
9.96665,230280
9.97477,277091
9.98288,326798
9.99102,345598
9.99913,359308
10.00727,333824
10.01538,291600
10.02350,251317
10.03163,211823
10.03975,198431
10.04788,195083
10.05600,177404
10.06412,165763
10.07225,171150
10.08037,165417
10.08848,163794
10.09662,166009
10.10473,154800
10.11287,151025
10.12098,145471
10.12910,145759
10.13723,146532
10.14535,155519
10.15348,156834
10.16160,150804
10.16972,137857
10.17785,137304
10.18597,139002
10.19410,138762
10.20222,153145
10.21033,179641
10.21847,216291
10.22658,253819
10.23470,269644
10.24283,256138
10.25095,211347
10.25908,187351
10.26720,161357
10.27532,148742
10.28345,146692
10.29157,138622
10.29970,138814
10.30782,153481
10.31593,155645
10.32407,156793
10.33218,158653
10.34032,162533
10.34843,164146
10.35655,170783
10.36468,176104
10.37280,200297
10.38092,205008
10.38905,193385
10.39717,159371
10.40530,149711
10.41342,134934
10.42153,131854
10.42967,134137
10.43778,130617
10.44592,131758
10.45403,126264
10.46215,126991
10.47028,123435
10.47840,118396
10.48652,123541
10.49465,120014
10.50277,116903
10.51090,119810
10.51902,121381
10.52713,118971
10.53527,118964
10.54338,117539
10.55152,112729
10.55963,114370
10.56775,108762
10.57588,116868
10.58400,111707
10.59213,103703
10.60025,108895
10.60837,107197
10.61650,107144
10.62462,101108
10.63273,100762
10.64087,102920
10.64898,102789
10.65712,101665
10.66523,103112
10.67335,105634
10.68148,98679
10.68960,106558
10.69773,107177
10.70585,105638
10.71397,107766
10.72210,101662
10.73022,99439
10.73835,100690
10.74647,106656
10.75458,107113
10.76272,110401
10.77083,104958
10.77895,108134
10.78708,103550
10.79520,94234
10.80333,100731
10.81145,93630
10.81957,95238
10.82770,98042
10.83582,97488
10.84395,97884
10.85207,101131
10.86018,100640
10.86832,99036
10.87643,97731
10.88455,101851
10.89268,99782
10.90080,107290
10.90893,111128
10.91705,107443
10.92517,109963
10.93330,105918
10.94142,107463
10.94955,102270
10.95767,98609
10.96578,95246
10.97392,102929
10.98203,93808
10.99017,96682
10.99828,94259
11.00640,94214
11.01453,92568
11.02265,93633
11.03077,88740
11.03890,92475
11.04702,89683
11.05515,89757
11.06327,94702
11.07138,91035
11.07952,94027
11.08763,99983
11.09577,99972
11.10388,101632
11.11200,103919
11.12013,109727
11.12825,119228
11.13638,139231
11.14450,192473
11.15262,356389
11.16075,981064
11.16887,2561216
11.17698,4699897
11.18512,5354215
11.19323,3965584
11.20137,2382253
11.20948,1349739
11.21760,849440
11.22573,577909
11.23385,442677
11.24198,351827
11.25010,298248
11.25822,259299
11.26635,236766
11.27447,218462
11.28258,207270
11.29072,203155
11.29883,187899
11.30697,177139
11.31508,174375
11.32320,166747
11.33133,159846
11.33945,156624
11.34758,151069
11.35570,146463
11.36382,144641
11.37195,138596
11.38007,143811
11.38820,133461
11.39632,131133
11.40443,129734
11.41257,121530
11.42068,127740
11.42880,125829
11.43693,133458
11.44505,127556
11.45318,121290
11.46130,125359
11.46942,120363
11.47755,115816
11.48567,123178
11.49380,113516
11.50192,114978
11.51003,123801
11.51817,120759
11.52628,110264
11.53440,111186
11.54253,112439
11.55065,107149
11.55878,107933
11.56690,109143
11.57502,107587
11.58315,106022
11.59127,110766
11.59940,107984
11.60752,114933
11.61563,112903
11.62377,109918
11.63188,116238
11.64002,114749
11.64813,115990
11.65625,107185
11.66438,106628
11.67250,101231
11.68062,108093
11.68875,107937
11.69687,116928
11.70500,126614
11.71312,131750
11.72123,143476
11.72937,152686
11.73748,153869
11.74562,149645
11.75373,132644
11.76185,123459
11.76998,111658
11.77810,120963
11.78623,109407
11.79435,112833
11.80247,114280
11.81060,112881
11.81872,117137
11.82683,110067
11.83497,106458
11.84308,105114
11.85122,102600
11.85933,101805
11.86745,97874
11.87558,99026
11.88370,97409
11.89183,95189
11.89995,96955
11.90807,94071
11.91620,95980
11.92432,100284
11.93243,92694
11.94057,93020
11.94868,91571
11.95682,92060
11.96493,96839
11.97305,94170
11.98118,94529
11.98930,88163
11.99743,91261
12.00555,93187
12.01367,100815
12.02180,96664
12.02992,101110
12.03805,99374
12.04617,96723
12.05428,96420
12.06242,104126
12.07053,103079
12.07865,114150
12.08678,110820
12.09490,99514
12.10303,96582
12.11115,97484
12.11927,94050
12.12740,94410
12.13552,88589
12.14365,90983
12.15177,96087
12.15988,96523
12.16802,94806
12.17613,90542
12.18427,92392
12.19238,93290
12.20050,90996
12.20863,97397
12.21675,93204
12.22487,88750
12.23300,93230
12.24112,84950
12.24925,87726
12.25737,88497
12.26548,92984
12.27362,91682
12.28173,90563
12.28987,89762
12.29798,91027
12.30610,93863
12.31423,99274
12.32235,91232
12.33047,91418
12.33860,90133
12.34672,95542
12.35485,96727
12.36297,105587
12.37108,110739
12.37922,112871
12.38733,111013
12.39547,107123
12.40358,102632
12.41170,95870
12.41983,95469
12.42795,97604
12.43608,100634
12.44420,101625
12.45232,101419
12.46045,102329
12.46857,101152
12.47668,101965
12.48482,100358
12.49293,97579
12.50107,98988
12.50918,92449
12.51730,93055
12.52543,88478
12.53355,95785
12.54168,91275
12.54980,86055
12.55792,96672
12.56605,88428
12.57417,87669
12.58228,84993
12.59042,88029
12.59853,87907
12.60667,85266
12.61478,82849
12.62290,87739
12.63103,90158
12.63915,95173
12.64728,91168
12.65540,94857
12.66352,96327
12.67165,95799
12.67977,91341
12.68790,90653
12.69602,93691
12.70413,99023
12.71227,111091
12.72038,124025
12.72850,145567
12.73663,167844
12.74475,167651
12.75288,162686
12.76100,151618
12.76912,143690
12.77725,132782
12.78537,115108
12.79350,108625
12.80162,108768
12.80973,108500
12.81787,107180
12.82598,103124
12.83412,107276
12.84223,111970
12.85035,114150
12.85848,114285
12.86660,116015
12.87472,106279
12.88285,98039
12.89097,98070
12.89910,94133
12.90722,84835
12.91533,89614
12.92347,89161
12.93158,84634
12.93972,88202
12.94783,89918
12.95595,89075
12.96408,93974
12.97220,91664
12.98032,90724
12.98845,91733
12.99657,89550
13.00470,90184
13.01282,94994
13.02093,96132
13.02907,93659
13.03718,94074
13.04532,98846
13.05343,101239
13.06155,108331
13.06968,113721
13.07780,116352
13.08593,112038
13.09405,113115
13.10217,112185
13.11030,105381
13.11842,102439
13.12653,99097
13.13467,106578
13.14278,121857
13.15092,146250
13.15903,174868
13.16715,182813
13.17528,173225
13.18340,150600
13.19153,125119
13.19965,107743
13.20777,94502
13.21590,94402
13.22402,93488
13.23215,92733
13.24027,92382
13.24838,88862
13.25652,88781
13.26463,89458
13.27275,82575
13.28088,83786
13.28900,83000
13.29713,82092
13.30525,81937
13.31337,82576
13.32150,86354
13.32962,82206
13.33775,84454
13.34587,87441
13.35398,84943
13.36212,83519
13.37023,86675
13.37835,80238
13.38648,82382
13.39460,85104
13.40273,82949
13.41085,85424
13.41897,82339
13.42710,82117
13.43522,86246
13.44335,79487
13.45147,77742
13.45958,81442
13.46772,79221
13.47583,77268
13.48397,79856
13.49208,80876
13.50020,79414
13.50833,84855
13.51645,78691
13.52457,84639
13.53270,84496
13.54082,90414
13.54895,83315
13.55707,81551
13.56518,81932
13.57332,82232
13.58143,80372
13.58957,76542
13.59768,79547
13.60580,83661
13.61393,83103
13.62205,83089
13.63018,77000
13.63830,83424
13.64642,77210
13.65455,77570
13.66267,72714
13.67078,82302
13.67892,75998
13.68703,78741
13.69517,74414
13.70328,79100
13.71140,75784
13.71953,83580
13.72765,78765
13.73578,78063
13.74390,80133
13.75202,76914
13.76015,75852
13.76827,81243
13.77638,83888
13.78452,82934
13.79263,82089
13.80077,86609
13.80888,81267
13.81700,81903
13.82513,78718
13.83325,82529
13.84138,81711
13.84950,87483
13.85762,86021
13.86575,94774
13.87387,102885
13.88200,118200
13.89012,118347
13.89823,118704
13.90637,110349
13.91448,96680
13.92260,95918
13.93073,86142
13.93885,88339
13.94698,84910
13.95510,83164
13.96322,85726
13.97135,83014
13.97947,81019
13.98760,85249
13.99572,92462
14.00383,102459
14.01197,114823
14.02008,119794
14.02820,126177
14.03633,119358
14.04445,108626
14.05258,101058
14.06070,96221
14.06882,91259
14.07695,92623
14.08507,96236
14.09320,88714
14.10132,95053
14.10943,103804
14.11757,163041
14.12568,401269
14.13382,1120310
14.14193,2916659
14.15005,5880527
14.15818,8080192
14.16630,8057811
14.17442,6299006
14.18255,4152540
14.19067,2347555
14.19880,1282891
14.20692,754560
14.21503,517502
14.22317,413227
14.23128,347935
14.23942,301042
14.24753,268470
14.25565,249670
14.26378,222087
14.27190,211110
14.28003,190696
14.28815,188084
14.29627,176025
14.30440,164097
14.31252,147688
14.32063,143284
14.32877,127749
14.33688,115464
14.34502,113033
14.35313,109972
14.36125,102026
14.36938,104315
14.37750,100403
14.38563,95425
14.39375,96199
14.40187,104007
14.41000,108777
14.41812,111472
14.42623,110090
14.43437,113296
14.44248,113205
14.45062,103633
14.45873,96928
14.46685,100275
14.47498,100958
14.48310,102149
14.49123,104252
14.49935,110312
14.50747,103185
14.51560,96681
14.52372,97300
14.53185,95268
14.53997,96450
14.54808,95378
14.55622,99998
14.56433,103892
14.57245,107752
14.58058,103518
14.58870,100687
14.59683,99175
14.60495,95950
14.61307,93760
14.62120,91208
14.62932,92600
14.63745,89479
14.64557,87297
14.65368,89025
14.66182,89989
14.66993,95397
14.67807,90798
14.68618,85282
14.69430,93152
14.70243,85575
14.71055,84454
14.71867,89781
14.72680,90691
14.73492,93662
14.74305,94060
14.75117,86996
14.75928,91320
14.76742,93052
14.77553,111226
14.78367,164052
14.79178,318318
14.79990,589239
14.80803,908968
14.81615,1075515
14.82427,1002931
14.83240,735811
14.84052,452444
14.84865,294039
14.85677,209919
14.86488,161289
14.87302,144079
14.88113,134310
14.88927,119696
14.89738,119953
14.90550,107890
14.91363,105167
14.92175,99085
14.92988,97863
14.93800,96473
14.94612,95768
14.95425,88960
14.96237,96316
14.97048,88674
14.97862,90487
14.98673,88992
14.99487,90938
15.00298,90329
15.01110,84100
15.01923,87320
15.02735,89200
15.03548,87081
15.04360,86347
15.05172,85048
15.05985,90520
15.06797,92706
15.07608,89677
15.08422,92624
15.09233,88581
15.10047,84501
15.10858,83834
15.11670,82327
15.12483,84126
15.13295,76911
15.14108,78724
15.14920,77652
15.15732,80940
15.16545,86242
15.17357,85871
15.18170,81802
15.18982,83273
15.19793,83295
15.20607,84702
15.21418,82036
15.22230,82744
15.23043,81014
15.23855,82729
15.24668,83947
15.25480,77897
15.26292,79512
15.27105,76825
15.27917,76166
15.28730,79778
15.29542,81865
15.30353,80170
15.31167,78123
15.31978,74815
15.32792,77584
15.33603,76657
15.34415,75379
15.35228,70359
15.36040,75847
15.36852,75535
15.37665,74362
15.38477,76284
15.39290,74795
15.40102,77785
15.40913,79428
15.41727,78174
15.42538,77393
15.43352,77772
15.44163,83295
15.44975,90987
15.45788,96964
15.46600,95875
15.47413,97569
15.48225,98470
15.49037,88673
15.49850,82271
15.50662,79411
15.51473,77652
15.52287,70991
15.53098,74838
15.53912,72763
15.54723,79019
15.55535,76420
15.56348,77379
15.57160,75641
15.57973,74127
15.58785,72925
15.59597,72590
15.60410,75856
15.61222,76900
15.62033,78362
15.62847,73740
15.63658,72454
15.64472,75579
15.65283,69295
15.66095,75324
15.66908,73872
15.67720,74055
15.68533,76456
15.69345,78050
15.70157,74608
15.70970,73797
15.71782,74461
15.72595,73209
15.73407,71689
15.74218,72330
15.75032,74337
15.75843,72691
15.76655,76043
15.77468,76176
15.78280,75680
15.79093,76457
15.79905,71806
15.80717,74903
15.81530,76829
15.82342,71487
15.83155,76897
15.83967,72048
15.84778,74442
15.85592,71514
15.86403,79248
15.87215,72162
15.88028,76178
15.88840,76859
15.89653,74965
15.90465,75372
15.91277,77547
15.92090,73111
15.92902,78340
15.93715,157918
15.94527,519631
15.95338,603369
15.96152,311463
15.96963,209810
15.97777,171566
15.98588,166702
15.99400,191375
16.00213,240344
16.01025,309258
16.01837,412475
16.02650,477502
16.03462,488418
16.04275,455847
16.05087,365562
16.05898,293999
16.06712,231954
16.07523,197364
16.08337,174608
16.09148,166291
16.09960,1475104
16.10773,2.975375E+07
16.11585,5.07109E+07
16.12398,2.603456E+07
16.13210,1.329527E+07
16.14022,7965241
16.14835,5249463
16.15647,3822415
16.16458,2900461
16.17272,2338135
16.18083,1918497
16.18897,1656856
16.19708,1432010
16.20520,1285421
16.21333,1139450
16.22145,1204961
16.22958,8113616
16.23770,3.803024E+07
16.24582,3.229861E+07
16.25395,1.502926E+07
16.26207,8454022
16.27018,5583839
16.27832,4007353
16.28643,3094277
16.29457,2419015
16.30268,2030076
16.31080,1737002
16.31893,1477656
16.32705,1316749
16.33518,1190478
16.34330,1080820
16.35142,1003673
16.35955,939237
16.36767,859546
16.37580,810797
16.38392,761885
16.39203,711323
16.40017,671512
16.40828,647680
16.41640,610501
16.42453,588649
16.43265,559771
16.44078,533462
16.44890,513432
16.45702,507143
16.46515,498741
16.47327,503700
16.48140,481513
16.48952,445279
16.49763,429687
16.50577,401564
16.51388,405203
16.52202,399984
16.53013,393752
16.53825,409834
16.54638,462778
16.55450,494732
16.56262,487535
16.57075,435121
16.57887,408970
16.58700,379135
16.59512,350269
16.60323,349886
16.61137,335825
16.61948,513416
16.62762,2485505
16.63573,8029479
16.64385,9447809
16.65198,5623587
16.66010,3066272
16.66822,1962431
16.67635,1410091
16.68447,1070975
16.69260,860278
16.70072,721386
16.70883,620159
16.71697,555148
16.72508,501378
16.73322,448400
16.74133,410952
16.74945,383013
16.75758,354111
16.76570,346666
16.77383,321898
16.78195,320266
16.79007,317311
16.79820,295591
16.80632,282126
16.81443,279940
16.82257,266481
16.83068,269650
16.83882,263623
16.84693,247887
16.85505,248156
16.86318,243426
16.87130,242317
16.87943,228536
16.88755,233646
16.89567,230903
16.90380,226144
16.91192,222124
16.92003,225329
16.92817,229166
16.93628,225596
16.94442,233681
16.95253,236344
16.96065,248745
16.96878,262815
16.97690,261469
16.98503,249419
16.99315,236103
17.00127,219238
17.00940,217292
17.01752,207755
17.02565,207735
17.03377,209819
17.04188,213737
17.05002,218283
17.05813,221078
17.06625,219847
17.07438,208150
17.08250,195892
17.09063,197193
17.09875,189057
17.10687,193761
17.11500,185126
17.12312,180865
17.13125,179351
17.13937,180260
17.14748,175177
17.15562,170367
17.16373,175673
17.17187,168734
17.17998,169041
17.18810,161020
17.19623,163693
17.20435,165112
17.21247,160457
17.22060,158992
17.22872,168488
17.23685,182942
17.24497,174696
17.25308,170392
17.26122,166597
17.26933,168388
17.27747,162424
17.28558,164898
17.29370,163685
17.30183,164210
17.30995,175304
17.31807,182156
17.32620,181484
17.33432,189429
17.34245,188604
17.35057,178145
17.35868,181172
17.36682,185568
17.37493,171777
17.38307,177321
17.39118,155660
17.39930,155367
17.40743,151660
17.41555,150180
17.42368,156084
17.43180,147639
17.43992,150275
17.44805,150413
17.45617,146862
17.46428,151993
17.47242,152123
17.48053,145580
17.48867,142838
17.49678,144882
17.50490,145145
17.51303,145575
17.52115,142393
17.52928,148533
17.53740,143326
17.54552,144371
17.55365,151085
17.56177,144332
17.56990,144541
17.57802,137952
17.58613,140654
17.59427,137164
17.60238,137175
17.61050,133011
17.61863,132653
17.62675,133215
17.63488,136739
17.64300,139296
17.65112,143100
17.65925,151293
17.66737,160477
17.67550,174025
17.68362,171189
17.69173,156266
17.69987,150414
17.70798,143918
17.71610,136074
17.72423,129606
17.73235,130260
17.74048,131773
17.74860,131132
17.75672,131371
17.76485,135348
17.77297,129690
17.78110,124360
17.78922,125547
17.79733,124517
17.80547,135557
17.81358,144896
17.82172,146460
17.82983,156913
17.83795,171421
17.84608,172207
17.85420,166304
17.86232,167090
17.87045,152623
17.87857,141983
17.88670,148983
17.89482,210400
17.90293,558663
17.91107,1365171
17.91918,2081096
17.92732,1855297
17.93543,1155432
17.94355,733813
17.95168,493750
17.95980,380863
17.96792,322795
17.97605,280416
17.98417,233802
17.99230,215273
18.00042,202139
18.00853,187475
18.01667,193632
18.02478,184881
18.03292,191908
18.04103,193669
18.04915,188129
18.05728,174782
18.06540,161355
18.07353,152374
18.08165,156477
18.08977,154006
18.09790,154621
18.10602,148384
18.11413,146303
18.12227,142062
18.13038,140873
18.13852,137684
18.14663,128652
18.15475,141576
18.16288,159795
18.17100,181997
18.17913,213771
18.18725,221324
18.19537,232285
18.20350,245074
18.21162,245738
18.21975,248715
18.22787,266505
18.23598,260207
18.24412,266752
18.25223,266885
18.26035,271348
18.26848,275323
18.27660,268687
18.28473,274479
18.29285,262739
18.30097,255994
18.30910,261854
18.31722,266806
18.32535,257349
18.33347,248689
18.34158,245184
18.34972,241858
18.35783,231215
18.36595,225807
18.37408,217166
18.38220,223170
18.39033,216716
18.39845,220802
18.40657,218499
18.41470,215301
18.42282,221132
18.43095,207946
18.43907,212700
18.44718,207107
18.45532,209172
18.46343,204347
18.47157,204556
18.47968,202230
18.48780,210553
18.49593,199425
18.50405,191930
18.51217,192130
18.52030,189041
18.52842,186958
18.53655,181179
18.54467,177672
18.55278,175792
18.56092,175281
18.56903,178655
18.57717,173046
18.58528,178687
18.59340,185392
18.60153,181512
18.60965,184377
18.61778,182543
18.62590,172917
18.63402,169283
18.64215,161062
18.65027,161774
18.65838,161496
18.66652,158000
18.67463,153178
18.68277,152285
18.69088,156219
18.69900,149480
18.70713,147453
18.71525,147849
18.72338,150264
18.73150,149027
18.73962,144406
18.74775,148096
18.75587,143755
18.76398,141541
18.77212,136968
18.78023,137156
18.78837,133109
18.79648,138961
18.80460,134375
18.81273,137330
18.82085,129222
18.82898,135498
18.83710,134459
18.84522,129914
18.85335,136938
18.86147,131324
18.86960,134844
18.87772,128285
18.88583,127443
18.89397,130211
18.90208,131567
18.91020,124988
18.91833,128874
18.92645,130028
18.93458,132051
18.94270,137122
18.95082,136085
18.95895,123829
18.96707,126989
18.97520,124880
18.98332,126334
18.99143,123972
18.99957,118380
19.00768,127534
19.01582,122008
19.02393,120472
19.03205,134696
19.04018,132152
19.04830,128869
19.05642,138959
19.06455,152610
19.07267,179392
19.08080,202223
19.08892,230952
19.09703,258375
19.10517,271009
19.11328,251590
19.12142,231687
19.12953,208531
19.13765,188743
19.14578,168316
19.15390,169402
19.16202,168057
19.17015,160640
19.17827,147218
19.18640,153729
19.19452,146896
19.20263,146961
19.21077,140324
19.21888,140395
19.22702,137431
19.23513,139104
19.24325,152148
19.25138,178087
19.25950,229273
19.26763,330248
19.27575,475553
19.28387,667858
19.29200,781426
19.30012,771690
19.30823,687881
19.31637,535723
19.32448,415188
19.33262,317909
19.34073,267132
19.34885,224841
19.35698,210356
19.36510,187699
19.37323,187741
19.38135,185984
19.38947,174781
19.39760,163791
19.40572,166932
19.41383,197857
19.42197,291475
19.43008,580620
19.43822,1168073
19.44633,2169336
19.45445,3108428
19.46258,3277976
19.47070,2645318
19.47883,1768741
19.48695,1003029
19.49507,525017
19.50320,304486
19.51132,221533
19.51945,188266
19.52757,180429
19.53568,171052
19.54382,169212
19.55193,187822
19.56005,217792
19.56818,290090
19.57630,404621
19.58443,489972
19.59255,525564
19.60067,465095
19.60880,400462
19.61692,388870
19.62505,516346
19.63317,802911
19.64128,1341763
19.64942,2013778
19.65753,2529860
19.66567,2590583
19.67378,2167494
19.68190,1566634
19.69003,1026382
19.69815,668033
19.70627,476569
19.71440,360805
19.72252,306685
19.73065,260466
19.73877,234788
19.74688,214927
19.75502,207487
19.76313,211561
19.77127,222620
19.77938,239759
19.78750,233876
19.79563,235325
19.80375,224732
19.81187,217561
19.82000,213209
19.82812,210770
19.83625,204559
19.84437,194254
19.85248,175164
19.86062,175170
19.86873,167679
19.87687,178613
19.88498,184211
19.89310,212168
19.90123,219631
19.90935,233410
19.91748,249476
19.92560,267366
19.93372,290982
19.94185,315116
19.94997,340622
19.95808,324811
19.96622,302023
19.97433,263300
19.98247,234513
19.99058,211410
19.99870,195642
20.00683,189013
20.01495,181234
20.02308,177965
20.03120,171082
20.03932,160991
20.04745,159383
20.05557,156083
20.06370,138719
20.07182,142305
20.07993,141881
20.08807,139631
20.09618,132040
20.10430,133861
20.11243,128689
20.12055,131777
20.12868,128071
20.13680,125141
20.14492,125034
20.15305,123323
20.16117,126484
20.16930,129085
20.17742,124496
20.18553,125868
20.19367,129259
20.20178,142960
20.20990,183567
20.21803,260285
20.22615,443397
20.23428,755102
20.24240,1174282
20.25052,1585744
20.25865,1888493
20.26677,1800697
20.27490,1461487
20.28302,1088607
20.29113,728390
20.29927,511339
20.30738,381455
20.31552,299454
20.32363,258142
20.33175,227582
20.33988,211183
20.34800,186205
20.35612,190418
20.36425,187152
20.37237,190134
20.38050,204905
20.38862,248359
20.39673,315650
20.40487,393098
20.41298,468179
20.42112,489850
20.42923,513203
20.43735,487787
20.44548,478021
20.45360,429732
20.46172,396699
20.46985,325477
20.47797,270909
20.48610,226720
20.49422,199026
20.50233,179194
20.51047,172391
20.51858,162861
20.52672,155163
20.53483,156711
20.54295,142141
20.55108,145892
20.55920,141799
20.56733,138854
20.57545,142316
20.58357,143117
20.59170,152572
20.59982,151283
20.60793,155487
20.61607,162800
20.62418,152040
20.63232,151107
20.64043,143157
20.64855,140004
20.65668,136231
20.66480,138627
20.67293,175788
20.68105,254929
20.68917,403502
20.69730,585931
20.70542,667563
20.71355,579348
20.72167,449582
20.72978,323232
20.73792,251782
20.74603,212859
20.75415,184174
20.76228,179488
20.77040,157665
20.77853,151262
20.78665,155387
20.79477,152560
20.80290,147745
20.81102,135031
20.81915,135089
20.82727,129580
20.83538,126426
20.84352,128383
20.85163,123793
20.85977,124028
20.86788,124143
20.87600,119139
20.88413,119095
20.89225,115056
20.90037,119216
20.90850,119807
20.91662,117154
20.92475,111996
20.93287,110021
20.94098,108749
20.94912,115325
20.95723,113514
20.96537,120380
20.97348,110232
20.98160,115876
20.98973,113850
20.99785,111277
21.00597,112806
21.01410,120119
21.02222,108504
21.03035,115747
21.03847,113297
21.04658,116593
21.05472,116256
21.06283,113825
21.07097,111126
21.07908,107788
21.08720,107348
21.09533,109536
21.10345,108812
21.11158,113397
21.11970,111409
21.12782,119112
21.13595,122131
21.14407,128797
21.15218,138076
21.16032,130792
21.16843,140453
21.17657,132273
21.18468,138758
21.19280,128070
21.20093,137853
21.20905,132389
21.21718,132775
21.22530,132915
21.23342,139558
21.24155,141378
21.24967,144117
21.25778,139746
21.26592,141461
21.27403,133272
21.28217,125194
21.29028,129693
21.29840,134128
21.30653,132394
21.31465,130034
21.32278,127351
21.33090,129436
21.33902,125209
21.34715,141315
21.35527,144264
21.36340,143857
21.37152,136874
21.37963,130647
21.38777,126616
21.39588,126445
21.40400,124378
21.41213,134956
21.42025,153311
21.42838,184696
21.43650,217598
21.44462,263224
21.45275,270175
21.46087,238919
21.46900,215655
21.47712,189499
21.48523,175388
21.49337,166450
21.50148,159880
21.50962,157699
21.51773,147522
21.52585,140364
21.53398,143199
21.54210,136993
21.55022,137944
21.55835,161071
21.56647,214031
21.57460,299016
21.58272,425047
21.59083,560827
21.59897,645774
21.60708,691752
21.61522,663968
21.62333,536357
21.63145,444923
21.63958,364816
21.64770,336976
21.65582,344402
21.66395,380118
21.67207,386256
21.68020,382976
21.68832,347275
21.69643,315103
21.70457,289915
21.71268,273208
21.72082,243525
21.72893,223802
21.73705,203071
21.74518,197942
21.75330,197171
21.76143,225327
21.76955,266301
21.77767,334165
21.78580,418352
21.79392,486369
21.80203,494724
21.81017,457973
21.81828,389992
21.82642,317667
21.83453,259944
21.84265,221537
21.85078,189635
21.85890,176562
21.86703,180594
21.87515,183069
21.88327,180741
21.89140,188582
21.89952,194129
21.90765,185663
21.91577,171826
21.92388,161530
21.93202,151518
21.94013,139708
21.94825,142938
21.95638,141378
21.96450,138845
21.97263,134909
21.98075,125424
21.98887,122835
21.99700,122687
22.00512,126488
22.01325,124636
22.02137,118541
22.02948,124800
22.03762,126468
22.04573,124255
22.05385,126017
22.06198,128066
22.07010,129028
22.07823,131161
22.08635,139514
22.09447,149837
22.10260,142870
22.11072,144202
22.11885,129034
22.12697,131665
22.13508,127994
22.14322,127325
22.15133,134846
22.15947,134012
22.16758,153034
22.17570,167016
22.18383,171946
22.19195,174332
22.20007,170307
22.20820,154778
22.21632,143195
22.22445,128871
22.23257,124585
22.24068,122784
22.24882,114094
22.25693,112523
22.26507,110800
22.27318,116532
22.28130,122748
22.28943,114149
22.29755,117602
22.30567,117410
22.31380,117592
22.32192,121573
22.33005,117267
22.33817,119132
22.34628,126859
22.35442,115503
22.36253,118374
22.37067,109232
22.37878,108586
22.38690,108476
22.39503,104410
22.40315,108404
22.41128,112668
22.41940,117418
22.42752,126702
22.43565,138142
22.44377,148029
22.45188,149712
22.46002,155740
22.46813,146483
22.47627,139496
22.48438,129408
22.49250,122674
22.50063,126867
22.50875,127773
22.51688,134030
22.52500,142229
22.53312,143213
22.54125,137964
22.54937,135725
22.55750,124084
22.56562,118555
22.57373,115017
22.58187,110694
22.58998,115532
22.59810,107638
22.60623,108159
22.61435,96557
22.62248,100673
22.63060,102311
22.63872,96911
22.64685,95419
22.65497,92139
22.66310,95410
22.67122,102717
22.67933,103031
22.68747,102357
22.69558,113542
22.70370,116790
22.71183,121809
22.71995,122470
22.72808,114417
22.73620,103162
22.74432,94669
22.75245,105203
22.76057,99091
22.76870,91199
22.77682,103021
22.78493,104912
22.79307,107888
22.80118,108164
22.80932,104046
22.81743,105328
22.82555,94787
22.83368,93578
22.84180,95773
22.84992,96888
22.85805,99592
22.86617,100600
22.87430,99337
22.88242,101090
22.89053,100477
22.89867,109878
22.90678,114892
22.91492,133448
22.92303,137044
22.93115,140920
22.93928,152539
22.94740,154886
22.95553,153765
22.96365,154610
22.97177,154969
22.97990,152459
22.98802,156320
22.99613,149602
23.00427,144832
23.01238,135786
23.02052,132778
23.02863,128075
23.03675,124506
23.04488,123992
23.05300,120545
23.06113,111806
23.06925,111277
23.07737,108176
23.08550,105059
23.09362,105352
23.10173,103671
23.10987,109105
23.11798,111916
23.12612,109681
23.13423,107682
23.14235,105670
23.15048,100322
23.15860,110777
23.16673,104498
23.17485,104050
23.18297,101765
23.19110,106249
23.19922,106011
23.20735,107562
23.21547,103457
23.22358,103959
23.23172,97191
23.23983,101373
23.24795,99398
23.25608,103891
23.26420,99039
23.27233,105542
23.28045,103953
23.28857,114379
23.29670,110507
23.30482,108476
23.31295,104840
23.32107,105698
23.32918,98756
23.33732,101707
23.34543,101651
23.35357,94543
23.36168,97255
23.36980,98667
23.37793,103188
23.38605,103032
23.39417,103358
23.40230,102103
23.41042,103130
23.41855,105963
23.42667,101407
23.43478,101699
23.44292,99286
23.45103,98785
23.45917,103802
23.46728,104329
23.47540,103313
23.48353,97237
23.49165,97759
23.49977,95360
23.50790,98942
23.51602,104290
23.52415,102428
23.53227,94804
23.54038,100628
23.54852,100502
23.55663,101781
23.56477,98857
23.57288,99413
23.58100,102092
23.58913,98375
23.59725,94686
23.60538,99816
23.61350,100621
23.62162,99169
23.62975,99756
23.63787,102626
23.64598,104073
23.65412,107712
23.66223,110276
23.67037,113122
23.67848,110887
23.68660,113381
23.69473,106019
23.70285,105266
23.71098,110476
23.71910,137107
23.72722,223501
23.73535,535696
23.74347,1503857
23.75158,3778093
23.75972,7299774
23.76783,1.04311E+07
23.77597,1.188824E+07
23.78408,1.161334E+07
23.79220,9819782
23.80033,7595154
23.80845,5422979
23.81658,3796411
23.82470,2682400
23.83282,1960854
23.84095,1524381
23.84907,1257853
23.85720,1118704
23.86532,1124030
23.87343,1301110
23.88157,1570606
23.88968,1826846
23.89780,1907183
23.90593,1791103
23.91405,1562342
23.92218,1303475
23.93030,1073830
23.93842,868723
23.94655,728646
23.95467,616501
23.96280,532810
23.97092,498351
23.97903,456326
23.98717,421618
23.99528,385273
24.00342,354417
24.01153,347206
24.01965,328917
24.02778,301827
24.03590,302404
24.04402,299158
24.05215,302842
24.06027,333867
24.06840,366001
24.07652,400078
24.08463,412887
24.09277,412926
24.10088,390451
24.10902,361814
24.11713,338357
24.12525,306657
24.13338,318731
24.14150,316276
24.14962,341184
24.15775,353023
24.16587,363673
24.17400,357491
24.18212,342900
24.19023,318736
24.19837,295638
24.20648,267503
24.21462,257088
24.22273,239202
24.23085,228338
24.23898,221051
24.24710,209622
24.25523,204052
24.26335,200447
24.27147,208005
24.27960,206396
24.28772,201406
24.29583,207212
24.30397,255594
24.31208,348946
24.32022,603935
24.32833,1092564
24.33645,1812065
24.34458,2427936
24.35270,2450803
24.36083,1969447
24.36895,1370408
24.37707,937986
24.38520,629121
24.39332,412657
24.40145,302046
24.40957,242076
24.41768,234783
24.42582,259643
24.43393,316438
24.44205,395843
24.45018,472822
24.45830,505818
24.46643,492809
24.47455,458895
24.48267,395086
24.49080,344047
24.49892,317098
24.50705,272566
24.51517,255320
24.52328,235396
24.53142,223961
24.53953,214515
24.54765,195922
24.55578,188345
24.56390,188963
24.57203,184065
24.58015,210861
24.58827,284818
24.59640,472449
24.60452,859074
24.61265,1358311
24.62077,1828369
24.62888,1983241
24.63702,1873586
24.64513,1652831
24.65327,1429682
24.66138,1302836
24.66950,1104732
24.67763,919073
24.68575,711381
24.69387,540760
24.70200,428927
24.71012,363524
24.71825,321845
24.72637,298538
24.73448,270089
24.74262,251121
24.75073,243551
24.75887,236342
24.76698,225870
24.77510,213715
24.78323,211237
24.79135,204766
24.79947,201436
24.80760,195374
24.81572,194431
24.82385,197583
24.83197,192605
24.84008,204448
24.84822,202013
24.85633,202566
24.86447,197763
24.87258,205730
24.88070,197955
24.88883,190526
24.89695,180932
24.90508,180761
24.91320,169516
24.92132,163491
24.92945,167626
24.93757,169171
24.94568,160770
24.95382,154620
24.96193,148966
24.97007,157387
24.97818,151537
24.98630,151414
24.99443,151584
25.00255,151464
25.01068,146177
25.01880,145572
25.02692,151494
25.03505,149871
25.04317,151940
25.05130,148532
25.05942,149242
25.06753,149858
25.07567,150260
25.08378,147422
25.09190,148946
25.10003,147363
25.10815,149879
25.11628,148835
25.12440,146311
25.13252,152847
25.14065,164881
25.14877,152123
25.15690,152547
25.16502,157377
25.17313,153970
25.18127,163373
25.18938,159105
25.19750,162409
25.20563,162301
25.21375,167588
25.22188,160521
25.23000,163158
25.23812,143894
25.24625,146066
25.25437,139530
25.26250,138295
25.27062,131015
25.27873,141948
25.28687,145110
25.29498,146340
25.30312,147256
25.31123,152707
25.31935,151460
25.32748,154619
25.33560,146694
25.34372,136339
25.35185,134839
25.35997,126045
25.36810,127143
25.37622,120440
25.38433,129876
25.39247,127903
25.40058,134074
25.40872,144926
25.41683,148643
25.42495,158733
25.43308,156691
25.44120,160121
25.44933,168520
25.45745,171442
25.46557,183479
25.47370,206647
25.48182,214718
25.48993,212078
25.49807,201182
25.50618,184664
25.51432,167541
25.52243,151833
25.53055,143437
25.53868,136658
25.54680,133827
25.55493,137248
25.56305,127795
25.57117,132469
25.57930,132419
25.58742,133535
25.59553,128992
25.60367,128928
25.61178,130960
25.61992,133122
25.62803,127903
25.63615,128587
25.64428,127600
25.65240,121259
25.66053,122934
25.66865,117635
25.67677,126270
25.68490,121064
25.69302,121547
25.70115,116090
25.70927,125026
25.71738,123988
25.72552,124134
25.73363,125404
25.74175,128078
25.74988,121897
25.75800,121684
25.76613,122524
25.77425,122835
25.78237,122595
25.79050,125169
25.79862,121757
25.80675,125751
25.81487,118286
25.82298,114102
25.83112,119417
25.83923,114232
25.84735,112112
25.85548,109417
25.86360,105519
25.87173,108382
25.87985,109998
25.88797,111332
25.89610,108888
25.90422,110868
25.91235,111927
25.92047,110054
25.92858,114933
25.93672,113162
25.94483,119392
25.95297,116604
25.96108,110535
25.96920,110347
25.97733,112486
25.98545,109344
25.99357,111333
26.00170,109335
26.00982,107676
26.01795,105047
26.02607,105654
26.03418,111868
26.04232,108644
26.05043,111329
26.05857,107896
26.06668,106055
26.07480,110713
26.08293,107428
26.09105,102417
26.09918,106447
26.10730,113933
26.11542,122139
26.12355,116778
26.13167,124370
26.13978,129785
26.14792,133722
26.15603,129446
26.16417,126306
26.17228,131986
26.18040,129664
26.18853,137702
26.19665,139928
26.20478,144560
26.21290,133667
26.22102,121832
26.22915,125519
26.23727,120216
26.24540,116044
26.25352,117219
26.26163,118490
26.26977,119883
26.27788,118726
26.28600,126874
26.29413,118429
26.30225,122096
26.31038,120469
26.31850,114906
26.32662,112567
26.33475,109464
26.34287,114420
26.35100,118363
26.35912,114619
26.36723,110883
26.37537,111608
26.38348,107499
26.39160,110968
26.39973,109717
26.40785,104159
26.41598,107279
26.42410,107146
26.43222,108747
26.44035,111574
26.44847,111188
26.45660,106370
26.46472,107197
26.47283,107005
26.48097,104849
26.48908,111207
26.49722,103766
26.50533,109300
26.51345,100233
26.52158,108367
26.52970,100863
26.53782,104564
26.54595,105525
26.55407,103372
26.56220,102747
26.57032,103004
26.57843,102631
26.58657,104702
26.59468,106957
26.60282,108189
26.61093,106016
26.61905,104052
26.62718,114593
26.63530,110456
26.64342,113304
26.65155,119583
26.65967,121714
26.66780,126739
26.67592,136015
26.68403,134880
26.69217,124459
26.70028,131403
26.70842,119276
26.71653,118303
26.72465,116786
26.73278,112490
26.74090,115527
26.74903,116036
26.75715,117044
26.76527,115236
26.77340,122216
26.78152,124959
26.78963,132159
26.79777,147013
26.80588,155039
26.81402,145093
26.82213,143129
26.83025,136573
26.83838,140430
26.84650,137337
26.85463,133790
26.86275,135063
26.87087,140614
26.87900,149556
26.88712,171714
26.89525,190282
26.90337,230513
26.91148,323980
26.91962,603466
26.92773,1537788
26.93585,5444172
26.94398,1.920313E+07
26.95210,4.379025E+07
26.96023,6.442367E+07
26.96835,8.215945E+07
26.97647,9.175049E+07
26.98460,9.153006E+07
26.99272,8.551562E+07
27.00085,7.388307E+07
27.00897,6.029738E+07
27.01708,4.992402E+07
27.02522,4.252218E+07
27.03333,3.51553E+07
27.04145,2.724178E+07
27.04958,2.055812E+07
27.05770,1.609416E+07
27.06583,1.199918E+07
27.07395,9039621
27.08207,6885300
27.09020,5356724
27.09832,4382677
27.10645,3567397
27.11457,3037387
27.12268,2704595
27.13082,2450468
27.13893,2179428
27.14707,1995632
27.15518,1850680
27.16330,1718019
27.17143,1623186
27.17955,1533591
27.18767,1435306
27.19580,1373336
27.20392,1263649
27.21205,1202826
27.22017,1171628
27.22828,1130664
27.23642,1061058
27.24453,1019977
27.25267,974939
27.26078,966145
27.26890,962021
27.27703,1004157
27.28515,1259345
27.29328,2089076
27.30140,3835390
27.30952,7664196
27.31765,1.267761E+07
27.32577,1.642117E+07
27.33388,1.841283E+07
27.34202,1.845303E+07
27.35013,1.690162E+07
27.35827,1.424087E+07
27.36638,1.105081E+07
27.37450,8414472
27.38263,6331072
27.39075,4872702
27.39888,3762328
27.40700,3104621
27.41512,2461542
27.42325,2070990
27.43137,1800318
27.43948,1630258
27.44762,1472340
27.45573,1416836
27.46387,1336749
27.47198,1229503
27.48010,1118263
27.48823,1005959
27.49635,948371
27.50448,878089
27.51260,830042
27.52072,800632
27.52885,792871
27.53697,775954
27.54510,769438
27.55322,757680
27.56133,703712
27.56947,687952
27.57758,647074
27.58570,615907
27.59383,606246
27.60195,583381
27.61008,564582
27.61820,570310
27.62632,543238
27.63445,522671
27.64257,509224
27.65070,499140
27.65882,484823
27.66693,489885
27.67507,476682
27.68318,455916
27.69130,448246
27.69943,453752
27.70755,451477
27.71568,442186
27.72380,431000
27.73192,425797
27.74005,422561
27.74817,406528
27.75630,413901
27.76442,409696
27.77253,390441
27.78067,377659
27.78878,370599
27.79692,372907
27.80503,371191
27.81315,370296
27.82128,367182
27.82940,371273
27.83752,358855
27.84565,351713
27.85377,358551
27.86190,341315
27.87002,343321
27.87813,333509
27.88627,328118
27.89438,325435
27.90252,319727
27.91063,311953
27.91875,323271
27.92688,325121
27.93500,325560
27.94313,327134
27.95125,339718
27.95937,348972
27.96750,347659
27.97562,331784
27.98373,324587
27.99187,310989
27.99998,301787
28.00812,301861
28.01623,289378
28.02435,285677
28.03248,270581
28.04060,270039
28.04873,268528
28.05685,264520
28.06497,268083
28.07310,252098
28.08122,267557
28.08933,261910
28.09747,269069
28.10558,275558
28.11372,298602
28.12183,356460
28.12995,394168
28.13808,435746
28.14620,462041
28.15433,458377
28.16245,412280
28.17057,366081
28.17870,320729
28.18682,300658
28.19495,291332
28.20307,309486
28.21118,397375
28.21932,739700
28.22743,1716526
28.23555,4156523
28.24368,1.054421E+07
28.25180,2.319444E+07
28.25993,3.608026E+07
28.26805,4.67243E+07
28.27617,5.338599E+07
28.28430,5.6202E+07
28.29242,5.510358E+07
28.30055,5.159445E+07
28.30867,4.764801E+07
28.31678,4.211597E+07
28.32492,3.724457E+07
28.33303,3.185138E+07
28.34117,2.711029E+07
28.34928,2.312012E+07
28.35740,1.978493E+07
28.36553,1.639712E+07
28.37365,1.324968E+07
28.38177,1.109426E+07
28.38990,9301388
28.39802,7700428
28.40615,6352503
28.41427,5360557
28.42238,4536502
28.43052,3847598
28.43863,3279136
28.44677,2883445
28.45488,2577500
28.46300,2385249
28.47113,2352942
28.47925,2659298
28.48737,3180282
28.49550,4104634
28.50362,5470541
28.51175,6827170
28.51987,7815534
28.52798,8440586
28.53612,8545779
28.54423,8751752
28.55237,8267058
28.56048,7834607
28.56860,7138404
28.57673,6514455
28.58485,5712195
28.59298,5044813
28.60110,4361720
28.60922,3686631
28.61735,3344759
28.62547,2928985
28.63358,2601284
28.64172,2281806
28.64983,2036616
28.65797,1816523
28.66608,1685766
28.67420,1638638
28.68233,1845292
28.69045,2357303
28.69858,3013794
28.70670,3412120
28.71482,3268398
28.72295,2742623
28.73107,2053846
28.73920,1516207
28.74732,1158711
28.75543,985186
28.76357,957259
28.77168,972651
28.77980,1043092
28.78793,1077908
28.79605,1035389
28.80418,922603
28.81230,824920
28.82042,731193
28.82855,682340
28.83667,658057
28.84480,619062
28.85292,596169
28.86103,578257
28.86917,561633
28.87728,548069
28.88540,536073
28.89353,541609
28.90165,524184
28.90978,496696
28.91790,500371
28.92602,481396
28.93415,476481
28.94227,472611
28.95040,470816
28.95852,457852
28.96663,453519
28.97477,456937
28.98288,446532
28.99102,436261
28.99913,424648
29.00725,407781
29.01538,412436
29.02350,404706
29.03162,406782
29.03975,400055
29.04787,395665
29.05600,390154
29.06412,386084
29.07223,379199
29.08037,368054
29.08848,383597
29.09662,373847
29.10473,370449
29.11285,367500
29.12098,357516
29.12910,361766
29.13722,357869
29.14535,344377
29.15347,348016
29.16160,345377
29.16972,341860
29.17783,343575
29.18597,341422
29.19408,336080
29.20222,332263
29.21033,335458
29.21845,342351
29.22658,327991
29.23470,332931
29.24283,328176
29.25095,323388
29.25907,321648
29.26720,324295
29.27532,315911
29.28343,312698
29.29157,311959
29.29968,310621
29.30782,296230
29.31593,299495
29.32405,295259
29.33218,292616
29.34030,292682
29.34843,288184
29.35655,285946
29.36467,279062
29.37280,276550
29.38092,278295
29.38905,268327
29.39717,292368
29.40528,290211
29.41342,294419
29.42153,300155
29.42965,297314
29.43778,289728
29.44590,284689
29.45403,279079
29.46215,258885
29.47027,258282
29.47840,257991
29.48652,258545
29.49465,259255
29.50277,253971
29.51088,252975
29.51902,249957
29.52713,246729
29.53525,245363
29.54338,234396
29.55150,234772
29.55963,232101
29.56775,233712
29.57587,228629
29.58400,228043
29.59212,227902
29.60025,222407
29.60837,217092
29.61648,225071
29.62462,218118
29.63273,215593
29.64087,223386
29.64898,212987
29.65710,215249
29.66523,223469
29.67335,213281
29.68147,216467
29.68960,213378
29.69772,210589
29.70585,212981
29.71397,205238
29.72208,210413
29.73022,215259
29.73833,212599
29.74647,206388
29.75458,198947
29.76270,199516
29.77083,211700
29.77895,195847
29.78708,198479
29.79520,198717
29.80332,191905
29.81145,197968
29.81957,201777
29.82768,210425
29.83582,226090
29.84393,293493
29.85207,416095
29.86018,696548
29.86830,1218362
29.87643,2183740
29.88455,3676370
29.89268,6221391
29.90080,9457985
29.90892,1.31096E+07
29.91705,1.629589E+07
29.92517,1.831254E+07
29.93328,1.95621E+07
29.94142,1.950712E+07
29.94953,1.816558E+07
29.95767,1.711516E+07
29.96578,1.582138E+07
29.97390,1.4542E+07
29.98203,1.257042E+07
29.99015,1.084481E+07
29.99828,9619600
30.00640,8659965
30.01452,7858462
30.02265,7073420
30.03077,6591273
30.03890,6046731
30.04702,5662391
30.05513,5566011
30.06327,5253960
30.07138,4741219
30.07950,4427093
30.08763,4075837
30.09575,3708478
30.10388,3331241
30.11200,3001964
30.12012,2785560
30.12825,2564577
30.13637,2303040
30.14450,2078098
30.15262,1891852
30.16073,1690843
30.16887,1496898
30.17698,1402051
30.18510,1253447
30.19323,1136401
30.20135,1057902
30.20948,973828
30.21760,899299
30.22572,817995
30.23385,784147
30.24197,727214
30.25010,681404
30.25822,657519
30.26633,605109
30.27447,594427
30.28258,566957
30.29072,529162
30.29883,513889
30.30695,504873
30.31508,482202
30.32320,466545
30.33132,449607
30.33945,434005
30.34757,432627
30.35570,421523
30.36382,413511
30.37193,394821
30.38007,384501
30.38818,379514
30.39632,371547
30.40443,364299
30.41255,352421
30.42068,341639
30.42880,333274
30.43693,335880
30.44505,324016
30.45317,333902
30.46130,321483
30.46942,317888
30.47753,312945
30.48567,302358
30.49378,305658
30.50192,301210
30.51003,289867
30.51815,290814
30.52628,284431
30.53440,273951
30.54253,277310
30.55065,268971
30.55877,268274
30.56690,268052
30.57502,266217
30.58313,270241
30.59127,279129
30.59938,270492
30.60752,268598
30.61563,263862
30.62375,259640
30.63188,265620
30.64000,242141
30.64813,249832
30.65625,244335
30.66437,238047
30.67250,235837
30.68062,243912
30.68875,231153
30.69687,232191
30.70498,228748
30.71312,227129
30.72123,228655
30.72935,231856
30.73748,232759
30.74560,228682
30.75373,231032
30.76185,230712
30.76997,229143
30.77810,226047
30.78622,223587
30.79435,221126
30.80247,221813
30.81058,219585
30.81872,225681
30.82683,210892
30.83497,210030
30.84308,216820
30.85120,207877
30.85933,200410
30.86745,199374
30.87557,203862
30.88370,197984
30.89182,198051
30.89995,194831
30.90807,206562
30.91618,193799
30.92432,196431
30.93243,191372
30.94057,197640
30.94868,195904
30.95680,192108
30.96493,192708
30.97305,193496
30.98117,188857
30.98930,187904
30.99742,187677
31.00555,195288
31.01367,192112
31.02178,182280
31.02992,193624
31.03803,190641
31.04617,184158
31.05428,184196
31.06240,193952
31.07053,196312
31.07865,207608
31.08678,215087
31.09490,230490
31.10302,242582
31.11115,252465
31.11927,255488
31.12738,257979
31.13552,254469
31.14363,251200
31.15177,249857
31.15988,256657
31.16800,263433
31.17613,275493
31.18425,306608
31.19238,321230
31.20050,335557
31.20862,340907
31.21675,342288
31.22487,320318
31.23298,295045
31.24112,254489
31.24923,233406
31.25737,207635
31.26548,192126
31.27360,189401
31.28173,176357
31.28985,173590
31.29798,173462
31.30610,180091
31.31422,178536
31.32235,197407
31.33047,211220
31.33860,224452
31.34672,229075
31.35483,222972
31.36297,226662
31.37108,207870
31.37920,206404
31.38733,203905
31.39545,195840
31.40358,189998
31.41170,185648
31.41982,188595
31.42795,186339
31.43607,178815
31.44420,177888
31.45232,175059
31.46043,163579
31.46857,160347
31.47668,164853
31.48482,160662
31.49293,163407
31.50105,153485
31.50918,155668
31.51730,152363
31.52542,149286
31.53355,152236
31.54167,158051
31.54980,148635
31.55792,150949
31.56603,150438
31.57417,150817
31.58228,152211
31.59042,158614
31.59853,147263
31.60665,150234
31.61478,150678
31.62290,151526
31.63103,149033
31.63915,152652
31.64727,154849
31.65540,149087
31.66352,153330
31.67163,151704
31.67977,161293
31.68788,149413
31.69602,145838
31.70413,145729
31.71225,145536
31.72038,141955
31.72850,137245
31.73663,142209
31.74475,143882
31.75287,138054
31.76100,137050
31.76912,143086
31.77723,153189
31.78537,158678
31.79348,175304
31.80162,237805
31.80973,366309
31.81785,608007
31.82598,1049731
31.83410,1686617
31.84223,2564710
31.85035,3644184
31.85847,4866179
31.86660,6244640
31.87472,7397894
31.88285,8378283
31.89097,8797320
31.89908,8761054
31.90722,8590488
31.91533,8291136
31.92345,7920019
31.93158,7145055
31.93970,6720490
31.94783,6234891
31.95595,5607568
31.96407,4965592
31.97220,4353899
31.98032,3811035
31.98845,3524658
31.99657,3221277
32.00468,2956614
32.01282,2606201
32.02093,2273501
32.02905,1926636
32.03718,1674847
32.04530,1435839
32.05343,1247625
32.06155,1075968
32.06967,958794
32.07780,864430
32.08592,789290
32.09405,719210
32.10217,665973
32.11028,609317
32.11842,559467
32.12653,537312
32.13467,512081
32.14278,486014
32.15090,466387
32.15903,427974
32.16715,411283
32.17527,399215
32.18340,390533
32.19152,373613
32.19965,364554
32.20777,356581
32.21588,349036
32.22402,335232
32.23213,318386
32.24027,322215
32.24838,311154
32.25650,304820
32.26463,298201
32.27275,294029
32.28088,299092
32.28900,285315
32.29712,288974
32.30525,284845
32.31337,275304
32.32148,271683
32.32962,276648
32.33773,278661
32.34587,264517
32.35398,259027
32.36210,250947
32.37023,249764
32.37835,250055
32.38648,245196
32.39460,238976
32.40272,228016
32.41085,234005
32.41897,228619
32.42708,227898
32.43522,222042
32.44333,215854
32.45147,226126
32.45958,224275
32.46770,218065
32.47583,211020
32.48395,214120
32.49208,207822
32.50020,209338
32.50832,205655
32.51645,207536
32.52457,211873
32.53270,209274
32.54082,212087
32.54893,212667
32.55707,254048
32.56518,327685
32.57330,528950
32.58143,876752
32.58955,1356880
32.59768,1718513
32.60580,1779589
32.61392,1534640
32.62205,1181316
32.63017,852642
32.63830,584340
32.64642,427119
32.65453,328888
32.66267,273124
32.67078,248105
32.67892,227394
32.68703,217966
32.69515,213575
32.70328,208557
32.71140,207958
32.71952,203308
32.72765,202472
32.73577,196794
32.74390,197069
32.75202,190500
32.76013,191622
32.76827,186235
32.77638,191057
32.78452,176365
32.79263,180150
32.80075,175321
32.80888,176122
32.81700,179266
32.82512,177372
32.83325,172815
32.84137,176520
32.84950,176599
32.85762,183126
32.86573,174175
32.87387,172399
32.88198,169589
32.89012,172564
32.89823,172082
32.90635,180440
32.91448,173842
32.92260,166913
32.93073,165268
32.93885,171629
32.94697,167492
32.95510,174472
32.96322,169639
32.97133,162890
32.97947,162955
32.98758,167711
32.99572,160311
33.00383,167205
33.01195,156308
33.02008,155533
33.02820,163438
33.03633,167213
33.04445,154649
33.05257,162553
33.06070,164114
33.06882,163801
33.07693,171810
33.08507,184854
33.09318,194907
33.10132,213436
33.10943,222380
33.11755,237416
33.12568,237198
33.13380,233770
33.14193,225155
33.15005,206570
33.15817,198391
33.16630,191226
33.17442,175703
33.18255,172634
33.19067,171341
33.19878,166419
33.20692,164231
33.21503,162449
33.22315,170648
33.23128,159805
33.23940,165185
33.24753,164605
33.25565,159604
33.26377,161695
33.27190,159517
33.28002,164148
33.28815,162844
33.29627,156721
33.30438,158399
33.31252,153457
33.32063,153453
33.32877,154880
33.33688,155821
33.34500,153407
33.35313,151483
33.36125,147826
33.36937,152099
33.37750,144779
33.38562,149293
33.39375,146509
33.40187,146652
33.40998,151543
33.41812,155138
33.42623,148039
33.43437,153380
33.44248,151088
33.45060,151241
33.45873,148403
33.46685,147606
33.47497,144049
33.48310,150628
33.49122,144898
33.49935,144589
33.50747,142653
33.51558,142460
33.52372,149588
33.53183,143199
33.53997,139672
33.54808,140691
33.55620,143929
33.56433,136126
33.57245,139024
33.58058,142135
33.58870,140026
33.59682,136665
33.60495,137749
33.61307,141855
33.62118,140453
33.62932,140375
33.63743,145156
33.64557,138933
33.65368,150294
33.66180,134523
33.66993,137695
33.67805,138314
33.68618,132372
33.69430,137596
33.70242,138401
33.71055,143495
33.71867,136010
33.72680,134419
33.73492,140982
33.74303,149578
33.75117,159369
33.75928,173290
33.76740,182365
33.77553,185117
33.78365,184110
33.79178,176304
33.79990,170608
33.80802,174229
33.81615,166641
33.82427,170589
33.83240,157652
33.84052,167987
33.84863,171772
33.85677,172498
33.86488,169677
33.87300,164443
33.88113,157601
33.88925,159894
33.89738,155604
33.90550,158645
33.91362,153215
33.92175,154288
33.92987,150586
33.93800,138908
33.94612,142938
33.95423,143831
33.96237,152596
33.97048,147631
33.97862,145278
33.98673,146087
33.99485,144328
34.00298,145876
34.01110,141901
34.01922,143298
34.02735,139119
34.03547,147931
34.04360,142800
34.05172,144909
34.05983,141374
34.06797,137097
34.07608,136200
34.08422,132913
34.09233,131659
34.10045,142131
34.10858,131510
34.11670,141584
34.12483,131978
34.13295,139077
34.14107,131311
34.14920,136901
34.15732,134028
34.16543,136681
34.17357,134799
34.18168,135446
34.18982,131607
34.19793,131521
34.20605,137185
34.21418,129997
34.22230,130982
34.23043,122739
34.23855,131587
34.24667,133692
34.25480,129768
34.26292,130469
34.27103,130803
34.27917,135765
34.28728,128675
34.29542,130681
34.30353,139322
34.31165,134325
34.31978,129841
34.32790,132296
34.33603,134166
34.34415,134397
34.35227,122354
34.36040,132552
34.36852,127998
34.37665,133262
34.38477,133633
34.39288,130389
34.40102,144034
34.40913,175997
34.41725,280957
34.42538,521579
34.43350,968784
34.44163,1781229
34.44975,2862567
34.45787,4006303
34.46600,5177934
34.47412,6048371
34.48225,6665804
34.49037,7024047
34.49848,6727637
34.50662,6187645
34.51473,5611917
34.52285,4836139
34.53098,4019962
34.53910,3350954
34.54723,2776704
34.55535,2254340
34.56347,1825297
34.57160,1513328
34.57972,1261680
34.58785,1084353
34.59597,921707
34.60408,832402
34.61222,742471
34.62033,689101
34.62847,622059
34.63658,614692
34.64470,568470
34.65283,550899
34.66095,505007
34.66907,495782
34.67720,457686
34.68532,435822
34.69345,412289
34.70157,402467
34.70968,382529
34.71782,381747
34.72593,368123
34.73407,342961
34.74218,346190
34.75030,338074
34.75843,336816
34.76655,311863
34.77468,309743
34.78280,310472
34.79092,298206
34.79905,289903
34.80717,283571
34.81528,273217
34.82342,277056
34.83153,276330
34.83967,273301
34.84778,264717
34.85590,264219
34.86403,269022
34.87215,268167
34.88028,276446
34.88840,275358
34.89652,281984
34.90465,270197
34.91277,258134
34.92088,260119
34.92902,245887
34.93713,249764
34.94527,244418
34.95338,242297
34.96150,232904
34.96963,244730
34.97775,233623
34.98588,223143
34.99400,219637
35.00212,222874
35.01025,233020
35.01837,228279
35.02650,223770
35.03462,225928
35.04273,231030
35.05087,218698
35.05898,241067
35.06710,246099
35.07523,256804
35.08335,282031
35.09148,274507
35.09960,276000
35.10772,270306
35.11585,257999
35.12397,254614
35.13210,250759
35.14022,254482
35.14833,244939
35.15647,239219
35.16458,234800
35.17272,227735
35.18083,222177
35.18895,220942
35.19708,219918
35.20520,208804
35.21332,199455
35.22145,199484
35.22957,185436
35.23770,198568
35.24582,197997
35.25393,202943
35.26207,202104
35.27018,203119
35.27832,210548
35.28643,203014
35.29455,201174
35.30268,193967
35.31080,192808
35.31892,188897
35.32705,184297
35.33517,183678
35.34330,184041
35.35142,179871
35.35953,185908
35.36767,179523
35.37578,185075
35.38392,180151
35.39203,183444
35.40015,186192
35.40828,179118
35.41640,181677
35.42453,190528
35.43265,188886
35.44077,190052
35.44890,191057
35.45702,191541
35.46513,196910
35.47327,186998
35.48138,193210
35.48952,194164
35.49763,199436
35.50575,191185
35.51388,202522
35.52200,195409
35.53013,194580
35.53825,192019
35.54637,192428
35.55450,195440
35.56262,203584
35.57073,216310
35.57887,248807
35.58698,279810
35.59512,323343
35.60323,341498
35.61135,329698
35.61948,296042
35.62760,275445
35.63573,247325
35.64385,226033
35.65197,212144
35.66010,196148
35.66822,191410
35.67635,187157
35.68447,190947
35.69258,187157
35.70072,173625
35.70883,186129
35.71695,174787
35.72508,179187
35.73320,169974
35.74133,167079
35.74945,175546
35.75757,169859
35.76570,172931
35.77382,175481
35.78195,180014
35.79007,179612
35.79818,182430
35.80632,194421
35.81443,194803
35.82257,193276
35.83068,185188
35.83880,187816
35.84693,176633
35.85505,182232
35.86317,168567
35.87130,168720
35.87942,168851
35.88755,167735
35.89567,167183
35.90378,163047
35.91192,161513
35.92003,160669
35.92817,158909
35.93628,159753
35.94440,162712
35.95253,166944
35.96065,163156
35.96877,162152
35.97690,162300
35.98502,164134
35.99315,171004
36.00127,167593
36.00938,166575
36.01752,166345
36.02563,166760
36.03377,169688
36.04188,169225
36.05000,173462
36.05813,167331
36.06625,166803
36.07438,168000
36.08250,163442
36.09062,170237
36.09875,171294
36.10687,169805
36.11498,169185
36.12312,174769
36.13123,177574
36.13937,183404
36.14748,180073
36.15560,175172
36.16373,178636
36.17185,172872
36.17998,177865
36.18810,175293
36.19622,192605
36.20435,241340
36.21247,368282
36.22060,643182
36.22872,1058422
36.23683,1541114
36.24497,1743593
36.25308,1626793
36.26120,1340196
36.26933,965015
36.27745,627063
36.28558,429790
36.29370,321187
36.30182,268292
36.30995,238045
36.31807,234643
36.32620,219425
36.33432,211006
36.34243,211573
36.35057,210588
36.35868,216773
36.36680,211527
36.37493,210142
36.38305,214861
36.39118,215710
36.39930,201971
36.40742,206169
36.41555,185298
36.42367,186322
36.43180,174515
36.43992,179869
36.44803,165540
36.45617,172513
36.46428,171558
36.47242,166270
36.48053,169219
36.48865,168457
36.49678,168897
36.50490,164825
36.51302,172971
36.52115,169649
36.52927,165292
36.53740,159615
36.54552,160687
36.55363,173874
36.56177,183040
36.56988,194981
36.57802,190751
36.58613,191757
36.59425,192113
36.60238,180526
36.61050,174657
36.61862,163957
36.62675,161552
36.63487,164286
36.64300,158586
36.65112,162731
36.65923,155807
36.66737,162247
36.67548,155566
36.68362,157515
36.69173,158545
36.69985,151911
36.70798,157478
36.71610,155971
36.72423,156677
36.73235,148569
36.74047,153142
36.74860,154934
36.75672,154625
36.76483,154828
36.77297,159665
36.78108,162245
36.78922,154986
36.79733,146384
36.80545,151990
36.81358,154530
36.82170,158508
36.82983,155862
36.83795,151466
36.84607,153948
36.85420,155849
36.86232,156825
36.87045,151530
36.87857,156532
36.88668,154386
36.89482,151629
36.90293,155083
36.91105,152710
36.91918,147671
36.92730,146085
36.93543,150991
36.94355,149796
36.95167,146648
36.95980,150118
36.96792,156256
36.97605,153822
36.98417,150852
36.99228,154026
37.00042,162875
37.00853,163343
37.01667,162112
37.02478,155633
37.03290,164300
37.04103,159165
37.04915,155332
37.05727,157650
37.06540,165723
37.07352,166767
37.08165,170485
37.08977,168692
37.09788,170873
37.10602,168096
37.11413,171852
37.12227,158999
37.13038,163263
37.13850,155452
37.14663,160246
37.15475,152259
37.16287,157640
37.17100,153379
37.17912,148792
37.18725,157607
37.19537,169448
37.20348,199964
37.21162,316823
37.21973,677278
37.22787,1352925
37.23598,2266331
37.24410,3197011
37.25223,3941884
37.26035,4206704
37.26848,4278229
37.27660,4202687
37.28472,3972634
37.29285,3560213
37.30097,3118524
37.30908,2691808
37.31722,2258691
37.32533,1891820
37.33347,1571627
37.34158,1313561
37.34970,1121670
37.35783,952239
37.36595,848557
37.37408,765463
37.38220,710241
37.39032,668771
37.39845,620693
37.40657,572124
37.41468,547831
37.42282,501179
37.43093,479611
37.43907,463491
37.44718,434129
37.45530,417758
37.46343,414784
37.47155,400134
37.47968,387611
37.48780,374823
