C:\MassHunter\GCMS\1\data\JTB-E02\BACandBLUE\JTB-E18-018-11.D Thu Jul 04 13:32:22 2019
Start of data points
2.09527	76898
2.10340	75177
2.11152	76681
2.11965	80852
2.12777	75509
2.13588	78507
2.14402	78085
2.15213	80763
2.16027	78347
2.16838	78188
2.17650	75672
2.18463	74629
2.19275	75900
2.20088	78797
2.20900	71120
2.21712	74973
2.22525	72778
2.23337	73130
2.24148	70754
2.24962	69957
2.25773	69938
2.26587	74922
2.27398	174482
2.28210	873032
2.29023	1257367
2.29835	642111
2.30648	340311
2.31460	270670
2.32272	232473
2.33085	201729
2.33897	193149
2.34708	182414
2.35522	158564
2.36333	150672
2.37147	147515
2.37958	137560
2.38770	137051
2.39583	135895
2.40395	122410
2.41208	126050
2.42020	127275
2.42832	127272
2.43645	126236
2.44457	120345
2.45270	126333
2.46082	122706
2.46893	123106
2.47707	115188
2.48518	115491
2.49330	137971
2.50143	175079
2.50955	151143
2.51768	134080
2.52580	128097
2.53392	122438
2.54205	117555
2.55017	125241
2.55830	132945
2.56642	187326
2.57453	202428
2.58267	161236
2.59078	147024
2.59890	137075
2.60703	190382
2.61515	635694
2.62328	1063176
2.63140	685373
2.63952	407470
2.64765	296465
2.65577	246165
2.66390	211714
2.67202	179807
2.68013	174854
2.68827	158282
2.69638	147633
2.70452	150541
2.71263	139056
2.72075	136054
2.72888	136232
2.73700	128367
2.74512	120253
2.75325	125058
2.76137	123568
2.76950	121200
2.77762	123758
2.78573	162140
2.79387	252182
2.80198	237534
2.81012	184238
2.81823	172786
2.82635	185389
2.83448	187222
2.84260	173858
2.85073	169247
2.85885	143519
2.86697	135971
2.87510	130138
2.88322	131049
2.89133	121076
2.89947	121876
2.90758	120842
2.91572	115610
2.92383	118662
2.93195	112188
2.94008	112520
2.94820	109369
2.95633	109300
2.96445	114200
2.97257	125777
2.98070	130912
2.98882	121228
2.99695	120344
3.00507	117500
3.01318	124873
3.02132	115945
3.02943	114896
3.03755	108905
3.04568	111114
3.05380	110042
3.06193	113305
3.07005	115242
3.07817	134125
3.08630	359617
3.09442	1554547
3.10255	3342173
3.11067	4680158
3.11878	5607203
3.12692	4255780
3.13503	2588515
3.14315	1819996
3.15128	1401051
3.15940	1151313
3.16753	953714
3.17565	863756
3.18377	841881
3.19190	1043815
3.20002	1707576
3.20815	1773549
3.21627	1313293
3.22438	972445
3.23252	808494
3.24063	711972
3.24877	611202
3.25688	543055
3.26500	499496
3.27313	449078
3.28125	422770
3.28937	517667
3.29750	1245047
3.30562	3617501
3.31375	6703681
3.32187	7464240
3.32998	5617154
3.33812	3662241
3.34623	2578939
3.35437	1962875
3.36248	1601135
3.37060	1322666
3.37873	1170107
3.38685	1015117
3.39497	911146
3.40310	824688
3.41122	742146
3.41935	719171
3.42747	655032
3.43558	634662
3.44372	597567
3.45183	573950
3.45997	549200
3.46808	537226
3.47620	551378
3.48433	553284
3.49245	525624
3.50058	479862
3.50870	463003
3.51682	444671
3.52495	427958
3.53307	429003
3.54118	435553
3.54932	453410
3.55743	412840
3.56557	401771
3.57368	420118
3.58180	460271
3.58993	456811
3.59805	423794
3.60618	391088
3.61430	386372
3.62242	376805
3.63055	396245
3.63867	407800
3.64680	405650
3.65492	391556
3.66303	442075
3.67117	1114531
3.67928	3633805
3.68740	6457067
3.69553	5952578
3.70365	3713394
3.71178	2295728
3.71990	1734301
3.72802	1458776
3.73615	1260019
3.74427	1125534
3.75240	1005256
3.76052	923873
3.76863	859212
3.77677	796252
3.78488	759961
3.79300	711538
3.80113	726997
3.80925	952718
3.81738	1601385
3.82550	2113064
3.83362	1863566
3.84175	1349725
3.84987	1047714
3.85800	892251
3.86612	812033
3.87423	728116
3.88237	697275
3.89048	634226
3.89862	620529
3.90673	597600
3.91485	568875
3.92298	641327
3.93110	792907
3.93922	888729
3.94735	926794
3.95547	1641211
3.96360	4192902
3.97172	7452078
3.97983	7970653
3.98797	5590072
3.99608	3881144
4.00422	6688557
4.01233	1.736418E+07
4.02045	2.966531E+07
4.02858	3.171531E+07
4.03670	2.256576E+07
4.04483	1.221577E+07
4.05295	6992655
4.06107	4774500
4.06920	3614967
4.07732	2889972
4.08543	2399579
4.09357	2066618
4.10168	1777411
4.10982	1593549
4.11793	1438508
4.12605	1316310
4.13418	1221055
4.14230	1181692
4.15043	1219460
4.15855	1283626
4.16667	1211906
4.17480	1098248
4.18292	1017357
4.19103	947750
4.19917	873239
4.20728	912063
4.21542	1675149
4.22353	4918535
4.23165	1.102847E+07
4.23978	1.610021E+07
4.24790	1.664985E+07
4.25603	1.247977E+07
4.26415	7722728
4.27227	5247369
4.28040	3910223
4.28852	3089576
4.29665	2533673
4.30477	2142408
4.31288	1845635
4.32102	1642131
4.32913	1458924
4.33725	1342873
4.34538	1282638
4.35350	1219055
4.36163	1199175
4.36975	1163391
4.37787	1116104
4.38600	1051415
4.39412	973194
4.40225	892694
4.41037	856501
4.41848	822006
4.42662	772059
4.43473	753766
4.44285	722608
4.45098	709719
4.45910	692214
4.46723	669093
4.47535	651231
4.48347	635013
4.49160	626565
4.49972	610006
4.50785	584260
4.51597	573526
4.52408	563842
4.53222	547522
4.54033	539311
4.54847	524761
4.55658	517769
4.56470	514841
4.57283	491337
4.58095	484603
4.58907	475681
4.59720	476826
4.60532	454026
4.61345	459437
4.62157	462277
4.62968	537452
4.63782	721069
4.64593	974220
4.65407	1021801
4.66218	878919
4.67030	669630
4.67843	564364
4.68655	519284
4.69468	500435
4.70280	467143
4.71092	439205
4.71905	421851
4.72717	419619
4.73528	409100
4.74342	399994
4.75153	388703
4.75967	377126
4.76778	368819
4.77590	361393
4.78403	361309
4.79215	402352
4.80028	547355
4.80840	769519
4.81652	902652
4.82465	795942
4.83277	642505
4.84088	575487
4.84902	555975
4.85713	537387
4.86527	496940
4.87338	459981
4.88150	431351
4.88963	409480
4.89775	398866
4.90588	384824
4.91400	374559
4.92212	364809
4.93025	412213
4.93837	653537
4.94650	1398229
4.95462	2726735
4.96273	4188002
4.97087	4699799
4.97898	4037007
4.98710	2927549
4.99523	2061706
5.00335	1483809
5.01148	1161179
5.01960	998994
5.02772	989139
5.03585	1150614
5.04397	1503921
5.05210	1599109
5.06022	1417028
5.06833	1134496
5.07647	938287
5.08458	835741
5.09272	764660
5.10083	705127
5.10895	663839
5.11708	626404
5.12520	593578
5.13332	562660
5.14145	559260
5.14957	531129
5.15770	547663
5.16582	579028
5.17393	617754
5.18207	603263
5.19018	574037
5.19832	543325
5.20643	562700
5.21455	584441
5.22268	579593
5.23080	538801
5.23892	518152
5.24705	484246
5.25517	463111
5.26330	431261
5.27142	416007
5.27953	394066
5.28767	381031
5.29578	368603
5.30392	361513
5.31203	359356
5.32015	353163
5.32828	362112
5.33640	400053
5.34453	432405
5.35265	428360
5.36077	405310
5.36890	379825
5.37702	365497
5.38513	351354
5.39327	370095
5.40138	375050
5.40952	377540
5.41763	363844
5.42575	351352
5.43388	328059
5.44200	333161
5.45013	338895
5.45825	346517
5.46637	333823
5.47450	326952
5.48262	306853
5.49075	301167
5.49887	295845
5.50698	293320
5.51512	298049
5.52323	310075
5.53135	312755
5.53948	313235
5.54760	296856
5.55573	294908
5.56385	307860
5.57197	339488
5.58010	359642
5.58822	364028
5.59635	333004
5.60447	307234
5.61258	289573
5.62072	274493
5.62883	280971
5.63695	297308
5.64508	301401
5.65320	297789
5.66133	297052
5.66945	283736
5.67757	298097
5.68570	318692
5.69382	355248
5.70195	379793
5.71007	355521
5.71818	321624
5.72632	298934
5.73443	279936
5.74257	277811
5.75068	260783
5.75880	257288
5.76693	252381
5.77505	249349
5.78317	250716
5.79130	243260
5.79942	237486
5.80755	235542
5.81567	240805
5.82378	239478
5.83192	232777
5.84003	249722
5.84817	243520
5.85628	247036
5.86440	235019
5.87253	237662
5.88065	234501
5.88877	221884
5.89690	224931
5.90502	215614
5.91315	187363
5.92127	172285
5.92938	171891
5.93752	165983
5.94563	181901
5.95377	195787
5.96188	219128
5.97000	257955
5.97813	278672
5.98625	321042
5.99438	345479
6.00250	331483
6.01062	301364
6.01875	269819
6.02687	237449
6.03498	226244
6.04312	207799
6.05123	197638
6.05937	188377
6.06748	171933
6.07560	169750
6.08373	166760
6.09185	164083
6.09998	162406
6.10810	167967
6.11622	172583
6.12435	202179
6.13247	267126
6.14060	410095
6.14872	549928
6.15683	599273
6.16497	515720
6.17308	391436
6.18120	307418
6.18933	265499
6.19745	242533
6.20558	230471
6.21370	225700
6.22182	223799
6.22995	226731
6.23807	209299
6.24620	217262
6.25432	213748
6.26243	217816
6.27057	217653
6.27868	213721
6.28680	207600
6.29493	200795
6.30305	208100
6.31118	209224
6.31930	218141
6.32742	232758
6.33555	252175
6.34367	277475
6.35180	276985
6.35992	254506
6.36803	226818
6.37617	222878
6.38428	216393
6.39242	216104
6.40053	210447
6.40865	206611
6.41678	205777
6.42490	204239
6.43302	207274
6.44115	203834
6.44927	206559
6.45740	199371
6.46552	194001
6.47363	201038
6.48177	205259
6.48988	205520
6.49802	206762
6.50613	215638
6.51425	206042
6.52238	211980
6.53050	217042
6.53863	209898
6.54675	206603
6.55487	215847
6.56300	206301
6.57112	229438
6.57923	244878
6.58737	260392
6.59548	267995
6.60362	257136
6.61173	234969
6.61985	227914
6.62798	221466
6.63610	226337
6.64423	222031
6.65235	244750
6.66047	325466
6.66860	450733
6.67672	557455
6.68483	564407
6.69297	466406
6.70108	369830
6.70922	313641
6.71733	281122
6.72545	266086
6.73358	246963
6.74170	254333
6.74983	250484
6.75795	251874
6.76607	237575
6.77420	212226
6.78232	194364
6.79045	186404
6.79857	178356
6.80668	177606
6.81482	171761
6.82293	164759
6.83105	160649
6.83918	170134
6.84730	184039
6.85543	210242
6.86355	231075
6.87167	238887
6.87980	204535
6.88792	179120
6.89605	142835
6.90417	123130
6.91228	115690
6.92042	108725
6.92853	110195
6.93665	105302
6.94478	111401
6.95290	107353
6.96103	109127
6.96915	115978
6.97727	139450
6.98540	149603
6.99352	145016
7.00165	132439
7.00977	115010
7.01788	108010
7.02602	105895
7.03413	95885
7.04227	98170
7.05038	104447
7.05850	102839
7.06663	105153
7.07475	99333
7.08287	98955
7.09100	99566
7.09912	101236
7.10725	90731
7.11537	91828
7.12348	90203
7.13162	84982
7.13973	102744
7.14787	136696
7.15598	195790
7.16410	260900
7.17223	291891
7.18035	271075
7.18848	212100
7.19660	171097
7.20472	140186
7.21285	150284
7.22097	242397
7.22908	553392
7.23722	1075465
7.24533	1526694
7.25347	1561977
7.26158	1219556
7.26970	746634
7.27783	487012
7.28595	372566
7.29408	284088
7.30220	220785
7.31032	175197
7.31845	145403
7.32657	135128
7.33468	131435
7.34282	128714
7.35093	120421
7.35907	109825
7.36718	111081
7.37530	113099
7.38343	111878
7.39155	112996
7.39968	113186
7.40780	112225
7.41592	105569
7.42405	103483
7.43217	104140
7.44030	101661
7.44842	103387
7.45653	99742
7.46467	102864
7.47278	93009
7.48090	97140
7.48903	93365
7.49715	89467
7.50528	94359
7.51340	94865
7.52152	117264
7.52965	173017
7.53777	251103
7.54590	335604
7.55402	420666
7.56213	444669
7.57027	412404
7.57838	335438
7.58652	246605
7.59463	182000
7.60275	149761
7.61088	126417
7.61900	120165
7.62712	106045
7.63525	103501
7.64337	95581
7.65150	96314
7.65962	87270
7.66773	83232
7.67587	82402
7.68398	83927
7.69212	81317
7.70023	82814
7.70835	82751
7.71648	85849
7.72460	84182
7.73272	86156
7.74085	81827
7.74897	86454
7.75710	82450
7.76522	86639
7.77333	90079
7.78147	86709
7.78958	97076
7.79772	105097
7.80583	105963
7.81395	110730
7.82208	107675
7.83020	99012
7.83833	94215
7.84645	82218
7.85457	86657
7.86270	83871
7.87082	88951
7.87893	97808
7.88707	103017
7.89518	96219
7.90332	90520
7.91143	86878
7.91955	89037
7.92768	97585
7.93580	110047
7.94393	135057
7.95205	150426
7.96017	144794
7.96830	125244
7.97642	116232
7.98453	95756
7.99267	88443
8.00078	79756
8.00892	82995
8.01703	79290
8.02515	70601
8.03328	77713
8.04140	78875
8.04953	73167
8.05765	76742
8.06577	75421
8.07390	72012
8.08202	70815
8.09015	72274
8.09827	70616
8.10638	68612
8.11452	70152
8.12263	77897
8.13075	81021
8.13888	95120
8.14700	109267
8.15513	118456
8.16325	125573
8.17137	107296
8.17950	97187
8.18762	78759
8.19575	78185
8.20387	78273
8.21198	69905
8.22012	71048
8.22823	79422
8.23637	74128
8.24448	68913
8.25260	72440
8.26073	70162
8.26885	64169
8.27697	62674
8.28510	64767
8.29322	68727
8.30135	73175
8.30947	75237
8.31758	74124
8.32572	76665
8.33383	75658
8.34197	73574
8.35008	70689
8.35820	72847
8.36633	74322
8.37445	71845
8.38258	77768
8.39070	80076
8.39882	80548
8.40695	71337
8.41507	69298
8.42318	63651
8.43132	62644
8.43943	61652
8.44757	65550
8.45568	61186
8.46380	65864
8.47193	68570
8.48005	66113
8.48818	68644
8.49630	72766
8.50442	67129
8.51255	66980
8.52067	68812
8.52878	96716
8.53692	149692
8.54503	276498
8.55317	392148
8.56128	429277
8.56940	373360
8.57753	271134
8.58565	188783
8.59378	148314
8.60190	138140
8.61002	141960
8.61815	138138
8.62627	121934
8.63440	109515
8.64252	99810
8.65063	88023
8.65877	81586
8.66688	77403
8.67500	79669
8.68313	74283
8.69125	80337
8.69938	84097
8.70750	83977
8.71562	83261
8.72375	81717
8.73187	79411
8.74000	92076
8.74812	159872
8.75623	325994
8.76437	667850
8.77248	1136175
8.78060	1463047
8.78873	1502892
8.79685	1219593
8.80498	814112
8.81310	515346
8.82122	336706
8.82935	242962
8.83747	196860
8.84560	204391
8.85372	205786
8.86183	203419
8.86997	195087
8.87808	184340
8.88622	170860
8.89433	165943
8.90245	158767
8.91058	152807
8.91870	149236
8.92682	146954
8.93495	148794
8.94307	158847
8.95120	172886
8.95932	172617
8.96743	165987
8.97557	163856
8.98368	159346
8.99182	155315
8.99993	142227
9.00805	143390
9.01618	136133
9.02430	128585
9.03243	119339
9.04055	118885
9.04867	114918
9.05680	110235
9.06492	107106
9.07303	107959
9.08117	108224
9.08928	114243
9.09742	121871
9.10553	131726
9.11365	148458
9.12178	158277
9.12990	154043
9.13803	144282
9.14615	128770
9.15427	119120
9.16240	114213
9.17052	107987
9.17863	97936
9.18677	101728
9.19488	101339
9.20302	95522
9.21113	92024
9.21925	91960
9.22738	95209
9.23550	85395
9.24363	96875
9.25175	91982
9.25987	89516
9.26800	87785
9.27612	93657
9.28425	93387
9.29237	92482
9.30048	88697
9.30862	90639
9.31673	88349
9.32485	86917
9.33298	88675
9.34110	86979
9.34923	85104
9.35735	84223
9.36547	80883
9.37360	84055
9.38172	83058
9.38985	84157
9.39797	91983
9.40608	96181
9.41422	104348
9.42233	114558
9.43047	141148
9.43858	152086
9.44670	149598
9.45483	135458
9.46295	121512
9.47107	111077
9.47920	99325
9.48732	86963
9.49545	93818
9.50357	95778
9.51168	106685
9.51982	121395
9.52793	128719
9.53607	126524
9.54418	113705
9.55230	103823
9.56043	83872
9.56855	73378
9.57667	78477
9.58480	72357
9.59292	89164
9.60105	74386
9.60917	71178
9.61728	68841
9.62542	62182
9.63353	55265
9.64167	55074
9.64978	55051
9.65790	56003
9.66603	56048
9.67415	58340
9.68228	59737
9.69040	55065
9.69852	53448
9.70665	52995
9.71477	51661
9.72288	52283
9.73102	51678
9.73913	50958
9.74727	53422
9.75538	55729
9.76350	48445
9.77163	49986
9.77975	50554
9.78788	54233
9.79600	47521
9.80412	49088
9.81225	58232
9.82037	50526
9.82848	49102
9.83662	50163
9.84473	52885
9.85287	50115
9.86098	56421
9.86910	54641
9.87723	58333
9.88535	54165
9.89348	51013
9.90160	54217
9.90972	54374
9.91785	61211
9.92597	67664
9.93410	90340
9.94222	124270
9.95033	166272
9.95847	213628
9.96658	230176
9.97470	220583
9.98283	185285
9.99095	157544
9.99908	127530
10.00720	99322
10.01532	90659
10.02345	78909
10.03157	75131
10.03970	68619
10.04782	67863
10.05593	60093
10.06407	63447
10.07218	63498
10.08032	63872
10.08843	66577
10.09655	65257
10.10468	68646
10.11280	66785
10.12092	68596
10.12905	72500
10.13717	68510
10.14530	67904
10.15342	65770
10.16153	66696
10.16967	61333
10.17778	59258
10.18592	60777
10.19403	56803
10.20215	58163
10.21028	55476
10.21840	65019
10.22652	61563
10.23465	66320
10.24277	71213
10.25090	77146
10.25902	94385
10.26713	163031
10.27527	353354
10.28338	750993
10.29152	1379845
10.29963	2157935
10.30775	3020737
10.31588	4188932
10.32400	6222279
10.33213	8402405
10.34025	9740307
10.34837	9342854
10.35650	7309129
10.36462	5147516
10.37273	3655465
10.38087	2675061
10.38898	1953574
10.39712	1410694
10.40523	975787
10.41335	714353
10.42148	553720
10.42960	478884
10.43773	426443
10.44585	407302
10.45397	375898
10.46210	358125
10.47022	336272
10.47835	321850
10.48647	291950
10.49458	270978
10.50272	260462
10.51083	251398
10.51895	240640
10.52708	231442
10.53520	217408
10.54333	208946
10.55145	205242
10.55957	201495
10.56770	203241
10.57582	193476
10.58395	189202
10.59207	183335
10.60018	171451
10.60832	161218
10.61643	158093
10.62455	158733
10.63268	147932
10.64080	146693
10.64893	138221
10.65705	146748
10.66517	135702
10.67330	134308
10.68142	134503
10.68955	138367
10.69767	131396
10.70578	128622
10.71392	129292
10.72203	125757
10.73017	124879
10.73828	123616
10.74640	126119
10.75453	123765
10.76265	121921
10.77077	113604
10.77890	111259
10.78702	107725
10.79515	106130
10.80327	103391
10.81138	107072
10.81952	109029
10.82763	100389
10.83577	99864
10.84388	95979
10.85200	93205
10.86013	86921
10.86825	84728
10.87638	90053
10.88450	84643
10.89262	85227
10.90075	88693
10.90887	93005
10.91698	86126
10.92512	85015
10.93323	84876
10.94137	81838
10.94948	77708
10.95760	81143
10.96573	82196
10.97385	85486
10.98198	90281
10.99010	87718
10.99822	87398
11.00635	82677
11.01447	82826
11.02258	77805
11.03072	77114
11.03883	79588
11.04697	73187
11.05508	72211
11.06320	73089
11.07133	76110
11.07945	82319
11.08758	84170
11.09570	83180
11.10382	84858
11.11195	81488
11.12007	73345
11.12820	70864
11.13632	63842
11.14443	67540
11.15257	72828
11.16068	70858
11.16880	67161
11.17693	76684
11.18505	71437
11.19318	75256
11.20130	72682
11.20942	69065
11.21755	66235
11.22567	67566
11.23380	68717
11.24192	67577
11.25003	62698
11.25817	63672
11.26628	56248
11.27440	59119
11.28253	67183
11.29065	66137
11.29878	74917
11.30690	111552
11.31502	177316
11.32315	283073
11.33127	444157
11.33940	587412
11.34752	657525
11.35563	608981
11.36377	504007
11.37188	350946
11.38002	245968
11.38813	175351
11.39625	139363
11.40438	128523
11.41250	124464
11.42062	129499
11.42875	130728
11.43687	126643
11.44500	119312
11.45312	107831
11.46123	108821
11.46937	96112
11.47748	104012
11.48562	112418
11.49373	128116
11.50185	146201
11.50998	145420
11.51810	141329
11.52623	133253
11.53435	121798
11.54247	119087
11.55060	107646
11.55872	100298
11.56683	102241
11.57497	95963
11.58308	95016
11.59122	99720
11.59933	112343
11.60745	135835
11.61558	160160
11.62370	175833
11.63183	166324
11.63995	145148
11.64807	120525
11.65620	103925
11.66432	92386
11.67243	92812
11.68057	84042
11.68868	90700
11.69682	94641
11.70493	97299
11.71305	103951
11.72118	99143
11.72930	90645
11.73743	84783
11.74555	79718
11.75367	76185
11.76180	68676
11.76992	66401
11.77805	72982
11.78617	66697
11.79428	74865
11.80242	70760
11.81053	76522
11.81865	70024
11.82678	71687
11.83490	74648
11.84303	74219
11.85115	71110
11.85927	69959
11.86740	68467
11.87552	65618
11.88365	61681
11.89177	61514
11.89988	62317
11.90802	64880
11.91613	66991
11.92427	67898
11.93238	75395
11.94050	73637
11.94863	74410
11.95675	72509
11.96487	71214
11.97300	80916
11.98112	140105
11.98925	266754
11.99737	480038
12.00548	778497
12.01362	985793
12.02173	1018263
12.02987	840724
12.03798	601039
12.04610	400355
12.05423	274091
12.06235	215626
12.07047	171153
12.07860	153488
12.08672	145918
12.09485	144042
12.10297	139929
12.11108	131655
12.11922	127319
12.12733	130454
12.13547	128663
12.14358	124024
12.15170	117254
12.15983	112106
12.16795	106278
12.17608	102022
12.18420	95635
12.19232	93433
12.20045	97131
12.20857	96872
12.21668	96427
12.22482	90583
12.23293	93897
12.24107	91022
12.24918	90204
12.25730	96453
12.26543	85915
12.27355	82584
12.28168	83219
12.28980	84314
12.29792	80369
12.30605	75388
12.31417	75451
12.32228	74138
12.33042	73089
12.33853	76094
12.34667	73376
12.35478	71306
12.36290	70744
12.37103	71305
12.37915	74468
12.38728	71028
12.39540	76284
12.40352	81111
12.41165	97970
12.41977	102171
12.42790	115014
12.43602	111481
12.44413	113395
12.45227	104765
12.46038	96961
12.46850	89742
12.47663	82594
12.48475	78711
12.49288	75476
12.50100	77733
12.50912	74195
12.51725	72435
12.52537	81963
12.53350	102172
12.54162	152777
12.54973	249918
12.55787	401323
12.56598	565451
12.57412	624698
12.58223	555356
12.59035	407411
12.59848	274844
12.60660	192407
12.61472	138075
12.62285	121289
12.63097	117579
12.63910	110273
12.64722	104746
12.65533	97782
12.66347	88953
12.67158	82675
12.67972	83781
12.68783	78753
12.69595	76484
12.70408	73222
12.71220	79292
12.72033	78453
12.72845	85511
12.73657	92470
12.74470	92318
12.75282	87377
12.76093	86256
12.76907	75970
12.77718	75871
12.78532	70067
12.79343	73211
12.80155	65710
12.80968	63285
12.81780	59195
12.82593	60475
12.83405	60362
12.84217	60662
12.85030	61926
12.85842	60143
12.86653	57244
12.87467	61807
12.88278	60532
12.89092	63658
12.89903	60374
12.90715	58109
12.91528	57350
12.92340	59107
12.93153	54909
12.93965	61700
12.94777	63799
12.95590	83074
12.96402	136122
12.97215	217013
12.98027	306097
12.98838	371744
12.99652	348608
13.00463	287128
13.01275	199255
13.02088	140971
13.02900	113241
13.03713	106182
13.04525	105578
13.05337	104785
13.06150	123609
13.06962	129386
13.07775	130627
13.08587	126198
13.09398	113031
13.10212	95182
13.11023	85634
13.11835	80710
13.12648	75670
13.13460	79264
13.14273	78506
13.15085	70966
13.15897	76390
13.16710	71030
13.17522	70103
13.18335	74608
13.19147	71768
13.19958	74942
13.20772	70294
13.21583	76125
13.22397	73586
13.23208	74619
13.24020	73749
13.24833	67971
13.25645	68112
13.26457	63186
13.27270	64783
13.28082	63637
13.28895	60254
13.29707	55541
13.30518	58422
13.31332	56459
13.32143	54733
13.32957	54529
13.33768	52618
13.34580	52497
13.35393	52873
13.36205	53831
13.37018	55376
13.37830	60032
13.38642	58061
13.39455	54757
13.40267	55264
13.41078	49936
13.41892	46178
13.42703	47709
13.43517	46796
13.44328	48787
13.45140	49147
13.45953	50434
13.46765	53023
13.47578	58160
13.48390	54415
13.49202	52989
13.50015	55967
13.50827	59754
13.51638	61672
13.52452	56226
13.53263	57958
13.54077	57888
13.54888	57530
13.55700	58555
13.56513	58169
13.57325	60740
13.58138	54643
13.58950	63395
13.59762	78952
13.60575	103963
13.61387	123310
13.62200	165300
13.63012	177430
13.63823	162883
13.64637	135486
13.65448	104487
13.66260	82965
13.67073	71791
13.67885	68315
13.68698	67197
13.69510	64782
13.70322	60778
13.71135	59007
13.71947	60881
13.72760	75287
13.73572	132340
13.74383	314654
13.75197	803446
13.76008	1843517
13.76822	3173923
13.77633	4321134
13.78445	4848878
13.79258	4605129
13.80070	3396740
13.80882	2279981
13.81695	1482944
13.82507	1077540
13.83320	913936
13.84132	814195
13.84943	729395
13.85757	639090
13.86568	557037
13.87382	485226
13.88193	423098
13.89005	388772
13.89818	348405
13.90630	328899
13.91442	316357
13.92255	294824
13.93067	278395
13.93880	261812
13.94692	268563
13.95503	273305
13.96317	304765
13.97128	335886
13.97942	392754
13.98753	419005
13.99565	396084
14.00378	348402
14.01190	311880
14.02003	262027
14.02815	233536
14.03627	218729
14.04440	217744
14.05252	204304
14.06063	204684
14.06877	196845
14.07688	189081
14.08502	188687
14.09313	186989
14.10125	180595
14.10938	174009
14.11750	173908
14.12563	181797
14.13375	199878
14.14187	221861
14.15000	249734
14.15812	277520
14.16623	283196
14.17437	327761
14.18248	390316
14.19062	496413
14.19873	576752
14.20685	582697
14.21498	525014
14.22310	426846
14.23123	331121
14.23935	293457
14.24747	257029
14.25560	232835
14.26372	204211
14.27185	183182
14.27997	171618
14.28808	147955
14.29622	138231
14.30433	140073
14.31245	125937
14.32058	127858
14.32870	122959
14.33683	122456
14.34495	108841
14.35307	101542
14.36120	98771
14.36932	98182
14.37745	82532
14.38557	98090
14.39368	116022
14.40182	177265
14.40993	276443
14.41807	407355
14.42618	502786
14.43430	491867
14.44243	389358
14.45055	299776
14.45867	201618
14.46680	156435
14.47492	128537
14.48305	117771
14.49117	112655
14.49928	111469
14.50742	111080
14.51553	112685
14.52367	122748
14.53178	122164
14.53990	122592
14.54803	105241
14.55615	101059
14.56427	92344
14.57240	84563
14.58052	75562
14.58865	77373
14.59677	74757
14.60488	73638
14.61302	71915
14.62113	76995
14.62927	75775
14.63738	72627
14.64550	66351
14.65363	65616
14.66175	66431
14.66988	69954
14.67800	67494
14.68612	62661
14.69425	60098
14.70237	66991
14.71048	66824
14.71862	69837
14.72673	67716
14.73487	78706
14.74298	75677
14.75110	74112
14.75923	79657
14.76735	79745
14.77548	78467
14.78360	92033
14.79172	128595
14.79985	262850
14.80797	590976
14.81610	1253221
14.82422	2108827
14.83233	2757226
14.84047	2905266
14.84858	2571654
14.85670	1905145
14.86483	1216434
14.87295	750671
14.88108	493376
14.88920	366343
14.89732	289118
14.90545	246291
14.91357	214610
14.92170	189657
14.92982	188168
14.93793	169553
14.94607	160682
14.95418	155893
14.96230	154012
14.97043	159159
14.97855	156990
14.98668	155558
14.99480	148502
15.00292	136187
15.01105	135667
15.01917	115866
15.02730	111009
15.03542	107438
15.04353	101790
15.05167	103202
15.05978	99427
15.06792	95629
15.07603	99179
15.08415	91821
15.09228	87036
15.10040	88384
15.10852	87886
15.11665	86034
15.12477	88019
15.13290	93252
15.14102	103289
15.14913	104025
15.15727	103535
15.16538	92676
15.17352	85808
15.18163	78058
15.18975	77220
15.19788	72744
15.20600	77769
15.21412	70701
15.22225	68330
15.23037	59672
15.23850	60369
15.24662	58873
15.25473	63985
15.26287	63007
15.27098	67732
15.27912	56592
15.28723	57957
15.29535	56012
15.30348	54194
15.31160	53660
15.31973	54272
15.32785	55043
15.33597	50701
15.34410	52785
15.35222	60178
15.36033	50542
15.36847	54798
15.37658	54936
15.38472	59557
15.39283	61553
15.40095	66298
15.40908	69242
15.41720	77289
15.42533	83435
15.43345	76256
15.44157	74060
15.44970	65966
15.45782	62112
15.46595	73601
15.47407	78283
15.48218	94577
15.49032	116765
15.49843	138500
15.50655	150822
15.51468	152046
15.52280	149264
15.53093	135028
15.53905	134510
15.54717	130413
15.55530	126977
15.56342	110272
15.57155	97074
15.57967	83576
15.58778	73797
15.59592	69283
15.60403	61284
15.61215	57998
15.62028	57771
15.62840	59623
15.63653	56154
15.64465	54688
15.65277	54686
15.66090	55593
15.66902	55173
15.67715	53976
15.68527	53213
15.69338	52597
15.70152	52309
15.70963	50395
15.71777	49875
15.72588	53667
15.73400	54773
15.74213	61911
15.75025	65569
15.75837	86993
15.76650	122439
15.77462	181965
15.78275	262941
15.79087	329513
15.79898	335738
15.80712	293354
15.81523	222087
15.82337	162343
15.83148	122915
15.83960	93766
15.84773	90134
15.85585	79822
15.86398	75025
15.87210	71835
15.88022	73324
15.88835	63556
15.89647	71773
15.90458	66277
15.91272	64730
15.92083	68876
15.92897	66742
15.93708	69244
15.94520	84844
15.95333	116370
15.96145	160063
15.96958	220525
15.97770	275061
15.98582	286999
15.99395	269783
16.00207	229133
16.01018	178630
16.01832	147696
16.02643	126693
16.03457	112362
16.04268	106129
16.05080	99939
16.05893	89658
16.06705	84004
16.07518	71511
16.08330	76583
16.09142	71773
16.09955	71268
16.10767	73864
16.11580	71271
16.12392	66647
16.13203	74272
16.14017	73242
16.14828	72724
16.15640	80064
16.16453	75350
16.17265	72633
16.18078	65124
16.18890	63934
16.19702	63637
16.20515	64709
16.21327	61777
16.22140	68536
16.22952	70531
16.23763	68682
16.24577	61832
16.25388	67976
16.26202	65010
16.27013	56401
16.27825	64149
16.28638	65766
16.29450	66591
16.30262	67744
16.31075	62099
16.31887	63058
16.32700	63589
16.33512	62682
16.34323	71763
16.35137	100570
16.35948	137271
16.36762	195576
16.37573	244656
16.38385	270693
16.39198	261601
16.40010	222408
16.40822	172598
16.41635	128203
16.42447	104733
16.43260	89788
16.44072	89153
16.44883	100227
16.45697	138123
16.46508	220029
16.47322	314158
16.48133	422250
16.48945	474553
16.49758	420647
16.50570	322892
16.51383	233248
16.52195	165165
16.53007	125534
16.53820	102823
16.54632	91089
16.55443	88219
16.56257	83851
16.57068	79941
16.57882	83678
16.58693	87682
16.59505	96706
16.60318	120337
16.61130	130231
16.61943	141125
16.62755	142057
16.63567	130466
16.64380	115987
16.65192	98655
16.66003	88462
16.66817	78180
16.67628	72654
16.68442	72569
16.69253	66456
16.70065	69306
16.70878	61039
16.71690	63872
16.72503	60572
16.73315	60843
16.74127	59084
16.74940	58277
16.75752	58449
16.76565	64854
16.77377	64073
16.78188	59326
16.79002	60123
16.79813	52913
16.80625	52548
16.81438	53424
16.82250	53089
16.83063	50322
16.83875	50715
16.84687	53738
16.85500	48941
16.86312	50548
16.87125	50963
16.87937	50019
16.88748	44806
16.89562	46383
16.90373	44221
16.91187	46573
16.91998	51856
16.92810	49766
16.93623	47939
16.94435	48178
16.95247	47085
16.96060	45280
16.96872	47806
16.97685	48555
16.98497	49587
16.99308	44304
17.00122	48877
17.00933	47816
17.01747	52112
17.02558	49194
17.03370	52529
17.04183	56014
17.04995	63346
17.05807	67629
17.06620	69042
17.07432	71338
17.08245	74868
17.09057	84827
17.09868	104468
17.10682	109736
17.11493	128682
17.12307	124665
17.13118	128763
17.13930	125580
17.14743	109810
17.15555	103119
17.16368	85141
17.17180	78465
17.17992	72508
17.18805	67324
17.19617	63752
17.20428	54726
17.21242	54728
17.22053	52352
17.22867	54123
17.23678	54316
17.24490	53647
17.25303	55526
17.26115	50499
17.26928	51302
17.27740	49865
17.28552	48655
17.29365	47176
17.30177	49761
17.30990	56175
17.31802	61872
17.32613	67653
17.33427	73828
17.34238	83078
17.35050	89521
17.35863	92623
17.36675	89415
17.37488	83823
17.38300	82189
17.39112	75689
17.39925	69674
17.40737	69516
17.41550	62035
17.42362	63782
17.43173	64350
17.43987	62413
17.44798	65173
17.45610	60235
17.46423	58309
17.47235	56225
17.48048	57393
17.48860	53517
17.49672	52835
17.50485	51767
17.51297	52012
17.52110	43596
17.52922	51453
17.53733	51671
17.54547	52542
17.55358	58854
17.56172	76303
17.56983	120130
17.57795	205158
17.58608	361619
17.59420	578622
17.60232	871224
17.61045	1037518
17.61857	1080685
17.62670	940543
17.63482	737274
17.64293	550088
17.65107	447988
17.65918	404396
17.66732	371909
17.67543	363714
17.68355	317153
17.69168	263565
17.69980	221713
17.70792	174466
17.71605	142065
17.72417	131213
17.73230	121566
17.74042	115227
17.74853	102017
17.75667	93748
17.76478	91277
17.77292	96212
17.78103	91227
17.78915	107984
17.79728	140993
17.80540	216851
17.81353	339683
17.82165	481084
17.82977	607856
17.83790	620419
17.84602	546944
17.85413	442441
17.86227	327561
17.87038	250171
17.87852	202719
17.88663	171891
17.89475	143239
17.90288	129357
17.91100	117700
17.91913	107705
17.92725	104506
17.93537	94072
17.94350	95550
17.95162	84449
17.95975	85560
17.96787	82645
17.97598	80109
17.98412	82353
17.99223	74729
18.00035	78325
18.00848	81327
18.01660	84025
18.02473	92266
18.03285	104998
18.04097	119389
18.04910	140840
18.05722	195030
18.06535	366359
18.07347	702250
18.08158	1257003
18.08972	1797636
18.09783	2138965
18.10597	2098188
18.11408	1814952
18.12220	1398798
18.13033	1120493
18.13845	1009910
18.14657	950345
18.15470	954689
18.16282	905385
18.17095	885511
18.17907	859985
18.18718	820746
18.19532	813599
18.20343	775905
18.21157	736601
18.21968	732113
18.22780	717369
18.23593	705392
18.24405	688885
18.25217	649498
18.26030	636415
18.26842	614343
18.27655	591062
18.28467	571493
18.29278	562157
18.30092	528117
18.30903	498153
18.31717	492075
18.32528	491945
18.33340	486316
18.34153	481104
18.34965	469620
18.35778	454848
18.36590	448779
18.37402	466525
18.38215	448161
18.39027	476091
18.39838	523271
18.40652	605266
18.41463	691207
18.42277	759125
18.43088	794856
18.43900	747482
18.44713	681011
18.45525	652820
18.46338	666117
18.47150	726380
18.47962	776695
18.48775	783375
18.49587	756876
18.50398	670023
18.51212	587504
18.52023	529881
18.52837	462599
18.53648	428837
18.54460	395892
18.55273	382046
18.56085	368764
18.56898	359450
18.57710	359977
18.58522	349597
18.59335	344109
18.60147	349967
18.60960	333513
18.61772	342304
18.62583	327887
18.63397	318687
18.64208	321323
18.65020	329737
18.65833	313184
18.66645	307370
18.67458	298634
18.68270	297987
18.69082	290228
18.69895	295806
18.70707	285860
18.71520	287910
18.72332	271748
18.73143	273091
18.73957	261924
18.74768	256361
18.75582	254305
18.76393	253352
18.77205	253667
18.78018	253997
18.78830	245961
18.79642	244945
18.80455	245182
18.81267	244555
18.82080	238873
18.82892	236409
18.83703	232462
18.84517	222327
18.85328	224644
18.86142	227445
18.86953	225757
18.87765	231303
18.88578	225760
18.89390	213082
18.90202	217879
18.91015	220059
18.91827	220185
18.92640	212907
18.93452	211388
18.94263	223062
18.95077	221139
18.95888	215052
18.96702	221321
18.97513	216492
18.98325	215780
18.99138	205764
18.99950	201693
19.00763	200513
19.01575	192847
19.02387	187966
19.03200	185269
19.04012	185375
19.04823	192072
19.05637	180982
19.06448	183369
19.07262	200385
19.08073	226843
19.08885	265574
19.09698	308248
19.10510	347764
19.11323	365302
19.12135	347140
19.12947	311510
19.13760	275491
19.14572	242677
19.15385	220999
19.16197	207283
19.17008	196193
19.17822	191690
19.18633	190424
19.19445	182698
19.20258	178399
19.21070	170670
19.21883	173194
19.22695	172225
19.23507	159263
19.24320	160474
19.25132	156589
19.25945	153220
19.26757	162114
19.27568	161361
19.28382	157946
19.29193	161488
19.30005	152521
19.30818	167019
19.31630	153917
19.32443	156695
19.33255	153495
19.34067	158671
19.34880	166536
19.35692	198630
19.36505	222472
19.37317	252114
19.38128	260609
19.38942	255278
19.39753	228223
19.40567	201001
19.41378	177713
19.42190	158385
19.43003	149209
19.43815	154176
19.44627	155246
19.45440	155687
19.46252	167350
19.47065	180378
19.47877	216547
19.48688	264146
19.49502	324240
19.50313	364742
19.51127	367892
19.51938	337413
19.52750	268905
19.53563	211272
19.54375	178748
19.55187	162229
19.56000	148447
19.56812	145453
19.57625	140480
19.58437	140694
19.59248	129245
19.60062	126368
19.60873	128366
19.61687	121194
19.62498	121069
19.63310	132050
19.64123	140870
19.64935	170091
19.65748	198482
19.66560	235989
19.67372	280668
19.68185	303506
19.68997	299651
19.69808	292687
19.70622	268214
19.71433	234481
19.72247	209190
19.73058	191496
19.73870	176744
19.74683	162304
19.75495	157417
19.76308	148420
19.77120	138860
19.77932	147246
19.78745	159624
19.79557	161956
19.80370	165591
19.81182	166490
19.81993	155362
19.82807	150805
19.83618	134774
19.84430	143776
19.85243	202906
19.86055	372580
19.86868	817085
19.87680	1752982
19.88492	3220863
19.89305	4968292
19.90117	6315661
19.90930	6671753
19.91742	5895033
19.92553	4500220
19.93367	3203443
19.94178	2251573
19.94990	1575585
19.95803	1208303
19.96615	1040690
19.97428	910369
19.98240	839665
19.99052	783718
19.99865	718765
20.00677	667418
20.01490	616147
20.02302	603373
20.03113	561886
20.03927	515612
20.04738	449003
20.05552	371254
20.06363	316326
20.07175	275203
20.07988	243460
20.08800	218431
20.09612	208389
20.10425	191548
20.11237	180477
20.12050	168528
20.12862	166847
20.13673	157813
20.14487	160804
20.15298	156613
20.16112	155777
20.16923	169187
20.17735	185492
20.18548	196891
20.19360	202242
20.20173	201173
20.20985	209794
20.21797	191980
20.22610	187235
20.23422	183017
20.24233	175926
20.25047	189853
20.25858	206668
20.26672	228798
20.27483	269319
20.28295	270644
20.29108	284677
20.29920	271417
20.30733	231913
20.31545	215460
20.32357	181967
20.33170	164550
20.33982	154554
20.34793	133296
20.35607	126125
20.36418	126026
20.37232	117323
20.38043	116816
20.38855	111659
20.39668	109457
20.40480	101796
20.41293	99452
20.42105	99951
20.42917	102790
20.43730	104294
20.44542	109602
20.45355	115893
20.46167	124770
20.46978	127787
20.47792	132724
20.48603	125746
20.49415	115826
20.50228	103885
20.51040	97889
20.51853	94570
20.52665	90612
20.53477	87306
20.54290	88611
20.55102	81920
20.55915	83543
20.56727	81305
20.57538	84337
20.58352	80934
20.59163	75686
20.59975	79398
20.60788	77386
20.61600	75017
20.62413	72244
20.63225	77610
20.64037	80830
20.64850	77452
20.65662	82571
20.66475	82783
20.67287	83690
20.68098	79964
20.68912	78384
20.69723	75815
20.70537	76323
20.71348	70036
20.72160	71462
20.72973	68052
20.73785	69866
20.74597	72764
20.75410	79141
20.76222	81198
20.77035	86706
20.77847	93516
20.78658	115930
20.79472	164735
20.80283	231127
20.81097	315401
20.81908	392247
20.82720	419933
20.83533	381832
20.84345	288405
20.85158	206961
20.85970	156819
20.86782	125916
20.87595	104000
20.88407	95591
20.89218	92803
20.90032	86031
20.90843	90897
20.91657	79736
20.92468	78047
20.93280	82402
20.94093	82090
20.94905	76507
20.95718	77401
20.96530	72948
20.97342	74895
20.98155	71449
20.98967	70263
20.99778	77541
21.00592	67523
21.01403	70413
21.02217	72492
21.03028	74121
21.03840	73756
21.04653	72710
21.05465	71062
21.06278	75910
21.07090	67229
21.07902	72784
21.08715	72106
21.09527	71172
21.10340	70897
21.11152	65463
21.11963	67860
21.12777	67859
21.13588	75514
21.14400	84413
21.15213	96755
21.16025	116227
21.16838	115790
21.17650	112057
21.18462	105803
21.19275	100223
21.20087	82871
21.20900	82951
21.21712	78481
21.22523	75363
21.23337	75610
21.24148	73583
21.24962	71514
21.25773	66360
21.26585	68343
21.27398	69956
21.28210	66420
21.29022	66391
21.29835	65707
21.30647	66321
21.31460	60063
21.32272	65200
21.33083	57661
21.33897	64647
21.34708	64331
21.35522	62312
21.36333	66189
21.37145	64501
21.37958	73259
21.38770	72912
21.39582	87542
21.40395	102741
21.41207	110457
21.42020	114917
21.42832	106406
21.43643	95022
21.44457	85562
21.45268	82360
21.46082	78497
21.46893	76617
21.47705	64433
21.48518	73340
21.49330	67987
21.50143	66145
21.50955	66685
21.51767	63514
21.52580	63545
21.53392	63724
21.54203	62219
21.55017	61479
21.55828	64706
21.56642	63133
21.57453	65992
21.58265	77093
21.59078	87399
21.59890	88404
21.60703	91582
21.61515	93757
21.62327	93311
21.63140	96096
21.63952	99236
21.64765	98806
21.65577	105720
21.66388	102877
21.67202	108931
21.68013	107626
21.68825	100797
21.69638	102760
21.70450	90861
21.71263	84129
21.72075	81283
21.72887	72790
21.73700	73745
21.74512	67534
21.75325	69575
21.76137	65990
21.76948	68910
21.77762	74059
21.78573	72260
21.79385	74665
21.80198	79389
21.81010	86466
21.81823	85328
21.82635	90584
21.83447	87914
21.84260	89940
21.85072	82142
21.85885	81253
21.86697	76477
21.87508	70131
21.88322	67659
21.89133	64348
21.89947	64343
21.90758	66881
21.91570	62480
21.92383	62605
21.93195	60233
21.94007	60551
21.94820	55996
21.95632	58011
21.96445	59010
21.97257	57196
21.98068	53105
21.98882	56596
21.99693	54856
22.00507	52113
22.01318	54607
22.02130	53079
22.02943	53900
22.03755	55882
22.04567	56139
22.05380	60048
22.06192	55513
22.07005	52681
22.07817	49557
22.08628	50855
22.09442	55001
22.10253	56477
22.11067	56050
22.11878	53240
22.12690	47786
22.13503	55655
22.14315	53059
22.15128	52128
22.15940	52848
22.16752	51603
22.17565	51676
22.18377	52508
22.19188	52914
22.20002	54911
22.20813	52334
22.21627	55567
22.22438	62549
22.23250	52785
22.24063	56414
22.24875	55021
22.25688	55116
22.26500	58016
22.27312	58336
22.28125	62105
22.28937	60156
22.29750	66046
22.30562	70415
22.31373	67167
22.32187	64505
22.32998	72522
22.33810	65374
22.34623	64484
22.35435	61449
22.36248	59924
22.37060	57630
22.37872	60839
22.38685	65215
22.39497	77089
22.40310	99397
22.41122	126130
22.41933	137505
22.42747	151885
22.43558	152768
22.44370	137481
22.45183	117196
22.45995	104838
22.46808	97610
22.47620	96968
22.48432	110139
22.49245	122358
22.50057	129009
22.50870	136002
22.51682	126545
22.52493	119795
22.53307	107155
22.54118	93083
22.54932	91042
22.55743	86471
22.56555	79670
22.57368	82598
22.58180	71079
22.58992	72877
22.59805	64827
22.60617	65367
22.61430	63506
22.62242	60939
22.63053	63108
22.63867	61717
22.64678	60340
22.65492	60800
22.66303	64454
22.67115	63428
22.67928	60269
22.68740	61570
22.69553	67853
22.70365	68017
22.71177	76669
22.71990	80000
22.72802	78245
22.73613	72167
22.74427	70881
22.75238	66423
22.76052	62378
22.76863	59390
22.77675	68313
22.78488	76828
22.79300	86077
22.80113	93374
22.80925	108429
22.81737	109820
22.82550	108334
22.83362	97939
22.84173	91291
22.84987	79307
22.85798	78395
22.86612	78745
22.87423	76989
22.88235	84244
22.89048	97265
22.89860	109296
22.90673	137063
22.91485	171844
22.92297	196636
22.93110	206896
22.93922	200041
22.94735	170777
22.95547	155565
22.96358	123928
22.97172	110723
22.97983	108707
22.98795	100151
22.99608	98650
23.00420	89073
23.01233	91904
23.02045	92709
23.02857	88400
23.03670	93292
23.04482	88508
23.05295	88795
23.06107	91658
23.06918	94070
23.07732	90800
23.08543	90667
23.09355	92542
23.10168	96129
23.10980	87753
23.11793	84589
23.12605	88750
23.13417	82511
23.14230	87609
23.15042	82914
23.15855	92317
23.16667	83609
23.17478	87610
23.18292	88614
23.19103	88980
23.19917	88539
23.20728	84503
23.21540	86340
23.22353	86729
23.23165	87019
23.23977	83559
23.24790	89524
23.25602	94997
23.26415	90656
23.27227	97639
23.28038	98972
23.28852	91386
23.29663	96237
23.30477	86643
23.31288	86696
23.32100	92050
23.32913	94267
23.33725	107314
23.34538	134981
23.35350	176941
23.36162	245041
23.36975	333071
23.37787	419329
23.38598	539157
23.39412	640176
23.40223	729795
23.41037	788048
23.41848	808566
23.42660	816145
23.43473	801585
23.44285	779376
23.45098	736293
23.45910	711483
23.46722	662533
23.47535	607907
23.48347	553211
23.49158	511459
23.49972	470545
23.50783	447932
23.51597	406732
23.52408	376589
23.53220	348538
23.54033	337826
23.54845	298043
23.55658	291110
23.56470	283916
23.57282	278143
23.58095	276886
23.58907	299404
23.59720	319382
23.60532	329578
23.61343	327639
23.62157	295299
23.62968	269704
23.63780	259696
23.64593	259260
23.65405	263307
23.66218	271769
23.67030	270546
23.67842	275151
23.68655	247337
23.69467	222518
23.70280	190647
23.71092	173510
23.71903	156005
23.72717	145959
23.73528	143473
23.74342	156706
23.75153	203714
23.75965	327697
23.76778	572544
23.77590	1024876
23.78402	1546011
23.79215	1951118
23.80027	2126533
23.80840	2111753
23.81652	1803590
23.82463	1458982
23.83277	1160063
23.84088	924294
23.84902	718312
23.85713	593150
23.86525	510582
23.87338	437130
23.88150	380230
23.88962	340036
23.89775	319380
23.90587	298927
23.91400	294575
23.92212	287401
23.93023	256882
23.93837	245287
23.94648	219399
23.95462	204706
23.96273	195115
23.97085	186921
23.97898	172717
23.98710	179295
23.99523	189359
24.00335	242288
24.01147	361035
24.01960	577538
24.02772	849391
24.03583	1037206
24.04397	1084272
24.05208	915660
24.06022	663207
24.06833	448807
24.07645	300466
24.08458	218143
24.09270	179129
24.10083	151431
24.10895	150584
24.11707	142978
24.12520	141271
24.13332	132081
24.14143	135374
24.14957	130053
24.15768	135694
24.16582	129251
24.17393	126716
24.18205	134490
24.19018	121528
24.19830	125168
24.20643	124075
24.21455	122186
24.22267	119702
24.23080	118406
24.23892	104958
24.24705	99364
24.25517	100010
24.26328	90128
24.27142	95585
24.27953	84229
24.28765	94753
24.29578	90300
24.30390	91125
24.31203	93703
24.32015	89777
24.32827	85920
24.33640	82788
24.34452	84980
24.35265	87974
24.36077	99281
24.36888	114755
24.37702	143712
24.38513	170636
24.39327	188044
24.40138	188298
24.40950	167677
24.41763	156498
24.42575	162955
24.43387	180338
24.44200	200375
24.45012	218988
24.45825	240833
24.46637	261821
24.47448	282275
24.48262	295434
24.49073	311980
24.49887	325537
24.50698	329582
24.51510	331903
24.52323	337073
24.53135	354216
24.53948	355123
24.54760	390948
24.55572	399228
24.56385	396185
24.57197	381345
24.58008	361435
24.58822	342155
24.59633	323806
24.60447	303582
24.61258	288910
24.62070	291854
24.62883	283602
24.63695	279943
24.64508	280504
24.65320	264409
24.66132	260601
24.66945	261042
24.67757	257195
24.68568	260686
24.69382	250133
24.70193	254697
24.71007	241322
24.71818	235376
24.72630	235326
24.73443	235059
24.74255	224107
24.75068	233772
24.75880	228702
24.76692	233983
24.77505	226124
24.78317	231287
24.79130	235083
24.79942	222100
24.80753	213256
24.81567	201439
24.82378	185806
24.83190	179751
24.84003	184343
24.84815	206275
24.85628	260388
24.86440	334314
24.87252	436092
24.88065	547304
24.88877	655653
24.89690	727873
24.90502	689507
24.91313	587103
24.92127	445317
24.92938	314969
24.93750	229271
24.94563	167507
24.95375	130807
24.96188	117753
24.97000	105027
24.97812	101434
24.98625	92029
24.99437	92471
25.00250	89650
25.01062	89108
25.01873	84642
25.02687	83378
25.03498	79624
25.04312	78208
25.05123	77127
25.05935	80899
25.06748	87053
25.07560	80944
25.08372	82983
25.09185	97014
25.09997	150132
25.10810	280295
25.11622	573828
25.12433	1125095
25.13247	1927487
25.14058	2728706
25.14872	3195373
25.15683	3187699
25.16495	2647816
25.17308	1900395
25.18120	1205917
25.18933	716305
25.19745	429401
25.20557	274135
25.21370	197440
25.22182	162829
25.22993	150405
25.23807	156983
25.24618	202008
25.25432	269955
25.26243	372388
25.27055	492292
25.27868	567769
25.28680	608778
25.29493	585669
25.30305	552864
25.31117	518125
25.31930	494032
25.32742	462758
25.33553	461022
25.34367	435747
25.35178	450343
25.35992	440385
25.36803	424417
25.37615	426199
25.38428	424761
25.39240	417353
25.40053	423556
25.40865	433482
25.41677	430977
25.42490	415953
25.43302	412879
25.44115	396984
25.44927	403048
25.45738	393999
25.46552	401499
25.47363	394277
25.48175	387445
25.48988	375364
25.49800	377041
25.50613	378963
25.51425	365864
25.52237	361771
25.53050	363884
25.53862	360843
25.54675	354323
25.55487	350310
25.56298	349591
25.57112	354045
25.57923	337002
25.58737	341020
25.59548	332177
25.60360	336743
25.61173	334576
25.61985	322986
25.62797	319729
25.63610	331012
25.64422	312999
25.65235	312588
25.66047	310276
25.66858	301196
25.67672	298848
25.68483	291368
25.69297	285095
25.70108	281382
25.70920	271964
25.71733	274418
25.72545	269248
25.73357	275198
25.74170	265605
25.74982	265708
25.75795	262827
25.76607	252795
25.77418	254288
25.78232	259629
25.79043	260321
25.79857	251565
25.80668	250883
25.81480	253119
25.82293	257740
25.83105	259568
25.83918	276742
25.84730	284497
25.85542	283556
25.86355	276213
25.87167	254783
25.87978	240219
25.88792	229236
25.89603	220668
25.90417	213622
25.91228	216449
25.92040	206898
25.92853	201893
25.93665	198419
25.94478	195872
25.95290	194714
25.96102	196503
25.96915	189811
25.97727	184838
25.98538	184762
25.99352	181878
26.00163	182740
26.00977	176894
26.01788	169391
26.02600	170795
26.03413	174232
26.04225	167479
26.05038	173206
26.05850	167243
26.06662	172280
26.07475	171543
26.08287	169786
26.09100	158607
26.09912	164720
26.10723	169291
26.11537	167383
26.12348	156219
26.13160	155071
26.13973	162138
26.14785	157307
26.15598	159236
26.16410	162072
26.17222	157584
26.18035	152624
26.18847	148194
26.19660	152321
26.20472	146960
26.21283	143239
26.22097	136600
26.22908	141003
26.23722	134242
26.24533	135122
26.25345	131159
26.26158	131655
26.26970	124127
26.27782	126595
26.28595	125185
26.29407	119355
26.30220	127076
26.31032	116707
26.31843	115327
26.32657	120414
26.33468	113769
26.34282	115898
26.35093	113829
26.35905	109695
26.36718	116124
26.37530	120385
26.38342	125611
26.39155	136045
26.39967	140505
26.40780	137971
26.41592	141423
26.42403	129902
26.43217	118845
26.44028	119044
26.44842	112838
26.45653	112834
26.46465	104814
26.47278	106303
26.48090	109343
26.48903	105105
26.49715	103777
26.50527	99387
26.51340	99558
26.52152	94080
26.52963	92778
26.53777	91076
26.54588	92559
26.55402	84607
26.56213	91237
26.57025	85944
26.57838	85034
26.58650	89063
26.59463	88588
26.60275	83986
26.61087	82925
26.61900	82449
26.62712	83282
26.63525	82792
26.64337	88215
26.65148	87984
26.65962	90100
26.66773	91480
26.67585	91846
26.68398	85972
26.69210	83658
26.70023	78788
26.70835	84458
26.71647	74219
26.72460	78351
26.73272	78212
26.74085	74155
26.74897	80614
26.75708	72616
26.76522	75722
26.77333	78714
26.78145	79165
26.78958	80241
26.79770	87497
26.80583	85387
26.81395	81893
26.82207	82228
26.83020	76337
26.83832	75647
26.84645	75578
26.85457	71849
26.86268	69556
26.87082	68165
26.87893	70054
26.88707	68695
26.89518	68143
26.90330	67995
26.91143	66874
26.91955	67822
26.92767	66030
26.93580	65504
26.94392	68581
26.95205	69703
26.96017	74228
26.96828	79712
26.97642	100106
26.98453	123528
26.99267	171601
27.00078	234960
27.00890	322126
27.01703	387847
27.02515	449022
27.03328	485056
27.04140	463228
27.04952	440100
27.05765	389616
27.06577	325816
27.07388	278323
27.08202	250437
27.09013	213872
27.09827	186986
27.10638	174495
27.11450	164974
27.12263	157196
27.13075	150405
27.13888	147396
27.14700	135405
27.15512	133688
27.16325	128407
27.17137	125325
27.17948	124492
27.18762	122377
27.19573	126280
27.20387	116029
27.21198	114425
27.22010	108855
27.22823	101263
27.23635	100685
27.24448	101339
27.25260	94549
27.26072	95616
27.26885	94126
27.27697	93339
27.28510	88887
27.29322	85644
27.30133	79896
27.30947	82870
27.31758	77951
27.32570	74623
27.33383	81083
27.34195	77231
27.35008	83555
27.35820	79570
27.36632	75139
27.37445	77918
27.38257	75081
27.39070	76442
27.39882	74082
27.40693	71470
27.41507	69317
27.42318	69741
27.43130	69261
27.43943	69611
27.44755	65560
27.45568	63711
27.46380	69759
27.47192	62197
27.48005	66441
27.48817	64684
27.49630	67294
27.50442	64388
27.51253	74162
27.52067	66425
27.52878	71602
27.53692	76984
27.54503	70995
27.55315	70134
27.56128	67114
27.56940	72195
27.57752	72820
27.58565	86028
27.59377	97071
27.60190	95625
27.61002	92862
27.61813	89861
27.62627	85499
27.63438	74324
27.64252	68401
27.65063	67563
27.65875	62666
27.66688	67701
27.67500	68297
27.68313	71285
27.69125	72039
27.69937	73182
27.70750	72011
27.71562	68753
27.72373	63546
27.73187	62064
27.73998	56090
27.74812	55383
27.75623	59644
27.76435	56407
27.77248	61139
27.78060	56198
27.78873	60739
27.79685	59650
27.80497	58508
27.81310	61945
27.82122	63614
27.82933	58832
27.83747	58555
27.84558	63097
27.85372	56975
27.86183	57574
27.86995	54696
27.87808	55558
27.88620	54848
27.89433	57936
27.90245	55485
27.91057	53651
27.91870	50558
27.92682	51790
27.93495	51617
27.94307	51651
27.95118	48372
27.95932	53156
27.96743	47140
27.97555	48465
27.98368	49739
27.99180	51785
27.99993	52804
28.00805	59738
28.01617	62044
28.02430	70381
28.03242	77857
28.04055	89641
28.04867	99721
28.05678	97118
28.06492	95533
28.07303	86920
28.08117	77538
28.08928	73726
28.09740	69184
28.10553	65324
28.11365	62994
28.12177	61431
28.12990	61844
28.13802	54913
28.14615	53646
28.15427	51729
28.16238	54993
28.17052	56670
28.17863	56384
28.18677	61333
28.19488	75619
28.20300	80231
28.21113	89584
28.21925	89696
28.22737	91322
28.23550	95137
28.24362	89305
28.25175	78035
28.25987	68701
28.26798	62278
28.27612	61926
28.28423	56006
28.29237	62710
28.30048	61392
28.30860	72243
28.31673	81771
28.32485	91422
28.33298	101411
28.34110	110220
28.34922	134046
28.35735	147445
28.36547	160932
28.37358	166568
28.38172	178348
28.38983	185593
28.39797	186497
28.40608	191145
28.41420	186782
28.42233	176515
28.43045	168493
28.43858	158212
28.44670	146765
28.45482	137680
28.46295	121758
28.47107	128543
28.47918	118184
28.48732	108809
28.49543	108006
28.50357	100287
28.51168	96126
28.51980	94898
28.52793	93505
28.53605	85709
28.54418	86289
28.55230	79588
28.56042	83943
28.56855	77545
28.57667	75477
28.58480	77610
28.59292	72249
28.60103	79372
28.60917	77135
28.61728	74538
28.62540	73807
28.63353	72242
28.64165	76410
28.64978	79757
28.65790	78122
28.66602	75245
28.67415	77521
28.68227	75435
28.69040	71091
28.69852	69367
28.70663	69860
28.71477	68151
28.72288	67986
28.73102	68551
28.73913	71267
28.74725	78829
28.75538	96952
28.76350	100229
28.77162	97798
28.77975	92131
28.78787	89743
28.79600	79192
28.80412	78914
28.81223	71907
28.82037	76185
28.82848	69831
28.83662	69237
28.84473	69315
28.85285	66843
28.86098	67140
28.86910	70920
28.87722	69167
28.88535	79439
28.89347	78676
28.90160	87835
28.90972	81880
28.91783	77575
28.92597	68899
28.93408	68319
28.94222	67480
28.95033	62007
28.95845	67410
28.96658	67567
28.97470	60759
28.98283	62811
28.99095	58976
28.99907	54482
29.00720	53526
29.01532	56817
29.02343	56950
29.03157	55021
29.03968	53950
29.04782	53477
29.05593	53929
29.06405	57680
29.07218	61078
29.08030	59427
29.08843	61864
29.09655	59173
29.10467	58004
29.11280	58412
29.12092	56996
29.12905	56603
29.13717	51449
29.14528	52067
29.15342	49458
29.16153	57789
29.16965	55878
29.17778	58360
29.18590	67214
29.19403	76118
29.20215	93007
29.21027	106378
29.21840	113461
29.22652	122553
29.23465	112478
29.24277	119784
29.25088	121684
29.25902	147900
29.26713	152713
29.27525	163376
29.28338	144706
29.29150	120767
29.29963	97283
29.30775	78920
29.31587	67448
29.32400	58760
29.33212	55004
29.34025	56717
29.34837	53201
29.35648	53254
29.36462	52072
29.37273	48766
29.38087	50335
29.38898	54857
29.39710	60062
29.40523	51751
29.41335	51461
29.42147	55253
29.42960	52859
29.43772	55374
29.44585	56075
29.45397	54291
29.46208	54549
29.47022	55738
29.47833	56226
29.48647	53626
29.49458	52926
29.50270	52941
29.51083	53378
29.51895	55967
29.52707	54861
29.53520	51968
29.54332	48722
29.55145	52469
29.55957	52947
29.56768	49955
29.57582	48968
29.58393	47047
29.59207	51364
29.60018	46021
29.60830	46590
29.61643	43790
29.62455	46154
29.63268	48643
29.64080	45837
29.64892	49649
29.65705	49033
29.66517	48926
29.67328	52344
29.68142	50831
29.68953	56854
29.69767	57091
29.70578	60472
29.71390	56555
29.72203	60925
29.73015	56964
29.73828	51135
29.74640	47171
29.75452	45625
29.76265	48803
29.77077	48332
29.77890	45880
29.78702	46529
29.79513	46313
29.80327	49879
29.81138	46824
29.81950	43502
29.82763	47215
29.83575	45021
29.84388	41579
29.85200	45533
29.86012	47400
29.86825	50108
29.87637	58621
29.88450	74033
29.89262	94232
29.90073	97000
29.90887	93349
29.91698	88453
29.92512	81399
29.93323	67612
29.94135	65876
29.94948	62056
29.95760	61728
29.96572	64641
29.97385	69535
29.98197	74351
29.99010	86431
29.99822	93860
30.00633	99212
30.01447	97095
30.02258	102439
30.03072	105501
30.03883	106749
30.04695	102864
30.05508	111660
30.06320	110560
30.07132	116503
30.07945	108434
30.08757	106200
30.09570	101909
30.10382	100731
30.11193	96337
30.12007	95759
30.12818	92224
30.13632	93189
30.14443	92869
30.15255	93032
30.16068	85299
30.16880	85244
30.17693	84106
30.18505	78983
30.19317	78468
30.20130	78132
30.20942	74670
30.21753	79823
30.22567	81535
30.23378	75326
30.24192	67386
30.25003	64532
30.25815	61669
30.26628	66170
30.27440	64473
30.28253	58917
30.29065	59871
30.29877	59595
30.30690	63501
30.31502	61219
30.32313	59127
30.33127	58299
30.33938	61515
30.34752	56678
30.35563	57233
30.36375	59502
30.37188	60230
30.38000	56583
30.38813	57157
30.39625	54473
30.40437	50520
30.41250	55938
30.42062	50538
30.42875	54210
30.43687	53752
30.44498	51883
30.45312	46537
30.46123	51991
30.46935	50132
30.47748	50645
30.48560	49607
30.49373	50333
30.50185	47534
30.50997	47875
30.51810	49159
30.52622	50751
30.53435	48466
30.54247	45858
30.55058	49331
30.55872	46855
30.56683	48036
30.57497	49856
30.58308	47268
30.59120	47085
30.59933	48809
30.60745	52304
30.61557	46030
30.62370	49609
30.63182	44183
30.63995	41137
30.64807	47007
30.65618	43853
30.66432	47617
30.67243	47488
30.68057	53449
30.68868	61385
30.69680	69881
30.70493	76868
30.71305	76708
30.72117	87752
30.72930	85104
30.73742	90948
30.74555	84599
30.75367	95731
30.76178	96059
30.76992	100077
30.77803	114162
30.78617	126741
30.79428	154516
30.80240	172576
30.81053	182192
30.81865	181899
30.82678	169683
30.83490	155577
30.84302	139242
30.85115	125429
30.85927	123696
30.86738	116091
30.87552	113044
30.88363	113870
30.89177	108452
30.89988	114697
30.90800	107565
30.91613	106793
30.92425	108775
30.93238	106457
30.94050	109075
30.94862	111191
30.95675	102798
30.96487	105762
30.97300	105362
30.98112	101128
30.98923	104444
30.99737	102927
31.00548	103131
31.01360	105755
31.02173	107662
31.02985	105836
31.03798	102708
31.04610	104445
31.05422	104517
31.06235	104601
31.07047	110102
31.07860	104909
31.08672	112335
31.09483	120415
31.10297	127170
31.11108	123494
31.11920	120867
31.12733	112914
31.13545	111484
31.14358	109637
31.15170	103843
31.15982	108424
31.16795	110116
31.17607	109709
31.18420	119520
31.19232	133903
31.20043	160461
31.20857	188527
31.21668	226464
31.22482	226651
31.23293	226629
31.24105	212637
31.24918	183271
31.25730	154889
31.26542	129145
31.27355	109879
31.28167	97768
31.28980	91542
31.29792	87259
31.30603	87895
31.31417	89388
31.32228	87727
31.33042	87323
31.33853	89768
31.34665	90416
31.35478	81939
31.36290	89006
31.37102	87691
31.37915	91978
31.38727	94267
31.39540	93205
31.40352	91874
31.41163	85663
31.41977	79068
31.42788	78014
31.43602	77746
31.44413	77386
31.45225	75871
31.46038	74484
31.46850	73980
31.47663	78908
31.48475	76506
31.49287	76163
31.50100	75622
31.50912	74230
31.51723	76306
31.52537	75749
31.53348	72910
31.54162	78538
31.54973	73590
31.55785	76290
31.56598	76553
31.57410	74808
31.58223	74584
31.59035	68521
31.59847	74977
31.60660	69929
31.61472	71899
31.62285	70802
31.63097	65763
31.63908	69437
31.64722	65273
31.65533	71850
31.66345	72414
31.67158	69969
31.67970	70302
31.68783	72801
31.69595	73327
31.70407	64668
31.71220	60744
31.72032	61921
31.72845	60943
31.73657	64196
31.74468	62383
31.75282	63275
31.76093	62809
31.76905	61454
31.77718	62615
31.78530	61680
31.79343	67432
31.80155	59179
31.80967	61186
31.81780	60762
31.82592	60376
31.83405	62655
31.84217	61995
31.85028	65370
31.85842	58806
31.86653	58945
31.87467	63912
31.88278	67519
31.89090	66246
31.89903	80232
31.90715	85695
31.91527	88173
31.92340	95017
31.93152	94590
31.93965	97006
31.94777	95738
31.95588	104943
31.96402	102770
31.97213	103613
31.98027	110079
31.98838	110618
31.99650	107254
32.00463	108068
32.01275	103034
32.02088	101545
32.02900	101285
32.03712	96622
32.04525	94560
32.05337	93141
32.06148	86969
32.06962	88566
32.07773	89357
32.08587	84217
32.09398	78314
32.10210	75176
32.11023	75901
32.11835	71274
32.12648	70035
32.13460	68923
32.14272	71350
32.15085	66288
32.15897	63876
32.16708	62670
32.17522	63471
32.18333	64640
32.19147	62766
32.19958	62677
32.20770	61311
32.21583	62169
32.22395	62805
32.23208	62597
32.24020	61055
32.24832	62274
32.25645	66276
32.26457	65289
32.27270	64233
32.28082	62977
32.28893	64204
32.29707	62627
32.30518	60501
32.31330	59191
32.32143	57719
32.32955	57840
32.33768	57699
32.34580	60550
32.35392	55997
32.36205	55244
32.37017	56891
32.37830	56846
32.38642	58310
32.39453	50113
32.40267	56396
32.41078	55320
32.41892	55284
32.42703	52172
32.43515	54052
32.44328	51204
32.45140	55818
32.45952	53304
32.46765	51856
32.47577	51966
32.48390	54364
32.49202	54900
32.50013	53245
32.50827	52357
32.51638	51718
32.52452	51240
32.53263	52942
32.54075	53280
32.54888	54661
32.55700	51357
32.56512	53607
32.57325	55720
32.58137	51100
32.58950	51080
32.59762	49490
32.60573	54058
32.61387	49223
32.62198	48934
32.63012	55744
32.63823	61442
32.64635	65684
32.65448	72508
32.66260	75998
32.67073	72538
32.67885	71177
32.68697	64517
32.69510	61711
32.70322	56918
32.71133	53037
32.71947	52277
32.72758	58186
32.73572	57931
32.74383	53745
32.75195	49529
32.76008	48995
32.76820	55238
32.77633	51849
32.78445	48023
32.79257	47248
32.80070	48246
32.80882	48091
32.81693	45513
32.82507	52188
32.83318	49666
32.84132	49296
32.84943	51528
32.85755	48694
32.86568	47238
32.87380	48687
32.88193	49013
32.89005	51754
32.89817	53971
32.90630	50683
32.91442	57475
32.92255	49270
32.93067	50593
32.93878	53363
32.94692	55257
32.95503	49324
32.96315	51971
32.97128	55104
32.97940	57470
32.98753	62334
32.99565	70232
33.00377	74858
33.01190	77310
33.02002	75732
33.02815	65148
33.03627	64544
33.04438	62950
33.05252	60088
33.06063	61041
33.06877	60308
33.07688	58290
33.08500	67073
33.09313	71301
33.10125	72650
33.10937	76837
33.11750	77138
33.12562	77931
33.13375	69192
33.14187	68222
33.14998	61345
33.15812	59100
33.16623	53961
33.17437	52693
33.18248	50401
33.19060	52798
33.19873	51253
33.20685	52772
33.21497	51389
33.22310	52310
33.23122	49553
33.23935	54295
33.24747	51802
33.25558	51314
33.26372	49571
33.27183	55930
33.27997	52382
33.28808	52782
33.29620	49961
33.30433	46672
33.31245	50727
33.32058	52599
33.32870	50775
33.33682	53422
33.34495	51126
33.35307	53235
33.36118	55661
33.36932	51956
33.37743	54955
33.38557	52860
33.39368	50123
33.40180	48837
33.40993	45753
33.41805	47680
33.42618	45454
33.43430	43949
33.44242	48233
33.45055	47526
33.45867	46170
33.46680	50502
33.47492	48857
33.48303	45880
33.49117	49259
33.49928	50601
33.50740	48810
33.51553	52074
33.52365	51311
33.53178	51090
33.53990	54349
33.54802	59497
33.55615	63553
33.56427	63208
33.57240	61268
33.58052	56880
33.58863	56297
33.59677	53874
33.60488	51324
33.61300	48474
33.62113	51084
33.62925	49701
33.63738	50948
33.64550	51308
33.65362	53776
33.66175	50882
33.66987	48215
33.67800	49256
33.68612	48288
33.69423	49507
33.70237	54944
33.71048	47097
33.71862	49723
33.72673	43525
33.73485	48660
33.74298	45950
33.75110	47463
33.75922	45490
33.76735	43643
33.77547	46371
33.78360	47902
33.79172	44112
33.79983	46756
33.80797	49187
33.81608	47275
33.82422	53914
33.83233	50674
33.84045	47370
33.84858	46146
33.85670	51430
33.86482	48509
33.87295	49611
33.88107	48756
33.88920	52224
33.89732	52686
33.90543	50268
33.91357	50728
33.92168	52976
33.92982	50403
33.93793	56644
33.94605	51142
33.95418	44764
33.96230	46931
33.97043	48230
33.97855	47345
33.98667	46761
33.99480	47091
34.00292	51675
34.01103	46602
34.01917	47338
34.02728	53167
34.03542	46662
34.04353	46886
34.05165	52355
34.05978	47143
34.06790	46713
34.07603	50032
34.08415	50891
34.09227	49553
34.10040	48722
34.10852	52831
34.11665	49484
34.12477	52900
34.13288	47373
34.14102	49551
34.14913	53441
34.15725	51876
34.16538	51530
34.17350	50336
34.18163	50004
34.18975	48459
34.19787	48450
34.20600	49976
34.21412	50781
34.22225	50436
34.23037	50383
34.23848	53455
34.24662	52673
34.25473	50351
34.26287	49155
34.27098	50278
34.27910	47612
34.28723	50924
34.29535	49434
34.30347	43321
34.31160	50374
34.31972	50589
34.32785	48166
34.33597	49070
34.34408	49101
34.35222	47446
34.36033	50634
34.36847	49204
34.37658	50017
34.38470	48679
34.39283	48073
34.40095	50201
34.40907	47649
34.41720	46666
34.42532	45908
34.43345	46917
34.44157	51692
34.44968	46875
34.45782	49065
34.46593	45698
34.47407	47541
34.48218	49496
34.49030	51462
34.49843	54675
34.50655	59127
34.51468	59598
34.52280	72157
34.53092	81092
34.53905	85525
34.54717	86434
34.55528	92394
34.56342	87972
34.57153	93387
34.57967	90337
34.58778	81685
34.59590	78616
34.60403	72067
34.61215	69570
34.62028	68372
34.62840	65187
34.63652	61442
34.64465	63306
34.65277	64329
34.66088	58254
34.66902	59660
34.67713	61448
34.68527	59760
34.69338	57274
34.70150	55239
34.70963	57190
34.71775	59074
34.72588	56845
34.73400	56391
34.74212	59300
34.75025	56497
34.75837	55059
34.76650	57516
34.77462	56187
34.78273	57586
34.79087	56323
34.79898	57567
34.80710	60799
34.81523	61207
34.82335	61101
34.83148	61827
34.83960	56908
34.84772	53213
34.85585	54380
34.86397	56712
34.87210	56924
34.88022	57269
34.88833	53468
34.89647	55106
34.90458	55159
34.91272	56500
34.92083	55213
34.92895	55682
34.93708	60573
34.94520	65396
34.95332	61092
34.96145	64804
34.96957	64698
34.97770	68957
34.98582	63391
34.99393	63341
35.00207	59972
35.01018	56793
35.01832	55252
35.02643	54019
35.03455	54300
35.04268	51819
35.05080	49586
35.05892	52757
35.06705	53422
35.07517	53436
35.08330	51353
35.09142	55326
35.09953	52825
35.10767	55062
35.11578	53694
35.12392	45232
35.13203	49391
35.14015	52131
35.14828	50480
35.15640	50649
35.16453	52727
35.17265	55899
35.18077	53046
35.18890	52558
35.19702	51816
35.20513	51182
35.21327	54721
35.22138	49596
35.22952	48198
35.23763	48025
35.24575	53720
35.25388	47984
35.26200	49769
35.27013	49288
35.27825	56493
35.28637	56837
35.29450	45601
35.30262	48416
35.31075	50004
35.31887	49800
35.32698	46837
35.33512	50436
35.34323	48611
35.35135	46683
35.35948	48941
35.36760	50747
35.37573	47249
35.38385	50171
35.39197	52235
35.40010	52687
35.40822	58197
35.41635	59907
35.42447	59620
35.43258	62104
35.44072	58510
35.44883	59817
35.45695	55802
35.46508	57951
35.47320	59844
35.48133	61433
35.48945	52240
35.49757	50449
35.50570	57784
35.51382	53897
35.52195	54428
35.53007	49921
35.53818	51010
35.54632	49879
35.55443	50427
35.56257	53539
35.57068	53732
35.57880	52377
35.58693	52141
35.59505	50458
35.60317	53030
35.61130	53184
35.61942	48145
35.62755	52910
35.63567	52575
35.64378	59283
35.65192	52758
35.66003	57347
35.66817	56207
35.67628	56080
35.68440	54165
35.69253	53237
35.70065	53714
35.70877	56036
35.71690	52951
35.72502	57774
35.73315	56217
35.74127	54403
35.74938	54214
35.75752	60252
35.76563	63207
35.77377	57518
35.78188	56162
35.79000	59528
35.79813	53876
35.80625	54335
35.81438	54338
35.82250	50718
35.83062	51612
35.83875	53190
35.84687	55619
35.85498	47728
35.86312	47573
35.87123	53050
35.87937	55818
35.88748	51904
35.89560	50965
35.90373	54167
35.91185	51737
35.91998	50088
35.92810	52141
35.93622	53918
35.94435	52518
35.95247	52971
35.96060	51275
35.96872	49838
35.97683	50734
35.98497	51409
35.99308	51553
36.00120	55569
36.00933	58682
36.01745	58169
36.02558	54191
36.03370	55392
36.04182	58125
36.04995	56224
36.05807	54510
36.06620	50529
36.07432	52415
36.08243	50483
36.09057	53098
36.09868	58454
36.10680	51694
36.11493	53170
36.12305	56676
36.13118	54288
36.13930	54861
36.14742	55303
36.15555	55774
36.16367	58696
36.17180	52686
36.17992	54324
36.18803	52993
36.19617	50151
36.20428	55320
36.21242	59248
36.22053	51440
36.22865	56753
36.23678	55294
36.24490	54249
36.25302	53788
36.26115	56547
36.26927	63754
36.27740	70380
36.28552	82012
36.29363	90632
36.30177	94239
36.30988	91635
36.31802	87583
36.32613	89128
36.33425	88912
36.34238	84403
36.35050	85167
36.35863	82465
36.36675	85030
36.37487	79627
36.38300	81345
36.39112	76426
36.39923	82996
36.40737	82083
36.41548	85590
36.42362	83887
36.43173	81144
36.43985	88216
36.44798	85441
36.45610	85494
36.46423	82471
36.47235	81545
36.48047	81318
36.48860	82553
36.49672	82609
36.50483	77594
36.51297	84594
36.52108	77588
36.52922	79671
36.53733	79570
36.54545	76729
36.55358	78460
36.56170	77789
36.56983	78710
36.57795	80000
36.58607	79178
36.59420	80885
36.60232	79628
36.61045	82317
36.61857	78473
36.62668	76953
36.63482	87975
36.64293	81688
36.65105	82400
36.65918	76306
36.66730	77627
36.67543	77157
36.68355	76287
36.69167	76090
36.69980	75881
36.70792	77268
36.71605	78849
36.72417	74422
36.73228	79853
36.74042	73877
36.74853	71437
36.75665	75024
36.76478	77421
36.77290	73487
36.78103	71054
36.78915	72875
36.79727	76518
36.80540	71175
36.81352	69091
36.82165	71174
36.82977	72378
36.83788	69416
36.84602	68201
36.85413	70437
36.86227	73591
36.87038	71897
36.87850	72397
36.88663	72559
36.89475	69605
36.90287	65654
36.91100	69950
36.91912	73744
36.92725	71866
36.93537	75714
36.94348	78834
36.95162	85779
36.95973	90037
36.96787	93326
36.97598	95965
36.98410	89375
36.99223	86486
37.00035	78110
37.00848	74087
37.01660	75910
37.02472	73505
37.03285	71396
37.04097	73130
37.04908	72665
37.05722	69166
37.06533	72422
37.07347	70665
37.08158	70789
37.08970	70099
37.09783	66317
37.10595	72904
37.11408	68180
37.12220	70780
37.13032	67058
37.13845	70964
37.14657	71129
37.15468	71331
37.16282	66681
37.17093	63871
37.17907	65977
37.18718	71845
37.19530	69758
37.20343	70970
37.21155	68611
37.21968	67385
37.22780	66854
37.23592	67080
37.24405	62733
37.25217	66219
37.26030	67824
37.26842	64389
37.27653	66693
37.28467	67992
37.29278	67784
37.30090	70224
37.30903	70955
37.31715	79488
37.32528	80593
37.33340	88493
37.34152	98307
37.34965	97669
37.35777	96840
37.36590	89775
37.37402	95272
37.38213	88396
37.39027	86569
37.39838	82561
37.40652	83652
37.41463	82685
37.42275	79884
37.43088	79005
37.43900	79977
37.44712	76774
37.45525	78565
37.46337	81750
37.47150	73251
37.47962	77941
37.48773	72660
