Z:\data\JTB-E02\BACandBLUE\JTB-E18-007-11.D Fri Apr 12 13:56:35 2019
Start of data points
2.09532	119079
2.10345	120536
2.11157	118903
2.11968	122003
2.12782	121852
2.13593	122460
2.14407	127412
2.15218	121911
2.16030	118356
2.16843	119903
2.17655	117011
2.18468	118344
2.19280	113417
2.20092	117998
2.20905	107302
2.21717	112472
2.22528	115864
2.23342	115468
2.24153	112139
2.24967	113153
2.25778	112481
2.26590	116280
2.27403	347827
2.28215	1706945
2.29028	2187545
2.29840	1172206
2.30652	747883
2.31465	579814
2.32277	502752
2.33090	436562
2.33902	403892
2.34713	356376
2.35527	323874
2.36338	300891
2.37150	280719
2.37963	266027
2.38775	266436
2.39588	250678
2.40400	237458
2.41212	241036
2.42025	231928
2.42837	236010
2.43650	228384
2.44462	207171
2.45273	214934
2.46087	207274
2.46898	210114
2.47712	199722
2.48523	200935
2.49335	204330
2.50148	222472
2.50960	208447
2.51772	197796
2.52585	204031
2.53397	199539
2.54210	195278
2.55022	193191
2.55833	289945
2.56647	669341
2.57458	792109
2.58272	594917
2.59083	471191
2.59895	397047
2.60708	371855
2.61520	366799
2.62332	371235
2.63145	338665
2.63957	315222
2.64770	291063
2.65582	276452
2.66393	270903
2.67207	260438
2.68018	248456
2.68832	241299
2.69643	240167
2.70455	231536
2.71268	230062
2.72080	219574
2.72893	218310
2.73705	227313
2.74517	215975
2.75330	218596
2.76142	209584
2.76953	209153
2.77767	205866
2.78578	280093
2.79392	461293
2.80203	445294
2.81015	337299
2.81828	300034
2.82640	283086
2.83453	259569
2.84265	251488
2.85077	235987
2.85890	217770
2.86702	216279
2.87515	212446
2.88327	207095
2.89138	214366
2.89952	196360
2.90763	189828
2.91575	199136
2.92388	191674
2.93200	194031
2.94013	186336
2.94825	189418
2.95637	188998
2.96450	190772
2.97262	185015
2.98075	181705
2.98887	184832
2.99698	187895
3.00512	198721
3.01323	200922
3.02135	196553
3.02948	180486
3.03760	177672
3.04573	177157
3.05385	178745
3.06197	191020
3.07010	202005
3.07822	206884
3.08635	212964
3.09447	300974
3.10258	452807
3.11072	621809
3.11883	740861
3.12697	613497
3.13508	452448
3.14320	369194
3.15133	321199
3.15945	289400
3.16757	284512
3.17570	286377
3.18382	339885
3.19195	602132
3.20007	1172364
3.20818	1275480
3.21632	919524
3.22443	690131
3.23257	577654
3.24068	490972
3.24880	433183
3.25693	388624
3.26505	347230
3.27317	322001
3.28130	305194
3.28942	335963
3.29755	663874
3.30567	1912809
3.31378	4063308
3.32192	5391177
3.33003	5121751
3.33817	4069001
3.34628	3206944
3.35440	2654439
3.36253	2287216
3.37065	2003071
3.37878	1788940
3.38690	1594460
3.39502	1448874
3.40315	1318990
3.41127	1200450
3.41938	1136386
3.42752	1052923
3.43563	1005302
3.44377	939729
3.45188	884295
3.46000	839397
3.46813	778306
3.47625	744689
3.48438	712612
3.49250	692285
3.50062	639216
3.50875	631696
3.51687	595730
3.52500	614612
3.53312	648693
3.54123	654150
3.54937	627191
3.55748	586996
3.56560	547336
3.57373	503020
3.58185	487655
3.58998	473473
3.59810	478476
3.60622	467054
3.61435	441304
3.62247	429426
3.63060	424764
3.63872	419962
3.64683	413388
3.65497	406075
3.66308	531014
3.67120	1733092
3.67933	6041260
3.68745	1.103434E+07
3.69558	1.084347E+07
3.70370	7325194
3.71182	4885068
3.71995	3748234
3.72807	3070389
3.73620	2614767
3.74432	2331311
3.75243	2064756
3.76057	1853791
3.76868	1701115
3.77682	1597022
3.78493	1451233
3.79305	1366832
3.80118	1298000
3.80930	1218724
3.81742	1175221
3.82555	1120378
3.83367	1065512
3.84180	1008957
3.84992	954872
3.85803	908146
3.86617	858841
3.87428	830796
3.88242	802499
3.89053	765792
3.89865	730103
3.90678	715027
3.91490	697888
3.92303	712382
3.93115	772170
3.93927	824611
3.94740	802839
3.95552	809779
3.96363	1003580
3.97177	1295023
3.97988	1401572
3.98802	1188536
3.99613	952045
4.00425	933176
4.01238	1272162
4.02050	1785491
4.02863	1870853
4.03675	1505638
4.04487	1129951
4.05300	871221
4.06112	733970
4.06923	673038
4.07737	609088
4.08548	574486
4.09362	545450
4.10173	528339
4.10985	502110
4.11798	482678
4.12610	503948
4.13423	692869
4.14235	1711064
4.15047	3684057
4.15860	5283647
4.16672	5175228
4.17485	3799971
4.18297	2495216
4.19108	1693469
4.19922	1267916
4.20733	1202397
4.21545	2431145
4.22358	7535836
4.23170	1.609517E+07
4.23983	2.395929E+07
4.24795	2.915364E+07
4.25607	3.210398E+07
4.26420	3.122979E+07
4.27232	2.292274E+07
4.28045	1.361606E+07
4.28857	9450954
4.29668	7104994
4.30482	5559799
4.31293	4465289
4.32107	3636938
4.32918	3045590
4.33730	2549797
4.34543	2214817
4.35355	1982708
4.36167	1760356
4.36980	1643014
4.37792	1503797
4.38605	1403542
4.39417	1286715
4.40228	1165293
4.41042	1075418
4.41853	1029334
4.42667	952219
4.43478	898957
4.44290	845495
4.45103	809524
4.45915	780926
4.46727	811697
4.47540	1168785
4.48352	2409950
4.49165	4391709
4.49977	5508969
4.50788	4726310
4.51602	3384969
4.52413	2485591
4.53227	2020600
4.54038	1753434
4.54850	1599003
4.55663	1482456
4.56475	1357871
4.57288	1260345
4.58100	1205110
4.58912	1152228
4.59725	1107701
4.60537	1041965
4.61348	1026380
4.62162	979949
4.62973	973275
4.63787	1003992
4.64598	1064858
4.65410	1096680
4.66223	1056767
4.67035	971427
4.67848	905903
4.68660	884093
4.69472	844293
4.70285	825368
4.71097	775604
4.71908	741135
4.72722	738630
4.73533	708852
4.74347	706191
4.75158	690161
4.75970	672609
4.76783	648509
4.77595	652852
4.78408	628413
4.79220	628030
4.80032	638146
4.80845	615120
4.81657	624673
4.82470	630261
4.83282	615816
4.84093	586577
4.84907	584859
4.85718	583202
4.86530	576000
4.87343	555222
4.88155	535596
4.88968	530253
4.89780	534928
4.90592	519564
4.91405	517610
4.92217	495801
4.93030	510271
4.93842	587888
4.94653	883904
4.95467	1673727
4.96278	2924575
4.97092	4033826
4.97903	4340148
4.98715	3771738
4.99528	2988257
5.00340	2328133
5.01152	1880142
5.01965	1597217
5.02777	1433716
5.03590	1318602
5.04402	1271030
5.05213	1243810
5.06027	1168147
5.06838	1079199
5.07652	996235
5.08463	931201
5.09275	895584
5.10088	854625
5.10900	819654
5.11712	780254
5.12525	740848
5.13337	732111
5.14150	695318
5.14962	683511
5.15773	680716
5.16587	703239
5.17398	714967
5.18212	714861
5.19023	699554
5.19835	676914
5.20648	664988
5.21460	670407
5.22273	649559
5.23085	657447
5.23897	625707
5.24710	595770
5.25522	580321
5.26333	559033
5.27147	534206
5.27958	508747
5.28772	491996
5.29583	492609
5.30395	475460
5.31208	463098
5.32020	463041
5.32833	454122
5.33645	448363
5.34457	441406
5.35270	448364
5.36082	450144
5.36895	428676
5.37707	433825
5.38518	431576
5.39332	432640
5.40143	442323
5.40955	428879
5.41768	430563
5.42580	428585
5.43393	434708
5.44205	483269
5.45017	668609
5.45830	980861
5.46642	1277603
5.47455	1341602
5.48267	1104319
5.49078	853980
5.49892	653943
5.50703	558729
5.51515	501466
5.52328	466064
5.53140	434958
5.53953	443060
5.54765	411669
5.55577	422046
5.56390	415326
5.57202	451079
5.58015	478856
5.58827	499119
5.59638	467187
5.60452	433286
5.61263	406755
5.62077	389355
5.62888	379468
5.63700	381729
5.64513	384322
5.65325	378254
5.66137	371113
5.66950	381672
5.67762	464309
5.68575	693507
5.69387	1033642
5.70198	1313249
5.71012	1316037
5.71823	1063723
5.72637	806402
5.73448	661866
5.74260	555537
5.75073	506674
5.75885	461122
5.76697	436679
5.77510	403012
5.78322	404980
5.79135	394778
5.79947	416264
5.80758	506631
5.81572	606341
5.82383	676158
5.83197	634430
5.84008	567463
5.84820	502849
5.85633	464036
5.86445	429013
5.87258	421370
5.88070	388767
5.88882	376897
5.89695	370240
5.90507	348729
5.91318	336663
5.92132	311624
5.92943	313594
5.93757	309596
5.94568	306237
5.95380	311113
5.96193	323774
5.97005	331178
5.97818	349819
5.98630	369387
5.99442	400156
6.00255	398484
6.01067	374537
6.01880	337582
6.02692	317716
6.03503	296247
6.04317	278842
6.05128	269512
6.05940	262443
6.06753	249055
6.07565	247820
6.08378	245189
6.09190	236886
6.10002	241008
6.10815	232207
6.11627	232719
6.12440	248898
6.13252	261059
6.14063	319231
6.14877	410376
6.15688	489314
6.16502	532575
6.17313	511353
6.18125	457243
6.18938	396616
6.19750	353841
6.20562	319266
6.21375	295961
6.22187	293207
6.23000	284236
6.23812	275471
6.24623	276636
6.25437	275706
6.26248	269978
6.27062	272783
6.27873	278037
6.28685	263030
6.29498	258956
6.30310	283132
6.31122	317295
6.31935	352793
6.32747	357145
6.33560	337860
6.34372	304277
6.35183	279402
6.35997	262378
6.36808	251043
6.37622	242686
6.38433	245946
6.39245	237457
6.40058	247997
6.40870	236577
6.41683	242028
6.42495	239510
6.43307	229387
6.44120	237348
6.44932	234347
6.45743	224519
6.46557	232696
6.47368	227643
6.48182	232009
6.48993	230507
6.49805	229448
6.50618	225336
6.51430	225676
6.52243	229699
6.53055	230248
6.53867	228584
6.54680	230304
6.55492	228347
6.56303	222829
6.57117	235927
6.57928	247135
6.58742	263491
6.59553	268133
6.60365	261425
6.61178	240209
6.61990	232683
6.62803	232570
6.63615	237536
6.64427	278329
6.65240	465370
6.66052	980063
6.66865	1808828
6.67677	2526155
6.68488	2593888
6.69302	2023484
6.70113	1376271
6.70925	970834
6.71738	727943
6.72550	622745
6.73363	535812
6.74175	483992
6.74987	514795
6.75800	476252
6.76612	427972
6.77425	398394
6.78237	370030
6.79048	351345
6.79862	338104
6.80673	336263
6.81487	344161
6.82298	353024
6.83110	334100
6.83923	323198
6.84735	310945
6.85547	304893
6.86360	266891
6.87172	247265
6.87985	228923
6.88797	215095
6.89608	195973
6.90422	184754
6.91233	183992
6.92047	173035
6.92858	167385
6.93670	159348
6.94483	161384
6.95295	149557
6.96107	156230
6.96920	152335
6.97732	158937
6.98545	178227
6.99357	183491
7.00168	168969
7.00982	159572
7.01793	153686
7.02607	161277
7.03418	167430
7.04230	169448
7.05043	177092
7.05855	174484
7.06668	170179
7.07480	176903
7.08292	177436
7.09105	163189
7.09917	156178
7.10728	154211
7.11542	151522
7.12353	150776
7.13167	147806
7.13978	141937
7.14790	152916
7.15603	173947
7.16415	181884
7.17228	198647
7.18040	198546
7.18852	199431
7.19665	187150
7.20477	209064
7.21290	348861
7.22102	876816
7.22913	1937046
7.23727	3546492
7.24538	4574039
7.25350	4251618
7.26163	3008958
7.26975	1805829
7.27788	1065591
7.28600	690098
7.29412	444779
7.30225	285811
7.31037	211122
7.31850	185133
7.32662	180728
7.33473	176157
7.34287	171293
7.35098	171801
7.35910	166668
7.36723	158314
7.37535	152227
7.38348	148241
7.39160	147405
7.39972	147622
7.40785	144881
7.41597	139595
7.42410	137030
7.43222	139753
7.44033	134797
7.44847	135631
7.45658	137067
7.46472	137303
7.47283	126806
7.48095	131382
7.48908	124570
7.49720	126067
7.50532	126234
7.51345	128610
7.52157	136890
7.52970	162646
7.53782	213089
7.54593	304037
7.55407	421050
7.56218	498648
7.57032	531670
7.57843	509525
7.58655	432620
7.59468	361733
7.60280	291463
7.61092	259801
7.61905	223682
7.62717	196848
7.63530	170979
7.64342	166236
7.65153	146046
7.65967	138372
7.66778	125343
7.67592	120736
7.68403	121336
7.69215	111769
7.70028	117455
7.70840	120343
7.71653	121090
7.72465	120105
7.73277	116202
7.74090	119399
7.74902	115439
7.75713	108132
7.76527	113829
7.77338	115690
7.78152	122038
7.78963	116154
7.79775	121935
7.80588	127643
7.81400	132866
7.82213	156365
7.83025	238112
7.83837	456532
7.84650	870543
7.85462	1549086
7.86275	2537327
7.87087	3919585
7.87898	5851100
7.88712	8119303
7.89523	9785112
7.90335	9849677
7.91148	8262468
7.91960	5853702
7.92773	3933332
7.93585	2798301
7.94397	2090790
7.95210	1621700
7.96022	1258150
7.96835	989861
7.97647	764127
7.98458	605477
7.99272	498954
8.00083	430557
8.00895	404073
8.01708	439551
8.02520	522062
8.03333	621639
8.04145	701861
8.04957	732795
8.05770	728704
8.06582	700006
8.07395	666723
8.08207	633054
8.09018	604086
8.09832	562243
8.10643	557783
8.11457	520127
8.12268	510132
8.13080	477128
8.13893	468066
8.14705	450761
8.15517	437248
8.16330	419163
8.17142	417456
8.17955	398365
8.18767	390448
8.19578	374505
8.20392	360885
8.21203	354315
8.22017	354849
8.22828	341366
8.23640	327879
8.24453	318571
8.25265	315758
8.26078	315682
8.26890	297123
8.27702	288877
8.28515	279816
8.29327	280964
8.30138	267790
8.30952	269956
8.31763	266929
8.32577	259820
8.33388	255436
8.34200	249703
8.35013	247528
8.35825	234147
8.36638	236254
8.37450	233852
8.38262	236660
8.39075	228762
8.39887	226482
8.40698	216377
8.41512	215020
8.42323	218120
8.43137	205375
8.43948	207656
8.44760	209016
8.45573	205495
8.46385	205101
8.47198	195879
8.48010	197277
8.48822	197264
8.49635	193262
8.50447	187023
8.51260	203768
8.52072	314463
8.52883	708899
8.53697	1733444
8.54508	3821965
8.55320	6108236
8.56133	7483626
8.56945	7062183
8.57758	5155190
8.58570	2963384
8.59382	1493799
8.60195	857848
8.61007	618459
8.61820	526185
8.62632	479680
8.63443	451317
8.64257	408995
8.65068	380902
8.65880	376471
8.66693	352818
8.67505	338770
8.68318	326339
8.69130	308149
8.69942	287421
8.70755	288404
8.71567	266924
8.72380	263600
8.73192	255668
8.74003	243875
8.74817	243261
8.75628	251954
8.76442	310634
8.77253	454543
8.78065	693552
8.78878	995556
8.79690	1148905
8.80502	1127908
8.81315	954407
8.82127	739485
8.82940	568538
8.83752	465623
8.84563	426374
8.85377	418955
8.86188	412865
8.87002	401060
8.87813	376747
8.88625	366928
8.89438	352149
8.90250	327807
8.91063	329719
8.91875	311774
8.92687	300933
8.93500	301489
8.94312	315099
8.95123	323983
8.95937	322740
8.96748	310687
8.97562	302285
8.98373	270688
8.99185	261030
8.99998	249947
9.00810	249828
9.01623	231918
9.02435	229902
9.03247	214949
9.04060	215761
9.04872	212901
9.05683	208092
9.06497	202429
9.07308	206472
9.08122	197553
9.08933	199285
9.09745	190622
9.10558	197481
9.11370	211063
9.12183	210073
9.12995	205907
9.13807	208356
9.14620	205457
9.15432	226218
9.16245	233696
9.17057	235326
9.17868	233517
9.18682	222264
9.19493	195030
9.20305	183024
9.21118	183835
9.21930	182408
9.22743	174859
9.23555	174964
9.24367	168032
9.25180	163532
9.25992	161598
9.26805	156234
9.27617	158345
9.28428	157472
9.29242	149506
9.30053	148513
9.30867	150252
9.31678	145912
9.32490	143175
9.33303	133518
9.34115	131781
9.34927	129549
9.35740	132127
9.36552	126228
9.37365	123129
9.38177	123481
9.38988	128162
9.39802	129171
9.40613	129229
9.41427	138358
9.42238	146308
9.43050	150395
9.43863	167933
9.44675	194867
9.45487	215817
9.46300	234578
9.47112	235967
9.47925	199045
9.48737	181516
9.49548	157551
9.50362	142685
9.51173	130690
9.51987	131627
9.52798	130586
9.53610	132223
9.54423	133092
9.55235	128297
9.56048	127062
9.56860	108519
9.57672	106963
9.58485	103692
9.59297	105133
9.60108	107319
9.60922	102195
9.61733	104050
9.62547	99955
9.63358	88158
9.64170	89166
9.64983	82436
9.65795	87410
9.66608	77257
9.67420	75716
9.68232	73789
9.69045	79556
9.69857	74716
9.70670	76030
9.71482	75710
9.72293	83667
9.73107	83324
9.73918	85868
9.74730	80420
9.75543	74300
9.76355	78694
9.77168	77897
9.77980	73987
9.78792	77372
9.79605	69806
9.80417	70858
9.81230	74349
9.82042	66185
9.82853	64410
9.83667	70201
9.84478	65949
9.85290	72992
9.86103	77277
9.86915	80323
9.87728	94144
9.88540	88174
9.89352	91101
9.90165	85701
9.90977	82514
9.91790	84213
9.92602	88165
9.93413	84457
9.94227	89185
9.95038	96656
9.95852	103743
9.96663	108145
9.97475	108749
9.98288	110581
9.99100	107313
9.99912	109496
10.00725	114179
10.01537	120251
10.02350	115336
10.03162	113962
10.03973	104949
10.04787	109043
10.05598	102741
10.06412	99605
10.07223	104129
10.08035	94829
10.08848	92865
10.09660	94682
10.10472	92898
10.11285	89278
10.12097	87327
10.12910	90010
10.13722	84547
10.14533	77525
10.15347	81223
10.16158	83991
10.16972	80529
10.17783	79838
10.18595	75000
10.19408	76153
10.20220	68697
10.21033	77428
10.21845	76253
10.22657	77092
10.23470	78411
10.24282	82694
10.25093	96332
10.25907	146305
10.26718	349322
10.27532	980051
10.28343	2465463
10.29155	5137623
10.29968	8613156
10.30780	1.199799E+07
10.31593	1.554021E+07
10.32405	1.892538E+07
10.33217	2.389339E+07
10.34030	3.009561E+07
10.34842	3.694984E+07
10.35655	4.172212E+07
10.36467	4.095063E+07
10.37278	3.293026E+07
10.38092	1.944131E+07
10.38903	9281501
10.39715	4945720
10.40528	3507085
10.41340	2827905
10.42153	2333263
10.42965	1905251
10.43777	1582193
10.44590	1379108
10.45402	1227779
10.46215	1132758
10.47027	1065366
10.47838	989214
10.48652	902438
10.49463	823716
10.50275	780510
10.51088	710208
10.51900	675249
10.52713	634071
10.53525	601645
10.54337	575245
10.55150	552025
10.55962	531820
10.56775	502036
10.57587	475240
10.58398	464501
10.59212	457341
10.60023	439211
10.60837	424552
10.61648	406634
10.62460	387006
10.63273	369649
10.64085	368599
10.64897	351345
10.65710	330883
10.66522	327384
10.67335	312127
10.68147	318251
10.68958	294261
10.69772	293855
10.70583	296530
10.71397	272479
10.72208	277141
10.73020	265089
10.73833	266586
10.74645	267415
10.75458	245643
10.76270	248356
10.77082	241837
10.77895	231200
10.78707	223390
10.79518	220402
10.80332	219665
10.81143	213622
10.81957	207596
10.82768	203829
10.83580	196364
10.84393	197129
10.85205	190982
10.86018	187350
10.86830	181214
10.87642	177865
10.88455	174532
10.89267	176486
10.90078	172471
10.90892	164184
10.91703	168567
10.92517	166557
10.93328	154641
10.94140	160346
10.94953	162327
10.95765	160873
10.96578	164446
10.97390	160967
10.98202	157370
10.99015	153843
10.99827	152854
11.00640	145160
11.01452	142460
11.02263	138123
11.03077	137319
11.03888	136771
11.04700	125066
11.05513	133767
11.06325	134605
11.07138	126927
11.07950	136363
11.08762	130400
11.09575	137179
11.10387	132667
11.11200	124180
11.12012	117061
11.12823	116986
11.13637	115690
11.14448	100620
11.15260	104511
11.16073	107968
11.16885	101975
11.17698	108064
11.18510	105330
11.19322	103159
11.20135	105481
11.20947	106536
11.21760	101888
11.22572	96496
11.23383	97073
11.24197	87315
11.25008	91425
11.25822	86624
11.26633	83042
11.27445	82456
11.28258	77214
11.29070	81382
11.29882	78026
11.30695	83671
11.31507	105279
11.32320	139583
11.33132	181833
11.33943	242812
11.34757	284605
11.35568	285493
11.36382	257922
11.37193	223081
11.38005	176355
11.38818	147444
11.39630	135744
11.40443	141205
11.41255	143463
11.42067	143330
11.42880	136587
11.43692	124926
11.44503	118659
11.45317	117938
11.46128	112954
11.46942	110809
11.47753	111444
11.48565	113999
11.49378	127704
11.50190	134939
11.51003	148819
11.51815	148640
11.52627	164689
11.53440	185862
11.54252	232982
11.55065	263835
11.55877	259187
11.56688	225989
11.57502	199009
11.58313	171299
11.59125	153957
11.59938	150087
11.60750	174329
11.61563	201879
11.62375	231851
11.63187	236264
11.64000	231327
11.64812	199104
11.65625	179060
11.66437	159209
11.67248	146896
11.68062	134527
11.68873	127817
11.69685	118633
11.70498	109904
11.71310	105943
11.72123	101133
11.72935	93199
11.73747	90720
11.74560	88990
11.75372	91209
11.76185	89470
11.76997	89220
11.77808	82007
11.78622	78843
11.79433	79186
11.80247	82087
11.81058	78313
11.81870	76197
11.82683	78838
11.83495	80632
11.84307	81422
11.85120	89483
11.85932	89490
11.86745	92130
11.87557	97455
11.88368	89730
11.89182	82108
11.89993	88947
11.90807	87885
11.91618	107636
11.92430	130239
11.93243	149797
11.94055	165648
11.94867	158425
11.95680	156030
11.96492	135711
11.97305	137490
11.98117	202839
11.98928	395876
11.99742	797635
12.00553	1488929
12.01367	2074880
12.02178	2609396
12.02990	3079920
12.03803	3396561
12.04615	3603902
12.05428	3448836
12.06240	3132046
12.07052	2326716
12.07865	1753881
12.08677	1371658
12.09488	1223648
12.10302	1055202
12.11113	980118
12.11927	922185
12.12738	867245
12.13550	892733
12.14363	808001
12.15175	779075
12.15988	726320
12.16800	706638
12.17612	699897
12.18425	647054
12.19237	639422
12.20050	617819
12.20862	586451
12.21673	574554
12.22487	559913
12.23298	560720
12.24110	547238
12.24923	533615
12.25735	568084
12.26548	587890
12.27360	593235
12.28172	592136
12.28985	547055
12.29797	503302
12.30610	477610
12.31422	447507
12.32233	452367
12.33047	458037
12.33858	418260
12.34670	412833
12.35483	408455
12.36295	418316
12.37108	381193
12.37920	368917
12.38732	358868
12.39545	370608
12.40357	349709
12.41170	344936
12.41982	362552
12.42793	355765
12.43607	360447
12.44418	353878
12.45232	341747
12.46043	332080
12.46855	314163
12.47668	317491
12.48480	302948
12.49292	292846
12.50105	300690
12.50917	301176
12.51730	304988
12.52542	313363
12.53353	296743
12.54167	296399
12.54978	286996
12.55792	282485
12.56603	278053
12.57415	265993
12.58228	251759
12.59040	252377
12.59853	260409
12.60665	242976
12.61477	243148
12.62290	231269
12.63102	229875
12.63913	241021
12.64727	222850
12.65538	221758
12.66352	226053
12.67163	201714
12.67975	183134
12.68788	167714
12.69600	138067
12.70413	127787
12.71225	113665
12.72037	109190
12.72850	110812
12.73662	114389
12.74473	112683
12.75287	105985
12.76098	104997
12.76912	95593
12.77723	98390
12.78535	102320
12.79348	93195
12.80160	98081
12.80973	93430
12.81785	86699
12.82597	92933
12.83410	89489
12.84222	85001
12.85035	87270
12.85847	81179
12.86658	83439
12.87472	81839
12.88283	80832
12.89095	77269
12.89908	78402
12.90720	74656
12.91533	76430
12.92345	74250
12.93157	75355
12.93970	75617
12.94782	76893
12.95595	77494
12.96407	85144
12.97218	79976
12.98032	89616
12.98843	90614
12.99655	90293
13.00468	90107
13.01280	89091
13.02093	88783
13.02905	83626
13.03717	81619
13.04530	79645
13.05342	79804
13.06155	76110
13.06967	76955
13.07778	74924
13.08592	81649
13.09403	82055
13.10217	83928
13.11028	85817
13.11840	78900
13.12653	74907
13.13465	74887
13.14277	71282
13.15090	73592
13.15902	68479
13.16715	74494
13.17527	82377
13.18338	77899
13.19152	78624
13.19963	79555
13.20777	84716
13.21588	85973
13.22400	82838
13.23213	82009
13.24025	77683
13.24838	77431
13.25650	72267
13.26462	71389
13.27275	76554
13.28087	72550
13.28898	68123
13.29712	72383
13.30523	68620
13.31337	67337
13.32148	68242
13.32960	70346
13.33773	65094
13.34585	63006
13.35398	67293
13.36210	65911
13.37022	70826
13.37835	67063
13.38647	64572
13.39458	59230
13.40272	61815
13.41083	62278
13.41897	61229
13.42708	64029
13.43520	60656
13.44333	67262
13.45145	63989
13.45958	60953
13.46770	63169
13.47582	64543
13.48395	65854
13.49207	57348
13.50020	63238
13.50832	59895
13.51643	63778
13.52457	66194
13.53268	71695
13.54080	63748
13.54893	67460
13.55705	65540
13.56518	63380
13.57330	67762
13.58142	72172
13.58955	77149
13.59767	85577
13.60580	106816
13.61392	130365
13.62203	161369
13.63017	176509
13.63828	178936
13.64642	178446
13.65453	156346
13.66265	137893
13.67078	112712
13.67890	99991
13.68702	99375
13.69515	96182
13.70327	82927
13.71140	78994
13.71952	82652
13.72763	75792
13.73577	79457
13.74388	95351
13.75202	149473
13.76013	250673
13.76825	461644
13.77638	732823
13.78450	1091102
13.79262	1538807
13.80075	2017832
13.80887	2478673
13.81700	2657153
13.82512	2636172
13.83323	2268951
13.84137	1908900
13.84948	1478143
13.85762	1128309
13.86573	928120
13.87385	819649
13.88198	770380
13.89010	711685
13.89823	644210
13.90635	599273
13.91447	567438
13.92260	541383
13.93072	495223
13.93883	473941
13.94697	455078
13.95508	487213
13.96322	494292
13.97133	572614
13.97945	659116
13.98758	817173
13.99570	1000157
14.00383	1211766
14.01195	1398029
14.02007	1507639
14.02820	1547868
14.03632	1267884
14.04445	1012535
14.05257	873015
14.06068	698336
14.06882	636345
14.07693	604517
14.08505	602306
14.09318	572932
14.10130	535780
14.10943	514238
14.11755	505757
14.12567	535298
14.13380	502390
14.14192	542896
14.15005	612530
14.15817	648697
14.16628	703132
14.17442	759016
14.18253	825585
14.19065	872028
14.19878	897068
14.20690	825341
14.21503	773281
14.22315	688818
14.23127	628163
14.23940	580427
14.24752	538977
14.25565	509852
14.26377	475495
14.27188	445920
14.28002	400625
14.28813	368084
14.29627	359637
14.30438	330225
14.31250	330267
14.32063	304327
14.32875	292969
14.33687	284307
14.34500	276553
14.35312	259509
14.36125	252354
14.36937	234601
14.37748	226029
14.38562	216475
14.39373	206653
14.40187	207098
14.40998	201900
14.41810	203503
14.42623	217312
14.43435	204543
14.44247	214178
14.45060	200383
14.45872	181381
14.46685	164764
14.47497	156236
14.48308	152607
14.49122	136637
14.49933	132839
14.50747	139714
14.51558	138579
14.52370	146750
14.53183	148256
14.53995	154487
14.54808	188650
14.55620	193759
14.56432	206243
14.57245	209079
14.58057	198304
14.58868	181244
14.59682	158872
14.60493	143048
14.61307	130907
14.62118	119444
14.62930	117489
14.63743	113646
14.64555	108880
14.65368	108965
14.66180	107890
14.66992	113466
14.67805	101527
14.68617	101591
14.69430	100965
14.70242	97318
14.71053	104200
14.71867	95518
14.72678	97049
14.73490	105159
14.74303	103602
14.75115	103844
14.75928	107074
14.76740	111052
14.77552	110148
14.78365	112280
14.79177	107230
14.79990	106780
14.80802	122129
14.81613	168687
14.82427	325666
14.83238	730922
14.84050	1609045
14.84863	2727446
14.85675	3803716
14.86488	4223489
14.87300	3808044
14.88112	3003705
14.88925	2052000
14.89737	1331548
14.90550	919645
14.91362	716115
14.92173	608526
14.92987	544440
14.93798	475783
14.94612	424735
14.95423	396530
14.96235	362140
14.97048	343613
14.97860	315525
14.98672	295849
14.99485	279897
15.00297	267842
15.01110	258273
15.01922	245189
15.02733	238381
15.03547	227252
15.04358	213639
15.05172	210490
15.05983	202098
15.06795	195962
15.07608	185176
15.08420	188141
15.09233	192231
15.10045	182467
15.10857	178837
15.11670	183404
15.12482	171795
15.13293	166592
15.14107	173447
15.14918	171242
15.15732	185900
15.16543	201083
15.17355	205595
15.18168	198672
15.18980	183400
15.19793	159153
15.20605	134941
15.21417	118997
15.22230	113640
15.23042	102911
15.23853	106765
15.24667	107846
15.25478	91661
15.26292	92577
15.27103	88417
15.27915	87016
15.28728	87958
15.29540	83372
15.30353	80498
15.31165	78228
15.31977	81214
15.32790	79483
15.33602	73107
15.34415	79276
15.35227	83680
15.36038	79791
15.36852	79291
15.37663	79765
15.38475	80016
15.39288	76551
15.40100	77555
15.40913	83669
15.41725	78798
15.42537	80553
15.43350	77428
15.44162	73247
15.44975	79027
15.45787	77823
15.46598	75548
15.47412	75337
15.48223	80206
15.49035	85549
15.49848	92180
15.50660	95490
15.51473	97157
15.52285	108539
15.53097	106250
15.53910	110162
15.54722	115110
15.55535	113675
15.56347	115579
15.57158	100389
15.57972	97961
15.58783	88761
15.59597	76387
15.60408	82416
15.61220	73194
15.62033	78378
15.62845	71626
15.63657	76265
15.64470	69064
15.65282	67096
15.66095	71441
15.66907	70635
15.67718	71814
15.68532	72231
15.69343	71490
15.70157	71677
15.70968	63922
15.71780	62721
15.72593	66047
15.73405	67876
15.74218	67438
15.75030	66969
15.75842	75782
15.76655	85549
15.77467	93461
15.78278	144072
15.79092	254873
15.79903	459276
15.80717	758747
15.81528	1027525
15.82340	1150174
15.83153	1068422
15.83965	864152
15.84778	648097
15.85590	468028
15.86402	361521
15.87215	294346
15.88027	258218
15.88840	222681
15.89652	205548
15.90463	191427
15.91277	187603
15.92088	163662
15.92900	169175
15.93713	159191
15.94525	151935
15.95338	150933
15.96150	147925
15.96962	136975
15.97775	145344
15.98587	139996
15.99400	154863
16.00212	186826
16.01023	225025
16.01837	260611
16.02648	292387
16.03460	297603
16.04273	275542
16.05085	238804
16.05898	215565
16.06710	194832
16.07522	170327
16.08335	158957
16.09147	145710
16.09960	133889
16.10772	133220
16.11583	135564
16.12397	151147
16.13208	176833
16.14022	217884
16.14833	246232
16.15645	270756
16.16458	258927
16.17270	227463
16.18082	189059
16.18895	164655
16.19707	140526
16.20520	125048
16.21332	117206
16.22143	122526
16.22957	116022
16.23768	113397
16.24582	112234
16.25393	104558
16.26205	107044
16.27018	100354
16.27830	99818
16.28642	100023
16.29455	99564
16.30267	100122
16.31080	96569
16.31892	92576
16.32703	92760
16.33517	91503
16.34328	89112
16.35142	80657
16.35953	80541
16.36765	82813
16.37578	79731
16.38390	79956
16.39203	89168
16.40015	106550
16.40827	137444
16.41640	179354
16.42452	247798
16.43263	298219
16.44077	348177
16.44888	355963
16.45702	323590
16.46513	258510
16.47325	224732
16.48138	220062
16.48950	284718
16.49763	435983
16.50575	640854
16.51387	811436
16.52200	902702
16.53012	825395
16.53825	654606
16.54637	499246
16.55448	358011
16.56262	274923
16.57073	235378
16.57885	211277
16.58698	184213
16.59510	181092
16.60323	163569
16.61135	159053
16.61947	148354
16.62760	146494
16.63572	151054
16.64385	140003
16.65197	133186
16.66008	131374
16.66822	131059
16.67633	126667
16.68445	126617
16.69258	118424
16.70070	109253
16.70883	107663
16.71695	106606
16.72507	101003
16.73320	97210
16.74132	90158
16.74945	87341
16.75757	87521
16.76568	86124
16.77382	83163
16.78193	85427
16.79007	83912
16.79818	89605
16.80630	88328
16.81443	91106
16.82255	86359
16.83067	82670
16.83880	76947
16.84692	77265
16.85505	81888
16.86317	80734
16.87128	78640
16.87942	81262
16.88753	84006
16.89567	77006
16.90378	78680
16.91190	85465
16.92003	79109
16.92815	75203
16.93628	69818
16.94440	74471
16.95252	71133
16.96065	71140
16.96877	71047
16.97688	69581
16.98502	72720
16.99313	71931
17.00127	72020
17.00938	72373
17.01750	74410
17.02563	72385
17.03375	68069
17.04188	70098
17.05000	69399
17.05812	71814
17.06625	75707
17.07437	78106
17.08248	81005
17.09062	81618
17.09873	84737
17.10687	87361
17.11498	76403
17.12310	78686
17.13123	82467
17.13935	87020
17.14748	87196
17.15560	88745
17.16372	88211
17.17185	83893
17.17997	84650
17.18810	84305
17.19622	77824
17.20433	75481
17.21247	78280
17.22058	70001
17.22870	76233
17.23683	71109
17.24495	68643
17.25308	68768
17.26120	70698
17.26932	68792
17.27745	69304
17.28557	70917
17.29370	71032
17.30182	67804
17.30993	68815
17.31807	68834
17.32618	68118
17.33430	69972
17.34243	70788
17.35055	78788
17.35868	94718
17.36680	106406
17.37492	123158
17.38305	132240
17.39117	135803
17.39930	137263
17.40742	134070
17.41553	1345282
17.42367	5.114796E+07
17.43178	5.153626E+07
17.43992	5.07242E+07
17.44803	5.067689E+07
17.45615	5.013365E+07
17.46428	4.950287E+07
17.47240	4.88362E+07
17.48052	4.838536E+07
17.48865	4.780205E+07
17.49677	4.751841E+07
17.50490	4.667377E+07
17.51302	4.650475E+07
17.52113	4.557629E+07
17.52927	4.494404E+07
17.53738	4.415033E+07
17.54552	4.376798E+07
17.55363	4.326403E+07
17.56175	4.210952E+07
17.56988	4.152548E+07
17.57800	4.070207E+07
17.58613	3.962314E+07
17.59425	3.881174E+07
17.60237	3.849499E+07
17.61050	3.747904E+07
17.61862	3.672472E+07
17.62673	3.613532E+07
17.63487	3.575923E+07
17.64298	3.500552E+07
17.65112	3.419768E+07
17.65923	3.320405E+07
17.66735	3.134003E+07
17.67548	2.960884E+07
17.68360	2.772413E+07
17.69173	2.614709E+07
17.69985	2.498691E+07
17.70797	2.386762E+07
17.71610	2.247467E+07
17.72422	2.100465E+07
17.73233	1.995815E+07
17.74047	1.895676E+07
17.74858	1.760455E+07
17.75672	1.647251E+07
17.76483	1.552157E+07
17.77295	1.449503E+07
17.78108	1.364963E+07
17.78920	1.280725E+07
17.79733	1.21365E+07
17.80545	1.117372E+07
17.81357	1.060782E+07
17.82170	1.006842E+07
17.82982	9442791
17.83795	9046992
17.84607	8598767
17.85418	8040618
17.86232	7509913
17.87043	7026801
17.87855	6849312
17.88668	6603365
17.89480	6378142
17.90293	6023614
17.91105	5741973
17.91917	5313684
17.92730	5119061
17.93542	4978439
17.94355	4810122
17.95167	4735937
17.95978	4536606
17.96792	4314427
17.97603	4119279
17.98417	3932672
17.99228	3850197
18.00040	3768305
18.00853	3648857
18.01665	3547612
18.02477	3399132
18.03290	3302076
18.04102	3266437
18.04915	3220411
18.05727	3106986
18.06538	2994695
18.07352	2901561
18.08163	2772713
18.08977	2736518
18.09788	2671099
18.10600	2574090
18.11413	2522279
18.12225	2454565
18.13037	2405993
18.13850	2338131
18.14662	2264020
18.15475	2157196
18.16287	2160162
18.17098	2081996
18.17912	2000147
18.18723	1917900
18.19537	1900864
18.20348	1850987
18.21160	1793329
18.21973	1735322
18.22785	1666247
18.23598	1612616
18.24410	1597311
18.25222	1548217
18.26035	1496253
18.26847	1478918
18.27658	1438053
18.28472	1386937
18.29283	1361054
18.30097	1324708
18.30908	1263811
18.31720	1230452
18.32533	1205828
18.33345	1170757
18.34158	1162972
18.34970	1092966
18.35782	1084150
18.36595	1064357
18.37407	1036490
18.38218	1025355
18.39032	1003569
18.39843	961736
18.40657	954415
18.41468	935612
18.42280	927312
18.43093	905513
18.43905	905555
18.44718	901666
18.45530	934145
18.46342	1034778
18.47155	1174812
18.47967	1404134
18.48780	1687808
18.49592	1856429
18.50403	1821748
18.51217	1669068
18.52028	1458240
18.52840	1221617
18.53653	1050519
18.54465	949310
18.55278	870198
18.56090	824806
18.56902	792788
18.57715	762787
18.58527	743951
18.59340	712451
18.60152	682894
18.60963	687077
18.61777	682604
18.62588	679847
18.63402	676311
18.64213	657105
18.65025	631968
18.65838	624532
18.66650	613502
18.67462	601775
18.68275	598846
18.69087	580259
18.69900	566421
18.70712	572500
18.71523	560605
18.72337	549016
18.73148	539064
18.73962	531594
18.74773	537341
18.75585	528037
18.76398	524495
18.77210	510393
18.78022	499886
18.78835	489753
18.79647	487107
18.80460	481227
18.81272	483481
18.82083	469980
18.82897	469417
18.83708	464251
18.84522	455789
18.85333	457312
18.86145	448384
18.86958	450969
18.87770	436176
18.88583	435610
18.89395	429562
18.90207	424535
18.91020	431054
18.91832	425714
18.92643	429529
18.93457	431294
18.94268	437130
18.95082	457356
18.95893	477960
18.96705	500798
18.97518	511739
18.98330	506800
18.99143	495121
18.99955	468199
19.00767	449295
19.01580	430645
19.02392	429324
19.03205	415571
19.04017	412769
19.04828	414100
19.05642	391155
19.06453	399067
19.07265	397000
19.08078	400452
19.08890	424322
19.09703	451540
19.10515	495933
19.11327	522765
19.12140	535635
19.12952	518295
19.13765	498053
19.14577	463070
19.15388	431067
19.16202	421684
19.17013	403831
19.17825	392409
19.18638	382370
19.19450	370746
19.20263	360863
19.21075	362907
19.21887	356115
19.22700	346611
19.23512	350924
19.24325	341894
19.25137	340402
19.25948	330131
19.26762	319463
19.27573	328685
19.28387	333537
19.29198	325493
19.30010	323062
19.30823	329196
19.31635	327494
19.32447	328661
19.33260	338456
19.34072	323759
19.34885	313868
19.35697	302711
19.36508	312623
19.37322	313191
19.38133	313536
19.38947	308174
19.39758	304067
19.40570	297425
19.41383	301142
19.42195	299113
19.43008	295382
19.43820	297188
19.44632	293901
19.45445	298044
19.46257	291232
19.47068	288049
19.47882	302983
19.48693	313735
19.49507	346353
19.50318	386708
19.51130	442549
19.51943	485027
19.52755	499036
19.53568	491182
19.54380	426061
19.55192	358084
19.56005	313594
19.56817	292091
19.57628	276282
19.58442	265690
19.59253	262139
19.60067	260976
19.60878	268102
19.61690	269136
19.62503	266101
19.63315	269387
19.64128	288071
19.64940	338405
19.65752	407594
19.66565	504976
19.67377	616602
19.68190	670995
19.69002	689181
19.69813	681203
19.70627	623362
19.71438	556334
19.72250	496312
19.73063	446157
19.73875	416230
19.74688	386567
19.75500	366657
19.76312	330636
19.77125	309668
19.77937	299082
19.78750	293243
19.79562	282517
19.80373	285716
19.81187	294926
19.81998	283485
19.82810	283462
19.83623	274938
19.84435	265647
19.85248	269745
19.86060	260694
19.86872	267381
19.87685	276584
19.88497	311567
19.89310	364398
19.90122	443119
19.90933	486924
19.91747	552296
19.92558	541363
19.93372	527502
19.94183	506148
19.94995	500695
19.95808	477981
19.96620	458669
19.97432	444173
19.98245	438432
19.99057	428933
19.99870	410676
20.00682	410010
20.01493	408298
20.02307	409238
20.03118	395454
20.03932	391820
20.04743	380710
20.05555	354711
20.06368	320265
20.07180	301503
20.07993	291124
20.08805	279236
20.09617	279545
20.10430	271227
20.11242	275346
20.12053	262805
20.12867	254833
20.13678	249987
20.14492	247772
20.15303	251791
20.16115	261382
20.16928	270059
20.17740	282858
20.18553	303824
20.19365	305658
20.20177	319943
20.20990	324101
20.21802	321935
20.22613	322667
20.23427	308812
20.24238	306369
20.25052	313257
20.25863	343816
20.26675	391078
20.27488	468447
20.28300	558802
20.29113	592562
20.29925	603198
20.30737	568163
20.31550	507366
20.32362	439916
20.33175	385620
20.33987	349546
20.34798	314799
20.35612	285089
20.36423	263977
20.37235	258719
20.38048	261076
20.38860	259180
20.39673	268072
20.40485	292380
20.41297	314138
20.42110	325221
20.42922	336052
20.43735	325926
20.44547	317868
20.45358	311645
20.46172	307107
20.46983	306431
20.47797	284606
20.48608	276697
20.49420	259126
20.50233	249165
20.51045	237695
20.51857	228549
20.52670	225066
20.53482	216880
20.54295	217283
20.55107	210622
20.55918	209753
20.56732	209425
20.57543	198393
20.58357	206586
20.59168	199839
20.59980	209526
20.60793	196706
20.61605	201027
20.62417	197417
20.63230	196018
20.64042	190869
20.64855	193174
20.65667	199604
20.66478	197782
20.67292	191474
20.68103	196723
20.68917	194200
20.69728	189868
20.70540	190057
20.71353	195402
20.72165	190360
20.72978	190604
20.73790	191778
20.74602	194664
20.75415	192209
20.76227	200539
20.77038	193472
20.77852	197245
20.78663	210311
20.79477	217281
20.80288	240653
20.81100	268676
20.81913	303276
20.82725	332401
20.83538	339671
20.84350	316008
20.85162	276421
20.85975	259448
20.86787	236835
20.87598	222730
20.88412	205533
20.89223	207746
20.90037	199678
20.90848	189957
20.91660	191662
20.92473	194628
20.93285	192046
20.94098	190657
20.94910	186674
20.95722	189292
20.96535	192906
20.97347	189636
20.98160	178906
20.98972	186627
20.99783	197175
21.00597	187934
21.01408	176948
21.02220	179126
21.03033	183391
21.03845	180408
21.04658	189325
21.05470	180389
21.06282	175244
21.07095	175861
21.07907	173361
21.08720	176319
21.09532	181652
21.10343	180881
21.11157	177270
21.11968	174332
21.12782	181303
21.13593	186279
21.14405	204983
21.15218	223292
21.16030	252927
21.16842	271550
21.17655	289759
21.18467	285522
21.19280	256174
21.20092	241545
21.20903	228241
21.21717	218946
21.22528	206618
21.23342	194707
21.24153	202759
21.24965	187315
21.25778	188016
21.26590	189527
21.27403	184642
21.28215	173392
21.29027	183976
21.29840	174679
21.30652	176031
21.31463	177839
21.32277	176725
21.33088	172835
21.33902	173986
21.34713	162413
21.35525	171848
21.36338	162265
21.37150	167798
21.37963	164761
21.38775	163970
21.39587	161053
21.40400	160228
21.41212	165888
21.42023	160570
21.42837	167585
21.43648	169434
21.44462	167486
21.45273	167157
21.46085	155987
21.46898	159339
21.47710	157391
21.48523	157982
21.49335	154448
21.50147	155860
21.50960	151167
21.51772	154412
21.52585	146611
21.53397	142958
21.54208	144077
21.55022	144633
21.55833	140527
21.56645	137434
21.57458	138456
21.58270	144137
21.59083	137244
21.59895	143540
21.60707	145808
21.61520	147362
21.62332	160135
21.63145	176713
21.63957	183479
21.64768	197942
21.65582	203082
21.66393	204611
21.67205	200086
21.68018	195347
21.68830	182590
21.69643	173462
21.70455	167914
21.71267	160491
21.72080	148872
21.72892	154127
21.73705	144760
21.74517	154596
21.75328	145196
21.76142	140924
21.76953	145766
21.77767	146049
21.78578	145834
21.79390	151127
21.80203	147602
21.81015	152878
21.81827	157055
21.82640	171236
21.83452	177649
21.84265	187760
21.85077	189178
21.85888	197735
21.86702	181011
21.87513	171833
21.88327	166516
21.89138	144718
21.89950	140091
21.90763	132434
21.91575	136853
21.92388	128346
21.93200	126319
21.94012	116073
21.94825	123172
21.95637	120675
21.96448	116082
21.97262	116686
21.98073	118484
21.98887	108468
21.99698	108190
22.00510	109076
22.01323	114601
22.02135	110234
22.02948	116791
22.03760	117555
22.04572	120441
22.05385	122866
22.06197	130418
22.07008	138743
22.07822	136771
22.08633	153833
22.09447	154988
22.10258	163823
22.11070	164461
22.11883	178811
22.12695	175283
22.13508	181807
22.14320	180569
22.15132	194560
22.15945	205119
22.16757	198359
22.17570	214176
22.18382	217099
22.19193	221710
22.20007	219135
22.20818	212188
22.21630	213091
22.22443	203285
22.23255	203129
22.24068	191050
22.24880	193817
22.25692	192484
22.26505	180106
22.27317	180210
22.28130	176002
22.28942	174251
22.29753	174903
22.30567	173868
22.31378	172502
22.32192	170563
22.33003	176600
22.33815	176982
22.34628	163254
22.35440	173955
22.36252	165921
22.37065	167205
22.37877	167941
22.38690	171477
22.39502	173036
22.40313	173341
22.41127	188150
22.41938	197597
22.42752	200468
22.43563	205244
22.44375	190331
22.45188	189162
22.46000	173180
22.46812	159614
22.47625	149822
22.48437	139407
22.49250	133013
22.50062	136549
22.50873	129549
22.51687	122733
22.52498	126078
22.53312	126002
22.54123	123856
22.54935	119444
22.55748	119264
22.56560	118489
22.57373	115784
22.58185	113797
22.58997	108666
22.59810	107815
22.60622	101499
22.61433	101530
22.62247	105756
22.63058	98554
22.63872	101494
22.64683	104822
22.65495	103122
22.66308	104439
22.67120	110098
22.67933	103019
22.68745	106622
22.69557	109508
22.70370	113813
22.71182	108285
22.71993	120726
22.72807	129853
22.73618	145440
22.74432	157861
22.75243	162046
22.76055	168097
22.76868	172316
22.77680	170411
22.78493	176179
22.79305	172745
22.80117	186923
22.80930	185965
22.81742	186454
22.82555	192293
22.83367	188352
22.84178	196937
22.84992	200744
22.85803	196344
22.86615	198430
22.87428	205794
22.88240	205683
22.89053	206439
22.89865	219906
22.90677	235954
22.91490	245478
22.92302	276451
22.93115	295733
22.93927	308133
22.94738	305207
22.95552	283612
22.96363	268566
22.97177	247001
22.97988	232842
22.98800	220442
22.99613	212533
23.00425	209547
23.01237	197785
23.02050	203642
23.02862	202803
23.03675	202459
23.04487	194192
23.05298	180133
23.06112	177617
23.06923	177892
23.07737	177529
23.08548	172690
23.09360	172099
23.10173	170257
23.10985	168823
23.11797	168012
23.12610	161911
23.13422	177733
23.14235	166038
23.15047	181829
23.15858	172082
23.16672	169247
23.17483	165562
23.18297	166732
23.19108	166717
23.19920	164467
23.20733	163789
23.21545	160759
23.22358	154616
23.23170	155400
23.23982	153956
23.24795	156803
23.25607	155189
23.26418	157613
23.27232	156189
23.28043	160645
23.28857	161029
23.29668	153944
23.30480	150652
23.31293	149028
23.32105	151257
23.32918	143660
23.33730	147028
23.34542	154423
23.35355	161929
23.36167	170066
23.36980	180884
23.37792	191301
23.38603	191874
23.39417	188869
23.40228	181864
23.41040	183310
23.41853	173410
23.42665	175995
23.43478	170698
23.44290	168005
23.45102	158172
23.45915	162986
23.46727	165858
23.47540	156457
23.48352	154007
23.49163	155073
23.49977	153761
23.50788	152859
23.51600	163038
23.52413	155637
23.53225	149452
23.54038	153053
23.54850	149275
23.55662	155624
23.56475	149174
23.57287	163869
23.58100	156653
23.58912	170714
23.59723	170665
23.60537	179122
23.61348	179809
23.62162	185925
23.62973	171608
23.63785	165883
23.64598	154782
23.65410	157038
23.66222	152651
23.67035	153585
23.67847	150037
23.68660	149335
23.69472	149015
23.70283	145708
23.71097	135659
23.71908	140590
23.72722	145963
23.73533	134652
23.74345	150868
23.75158	203010
23.75970	337766
23.76782	654477
23.77595	1285124
23.78407	2193622
23.79220	3182451
23.80032	3813061
23.80843	3819247
23.81657	3265986
23.82468	2609562
23.83282	1959918
23.84093	1490857
23.84905	1133979
23.85718	903815
23.86530	718438
23.87343	616934
23.88155	527233
23.88967	459169
23.89780	424982
23.90592	391209
23.91403	372775
23.92217	353505
23.93028	328599
23.93842	310902
23.94653	310439
23.95465	290316
23.96278	271537
23.97090	261682
23.97903	244929
23.98715	234958
23.99527	251458
24.00340	320997
24.01152	528194
24.01965	982483
24.02777	1614673
24.03588	2311984
24.04402	2765199
24.05213	2717485
24.06025	2181816
24.06838	1476350
24.07650	919615
24.08463	565111
24.09275	374239
24.10087	276061
24.10900	229610
24.11712	203446
24.12525	195335
24.13337	201989
24.14148	202396
24.14962	210293
24.15773	211257
24.16585	211165
24.17398	206074
24.18210	191660
24.19023	187415
24.19835	177538
24.20647	173709
24.21460	162813
24.22272	167924
24.23085	173271
24.23897	164239
24.24708	159163
24.25522	156240
24.26333	140332
24.27147	134453
24.27958	131344
24.28770	136891
24.29583	120782
24.30395	131902
24.31207	132812
24.32020	131528
24.32832	129170
24.33645	132147
24.34457	144934
24.35268	174183
24.36082	202335
24.36893	222067
24.37707	241900
24.38518	274872
24.39330	308374
24.40143	341184
24.40955	372680
24.41768	401272
24.42580	398017
24.43392	371156
24.44205	346621
24.45017	330645
24.45828	321360
24.46642	320435
24.47453	308749
24.48267	312465
24.49078	312896
24.49890	325681
24.50703	340038
24.51515	345968
24.52328	346597
24.53140	346646
24.53952	355614
24.54765	340850
24.55577	325454
24.56388	329202
24.57202	332984
24.58013	317510
24.58827	322068
24.59638	314638
24.60450	318727
24.61263	320459
24.62075	311217
24.62888	302122
24.63700	306619
24.64512	304019
24.65325	300694
24.66137	297068
24.66950	303337
24.67762	292615
24.68573	295038
24.69387	284332
24.70198	286986
24.71010	284244
24.71823	277796
24.72635	281362
24.73448	283187
24.74260	273482
24.75072	273392
24.75885	268865
24.76697	283293
24.77510	284035
24.78322	294108
24.79133	304882
24.79947	306088
24.80758	304018
24.81572	295090
24.82383	295014
24.83195	294811
24.84008	306320
24.84820	327768
24.85632	338036
24.86445	388209
24.87257	434241
24.88070	508644
24.88882	603029
24.89693	663151
24.90507	697101
24.91318	649172
24.92132	573717
24.92943	490106
24.93755	404628
24.94568	353819
24.95380	301607
24.96192	287611
24.97005	275910
24.97817	264435
24.98630	266373
24.99442	256181
25.00253	256048
25.01067	245952
25.01878	248334
25.02692	246401
25.03503	239923
25.04315	237517
25.05128	240089
25.05940	230610
25.06753	233608
25.07565	229701
25.08377	243271
25.09190	235596
25.10002	242889
25.10813	293877
25.11627	388036
25.12438	593078
25.13252	948949
25.14063	1417135
25.14875	1853929
25.15688	2125921
25.16500	2042630
25.17313	1752550
25.18125	1393017
25.18937	1022838
25.19750	744693
25.20562	539163
25.21373	412070
25.22187	341539
25.22998	313151
25.23812	324161
25.24623	381769
25.25435	511575
25.26248	714319
25.27060	922123
25.27873	1095391
25.28685	1141969
25.29497	1044693
25.30310	820330
25.31122	589969
25.31935	418168
25.32747	292066
25.33558	219825
25.34372	188838
25.35183	167710
25.35995	148173
25.36808	147244
25.37620	137932
25.38433	133372
25.39245	128357
25.40057	124661
25.40870	125898
25.41682	121897
25.42495	116390
25.43307	114283
25.44118	120597
25.44932	118517
25.45743	119402
25.46557	117261
25.47368	118476
25.48180	118026
25.48993	121522
25.49805	119776
25.50617	116214
25.51430	109973
25.52242	114706
25.53055	110081
25.53867	108139
25.54678	101999
25.55492	107589
25.56303	103698
25.57117	107336
25.57928	105684
25.58740	103015
25.59553	102899
25.60365	109600
25.61177	111674
25.61990	112442
25.62802	139723
25.63615	165467
25.64427	204221
25.65238	227519
25.66052	233517
25.66863	229915
25.67677	205426
25.68488	196065
25.69300	206083
25.70113	213334
25.70925	224666
25.71738	229317
25.72550	237571
25.73362	242015
25.74175	244046
25.74987	244895
25.75798	244474
25.76612	273903
25.77423	299923
25.78237	338467
25.79048	376307
25.79860	398363
25.80673	379898
25.81485	355262
25.82298	320388
25.83110	288457
25.83922	281456
25.84735	282870
25.85547	273286
25.86360	257781
25.87172	270970
25.87983	262450
25.88797	268439
25.89608	257654
25.90420	245230
25.91233	250922
25.92045	250535
25.92858	255589
25.93670	248380
25.94482	256101
25.95295	254516
25.96107	261900
25.96920	257788
25.97732	255979
25.98543	245367
25.99357	243939
26.00168	233076
26.00980	226075
26.01793	232457
26.02605	227703
26.03418	227608
26.04230	227251
26.05042	229973
26.05855	222569
26.06667	230255
26.07480	225779
26.08292	223892
26.09103	220354
26.09917	225726
26.10728	227659
26.11542	217494
26.12353	215079
26.13165	218368
26.13978	222397
26.14790	218568
26.15602	220964
26.16415	208667
26.17227	209294
26.18040	210061
26.18852	205807
26.19663	208195
26.20477	205519
26.21288	189055
26.22102	195185
26.22913	198128
26.23725	200579
26.24538	190663
26.25350	185288
26.26162	191726
26.26975	200151
26.27787	213496
26.28600	225140
26.29412	236619
26.30223	244096
26.31037	241287
26.31848	226286
26.32662	221945
26.33473	207466
26.34285	176980
26.35098	180193
26.35910	175574
26.36723	174740
26.37535	169212
26.38347	176915
26.39160	183230
26.39972	185638
26.40783	186793
26.41597	182150
26.42408	190534
26.43222	190184
26.44033	183416
26.44845	190914
26.45658	180870
26.46470	178024
26.47283	179366
26.48095	170654
26.48907	177294
26.49720	172102
26.50532	167089
26.51345	153930
26.52157	148304
26.52968	150725
26.53782	149464
26.54593	147714
26.55405	149660
26.56218	143687
26.57030	146585
26.57843	145081
26.58655	149150
26.59467	142041
26.60280	149482
26.61092	146230
26.61905	138176
26.62717	135915
26.63528	138432
26.64342	139457
26.65153	142067
26.65967	135444
26.66778	134352
26.67590	132974
26.68403	137378
26.69215	133207
26.70027	136292
26.70840	128021
26.71652	129176
26.72465	136368
26.73277	127564
26.74088	123069
26.74902	124338
26.75713	127817
26.76527	120608
26.77338	121190
26.78150	120585
26.78963	126993
26.79775	127826
26.80587	123962
26.81400	125801
26.82212	127711
26.83025	126346
26.83837	122980
26.84648	123741
26.85462	124747
26.86273	121465
26.87087	117991
26.87898	120174
26.88710	113557
26.89523	116924
26.90335	114407
26.91148	115077
26.91960	112451
26.92772	108872
26.93585	111727
26.94397	114047
26.95208	113728
26.96022	127157
26.96833	147997
26.97647	170709
26.98458	212868
26.99270	296639
27.00083	408025
27.00895	566750
27.01708	764416
27.02520	955334
27.03332	1053863
27.04145	1054874
27.04957	957925
27.05768	826567
27.06582	685952
27.07393	554036
27.08207	450705
27.09018	384402
27.09830	336054
27.10643	290478
27.11455	265991
27.12268	252924
27.13080	236916
27.13892	226679
27.14705	206028
27.15517	208114
27.16330	204687
27.17142	211096
27.17953	234932
27.18767	244227
27.19578	251752
27.20390	244289
27.21203	233123
27.22015	222689
27.22828	210580
27.23640	188926
27.24452	180346
27.25265	167517
27.26077	156878
27.26890	152165
27.27702	158780
27.28513	147404
27.29327	145086
27.30138	142542
27.30952	142486
27.31763	140410
27.32575	129016
27.33388	129229
27.34200	123589
27.35012	131588
27.35825	130727
27.36637	136356
27.37450	128765
27.38262	135904
27.39073	137249
27.39887	127219
27.40698	133100
27.41512	120476
27.42323	125179
27.43135	116792
27.43948	109292
27.44760	112790
27.45572	113888
27.46385	110188
27.47197	102289
27.48010	110234
27.48822	103272
27.49633	102434
27.50447	107186
27.51258	103899
27.52072	103924
27.52883	101418
27.53695	106543
27.54508	102808
27.55320	102087
27.56133	111565
27.56945	105817
27.57757	104892
27.58570	114914
27.59382	114260
27.60193	120578
27.61007	124423
27.61818	121329
27.62632	122521
27.63443	117359
27.64255	113152
27.65068	100628
27.65880	101653
27.66693	100078
27.67505	95257
27.68317	95501
27.69130	100463
27.69942	93249
27.70755	92012
27.71567	93026
27.72378	89480
27.73192	90420
27.74003	91481
27.74815	95271
27.75628	95999
27.76440	112719
27.77253	123409
27.78065	137082
27.78877	162276
27.79690	176153
27.80502	180136
27.81315	163746
27.82127	138574
27.82938	122766
27.83752	105455
27.84563	97895
27.85375	91933
27.86188	93905
27.87000	94058
27.87813	89288
27.88625	92919
27.89437	88100
27.90250	87100
27.91062	83557
27.91875	86505
27.92687	88703
27.93498	84716
27.94312	77967
27.95123	87051
27.95937	82237
27.96748	83646
27.97560	80465
27.98373	79168
27.99185	80210
27.99997	81460
28.00810	88804
28.01622	84842
28.02435	88107
28.03247	89530
28.04058	84949
28.04872	88866
28.05683	81346
28.06497	85850
28.07308	92345
28.08120	83243
28.08933	84995
28.09745	81559
28.10557	84629
28.11370	87462
28.12182	75480
28.12995	78344
28.13807	79517
28.14618	78725
28.15432	78083
28.16243	79843
28.17057	82006
28.17868	81493
28.18680	84620
28.19493	93691
28.20305	98755
28.21118	110787
28.21930	116809
28.22742	120570
28.23555	119129
28.24367	118926
28.25178	117215
28.25992	111475
28.26803	107793
28.27617	103660
28.28428	98667
28.29240	95056
28.30053	93981
28.30865	94232
28.31678	97611
28.32490	107590
28.33302	115297
28.34115	128889
28.34927	128049
28.35740	146073
28.36552	153665
28.37363	161344
28.38177	183837
28.38988	179269
28.39800	173239
28.40613	175587
28.41425	177349
28.42238	180111
28.43050	174336
28.43862	167609
28.44675	155769
28.45487	149331
28.46300	140705
28.47112	136637
28.47923	136175
28.48737	140258
28.49548	143592
28.50360	141336
28.51173	151078
28.51985	144767
28.52798	145246
28.53610	135142
28.54422	132592
28.55235	123286
28.56047	115992
28.56860	112629
28.57672	114229
28.58483	109542
28.59297	109682
28.60108	109796
28.60922	105358
28.61733	106297
28.62545	113320
28.63358	110834
28.64170	110827
28.64982	109651
28.65795	115452
28.66607	114007
28.67420	116095
28.68232	111425
28.69043	105302
28.69857	108095
28.70668	102693
28.71482	99526
28.72293	101717
28.73105	98710
28.73918	102691
28.74730	103695
28.75543	105100
28.76355	112097
28.77167	117883
28.77980	127877
28.78792	135198
28.79603	132993
28.80417	124723
28.81228	124135
28.82042	118910
28.82853	112827
28.83665	105154
28.84478	98481
28.85290	97824
28.86103	96866
28.86915	97764
28.87727	95736
28.88540	98473
28.89352	102042
28.90163	98661
28.90977	100908
28.91788	96659
28.92602	97643
28.93413	103711
28.94225	101047
28.95038	98497
28.95850	100319
28.96663	104745
28.97475	102696
28.98287	102549
28.99100	98719
28.99912	91444
29.00725	90247
29.01537	92844
29.02348	90142
29.03162	85058
29.03973	83237
29.04785	84614
29.05598	99948
29.06410	106047
29.07223	104693
29.08035	108667
29.08847	111598
29.09660	120589
29.10472	107001
29.11285	100549
29.12097	97121
29.12908	92017
29.13722	89089
29.14533	85969
29.15345	86812
29.16158	87466
29.16970	87574
29.17783	88334
29.18595	89996
29.19407	84282
29.20220	95902
29.21032	100867
29.21845	106188
29.22657	107866
29.23468	112626
29.24282	114506
29.25093	116600
29.25907	122236
29.26718	128580
29.27530	128056
29.28343	123719
29.29155	126906
29.29967	110775
29.30780	98103
29.31592	102079
29.32405	93599
29.33217	88311
29.34028	96100
29.34842	89946
29.35653	90237
29.36467	78578
29.37278	82009
29.38090	79458
29.38903	81953
29.39715	80608
29.40528	83771
29.41340	81676
29.42152	86236
29.42965	91453
29.43777	88041
29.44588	86159
29.45402	86213
29.46213	86813
29.47027	87451
29.47838	84612
29.48650	91137
29.49463	90045
29.50275	91971
29.51088	95144
29.51900	94126
29.52712	90583
29.53525	94907
29.54337	98176
29.55148	98330
29.55962	97518
29.56773	96225
29.57587	94816
29.58398	84132
29.59210	93617
29.60023	83292
29.60835	83181
29.61648	85641
29.62460	79711
29.63272	79405
29.64085	77495
29.64897	80608
29.65710	77389
29.66522	74356
29.67333	70492
29.68147	72942
29.68958	76374
29.69770	79518
29.70583	76218
29.71395	74358
29.72208	77345
29.73020	73209
29.73832	71359
29.74645	70785
29.75457	73594
29.76270	77177
29.77082	71473
29.77893	72612
29.78707	69014
29.79518	70179
29.80332	65345
29.81143	71656
29.81955	71742
29.82768	67479
29.83580	71345
29.84392	70660
29.85205	76174
29.86017	79731
29.86830	96398
29.87642	124046
29.88453	184444
29.89267	267923
29.90078	346221
29.90892	394069
29.91703	399834
29.92515	337756
29.93328	257792
29.94140	180356
29.94952	138524
29.95765	111750
29.96577	102068
29.97390	98435
29.98202	97008
29.99013	102142
29.99827	96270
30.00638	103412
30.01452	104746
30.02263	110997
30.03075	112193
30.03888	108134
30.04700	121831
30.05513	119288
30.06325	115390
30.07137	116249
30.07950	111500
30.08762	113018
30.09573	115444
30.10387	116611
30.11198	110259
30.12012	102743
30.12823	102715
30.13635	108692
30.14448	102855
30.15260	96601
30.16073	99997
30.16885	97673
30.17697	92075
30.18510	95213
30.19322	94807
30.20135	90048
30.20947	85672
30.21758	87941
30.22572	91662
30.23383	94764
30.24195	83394
30.25008	84336
30.25820	85309
30.26633	78893
30.27445	81219
30.28257	75281
30.29070	79614
30.29882	75089
30.30695	78881
30.31507	76205
30.32318	80038
30.33132	74698
30.33943	82872
30.34755	79360
30.35568	77983
30.36380	75438
30.37193	74401
30.38005	72574
30.38817	74605
30.39630	69784
30.40442	72947
30.41255	75757
30.42067	79152
30.42878	73263
30.43692	76524
30.44503	76737
30.45317	74033
30.46128	75198
30.46940	76964
30.47753	78509
30.48565	79396
30.49377	80576
30.50190	83099
30.51002	82141
30.51815	86733
30.52627	82843
30.53438	83317
30.54252	80246
30.55063	80331
30.55877	80126
30.56688	75825
30.57500	78984
30.58313	78720
30.59125	79113
30.59937	71498
30.60750	74408
30.61562	77836
30.62375	76680
30.63187	73518
30.63998	75633
30.64812	70739
30.65623	71763
30.66437	79659
30.67248	72255
30.68060	74571
30.68873	68788
30.69685	73671
30.70498	70046
30.71310	73490
30.72122	71944
30.72935	70083
30.73747	70313
30.74558	69761
30.75372	71811
30.76183	77595
30.76997	82672
30.77808	107278
30.78620	152405
30.79433	229862
30.80245	326207
30.81058	433288
30.81870	489183
30.82682	471780
30.83495	412341
30.84307	321626
30.85120	223539
30.85932	164211
30.86743	137385
30.87557	104963
30.88368	102789
30.89180	92233
30.89993	88500
30.90805	85897
30.91618	82149
30.92430	80714
30.93242	80748
30.94055	82825
30.94867	79779
30.95680	79177
30.96492	75030
30.97303	76340
30.98117	72174
30.98928	74811
30.99740	72858
31.00553	74771
31.01365	79985
31.02178	72650
31.02990	71350
31.03802	76922
31.04615	69933
31.05427	70753
31.06240	80255
31.07052	80502
31.07863	81101
31.08677	87593
31.09488	89229
31.10302	97689
31.11113	96762
31.11925	100629
31.12738	93540
31.13550	87700
31.14362	80481
31.15175	84522
31.15987	78966
31.16800	82959
31.17612	82596
31.18423	85603
31.19237	101854
31.20048	107968
31.20862	122230
31.21673	148526
31.22485	164996
31.23298	160984
31.24110	166666
31.24923	142926
31.25735	125752
31.26547	107301
31.27360	94017
31.28172	93830
31.28983	85863
31.29797	88266
31.30608	84173
31.31422	86821
31.32233	93344
31.33045	84004
31.33858	92557
31.34670	94504
31.35483	88948
31.36295	86442
31.37107	88975
31.37920	93118
31.38732	82112
31.39543	85479
31.40357	83569
31.41168	82751
31.41982	93375
31.42793	98253
31.43605	92003
31.44418	93142
31.45230	93651
31.46043	93177
31.46855	95961
31.47667	98028
31.48480	105243
31.49292	109110
31.50105	114872
31.50917	111728
31.51728	106952
31.52542	101527
31.53353	102869
31.54165	98713
31.54978	99502
31.55790	106757
31.56603	109752
31.57415	111055
31.58227	113091
31.59040	112415
31.59852	111563
31.60665	105102
31.61477	97238
31.62288	91408
31.63102	95895
31.63913	91638
31.64725	102007
31.65538	94380
31.66350	91833
31.67163	91471
31.67975	95159
31.68787	90752
31.69600	90582
31.70412	88705
31.71225	87182
31.72037	89856
31.72848	83478
31.73662	87251
31.74473	88761
31.75287	80768
31.76098	86907
31.76910	83488
31.77723	84184
31.78535	86384
31.79347	90931
31.80160	87505
31.80972	88467
31.81785	87739
31.82597	91268
31.83408	80425
31.84222	81867
31.85033	84533
31.85847	87218
31.86658	82916
31.87470	84757
31.88283	88302
31.89095	82516
31.89908	82539
31.90720	81453
31.91532	82175
31.92345	89762
31.93157	88370
31.93968	94830
31.94782	94239
31.95593	98799
31.96407	101669
31.97218	104485
31.98030	102330
31.98843	110982
31.99655	114141
32.00468	110075
32.01280	114168
32.02092	112487
32.02905	114209
32.03717	110309
32.04530	104263
32.05342	98540
32.06153	103544
32.06967	97870
32.07778	110699
32.08590	102759
32.09403	104568
32.10215	102106
32.11028	98509
32.11840	96108
32.12652	91336
32.13465	97113
32.14277	88676
32.15090	89868
32.15902	88148
32.16713	84641
32.17527	82575
32.18338	83824
32.19150	87478
32.19963	83935
32.20775	86248
32.21588	83569
32.22400	80365
32.23212	89062
32.24025	87703
32.24837	84478
32.25650	92570
32.26462	103575
32.27273	105216
32.28087	108599
32.28898	99492
32.29712	94388
32.30523	89196
32.31335	87691
32.32148	79487
32.32960	83013
32.33772	83689
32.34585	84881
32.35397	84344
32.36210	79689
32.37022	78079
32.37833	80412
32.38647	80584
32.39458	73309
32.40272	75412
32.41083	77066
32.41895	72192
32.42708	70409
32.43520	72072
32.44332	76548
32.45145	72649
32.45957	73599
32.46770	72231
32.47582	75472
32.48393	72961
32.49207	68510
32.50018	70602
32.50832	70576
32.51643	72590
32.52455	68832
32.53268	74849
32.54080	70126
32.54893	73875
32.55705	74965
32.56517	77651
32.57330	74701
32.58142	72897
32.58953	73637
32.59767	69184
32.60578	70377
32.61392	73126
32.62203	73787
32.63015	65576
32.63828	66351
32.64640	77347
32.65453	75639
32.66265	87499
32.67077	88064
32.67890	90813
32.68702	95605
32.69515	94065
32.70327	87762
32.71138	91286
32.71952	86590
32.72763	82350
32.73575	77795
32.74388	83110
32.75200	76683
32.76013	73541
32.76825	71032
32.77637	75140
32.78450	71246
32.79262	72432
32.80075	68426
32.80887	72120
32.81698	68104
32.82512	72078
32.83323	71352
32.84135	65037
32.84948	69599
32.85760	71509
32.86573	68415
32.87385	67923
32.88197	68292
32.89010	67792
32.89822	68564
32.90635	67563
32.91447	69389
32.92258	66962
32.93072	70339
32.93883	68717
32.94697	66319
32.95508	66894
32.96320	72088
32.97133	74325
32.97945	77920
32.98757	92785
32.99570	100234
33.00382	116683
33.01195	117325
33.02007	115914
33.02818	110353
33.03632	105012
33.04443	91299
33.05257	82817
33.06068	80808
33.06880	78732
33.07693	75423
33.08505	85290
33.09318	82486
33.10130	89936
33.10942	91368
33.11755	105837
33.12567	114088
33.13378	107251
33.14192	101938
33.15003	95795
33.15817	91227
33.16628	82926
33.17440	79107
33.18253	75444
33.19065	76778
33.19878	74179
33.20690	72593
33.21502	80073
33.22315	72839
33.23127	73933
33.23938	76229
33.24752	75672
33.25563	73259
33.26377	72672
33.27188	71238
33.28000	71027
33.28813	70432
33.29625	68853
33.30438	70588
33.31250	73684
33.32062	71535
33.32875	69701
33.33687	66665
33.34500	66677
33.35312	67436
33.36123	70775
33.36937	69322
33.37748	71847
33.38560	70013
33.39373	67853
33.40185	69546
33.40998	74979
33.41810	72453
33.42622	67552
33.43435	75248
33.44247	77922
33.45060	77882
33.45872	77086
33.46683	77561
33.47497	70018
33.48308	74776
33.49120	72276
33.49933	74823
33.50745	76271
33.51558	78679
33.52370	75395
33.53182	78840
33.53995	80114
33.54807	70496
33.55620	70987
33.56432	70381
33.57243	70197
33.58057	72542
33.58868	68269
33.59682	69306
33.60493	66371
33.61305	66822
33.62118	71357
33.62930	61656
33.63742	70422
33.64555	69008
33.65367	70070
33.66180	70984
33.66992	78183
33.67803	76197
33.68617	67960
33.69428	68237
33.70242	68622
33.71053	68863
33.71865	70816
33.72678	76548
33.73490	75648
33.74303	78711
33.75115	79695
33.75927	79553
33.76740	82274
33.77552	80232
33.78363	72292
33.79177	73639
33.79988	69222
33.80802	65228
33.81613	69832
33.82425	67248
33.83238	68846
33.84050	71223
33.84863	74070
33.85675	76673
33.86487	75115
33.87300	81765
33.88112	77531
33.88923	78730
33.89737	83119
33.90548	84485
33.91362	88622
33.92173	86875
33.92985	84563
33.93798	82681
33.94610	78457
33.95423	78638
33.96235	73488
33.97047	70717
33.97860	71337
33.98672	65896
33.99485	74233
34.00297	69014
34.01108	71162
34.01922	70981
34.02733	67756
34.03545	70376
34.04358	71646
34.05170	75721
34.05983	71037
34.06795	68187
34.07607	69036
34.08420	73555
34.09232	64428
34.10045	72187
34.10857	70906
34.11668	68561
34.12482	71912
34.13293	65263
34.14107	71062
34.14918	68282
34.15730	67224
34.16543	69999
34.17355	65675
34.18167	74397
34.18980	73941
34.19792	78667
34.20605	75269
34.21417	78333
34.22228	73045
34.23042	80564
34.23853	72707
34.24667	71077
34.25478	69513
34.26290	70477
34.27103	66997
34.27915	64002
34.28727	67665
34.29540	72155
34.30352	68362
34.31165	66673
34.31977	67098
34.32788	63408
34.33602	73673
34.34413	68949
34.35227	69414
34.36038	68416
34.36850	68538
34.37663	70412
34.38475	71514
34.39288	69191
34.40100	67993
34.40912	64197
34.41725	62887
34.42537	66017
34.43348	71650
34.44162	69991
34.44973	66363
34.45787	70043
34.46598	65833
34.47410	62976
34.48223	65962
34.49035	59549
34.49848	66434
34.50660	69525
34.51472	68786
34.52285	71653
34.53097	71732
34.53908	78103
34.54722	81568
34.55533	87925
34.56347	89264
34.57158	93161
34.57970	95401
34.58783	90181
34.59595	89611
34.60408	89554
34.61220	89107
34.62032	90429
34.62845	91903
34.63657	91687
34.64470	88164
34.65282	87111
34.66093	87630
34.66907	78851
34.67718	77301
34.68530	78581
34.69343	76140
34.70155	79009
34.70968	80711
34.71780	76877
34.72592	75007
34.73405	77766
34.74217	73710
34.75030	79219
34.75842	72304
34.76653	76011
34.77467	78162
34.78278	73972
34.79092	72925
34.79903	65541
34.80715	74242
34.81528	72504
34.82340	65278
34.83152	67416
34.83965	76548
34.84777	69190
34.85590	69653
34.86402	73472
34.87213	69788
34.88027	71045
34.88838	73787
34.89652	70336
34.90463	71192
34.91275	70039
34.92088	71481
34.92900	71849
34.93712	75320
34.94525	78818
34.95337	85397
34.96150	84760
34.96962	88943
34.97773	103163
34.98587	94351
34.99398	98058
35.00212	88948
35.01023	86470
35.01835	90599
35.02648	88612
35.03460	87837
35.04273	85857
35.05085	87026
35.05897	88194
35.06710	81593
35.07522	82048
35.08333	85008
35.09147	80815
35.09958	73971
35.10772	77604
35.11583	73490
35.12395	74019
35.13208	68491
35.14020	71106
35.14833	77839
35.15645	75250
35.16457	75105
35.17270	77787
35.18082	74838
35.18895	77922
35.19707	75528
35.20518	73987
35.21332	73339
35.22143	71582
35.22955	71281
35.23768	70491
35.24580	74972
35.25393	76212
35.26205	75171
35.27017	74338
35.27830	79330
35.28642	76385
35.29455	75842
35.30267	72940
35.31078	76585
35.31892	71798
35.32703	74585
35.33515	72610
35.34328	71262
35.35140	75570
35.35953	78985
35.36765	79086
35.37577	76170
35.38390	79680
35.39202	83516
35.40015	84795
35.40827	92345
35.41638	95006
35.42452	99870
35.43263	101559
35.44077	102761
35.44888	98074
35.45700	94414
35.46513	86810
35.47325	86434
35.48137	81708
35.48950	79926
35.49762	75846
35.50575	76263
35.51387	77310
35.52198	78018
35.53012	76838
35.53823	76228
35.54637	71581
35.55448	75362
35.56260	80294
35.57073	74370
35.57885	75290
35.58698	74419
35.59510	78038
35.60322	73043
35.61135	76121
35.61947	72482
35.62758	75458
35.63572	72443
35.64383	69915
35.65197	79874
35.66008	79383
35.66820	73759
35.67633	73622
35.68445	76297
35.69258	77468
35.70070	80721
35.70882	81947
35.71695	83589
35.72507	81159
35.73318	77072
35.74132	77342
35.74943	78473
35.75757	81525
35.76568	74986
35.77380	80775
35.78193	84078
35.79005	78707
35.79818	77603
35.80630	77942
35.81442	74632
35.82255	75090
35.83067	77261
35.83880	78147
35.84692	72215
35.85503	78767
35.86317	79458
35.87128	75833
35.87940	74802
35.88753	78241
35.89565	78265
35.90378	77528
35.91190	79072
35.92002	70099
35.92815	75275
35.93627	73608
35.94440	77121
35.95252	75584
35.96063	69617
35.96877	72750
35.97688	71297
35.98500	73862
35.99313	76067
36.00125	74388
36.00938	71593
36.01750	75998
36.02562	76465
36.03375	74060
36.04187	73577
36.05000	69159
36.05812	75472
36.06623	74253
36.07437	75106
36.08248	75996
36.09062	78851
36.09873	68488
36.10685	73469
36.11498	72659
36.12310	71738
36.13122	74145
36.13935	70740
36.14747	72551
36.15560	75302
36.16372	72956
36.17183	69666
36.17997	72898
36.18808	68399
36.19622	76807
36.20433	73629
36.21245	74010
36.22058	73507
36.22870	76284
36.23683	73770
36.24495	78138
36.25307	75201
36.26120	75372
36.26932	82067
36.27743	77952
36.28557	78027
36.29368	78302
36.30182	82913
36.30993	88842
36.31805	90644
36.32618	83921
36.33430	94965
36.34243	86469
36.35055	82175
36.35867	77373
36.36680	81362
36.37492	74007
36.38303	74230
36.39117	74351
36.39928	75620
36.40742	73338
36.41553	82405
36.42365	82505
36.43178	78038
36.43990	78688
36.44803	83069
36.45615	80560
36.46427	86254
36.47240	91293
36.48052	82019
36.48865	83786
36.49677	84566
36.50488	83897
36.51302	82239
36.52113	90597
36.52925	88909
36.53738	87130
36.54550	83770
36.55363	81260
36.56175	82458
36.56987	75189
36.57800	77381
36.58612	72045
36.59425	77109
36.60237	75224
36.61048	78041
36.61862	76577
36.62673	78958
36.63487	81881
36.64298	81473
36.65110	88504
36.65923	93175
36.66735	87276
36.67547	85791
36.68360	84870
36.69172	85942
36.69985	85017
36.70797	83225
36.71608	81721
36.72422	80651
36.73233	77179
36.74047	74689
36.74858	80005
36.75670	79037
36.76483	78995
36.77295	81070
36.78107	80554
36.78920	81333
36.79732	86196
36.80545	84975
36.81357	81868
36.82168	85773
36.82982	79843
36.83793	81108
36.84607	85413
36.85418	81215
36.86230	87982
36.87043	86022
36.87855	82538
36.88668	86526
36.89480	90090
36.90292	88748
36.91105	87658
36.91917	88800
36.92728	88901
36.93542	86392
36.94353	94649
36.95167	98729
36.95978	104708
36.96790	108896
36.97603	112638
36.98415	111123
36.99228	112015
37.00040	103042
37.00852	99915
37.01665	102415
37.02477	97176
37.03288	90446
37.04102	95077
37.04913	92757
37.05727	94763
37.06538	96545
37.07350	91399
37.08163	92876
37.08975	90732
37.09788	96623
37.10600	96344
37.11412	100248
37.12225	106673
37.13037	99641
37.13850	105152
37.14662	106924
37.15473	104835
37.16287	99970
37.17098	97269
37.17910	98029
37.18723	94307
37.19535	90053
37.20348	92456
37.21160	91641
37.21972	88780
37.22785	87118
37.23597	84795
37.24410	85909
37.25222	91258
37.26033	88633
37.26847	86009
37.27658	86729
37.28472	84318
37.29283	88221
37.30095	91921
37.30908	93225
37.31720	89805
37.32532	85694
37.33345	95291
37.34157	89555
37.34970	102325
37.35782	101443
37.36593	106742
37.37407	100586
37.38218	106726
37.39032	103921
37.39843	102771
37.40655	99366
37.41468	98666
37.42280	98474
37.43093	98237
37.43905	94252
37.44717	92523
37.45530	91878
37.46342	96775
37.47153	98508
37.47967	94841
37.48778	96213
