C:\MassHunter\GCMS\1\data\JTB-E18\BACandBLUE_bioassay\JTB-E18-41-15.D Wed Dec 04 13:16:59 2019
Start of data points
2.09528	75396
2.10342	75160
2.11153	72823
2.11967	73234
2.12778	72725
2.13590	69867
2.14403	66151
2.15215	67754
2.16028	62611
2.16840	65436
2.17652	59964
2.18465	63432
2.19277	57806
2.20088	55576
2.20902	58965
2.21713	55611
2.22527	61834
2.23338	56802
2.24150	62508
2.24963	54826
2.25775	55096
2.26588	152353
2.27400	1161824
2.28212	1799960
2.29025	761678
2.29837	300019
2.30650	200966
2.31462	174954
2.32273	155068
2.33087	136761
2.33898	139469
2.34710	118901
2.35523	101499
2.36335	102740
2.37148	101491
2.37960	102931
2.38772	107513
2.39585	100316
2.40397	89129
2.41210	87684
2.42022	88974
2.42833	89906
2.43647	87391
2.44458	96453
2.45272	99364
2.46083	82062
2.46895	75400
2.47708	76414
2.48520	80660
2.49332	81254
2.50145	78873
2.50957	73830
2.51770	71927
2.52582	78771
2.53393	73114
2.54207	78869
2.55018	90721
2.55832	143091
2.56643	138192
2.57455	100182
2.58268	79007
2.59080	76228
2.59892	89447
2.60705	195163
2.61517	316178
2.62330	232576
2.63142	145749
2.63953	113363
2.64767	100751
2.65578	86943
2.66392	83339
2.67203	83592
2.68015	87846
2.68828	84162
2.69640	74373
2.70453	74721
2.71265	69752
2.72077	68211
2.72890	71323
2.73702	70562
2.74513	69586
2.75327	66980
2.76138	65027
2.76952	63665
2.77763	79625
2.78575	126410
2.79388	126584
2.80200	98575
2.81013	87666
2.81825	108525
2.82637	176946
2.83450	276841
2.84262	229994
2.85075	141396
2.85887	118814
2.86698	108457
2.87512	94159
2.88323	85163
2.89135	78427
2.89948	76213
2.90760	72364
2.91573	75131
2.92385	68968
2.93197	71709
2.94010	67072
2.94822	66930
2.95635	65725
2.96447	66538
2.97258	63235
2.98072	64170
2.98883	78071
2.99695	73132
3.00508	80254
3.01320	85538
3.02133	88054
3.02945	139839
3.03757	212399
3.04570	311709
3.05382	862605
3.06195	1693245
3.07007	1589880
3.07818	946747
3.08632	782311
3.09443	1030795
3.10257	1552613
3.11068	2051958
3.11880	1605467
3.12693	1005956
3.13505	712790
3.14317	570422
3.15130	465858
3.15942	393315
3.16755	352347
3.17567	341780
3.18378	423091
3.19192	660134
3.20003	711610
3.20817	521373
3.21628	382770
3.22440	313387
3.23253	287079
3.24065	243763
3.24878	222361
3.25690	195413
3.26502	188531
3.27315	194449
3.28127	350149
3.28938	1077408
3.29752	2550199
3.30563	3800958
3.31377	3687779
3.32188	2817154
3.33000	2099803
3.33813	1614716
3.34625	1304789
3.35438	1096113
3.36250	949759
3.37062	865136
3.37875	833145
3.38687	770614
3.39498	689684
3.40312	719904
3.41123	1054107
3.41937	1260750
3.42748	1060888
3.43560	740959
3.44373	558597
3.45185	479559
3.45998	432654
3.46810	405511
3.47622	386142
3.48435	365700
3.49247	342795
3.50060	324656
3.50872	315609
3.51683	308323
3.52497	305013
3.53308	312469
3.54120	302923
3.54933	298600
3.55745	277371
3.56558	274303
3.57370	281556
3.58182	282927
3.58995	259639
3.59807	251318
3.60620	253903
3.61432	288146
3.62243	423947
3.63057	657242
3.63868	790600
3.64680	659550
3.65493	542750
3.66305	1177201
3.67118	3526309
3.67930	5787414
3.68742	4896098
3.69555	2823613
3.70367	1717780
3.71180	1302779
3.71992	1073898
3.72803	910229
3.73617	818642
3.74428	751026
3.75242	668306
3.76053	647765
3.76865	594831
3.77678	556940
3.78490	530694
3.79302	525160
3.80115	650482
3.80927	973593
3.81740	1166660
3.82552	972345
3.83363	707448
3.84177	589497
3.84988	522002
3.85802	485772
3.86613	444330
3.87425	428879
3.88238	400468
3.89050	386702
3.89863	371298
3.90675	364389
3.91487	408849
3.92300	473424
3.93112	493456
3.93923	469286
3.94737	515414
3.95548	753321
3.96362	1038049
3.97173	993213
3.97985	725894
3.98798	542612
3.99610	567500
4.00423	832404
4.01235	1069661
4.02047	977808
4.02860	695031
4.03672	489797
4.04483	392789
4.05297	353884
4.06108	313401
4.06922	297984
4.07733	287632
4.08545	275654
4.09358	270028
4.10170	262208
4.10983	247011
4.11795	251994
4.12607	319768
4.13420	550245
4.14232	898973
4.15045	1006232
4.15857	791915
4.16668	533319
4.17482	391605
4.18293	341134
4.19105	297673
4.19918	392508
4.20730	1303721
4.21543	4296252
4.22355	9273105
4.23167	1.191269E+07
4.23980	1.027415E+07
4.24792	6357391
4.25605	3716512
4.26417	2473285
4.27228	1778027
4.28042	1304507
4.28853	1007091
4.29667	820073
4.30478	689297
4.31290	605266
4.32103	543481
4.32915	500571
4.33727	469477
4.34540	439634
4.35352	418801
4.36165	424663
4.36977	403559
4.37788	370929
4.38602	352897
4.39413	312030
4.40227	302074
4.41038	293920
4.41850	298134
4.42663	275053
4.43475	271725
4.44287	267265
4.45100	266661
4.45912	273316
4.46725	267822
4.47537	261242
4.48348	251387
4.49162	245064
4.49973	239829
4.50787	231345
4.51598	234803
4.52410	225154
4.53223	226929
4.54035	222555
4.54848	221125
4.55660	217572
4.56472	207437
4.57285	207593
4.58097	208846
4.58908	203800
4.59722	198092
4.60533	217929
4.61347	208633
4.62158	250121
4.62970	339800
4.63783	395027
4.64595	380824
4.65408	323499
4.66220	267945
4.67032	242882
4.67845	228557
4.68657	214729
4.69468	213526
4.70282	198220
4.71093	199581
4.71907	192868
4.72718	186038
4.73530	186271
4.74343	184117
4.75155	177619
4.75968	183127
4.76780	177379
4.77592	197362
4.78405	295952
4.79217	574353
4.80030	918352
4.80842	980988
4.81653	781018
4.82467	544316
4.83278	443299
4.84090	410649
4.84903	370634
4.85715	331398
4.86528	291615
4.87340	266295
4.88152	258621
4.88965	245632
4.89777	244904
4.90590	260954
4.91402	359801
4.92213	632915
4.93027	1042174
4.93838	1369523
4.94652	1455699
4.95463	1286691
4.96275	1046311
4.97088	852873
4.97900	712351
4.98712	623558
4.99525	559129
5.00337	488771
5.01150	461627
5.01962	458803
5.02773	471831
5.03587	511428
5.04398	505975
5.05212	463860
5.06023	409248
5.06835	389094
5.07648	365466
5.08460	370847
5.09273	357087
5.10085	364879
5.10897	396105
5.11710	411800
5.12522	403828
5.13333	373802
5.14147	359116
5.14958	358303
5.15772	378489
5.16583	406505
5.17395	425692
5.18208	417303
5.19020	427578
5.19833	402150
5.20645	384621
5.21457	363157
5.22270	336150
5.23082	331696
5.23893	326680
5.24707	309748
5.25518	312503
5.26332	280721
5.27143	267584
5.27955	266335
5.28768	263636
5.29580	256710
5.30393	255368
5.31205	243799
5.32017	255391
5.32830	257458
5.33642	257681
5.34455	259228
5.35267	239892
5.36078	237046
5.36892	236308
5.37703	235147
5.38515	237699
5.39328	242979
5.40140	242916
5.40953	232421
5.41765	223917
5.42577	223613
5.43390	226785
5.44202	226447
5.45015	229623
5.45827	231319
5.46638	217819
5.47452	220988
5.48263	205067
5.49075	203115
5.49888	206743
5.50700	206502
5.51513	207719
5.52325	203649
5.53137	208388
5.53950	205162
5.54762	213373
5.55575	232971
5.56387	259096
5.57198	279005
5.58012	262530
5.58823	246334
5.59637	236315
5.60448	223024
5.61260	212706
5.62073	205884
5.62885	217279
5.63697	214610
5.64510	213291
5.65322	211077
5.66135	209574
5.66947	218125
5.67758	237650
5.68572	244941
5.69383	243162
5.70197	231342
5.71008	230714
5.71820	240454
5.72633	246905
5.73445	241255
5.74258	235889
5.75070	236874
5.75882	239850
5.76695	245644
5.77507	244373
5.78318	233806
5.79132	228259
5.79943	264685
5.80757	366473
5.81568	558839
5.82380	793227
5.83193	911580
5.84005	858129
5.84818	681908
5.85630	499764
5.86442	380098
5.87255	312306
5.88067	267825
5.88878	253502
5.89692	260562
5.90503	275748
5.91317	324295
5.92128	407786
5.92940	469051
5.93753	476959
5.94565	416745
5.95378	338355
5.96190	304737
5.97002	297525
5.97815	313144
5.98627	305836
5.99440	268583
6.00252	229783
6.01063	196906
6.01877	179062
6.02688	175635
6.03500	165607
6.04313	154367
6.05125	152588
6.05938	141070
6.06750	145018
6.07562	145906
6.08375	143783
6.09187	139421
6.10000	132940
6.10812	145013
6.11623	159346
6.12437	209441
6.13248	283518
6.14062	335897
6.14873	320850
6.15685	268154
6.16498	219089
6.17310	194427
6.18122	189414
6.18935	194223
6.19747	189554
6.20560	187666
6.21372	175906
6.22183	164012
6.22997	158122
6.23808	157139
6.24622	158547
6.25433	147261
6.26245	153185
6.27058	152976
6.27870	148496
6.28682	153118
6.29495	146587
6.30307	149907
6.31120	165823
6.31932	200631
6.32743	248785
6.33557	279055
6.34368	267699
6.35182	229510
6.35993	190945
6.36805	173821
6.37618	166049
6.38430	170563
6.39243	158377
6.40055	153016
6.40867	144829
6.41680	152844
6.42492	147419
6.43303	149531
6.44117	152082
6.44928	152647
6.45742	153690
6.46553	155182
6.47365	155191
6.48178	151158
6.48990	152452
6.49803	156204
6.50615	156394
6.51427	153124
6.52240	159576
6.53052	156793
6.53863	153782
6.54677	159856
6.55488	162884
6.56302	178104
6.57113	192894
6.57925	190183
6.58738	188087
6.59550	170269
6.60363	161061
6.61175	156999
6.61987	158586
6.62800	147114
6.63612	143937
6.64425	142712
6.65237	164812
6.66048	179416
6.66862	185188
6.67673	188925
6.68485	184950
6.69298	200449
6.70110	218852
6.70923	218021
6.71735	208900
6.72547	180414
6.73360	159259
6.74172	141381
6.74985	135034
6.75797	121834
6.76608	119828
6.77422	117050
6.78233	120761
6.79047	120282
6.79858	134374
6.80670	175179
6.81483	251173
6.82295	393259
6.83107	565159
6.83920	675205
6.84732	676499
6.85545	564208
6.86357	412884
6.87168	273374
6.87982	186967
6.88793	142261
6.89607	114026
6.90418	96244
6.91230	89861
6.92043	87632
6.92855	80956
6.93667	80366
6.94480	81914
6.95292	95790
6.96105	113085
6.96917	155923
6.97728	208868
6.98542	272351
6.99353	313508
7.00167	315201
7.00978	271335
7.01790	213974
7.02603	166705
7.03415	132421
7.04228	104397
7.05040	92958
7.05852	87988
7.06665	85596
7.07477	84997
7.08288	84671
7.09102	88951
7.09913	85773
7.10727	82331
7.11538	79320
7.12350	85659
7.13163	95533
7.13975	105440
7.14788	126607
7.15600	163436
7.16412	220447
7.17225	421747
7.18037	841627
7.18850	1284314
7.19662	1453266
7.20473	1209706
7.21287	782545
7.22098	443268
7.22910	274338
7.23723	202641
7.24535	166718
7.25348	153002
7.26160	144724
7.26972	128023
7.27785	131368
7.28597	130025
7.29410	135808
7.30222	129654
7.31033	118550
7.31847	119573
7.32658	113558
7.33470	124378
7.34283	147139
7.35095	185245
7.35908	221009
7.36720	236715
7.37532	219603
7.38345	190887
7.39157	151365
7.39970	124899
7.40782	107306
7.41593	95891
7.42407	90334
7.43218	90888
7.44032	95389
7.44843	114205
7.45655	134002
7.46468	155090
7.47280	170991
7.48092	166888
7.48905	150228
7.49717	122238
7.50530	103003
7.51342	97124
7.52153	83828
7.52967	87947
7.53778	98754
7.54592	123392
7.55403	159717
7.56215	189953
7.57028	210005
7.57840	226837
7.58652	200530
7.59465	172798
7.60277	136114
7.61090	112802
7.61902	97350
7.62713	88404
7.63527	88243
7.64338	81163
7.65152	79152
7.65963	81545
7.66775	76086
7.67588	76217
7.68400	74748
7.69213	70665
7.70025	73346
7.70837	73589
7.71650	69959
7.72462	73436
7.73273	77426
7.74087	70429
7.74898	72047
7.75712	70776
7.76523	76170
7.77335	69878
7.78148	73213
7.78960	71261
7.79773	74938
7.80585	80733
7.81397	78768
7.82210	76505
7.83022	71522
7.83835	68738
7.84647	62515
7.85458	63496
7.86272	69521
7.87083	69816
7.87895	74522
7.88708	71697
7.89520	76346
7.90333	68274
7.91145	69711
7.91957	68648
7.92770	82935
7.93582	89375
7.94395	94859
7.95207	98560
7.96018	91803
7.96832	75674
7.97643	70128
7.98455	64905
7.99268	62672
8.00080	58653
8.00893	56119
8.01705	54830
8.02517	57708
8.03330	55619
8.04142	56629
8.04955	52686
8.05767	56093
8.06578	54908
8.07392	55453
8.08203	59843
8.09017	53336
8.09828	55585
8.10640	52620
8.11453	62494
8.12265	64703
8.13077	60770
8.13890	74996
8.14702	68694
8.15515	67380
8.16327	63052
8.17138	59431
8.17952	61889
8.18763	55280
8.19577	54053
8.20388	56123
8.21200	50378
8.22013	53850
8.22825	59491
8.23638	50265
8.24450	56380
8.25262	55973
8.26075	54284
8.26887	58188
8.27698	55868
8.28512	51688
8.29323	56353
8.30137	57297
8.30948	56270
8.31760	58588
8.32573	62694
8.33385	66542
8.34198	66595
8.35010	60424
8.35822	60811
8.36635	54339
8.37447	54617
8.38258	53431
8.39072	52617
8.39883	55366
8.40697	53401
8.41508	51725
8.42320	50971
8.43133	51764
8.43945	52192
8.44758	50201
8.45570	54337
8.46382	52552
8.47195	51316
8.48007	55179
8.48820	59764
8.49632	86134
8.50443	151335
8.51257	233916
8.52068	280070
8.52880	280390
8.53693	221319
8.54505	141587
8.55318	97776
8.56130	75539
8.56942	65575
8.57755	61226
8.58567	61120
8.59380	57464
8.60192	60805
8.61003	61980
8.61817	60808
8.62628	56450
8.63442	53755
8.64253	55103
8.65065	54314
8.65878	55913
8.66690	54750
8.67502	53762
8.68315	60933
8.69127	61206
8.69940	75075
8.70752	115255
8.71563	207766
8.72377	310799
8.73188	435669
8.74002	490501
8.74813	445378
8.75625	347846
8.76438	253743
8.77250	201652
8.78062	169703
8.78875	171116
8.79687	171004
8.80500	160638
8.81312	162366
8.82123	150203
8.82937	139439
8.83748	138846
8.84562	129284
8.85373	129310
8.86185	126529
8.86998	130189
8.87810	120942
8.88623	120083
8.89435	120284
8.90247	121736
8.91060	130769
8.91872	131356
8.92683	135845
8.93497	127158
8.94308	121501
8.95122	112668
8.95933	109473
8.96745	111709
8.97558	117732
8.98370	117836
8.99183	112295
8.99995	109391
9.00807	105777
9.01620	97464
9.02432	97804
9.03243	100595
9.04057	96130
9.04868	97206
9.05682	94277
9.06493	94535
9.07305	94934
9.08118	98522
9.08930	101356
9.09743	104512
9.10555	113880
9.11367	122123
9.12180	114616
9.12992	114299
9.13805	98818
9.14617	98543
9.15428	93419
9.16242	85865
9.17053	85182
9.17865	86007
9.18678	86740
9.19490	91189
9.20303	86241
9.21115	86947
9.21927	84087
9.22740	82905
9.23552	78302
9.24365	80458
9.25177	79466
9.25988	78126
9.26802	79181
9.27613	78967
9.28427	85965
9.29238	80036
9.30050	73380
9.30863	75876
9.31675	72264
9.32487	73013
9.33300	76552
9.34112	73673
9.34925	76861
9.35737	74998
9.36548	71096
9.37362	69879
9.38173	67853
9.38987	71998
9.39798	70343
9.40610	78874
9.41423	80548
9.42235	88887
9.43047	89791
9.43860	94323
9.44672	86126
9.45485	83835
9.46297	75307
9.47108	73236
9.47922	71651
9.48733	70940
9.49547	78104
9.50358	80564
9.51170	78244
9.51983	80378
9.52795	72710
9.53608	66840
9.54420	62842
9.55232	53257
9.56045	48678
9.56857	46476
9.57668	47058
9.58482	46223
9.59293	45929
9.60107	44025
9.60918	45521
9.61730	43383
9.62543	49362
9.63355	47887
9.64168	49307
9.64980	55040
9.65792	48303
9.66605	46788
9.67417	46348
9.68230	41548
9.69042	42174
9.69853	41087
9.70667	37074
9.71478	35630
9.72290	33685
9.73103	35434
9.73915	36333
9.74728	39659
9.75540	32219
9.76352	32550
9.77165	36468
9.77977	32494
9.78790	34047
9.79602	36960
9.80413	33367
9.81227	32787
9.82038	36262
9.82850	39852
9.83663	40233
9.84475	43855
9.85288	39895
9.86100	41342
9.86912	41691
9.87725	37254
9.88537	38965
9.89350	38696
9.90162	38004
9.90973	41966
9.91787	48399
9.92598	65245
9.93412	90775
9.94223	110584
9.95035	123576
9.95848	125112
9.96660	117849
9.97472	102211
9.98285	87080
9.99097	73238
9.99910	55948
10.00722	55339
10.01533	48943
10.02347	47897
10.03158	45311
10.03972	50530
10.04783	51783
10.05595	54389
10.06408	45532
10.07220	42888
10.08032	41078
10.08845	36988
10.09657	42331
10.10470	41298
10.11282	47313
10.12093	41948
10.12907	37030
10.13718	37397
10.14532	40318
10.15343	41155
10.16155	42901
10.16968	39275
10.17780	37587
10.18593	40953
10.19405	40137
10.20217	38253
10.21030	41885
10.21842	39175
10.22653	48058
10.23467	59166
10.24278	114831
10.25092	249120
10.25903	540129
10.26715	980460
10.27528	1521298
10.28340	2223959
10.29153	3360354
10.29965	5103575
10.30777	6784144
10.31590	7360082
10.32402	6369714
10.33215	4340641
10.34027	2428118
10.34838	1283997
10.35652	758176
10.36463	586364
10.37275	464990
10.38088	375073
10.38900	291160
10.39713	233848
10.40525	191101
10.41337	177454
10.42150	151040
10.42962	142559
10.43775	133395
10.44587	118903
10.45398	108463
10.46212	104965
10.47023	96238
10.47837	96880
10.48648	94084
10.49460	91310
10.50273	96450
10.51085	96266
10.51897	92193
10.52710	98209
10.53522	96821
10.54335	88164
10.55147	83949
10.55958	75639
10.56772	74160
10.57583	70851
10.58397	69162
10.59208	67960
10.60020	65683
10.60833	66157
10.61645	68180
10.62457	62174
10.63270	62805
10.64082	61255
10.64895	59544
10.65707	61286
10.66518	58649
10.67332	62636
10.68143	60312
10.68957	62549
10.69768	68777
10.70580	66712
10.71393	67542
10.72205	60341
10.73018	57607
10.73830	58776
10.74642	54264
10.75455	54195
10.76267	54089
10.77078	53186
10.77892	54614
10.78703	50549
10.79517	53328
10.80328	50003
10.81140	50932
10.81953	46417
10.82765	44804
10.83578	49775
10.84390	43524
10.85202	47925
10.86015	43430
10.86827	44118
10.87638	43957
10.88452	44382
10.89263	40071
10.90077	41423
10.90888	44299
10.91700	42985
10.92513	41462
10.93325	42007
10.94138	41144
10.94950	44363
10.95762	46056
10.96575	44722
10.97387	39080
10.98200	45656
10.99012	41317
10.99823	41917
11.00637	38615
11.01448	43409
11.02260	41462
11.03073	38668
11.03885	39861
11.04698	43838
11.05510	36535
11.06322	40523
11.07135	44163
11.07947	41746
11.08760	40375
11.09572	43163
11.10383	42849
11.11197	45506
11.12008	47394
11.12822	45072
11.13633	54240
11.14445	44645
11.15258	42710
11.16070	41539
11.16882	45406
11.17695	48589
11.18507	48295
11.19320	45865
11.20132	52383
11.20943	44144
11.21757	41183
11.22568	38384
11.23382	37401
11.24193	40167
11.25005	45569
11.25818	62080
11.26630	86188
11.27442	124990
11.28255	161439
11.29067	179896
11.29880	195197
11.30692	184022
11.31503	186855
11.32317	213133
11.33128	236115
11.33942	253023
11.34753	246129
11.35565	214998
11.36378	168979
11.37190	141193
11.38003	119784
11.38815	101776
11.39627	89144
11.40440	83767
11.41252	77162
11.42063	66053
11.42877	61526
11.43688	60988
11.44502	55200
11.45313	56443
11.46125	64625
11.46938	74016
11.47750	85987
11.48563	93570
11.49375	92823
11.50187	90329
11.51000	91945
11.51812	87973
11.52625	88548
11.53437	96914
11.54248	87122
11.55062	79064
11.55873	71403
11.56685	62940
11.57498	70762
11.58310	83966
11.59123	98165
11.59935	105985
11.60747	108063
11.61560	91327
11.62372	79606
11.63185	64723
11.63997	56520
11.64808	54955
11.65622	51054
11.66433	58861
11.67245	60363
11.68058	66200
11.68870	82188
11.69683	86991
11.70495	93514
11.71307	98669
11.72120	93848
11.72932	85475
11.73745	83437
11.74557	75673
11.75368	74382
11.76182	63672
11.76993	59980
11.77807	56116
11.78618	61569
11.79430	57016
11.80243	55676
11.81055	50525
11.81867	50853
11.82680	45011
11.83492	44086
11.84305	44966
11.85117	46285
11.85928	39909
11.86742	43957
11.87553	39355
11.88367	41511
11.89178	45648
11.89990	44707
11.90803	57512
11.91615	65352
11.92427	85101
11.93240	81055
11.94052	80547
11.94865	70691
11.95677	65266
11.96488	60265
11.97302	58081
11.98113	69599
11.98927	66743
11.99738	72124
12.00550	67353
12.01363	60000
12.02175	55183
12.02988	50030
12.03800	46688
12.04612	41538
12.05425	42837
12.06237	40574
12.07048	41429
12.07862	42286
12.08673	40960
12.09487	40311
12.10298	38325
12.11110	39113
12.11923	40097
12.12735	39934
12.13548	40541
12.14360	38873
12.15172	39248
12.15985	38071
12.16797	37238
12.17610	34908
12.18422	36297
12.19233	34976
12.20047	35925
12.20858	37829
12.21670	36374
12.22483	35001
12.23295	37790
12.24108	33962
12.24920	33223
12.25732	40979
12.26545	35809
12.27357	35839
12.28170	33526
12.28982	34101
12.29793	35038
12.30607	30497
12.31418	30660
12.32230	29891
12.33043	30708
12.33855	30998
12.34668	32504
12.35480	33314
12.36292	35319
12.37105	41592
12.37917	52306
12.38730	81574
12.39542	102765
12.40353	124720
12.41167	127433
12.41978	115356
12.42792	89274
12.43603	68321
12.44415	58034
12.45228	52628
12.46040	46201
12.46852	47122
12.47665	43724
12.48477	38915
12.49290	39701
12.50102	39571
12.50913	41535
12.51727	43921
12.52538	54087
12.53352	67182
12.54163	78906
12.54975	80114
12.55788	70546
12.56600	60506
12.57413	49558
12.58225	40538
12.59037	38522
12.59850	39544
12.60662	39745
12.61473	41172
12.62287	38684
12.63098	36612
12.63912	35264
12.64723	32099
12.65535	33581
12.66348	32569
12.67160	31250
12.67973	29090
12.68785	27887
12.69597	27301
12.70410	32381
12.71222	31440
12.72033	36432
12.72847	38709
12.73658	37600
12.74472	35022
12.75283	35441
12.76095	36371
12.76908	39541
12.77720	42310
12.78533	42716
12.79345	46764
12.80157	45193
12.80970	45969
12.81782	42562
12.82595	39969
12.83407	39477
12.84218	39741
12.85032	38662
12.85843	35572
12.86655	38050
12.87468	36635
12.88280	34931
12.89093	30763
12.89905	29695
12.90717	33818
12.91530	37255
12.92342	44309
12.93155	56089
12.93967	84403
12.94778	120180
12.95592	147967
12.96403	171910
12.97217	162432
12.98028	149285
12.98840	131495
12.99653	115462
13.00465	108534
13.01277	110040
13.02090	99751
13.02902	90643
13.03715	83278
13.04527	68926
13.05338	67025
13.06152	56955
13.06963	56379
13.07777	54044
13.08588	50257
13.09400	46454
13.10213	44683
13.11025	39813
13.11837	41198
13.12650	41767
13.13462	41758
13.14275	44379
13.15087	43040
13.15898	43189
13.16712	38572
13.17523	39437
13.18337	38664
13.19148	37595
13.19960	40473
13.20773	43157
13.21585	43880
13.22398	49119
13.23210	49006
13.24022	53325
13.24835	58742
13.25647	66873
13.26458	68525
13.27272	70049
13.28083	64418
13.28897	67618
13.29708	67096
13.30520	69275
13.31333	72447
13.32145	76772
13.32958	78069
13.33770	69422
13.34582	64513
13.35395	64148
13.36207	59223
13.37018	57091
13.37832	55633
13.38643	52059
13.39457	53650
13.40268	47260
13.41080	46512
13.41893	48843
13.42705	42542
13.43518	40115
13.44330	43317
13.45142	39619
13.45955	39948
13.46767	48691
13.47580	41593
13.48392	37734
13.49203	41028
13.50017	38088
13.50828	42533
13.51640	38808
13.52453	42555
13.53265	45222
13.54078	56932
13.54890	64749
13.55702	63595
13.56515	64791
13.57327	64151
13.58140	66054
13.58952	68922
13.59763	78859
13.60577	86641
13.61388	89408
13.62202	85970
13.63013	86015
13.63825	81624
13.64638	78816
13.65450	72190
13.66262	65327
13.67075	60905
13.67887	59107
13.68700	55504
13.69512	55865
13.70323	54971
13.71137	57070
13.71948	56889
13.72762	57376
13.73573	61912
13.74385	80190
13.75198	92382
13.76010	117189
13.76822	136945
13.77635	140623
13.78447	133564
13.79260	128042
13.80072	125970
13.80883	133056
13.81697	136796
13.82508	137868
13.83322	144125
13.84133	133287
13.84945	109699
13.85758	90325
13.86570	79548
13.87383	71099
13.88195	70275
13.89007	70401
13.89820	64691
13.90632	74056
13.91443	65425
13.92257	61818
13.93068	64478
13.93882	66343
13.94693	66204
13.95505	61760
13.96318	63763
13.97130	61449
13.97943	63193
13.98755	58857
13.99567	58441
14.00380	53307
14.01192	55153
14.02005	49701
14.02817	47963
14.03628	48300
14.04442	43574
14.05253	41975
14.06065	42941
14.06878	44203
14.07690	38168
14.08503	41213
14.09315	40303
14.10127	52135
14.10940	71504
14.11752	105339
14.12565	145523
14.13377	186464
14.14188	208372
14.15002	206903
14.15813	189470
14.16625	169212
14.17438	151141
14.18250	142102
14.19063	131554
14.19875	123574
14.20687	121783
14.21500	114139
14.22312	102110
14.23125	100462
14.23937	101992
14.24748	98936
14.25562	92597
14.26373	83737
14.27187	80265
14.27998	70914
14.28810	63811
14.29623	49352
14.30435	46694
14.31247	43541
14.32060	46375
14.32872	52426
14.33685	55438
14.34497	54027
14.35308	50692
14.36122	48254
14.36933	43378
14.37747	42670
14.38558	44668
14.39370	42806
14.40183	45835
14.40995	48273
14.41807	47287
14.42620	42804
14.43432	40899
14.44245	35403
14.45057	34991
14.45868	34936
14.46682	38011
14.47493	32107
14.48307	33594
14.49118	34995
14.49930	37024
14.50743	33035
14.51555	34304
14.52368	35266
14.53180	34410
14.53992	32651
14.54805	31941
14.55617	30947
14.56428	31540
14.57242	28767
14.58053	26885
14.58867	30792
14.59678	31077
14.60490	29296
14.61303	27273
14.62115	28690
14.62928	29363
14.63740	27709
14.64552	28326
14.65365	30329
14.66177	28229
14.66990	30898
14.67802	24238
14.68613	27378
14.69427	28039
14.70238	28076
14.71050	29828
14.71863	31659
14.72675	30373
14.73488	29577
14.74300	29208
14.75112	30956
14.75925	34758
14.76737	44494
14.77550	85102
14.78362	198372
14.79173	443779
14.79987	857186
14.80798	1353705
14.81610	1651996
14.82423	1583757
14.83235	1254710
14.84048	843664
14.84860	537612
14.85672	331059
14.86485	226063
14.87297	175487
14.88110	141947
14.88922	126569
14.89733	110104
14.90547	100008
14.91358	89929
14.92172	81878
14.92983	73523
14.93795	70247
14.94608	68769
14.95420	64454
14.96232	67986
14.97045	61947
14.97857	60403
14.98670	54455
14.99482	57512
15.00293	51402
15.01107	52839
15.01918	52512
15.02732	52356
15.03543	50424
15.04355	45275
15.05168	47789
15.05980	44860
15.06793	48177
15.07605	46567
15.08417	45311
15.09230	46352
15.10042	43157
15.10853	43621
15.11667	45642
15.12478	52308
15.13292	52152
15.14103	50208
15.14915	45576
15.15728	41826
15.16540	39729
15.17353	35763
15.18165	37779
15.18977	33669
15.19790	32732
15.20602	36283
15.21413	30416
15.22227	33074
15.23038	31442
15.23852	27994
15.24663	28822
15.25475	29171
15.26288	31754
15.27100	26883
15.27913	24405
15.28725	28125
15.29537	28704
15.30350	29672
15.31162	27792
15.31975	26362
15.32787	28912
15.33598	26706
15.34412	28996
15.35223	26138
15.36035	28597
15.36848	26609
15.37660	27996
15.38473	28263
15.39285	27330
15.40097	26273
15.40910	25292
15.41722	29318
15.42535	26478
15.43347	27319
15.44158	27265
15.44972	30249
15.45783	30007
15.46595	39250
15.47408	45348
15.48220	54170
15.49033	65833
15.49845	62920
15.50657	68885
15.51470	58522
15.52282	49541
15.53095	41712
15.53907	39892
15.54718	38687
15.55532	35960
15.56343	33746
15.57157	34010
15.57968	28214
15.58780	27271
15.59593	32419
15.60405	28008
15.61217	28778
15.62030	28941
15.62842	26121
15.63655	31267
15.64467	24639
15.65278	25526
15.66092	27461
15.66903	26384
15.67717	26398
15.68528	22677
15.69340	25469
15.70153	26006
15.70965	25246
15.71778	27623
15.72590	27744
15.73402	35765
15.74215	46295
15.75027	73471
15.75838	109195
15.76652	137318
15.77463	149563
15.78277	146893
15.79088	111816
15.79900	83328
15.80713	68254
15.81525	51109
15.82338	43897
15.83150	40549
15.83962	40650
15.84775	43004
15.85587	41225
15.86400	41250
15.87212	46491
15.88023	50876
15.88837	48937
15.89648	47769
15.90460	41789
15.91273	40877
15.92085	38851
15.92898	33884
15.93710	33780
15.94522	34493
15.95335	36912
15.96147	35397
15.96960	41513
15.97772	47381
15.98583	43537
15.99397	46439
16.00208	48724
16.01020	46348
16.01833	43211
16.02645	45402
16.03458	40086
16.04270	36000
16.05082	34598
16.05895	35978
16.06707	34459
16.07520	35061
16.08332	33601
16.09143	30558
16.09957	30256
16.10768	32078
16.11582	35488
16.12393	32958
16.13205	31131
16.14018	32030
16.14830	30579
16.15642	30967
16.16455	32950
16.17267	31083
16.18080	36011
16.18892	32472
16.19703	28460
16.20517	32674
16.21328	32201
16.22142	31968
16.22953	30181
16.23765	29513
16.24578	26506
16.25390	29859
16.26202	31124
16.27015	28981
16.27827	31205
16.28640	33540
16.29452	35281
16.30263	34952
16.31077	32993
16.31888	34728
16.32702	32361
16.33513	36506
16.34325	35402
16.35138	38781
16.35950	38836
16.36763	43584
16.37575	38306
16.38387	36687
16.39200	36412
16.40012	34733
16.40823	33399
16.41637	37373
16.42448	38986
16.43262	56480
16.44073	96503
16.44885	164931
16.45698	243665
16.46510	308835
16.47323	326420
16.48135	276468
16.48947	198166
16.49760	130424
16.50572	84124
16.51385	64698
16.52197	55554
16.53008	48866
16.53822	46962
16.54633	47439
16.55445	47688
16.56258	45502
16.57070	43730
16.57883	41046
16.58695	41802
16.59507	38263
16.60320	37930
16.61132	38060
16.61945	35001
16.62757	34525
16.63568	34488
16.64382	35522
16.65193	34843
16.66005	34678
16.66818	32738
16.67630	32743
16.68443	32070
16.69255	27979
16.70067	32105
16.70880	34269
16.71692	32118
16.72505	33122
16.73317	33691
16.74128	36233
16.74942	36395
16.75753	32860
16.76567	32825
16.77378	31089
16.78190	33843
16.79003	28784
16.79815	29960
16.80627	33166
16.81440	33293
16.82252	28397
16.83065	31758
16.83877	29852
16.84688	34757
16.85502	37436
16.86313	29698
16.87127	30580
16.87938	31719
16.88750	30043
16.89563	29850
16.90375	29896
16.91188	28784
16.92000	33366
16.92812	30147
16.93625	32495
16.94437	29676
16.95248	30759
16.96062	30366
16.96873	31237
16.97687	30557
16.98498	30757
16.99310	29016
17.00123	30568
17.00935	31608
17.01748	32480
17.02560	32887
17.03372	34196
17.04185	31826
17.04997	36147
17.05808	35076
17.06622	36221
17.07433	37588
17.08247	39014
17.09058	40163
17.09870	43135
17.10683	45442
17.11495	45161
17.12308	43896
17.13120	44719
17.13932	40588
17.14745	40568
17.15557	37413
17.16370	39215
17.17182	34924
17.17993	33620
17.18807	36828
17.19618	27849
17.20430	32298
17.21243	32994
17.22055	31604
17.22868	30607
17.23680	30093
17.24492	29975
17.25305	29573
17.26117	27579
17.26930	29941
17.27742	30167
17.28553	30966
17.29367	29022
17.30178	29762
17.30990	33229
17.31803	36009
17.32615	38433
17.33428	37487
17.34240	42749
17.35052	46993
17.35865	46870
17.36677	50563
17.37490	50298
17.38302	53021
17.39113	51980
17.39927	49537
17.40738	51451
17.41552	44318
17.42363	44980
17.43175	44921
17.43988	44397
17.44800	41950
17.45612	39678
17.46425	37037
17.47237	41620
17.48050	41963
17.48862	40685
17.49673	45481
17.50487	49370
17.51298	54657
17.52112	63617
17.52923	73336
17.53735	79938
17.54548	89732
17.55360	109132
17.56173	126373
17.56985	153082
17.57797	184907
17.58610	195707
17.59422	198009
17.60233	184330
17.61047	148039
17.61858	115917
17.62672	92253
17.63483	71689
17.64295	69288
17.65108	64345
17.65920	59877
17.66733	64579
17.67545	58093
17.68357	58847
17.69170	65250
17.69982	59888
17.70793	59561
17.71607	49422
17.72418	51461
17.73232	47128
17.74043	47431
17.74855	43515
17.75668	42587
17.76480	43760
17.77293	41902
17.78105	45863
17.78917	39087
17.79730	42113
17.80542	46364
17.81355	42246
17.82167	47409
17.82978	51152
17.83792	58231
17.84603	61627
17.85415	60037
17.86228	54758
17.87040	52264
17.87853	45205
17.88665	45699
17.89477	39558
17.90290	39902
17.91102	37535
17.91915	35175
17.92727	37315
17.93538	36499
17.94352	34440
17.95163	33139
17.95977	35405
17.96788	36814
17.97600	33975
17.98413	43885
17.99225	40409
18.00037	48688
18.00850	55838
18.01662	66721
18.02475	71501
18.03287	75088
18.04098	76934
18.04912	81999
18.05723	112284
18.06537	168125
18.07348	223935
18.08160	264079
18.08973	265614
18.09785	221048
18.10597	172212
18.11410	128823
18.12222	98191
18.13035	87377
18.13847	77349
18.14658	73163
18.15472	59667
18.16283	61460
18.17097	57407
18.17908	55239
18.18720	54785
18.19533	49448
18.20345	48447
18.21158	47735
18.21970	47821
18.22782	49372
18.23595	43556
18.24407	46635
18.25218	43870
18.26032	39816
18.26843	37906
18.27657	38704
18.28468	38061
18.29280	36222
18.30093	37937
18.30905	35054
18.31718	35094
18.32530	36627
18.33342	34288
18.34155	37575
18.34967	37963
18.35778	35990
18.36592	36815
18.37403	36539
18.38217	41572
18.39028	41778
18.39840	39805
18.40653	50836
18.41465	65342
18.42278	87304
18.43090	107616
18.43902	132206
18.44715	151075
18.45527	159337
18.46340	175479
18.47152	177199
18.47963	173075
18.48777	151451
18.49588	142936
18.50400	133843
18.51213	132664
18.52025	128137
18.52838	122987
18.53650	117891
18.54462	116169
18.55275	117905
18.56087	118202
18.56900	116854
18.57712	119036
18.58523	117343
18.59337	119806
18.60148	121822
18.60962	120349
18.61773	118400
18.62585	115206
18.63398	118649
18.64210	106676
18.65022	101244
18.65835	100120
18.66647	100249
18.67460	99285
18.68272	102483
18.69083	96016
18.69897	94906
18.70708	94787
18.71522	90199
18.72333	87301
18.73145	87072
18.73958	87846
18.74770	89838
18.75582	81110
18.76395	85602
18.77207	84115
18.78020	82408
18.78832	79812
18.79643	82349
18.80457	76134
18.81268	81398
18.82082	78514
18.82893	76278
18.83705	79742
18.84518	78369
18.85330	75429
18.86143	74072
18.86955	74415
18.87767	80103
18.88580	80036
18.89392	79033
18.90203	82148
18.91017	80325
18.91828	82667
18.92642	82335
18.93453	89615
18.94265	83323
18.95078	83473
18.95890	77018
18.96703	75465
18.97515	73991
18.98327	70196
18.99140	67575
18.99952	69987
19.00765	70356
19.01577	68673
19.02388	72096
19.03202	69109
19.04013	63265
19.04825	65546
19.05638	64227
19.06450	67265
19.07263	79502
19.08075	86533
19.08887	91515
19.09700	88253
19.10512	90351
19.11325	86378
19.12137	89352
19.12948	89773
19.13762	91295
19.14573	88397
19.15385	89682
19.16198	89929
19.17010	79852
19.17823	72753
19.18635	70684
19.19447	72766
19.20260	63462
19.21072	67255
19.21885	64414
19.22697	59657
19.23508	55032
19.24322	53811
19.25133	62568
19.25947	60810
19.26758	62200
19.27570	67446
19.28383	59708
19.29195	66822
19.30007	62456
19.30820	63990
19.31632	62562
19.32445	69095
19.33257	67833
19.34068	76103
19.34882	81892
19.35693	87939
19.36507	91408
19.37318	89629
19.38130	87068
19.38943	79515
19.39755	84996
19.40568	104379
19.41380	130471
19.42192	162584
19.43005	187766
19.43817	204317
19.44628	174546
19.45442	146718
19.46253	120376
19.47067	89068
19.47878	79899
19.48690	74779
19.49503	68692
19.50315	71565
19.51128	61479
19.51940	64090
19.52752	61657
19.53565	64988
19.54377	59555
19.55188	60008
19.56002	51718
19.56813	52128
19.57627	49798
19.58438	48531
19.59250	46959
19.60063	51301
19.60875	59515
19.61688	82444
19.62500	118931
19.63312	167600
19.64125	208621
19.64937	233724
19.65750	237261
19.66562	219864
19.67373	194112
19.68187	165976
19.68998	138574
19.69810	114804
19.70623	107753
19.71435	91159
19.72248	77425
19.73060	73267
19.73872	70670
19.74685	65129
19.75497	62730
19.76310	63885
19.77122	66699
19.77933	68168
19.78747	69096
19.79558	65905
19.80370	66758
19.81183	57980
19.81995	58432
19.82808	58547
19.83620	52390
19.84432	65611
19.85245	90159
19.86057	126661
19.86870	187754
19.87682	264789
19.88493	323329
19.89307	352266
19.90118	325561
19.90932	253683
19.91743	192783
19.92555	138171
19.93368	111454
19.94180	101811
19.94992	91585
19.95805	88225
19.96617	80982
19.97430	79342
19.98242	79534
19.99053	79548
19.99867	75455
20.00678	79026
20.01492	79829
20.02303	70414
20.03115	74327
20.03928	68307
20.04740	73362
20.05553	77600
20.06365	85666
20.07177	82294
20.07990	83976
20.08802	71764
20.09613	70841
20.10427	69331
20.11238	63638
20.12052	63014
20.12863	60655
20.13675	61030
20.14488	68919
20.15300	69098
20.16113	81016
20.16925	90324
20.17737	101539
20.18550	104502
20.19362	96092
20.20173	92857
20.20987	101500
20.21798	123208
20.22612	155866
20.23423	195948
20.24235	222893
20.25048	241287
20.25860	238816
20.26673	211311
20.27485	192348
20.28297	156216
20.29110	129699
20.29922	100235
20.30735	82702
20.31547	71753
20.32358	66424
20.33172	58170
20.33983	61949
20.34795	55050
20.35608	57556
20.36420	58142
20.37233	55006
20.38045	63167
20.38857	68851
20.39670	78726
20.40482	86332
20.41295	82878
20.42107	81687
20.42918	76205
20.43732	66413
20.44543	63276
20.45357	59007
20.46168	56300
20.46980	55523
20.47793	48278
20.48605	47306
20.49417	45401
20.50230	42102
20.51042	42868
20.51855	42053
20.52667	38261
20.53478	40877
20.54292	41433
20.55103	40415
20.55917	38337
20.56728	41976
20.57540	39378
20.58353	37019
20.59165	41008
20.59977	35870
20.60790	37831
20.61602	41031
20.62415	33439
20.63227	35148
20.64038	39459
20.64852	34334
20.65663	37528
20.66477	36751
20.67288	35983
20.68100	37034
20.68913	33163
20.69725	34706
20.70538	37458
20.71350	35014
20.72162	37011
20.72975	33722
20.73787	43185
20.74598	41241
20.75412	43189
20.76223	44254
20.77037	50100
20.77848	61073
20.78660	79626
20.79473	93432
20.80285	105274
20.81098	105634
20.81910	97379
20.82722	73672
20.83535	62337
20.84347	49449
20.85158	42813
20.85972	41623
20.86783	40026
20.87597	38029
20.88408	39731
20.89220	38909
20.90033	38184
20.90845	37188
20.91658	37458
20.92470	38944
20.93282	38514
20.94095	35408
20.94907	39317
20.95720	35028
20.96532	32806
20.97343	35215
20.98157	33488
20.98968	36787
20.99780	37247
21.00593	35757
21.01405	34229
21.02218	36790
21.03030	35659
21.03842	35584
21.04655	38916
21.05467	38345
21.06280	36695
21.07092	30992
21.07903	34949
21.08717	33352
21.09528	35825
21.10342	35138
21.11153	44080
21.11965	53049
21.12778	66586
21.13590	77894
21.14402	84683
21.15215	88068
21.16027	85453
21.16840	72567
21.17652	56906
21.18463	51938
21.19277	45429
21.20088	42634
21.20902	37996
21.21713	41058
21.22525	36004
21.23338	38626
21.24150	41060
21.24963	44378
21.25775	40515
21.26587	44134
21.27400	40011
21.28212	37681
21.29023	36895
21.29837	37546
21.30648	42085
21.31462	36458
21.32273	37993
21.33085	37516
21.33898	41471
21.34710	40319
21.35523	40775
21.36335	38675
21.37147	42263
21.37960	46025
21.38772	42794
21.39583	43179
21.40397	43664
21.41208	44073
21.42022	42637
21.42833	39606
21.43645	39930
21.44458	39992
21.45270	40403
21.46083	43635
21.46895	42527
21.47707	43267
21.48520	46713
21.49332	44838
21.50145	48121
21.50957	47117
21.51768	48158
21.52582	50410
21.53393	47311
21.54205	55382
21.55018	59808
21.55830	72344
21.56643	89433
21.57455	108587
21.58267	114532
21.59080	119128
21.59892	117609
21.60705	104623
21.61517	84952
21.62328	77860
21.63142	68240
21.63953	61203
21.64765	60464
21.65578	61275
21.66390	59883
21.67203	59599
21.68015	62840
21.68827	57223
21.69640	55913
21.70452	62040
21.71265	56227
21.72077	55591
21.72888	58433
21.73702	57597
21.74513	64314
21.75327	72751
21.76138	87183
21.76950	97370
21.77763	109544
21.78575	107894
21.79387	100030
21.80200	92232
21.81012	74144
21.81825	64710
21.82637	62430
21.83448	56685
21.84262	47520
21.85073	46178
21.85887	45116
21.86698	46250
21.87510	42884
21.88323	39838
21.89135	41574
21.89948	41390
21.90760	42954
21.91572	37350
21.92385	34753
21.93197	35442
21.94008	36259
21.94822	33890
21.95633	35960
21.96447	34549
21.97258	34448
21.98070	33899
21.98883	34153
21.99695	36037
22.00508	35791
22.01320	37234
22.02132	37167
22.02945	35584
22.03757	36449
22.04568	37290
22.05382	38067
22.06193	46097
22.07007	40781
22.07818	41398
22.08630	42465
22.09443	39741
22.10255	36052
22.11068	37364
22.11880	35854
22.12692	36236
22.13505	37920
22.14317	45452
22.15130	63195
22.15942	73562
22.16753	88229
22.17567	92344
22.18378	97395
22.19190	99715
22.20003	98396
22.20815	100776
22.21628	102797
22.22440	94214
22.23252	91387
22.24065	94992
22.24877	97217
22.25690	95317
22.26502	97236
22.27313	92086
22.28127	103195
22.28938	96459
22.29752	99713
22.30563	92682
22.31375	94885
22.32188	94480
22.33000	88081
22.33812	85491
22.34625	81788
22.35437	83960
22.36250	80474
22.37062	87745
22.37873	86168
22.38687	92754
22.39498	98845
22.40312	106108
22.41123	104331
22.41935	98441
22.42748	92793
22.43560	84979
22.44372	75235
22.45185	74583
22.45997	70904
22.46810	76846
22.47622	72135
22.48433	75553
22.49247	75773
22.50058	75346
22.50872	74792
22.51683	68965
22.52495	64451
22.53308	60317
22.54120	57118
22.54933	53609
22.55745	56532
22.56557	53361
22.57370	53033
22.58182	51108
22.58993	48761
22.59807	48837
22.60618	46867
22.61432	44892
22.62243	51395
22.63055	49719
22.63868	47475
22.64680	45507
22.65493	47836
22.66305	48859
22.67117	47384
22.67930	50621
22.68742	50072
22.69553	52409
22.70367	55350
22.71178	54202
22.71992	51073
22.72803	52039
22.73615	50170
22.74428	46485
22.75240	47167
22.76053	48876
22.76865	45270
22.77677	47464
22.78490	50749
22.79302	48019
22.80115	51588
22.80927	48013
22.81738	47476
22.82552	47494
22.83363	45914
22.84175	44888
22.84988	47982
22.85800	50915
22.86613	53739
22.87425	58971
22.88237	63075
22.89050	68755
22.89862	77157
22.90675	94105
22.91487	94702
22.92298	109568
22.93112	93267
22.93923	93882
22.94737	82064
22.95548	77725
22.96360	73946
22.97173	68431
22.97985	63526
22.98797	59880
22.99610	53439
23.00422	52256
23.01235	48107
23.02047	50535
23.02858	43602
23.03672	40962
23.04483	41947
23.05297	44017
23.06108	43562
23.06920	42311
23.07733	43499
23.08545	42129
23.09357	43043
23.10170	46356
23.10982	40148
23.11795	40396
23.12607	38389
23.13418	36695
23.14232	37263
23.15043	35762
23.15857	35953
23.16668	35855
23.17480	38162
23.18293	35895
23.19105	36514
23.19918	32177
23.20730	33906
23.21542	33493
23.22355	37215
23.23167	41610
23.23978	40282
23.24792	40351
23.25603	44871
23.26417	38795
23.27228	37904
23.28040	37682
23.28853	41434
23.29665	42081
23.30478	38603
23.31290	39340
23.32102	40715
23.32915	48553
23.33727	58474
23.34540	59609
23.35352	62367
23.36163	60872
23.36977	60678
23.37788	57061
23.38600	48227
23.39413	43780
23.40225	44728
23.41038	37960
23.41850	40578
23.42662	35664
23.43475	33487
23.44287	33972
23.45100	36777
23.45912	33464
23.46723	31862
23.47537	31551
23.48348	34187
23.49160	35001
23.49973	32837
23.50785	31644
23.51598	35205
23.52410	32393
23.53222	36083
23.54035	38631
23.54847	40967
23.55660	46744
23.56472	56475
23.57283	74625
23.58097	90037
23.58908	95897
23.59722	96660
23.60533	87511
23.61345	77146
23.62158	69547
23.62970	62146
23.63782	63412
23.64595	65207
23.65407	63126
23.66220	65844
23.67032	59146
23.67843	56403
23.68657	51647
23.69468	46789
23.70282	46373
23.71093	53466
23.71905	70790
23.72718	133455
23.73530	310514
23.74343	699060
23.75155	1424452
23.75967	2255165
23.76780	2920119
23.77592	3071357
23.78403	2889644
23.79217	2488120
23.80028	1898542
23.80842	1404374
23.81653	1048364
23.82465	780261
23.83278	601517
23.84090	510061
23.84903	421399
23.85715	355220
23.86527	315566
23.87340	279929
23.88152	259708
23.88963	229575
23.89777	220646
23.90588	239724
23.91402	238848
23.92213	239648
23.93025	239180
23.93838	232965
23.94650	228982
23.95463	222453
23.96275	230309
23.97087	220326
23.97900	212619
23.98712	209358
23.99525	210981
24.00337	223325
24.01148	230131
24.01962	241756
24.02773	236303
24.03585	229002
24.04398	220191
24.05210	205735
24.06023	196534
24.06835	191069
24.07647	184030
24.08460	170526
24.09272	168474
24.10085	157421
24.10897	171280
24.11708	174272
24.12522	185611
24.13333	199200
24.14145	195852
24.14958	192525
24.15770	178108
24.16583	173298
24.17395	153282
24.18207	152332
24.19020	137376
24.19832	137501
24.20645	130821
24.21457	122080
24.22268	119653
24.23082	114737
24.23893	106863
24.24707	102232
24.25518	103877
24.26330	104330
24.27143	106148
24.27955	113846
24.28767	134416
24.29580	155122
24.30392	192212
24.31205	222799
24.32017	216358
24.32828	190787
24.33642	157512
24.34453	116580
24.35267	100191
24.36078	98827
24.36890	93123
24.37703	87953
24.38515	84254
24.39328	82369
24.40140	91294
24.40952	100645
24.41765	112683
24.42577	122033
24.43388	118315
24.44202	116787
24.45013	113107
24.45827	105514
24.46638	103218
24.47450	92872
24.48263	90751
24.49075	84229
24.49888	82146
24.50700	75856
24.51512	77075
24.52325	78762
24.53137	81499
24.53948	81793
24.54762	78745
24.55573	77822
24.56387	72641
24.57198	70542
24.58010	64385
24.58823	62912
24.59635	66787
24.60448	70364
24.61260	61890
24.62072	59857
24.62885	61372
24.63697	61475
24.64510	57095
24.65322	55301
24.66133	61093
24.66947	55139
24.67758	56478
24.68570	56103
24.69383	56512
24.70195	56139
24.71008	55982
24.71820	55930
24.72632	54612
24.73445	54514
24.74257	54692
24.75070	53195
24.75882	51340
24.76693	56846
24.77507	56754
24.78318	57570
24.79132	54442
24.79943	54460
24.80755	58827
24.81568	63782
24.82380	66218
24.83192	69893
24.84005	83040
24.84817	106865
24.85630	129563
24.86442	150449
24.87253	161441
24.88067	168835
24.88878	150468
24.89692	126573
24.90503	101551
24.91315	79709
24.92128	65011
24.92940	55191
24.93752	51176
24.94565	49964
24.95377	46726
24.96190	51505
24.97002	44390
24.97813	46815
24.98627	44712
24.99438	45546
25.00252	45194
25.01063	47138
25.01875	45050
25.02688	43282
25.03500	47475
25.04313	45831
25.05125	43905
25.05937	49598
25.06750	46297
25.07562	50492
25.08373	72835
25.09187	102971
25.09998	180423
25.10812	321838
25.11623	490522
25.12435	659403
25.13248	757719
25.14060	757776
25.14873	633590
25.15685	468318
25.16497	314248
25.17310	213003
25.18122	145811
25.18933	123814
25.19747	116896
25.20558	125123
25.21372	130368
25.22183	154157
25.22995	183203
25.23808	231159
25.24620	290031
25.25433	324320
25.26245	335332
25.27057	314546
25.27870	270462
25.28682	216771
25.29495	182415
25.30307	147353
25.31118	138358
25.31932	126366
25.32743	117343
25.33555	110671
25.34368	101660
25.35180	105164
25.35993	103889
25.36805	105779
25.37617	105311
25.38430	98067
25.39242	97397
25.40055	100500
25.40867	96267
25.41678	88731
25.42492	89942
25.43303	82203
25.44117	85219
25.44928	79749
25.45740	78629
25.46553	77397
25.47365	79250
25.48177	76624
25.48990	74543
25.49802	71589
25.50615	74159
25.51427	72317
25.52238	67578
25.53052	64966
25.53863	61171
25.54677	61193
25.55488	62432
25.56300	60209
25.57113	58470
25.57925	58505
25.58738	56649
25.59550	60977
25.60362	55830
25.61175	55590
25.61987	55157
25.62798	60543
25.63612	57627
25.64423	60392
25.65237	57849
25.66048	54078
25.66860	55512
25.67673	52464
25.68485	50280
25.69298	45173
25.70110	48576
25.70922	49961
25.71735	48999
25.72547	48449
25.73358	47230
25.74172	46295
25.74983	52010
25.75797	43338
25.76608	47906
25.77420	50158
25.78233	50044
25.79045	46798
25.79858	47461
25.80670	45159
25.81482	45464
25.82295	44571
25.83107	47248
25.83920	52553
25.84732	43658
25.85543	42717
25.86357	45290
25.87168	39963
25.87980	42856
25.88793	40238
25.89605	42090
25.90418	40194
25.91230	41015
25.92042	44315
25.92855	42761
25.93667	41151
25.94480	41471
25.95292	41303
25.96103	39747
25.96917	37856
25.97728	39110
25.98540	36177
25.99353	38415
26.00165	37043
26.00978	35838
26.01790	40354
26.02602	37786
26.03415	39197
26.04227	40799
26.05040	40491
26.05852	41692
26.06663	36904
26.07477	38728
26.08288	41988
26.09102	41816
26.09913	42381
26.10725	41767
26.11538	39845
26.12350	45146
26.13162	47900
26.13975	47147
26.14787	50876
26.15600	54120
26.16412	51159
26.17223	52433
26.18037	50787
26.18848	46525
26.19662	48218
26.20473	45618
26.21285	41793
26.22098	40571
26.22910	41017
26.23723	41553
26.24535	37574
26.25347	41032
26.26160	42273
26.26972	34618
26.27783	34980
26.28597	41580
26.29408	35643
26.30222	38528
26.31033	34208
26.31845	40055
26.32658	36754
26.33470	41955
26.34283	40878
26.35095	43324
26.35907	50060
26.36720	50235
26.37532	55789
26.38343	59011
26.39157	59912
26.39968	57543
26.40782	56170
26.41593	49675
26.42405	47376
26.43218	42997
26.44030	42877
26.44843	41483
26.45655	45436
26.46467	41084
26.47280	38123
26.48092	39890
26.48905	36930
26.49717	33958
26.50528	34655
26.51342	35369
26.52153	38880
26.52965	36716
26.53778	34367
26.54590	35376
26.55403	34658
26.56215	32847
26.57027	32791
26.57840	42220
26.58652	34844
26.59465	39703
26.60277	38834
26.61088	38967
26.61902	37919
26.62713	38194
26.63527	38353
26.64338	37550
26.65150	41552
26.65963	38115
26.66775	39005
26.67587	41612
26.68400	37795
26.69212	37265
26.70025	39324
26.70837	38889
26.71648	40114
26.72462	38083
26.73273	42069
26.74087	40132
26.74898	40320
26.75710	43797
26.76523	44936
26.77335	43946
26.78147	45298
26.78960	42822
26.79772	40747
26.80585	39946
26.81397	39816
26.82208	36652
26.83022	35812
26.83833	39983
26.84647	36836
26.85458	37751
26.86270	37032
26.87083	38243
26.87895	39145
26.88708	37412
26.89520	34465
26.90332	35771
26.91145	41429
26.91957	42010
26.92768	51787
26.93582	70713
26.94393	116508
26.95207	216659
26.96018	398174
26.96830	661476
26.97643	996285
26.98455	1327929
26.99268	1503118
27.00080	1523156
27.00892	1401844
27.01705	1177166
27.02517	954123
27.03328	724690
27.04142	576821
27.04953	452803
27.05767	363739
27.06578	294795
27.07390	254619
27.08203	228528
27.09015	195490
27.09828	178787
27.10640	163872
27.11452	145069
27.12265	144369
27.13077	135222
27.13890	136359
27.14702	135437
27.15513	133824
27.16327	135748
27.17138	130008
27.17950	130701
27.18763	113256
27.19575	100780
27.20388	100213
27.21200	91262
27.22012	83289
27.22825	82203
27.23637	79680
27.24450	79681
27.25262	68925
27.26073	67081
27.26887	65603
27.27698	64538
27.28512	63737
27.29323	61386
27.30135	64452
27.30948	64229
27.31760	63758
27.32572	59853
27.33385	60359
27.34197	58932
27.35010	59528
27.35822	56885
27.36633	55850
27.37447	55906
27.38258	58599
27.39072	60503
27.39883	56722
27.40695	55988
27.41508	59001
27.42320	59202
27.43132	62309
27.43945	61338
27.44757	56051
27.45570	58217
27.46382	54588
27.47193	53045
27.48007	49670
27.48818	49994
27.49632	49193
27.50443	52581
27.51255	53159
27.52068	51670
27.52880	52292
27.53693	50490
27.54505	49388
27.55317	54068
27.56130	57741
27.56942	58133
27.57753	54081
27.58567	57890
27.59378	54275
27.60192	54121
27.61003	51761
27.61815	46522
27.62628	50235
27.63440	46635
27.64253	44761
27.65065	49842
27.65877	43845
27.66690	45915
27.67502	53358
27.68315	46523
27.69127	45345
27.69938	47235
27.70752	48981
27.71563	54004
27.72375	62160
27.73188	67213
27.74000	73693
27.74813	79278
27.75625	72000
27.76437	75119
27.77250	66380
27.78062	65840
27.78875	60396
27.79687	53197
27.80498	47583
27.81312	48104
27.82123	42347
27.82935	43318
27.83748	45021
27.84560	43226
27.85373	37878
27.86185	41723
27.86997	44291
27.87810	39625
27.88622	37970
27.89435	36764
27.90247	36847
27.91058	40516
27.91872	37578
27.92683	38496
27.93497	38353
27.94308	41380
27.95120	44962
27.95933	49832
27.96745	56133
27.97557	54963
27.98370	58374
27.99182	60544
27.99995	60629
28.00807	53922
28.01618	51452
28.02432	52704
28.03243	48850
28.04057	51681
28.04868	48072
28.05680	53784
28.06493	43980
28.07305	48617
28.08117	54769
28.08930	55370
28.09742	62111
28.10555	67981
28.11367	64628
28.12178	56181
28.12992	55845
28.13803	46974
28.14617	44089
28.15428	44206
28.16240	43858
28.17053	44295
28.17865	39874
28.18678	43435
28.19490	44010
28.20302	48762
28.21115	46809
28.21927	47272
28.22738	50066
28.23552	47091
28.24363	51383
28.25177	60172
28.25988	70111
28.26800	90949
28.27613	117592
28.28425	140265
28.29238	174295
28.30050	193645
28.30862	217488
28.31675	228540
28.32487	219331
28.33300	225320
28.34112	213078
28.34923	199897
28.35737	185105
28.36548	167905
28.37360	155311
28.38173	138204
28.38985	124740
28.39798	121998
28.40610	112811
28.41422	101301
28.42235	95595
28.43047	88154
28.43860	87073
28.44672	80050
28.45483	74977
28.46297	71654
28.47108	73877
28.47920	73410
28.48733	66693
28.49545	66640
28.50358	65150
28.51170	63243
28.51982	59228
28.52795	62220
28.53607	57945
28.54420	58038
28.55232	56357
28.56043	55872
28.56857	55474
28.57668	53326
28.58482	50867
28.59293	52776
28.60105	57310
28.60918	53954
28.61730	55687
28.62542	62909
28.63355	65169
28.64167	65296
28.64980	82216
28.65792	87193
28.66603	103725
28.67417	105728
28.68228	111609
28.69042	106037
28.69853	85748
28.70665	71746
28.71478	59068
28.72290	54390
28.73103	54223
28.73915	52287
28.74727	48344
28.75540	45590
28.76352	42086
28.77163	45168
28.77977	46239
28.78788	46037
28.79602	49180
28.80413	47178
28.81225	43453
28.82038	46905
28.82850	46529
28.83663	47144
28.84475	42783
28.85287	48436
28.86100	48443
28.86912	51743
28.87723	52598
28.88537	50010
28.89348	44762
28.90162	45140
28.90973	43333
28.91785	46429
28.92598	48149
28.93410	45424
28.94223	49834
28.95035	47325
28.95847	48143
28.96660	45985
28.97472	47107
28.98285	42947
28.99097	42914
28.99908	45319
29.00722	42392
29.01533	45433
29.02345	43758
29.03158	41990
29.03970	48885
29.04783	45246
29.05595	52040
29.06407	49361
29.07220	48299
29.08032	47143
29.08845	42445
29.09657	42820
29.10468	42678
29.11282	42193
29.12093	43884
29.12907	38519
29.13718	39724
29.14530	40071
29.15343	43444
29.16155	43138
29.16967	43506
29.17780	48937
29.18592	52879
29.19405	53330
29.20217	56829
29.21028	57576
29.21842	58912
29.22653	52146
29.23467	47961
29.24278	52687
29.25090	47582
29.25903	46072
29.26715	41464
29.27527	39657
29.28340	41004
29.29152	38360
29.29965	38556
29.30777	38236
29.31588	40169
29.32402	39655
29.33213	40639
29.34027	38412
29.34838	36136
29.35650	41130
29.36463	40159
29.37275	39965
29.38088	42741
29.38900	44088
29.39712	41834
29.40525	43390
29.41337	41450
29.42148	40756
29.42962	41158
29.43773	40137
29.44587	41109
29.45398	39715
29.46210	39388
29.47023	42790
29.47835	46922
29.48648	46994
29.49460	47127
29.50272	47120
29.51085	51503
29.51897	49066
29.52708	40813
29.53522	44465
29.54333	43288
29.55147	40838
29.55958	40117
29.56770	44846
29.57583	44451
29.58395	50234
29.59208	51030
29.60020	45904
29.60832	46528
29.61645	43280
29.62457	42226
29.63270	38522
29.64082	38891
29.64893	40360
29.65707	35229
29.66518	39365
29.67330	36549
29.68143	36511
29.68955	36602
29.69768	33075
29.70580	36303
29.71392	39562
29.72205	34284
29.73017	35556
29.73830	35123
29.74642	34787
29.75453	32303
29.76267	35001
29.77078	35652
29.77892	34185
29.78703	32638
29.79515	35375
29.80328	36616
29.81140	31967
29.81952	34599
29.82765	33000
29.83577	34251
29.84390	38086
29.85202	38035
29.86013	45691
29.86827	54199
29.87638	69297
29.88452	83470
29.89263	92795
29.90075	94446
29.90888	98301
29.91700	104222
29.92512	108014
29.93325	110751
29.94137	118454
29.94950	112951
29.95762	117196
29.96573	114349
29.97387	111843
29.98198	109278
29.99012	101451
29.99823	100914
30.00635	98016
30.01448	87905
30.02260	81309
30.03073	81131
30.03885	78041
30.04697	76213
30.05510	75790
30.06322	74216
30.07133	68232
30.07947	66858
30.08758	61718
30.09572	62185
30.10383	60022
30.11195	57051
30.12008	52902
30.12820	53562
30.13633	52987
30.14445	52321
30.15257	50587
30.16070	51987
30.16882	53056
30.17695	52201
30.18507	50271
30.19318	50305
30.20132	50931
30.20943	47650
30.21755	44978
30.22568	50141
30.23380	52264
30.24193	49499
30.25005	47817
30.25817	52995
30.26630	54214
30.27442	51975
30.28255	55415
30.29067	52264
30.29878	56808
30.30692	52725
30.31503	53490
30.32315	50843
30.33128	51549
30.33940	55808
30.34753	48914
30.35565	54975
30.36377	55609
30.37190	48122
30.38002	51648
30.38815	51390
30.39627	54630
30.40438	45283
30.41252	48568
30.42063	46166
30.42877	45309
30.43688	45623
30.44500	47155
30.45313	46325
30.46125	47481
30.46937	45139
30.47750	44203
30.48562	46493
30.49375	45619
30.50187	46095
30.50998	42115
30.51812	42268
30.52623	41085
30.53437	39945
30.54248	43300
30.55060	45030
30.55873	44122
30.56685	44106
30.57497	41983
30.58310	40931
30.59122	39445
30.59935	42020
30.60747	43848
30.61558	41779
30.62372	40860
30.63183	40686
30.63997	42736
30.64808	39250
30.65620	39497
30.66433	42363
30.67245	41330
30.68058	42060
30.68870	41032
30.69682	39980
30.70495	40104
30.71307	38222
30.72118	45578
30.72932	40935
30.73743	40163
30.74557	42703
30.75368	52313
30.76180	56675
30.76993	71375
30.77805	91541
30.78618	109073
30.79430	112566
30.80242	117149
30.81055	96732
30.81867	82108
30.82680	64581
30.83492	53882
30.84303	52188
30.85117	43036
30.85928	46896
30.86740	43651
30.87553	45016
30.88365	43068
30.89178	45799
30.89990	42055
30.90802	37607
30.91615	38520
30.92427	41395
30.93240	38912
30.94052	40886
30.94863	40891
30.95677	45342
30.96488	45501
30.97302	39044
30.98113	38389
30.98925	40353
30.99738	39399
31.00550	35924
31.01362	40986
31.02175	40399
31.02987	39834
31.03800	37680
31.04612	40561
31.05423	43877
31.06237	48908
31.07048	59769
31.07862	57796
31.08673	64630
31.09485	66713
31.10298	57268
31.11110	54695
31.11922	49747
31.12735	47033
31.13547	48645
31.14360	47096
31.15172	42502
31.15983	43897
31.16797	42424
31.17608	43823
31.18422	44340
31.19233	44182
31.20045	46300
31.20858	45026
31.21670	41721
31.22483	38373
31.23295	43616
31.24107	41152
31.24920	43365
31.25732	38219
31.26543	36390
31.27357	38942
31.28168	38678
31.28982	42896
31.29793	44357
31.30605	46095
31.31418	45424
31.32230	42296
31.33043	41607
31.33855	37726
31.34667	40559
31.35480	34059
31.36292	39835
31.37103	38531
31.37917	38564
31.38728	36607
31.39542	41222
31.40353	35413
31.41165	36766
31.41978	35842
31.42790	40772
31.43603	39197
31.44415	39435
31.45227	44639
31.46040	47247
31.46852	50324
31.47665	48571
31.48477	46034
31.49288	45069
31.50102	40190
31.50913	43654
31.51725	41266
31.52538	44758
31.53350	43416
31.54163	47598
31.54975	46298
31.55787	41689
31.56600	44121
31.57412	41251
31.58225	40333
31.59037	39163
31.59848	46591
31.60662	34747
31.61473	38717
31.62287	39910
31.63098	36739
31.63910	41309
31.64723	41693
31.65535	41378
31.66347	41611
31.67160	43821
31.67972	51791
31.68785	45260
31.69597	49598
31.70408	45924
31.71222	43088
31.72033	37856
31.72847	41769
31.73658	37025
31.74470	36479
31.75283	38862
31.76095	43483
31.76907	40617
31.77720	44073
31.78532	47843
31.79345	49756
31.80157	46539
31.80968	46274
31.81782	52535
31.82593	57064
31.83407	62957
31.84218	70937
31.85030	78710
31.85843	89045
31.86655	96012
31.87468	96017
31.88280	94609
31.89092	96045
31.89905	98045
31.90717	86136
31.91528	85526
31.92342	80817
31.93153	75429
31.93967	73710
31.94778	75378
31.95590	76937
31.96403	79820
31.97215	72775
31.98028	74656
31.98840	73479
31.99652	64096
32.00465	60765
32.01277	57044
32.02090	58347
32.02902	58415
32.03713	58773
32.04527	52095
32.05338	54336
32.06150	48810
32.06963	48461
32.07775	45485
32.08588	49425
32.09400	46945
32.10212	44609
32.11025	42653
32.11837	45580
32.12650	41345
32.13462	41488
32.14273	41909
32.15087	39665
32.15898	39582
32.16710	42785
32.17523	39406
32.18335	42950
32.19148	42483
32.19960	42091
32.20772	42254
32.21585	41326
32.22397	44821
32.23210	41931
32.24022	46322
32.24833	43666
32.25647	46438
32.26458	42053
32.27272	41269
32.28083	41636
32.28895	42759
32.29708	41462
32.30520	38087
32.31332	44280
32.32145	44152
32.32957	44848
32.33770	42890
32.34582	46862
32.35393	45470
32.36207	42017
32.37018	42584
32.37832	37638
32.38643	37238
32.39455	40497
32.40268	38950
32.41080	38847
32.41892	38424
32.42705	38502
32.43517	36985
32.44330	34417
32.45142	33911
32.45953	36421
32.46767	37714
32.47578	37555
32.48392	35156
32.49203	36066
32.50015	37631
32.50828	36434
32.51640	37634
32.52453	38465
32.53265	42987
32.54077	51233
32.54890	56136
32.55702	64017
32.56513	75925
32.57327	73333
32.58138	67009
32.58952	55008
32.59763	50311
32.60575	44663
32.61388	42987
32.62200	44044
32.63013	40499
32.63825	38447
32.64637	42953
32.65450	40358
32.66262	42644
32.67075	41414
32.67887	43198
32.68698	48168
32.69512	48303
32.70323	48259
32.71135	46455
32.71948	48889
32.72760	44668
32.73573	44229
32.74385	41776
32.75197	42203
32.76010	37191
32.76822	39052
32.77635	32881
32.78447	36816
32.79258	38541
32.80072	32788
32.80883	37215
32.81695	35796
32.82508	35158
32.83320	36404
32.84133	37379
32.84945	38741
32.85757	39346
32.86570	37701
32.87382	39194
32.88195	39034
32.89007	40873
32.89818	39608
32.90632	40671
32.91443	37479
32.92257	38814
32.93068	36982
32.93880	46105
32.94693	41272
32.95505	45043
32.96317	48928
32.97130	55250
32.97942	65042
32.98755	69280
32.99567	72267
33.00378	60867
33.01192	50977
33.02003	49580
33.02817	47672
33.03628	42575
33.04440	41508
33.05253	43075
33.06065	45273
33.06878	46868
33.07690	50628
33.08502	54829
33.09315	60406
33.10127	67986
33.10938	61468
33.11752	59523
33.12563	52183
33.13377	50828
33.14188	47551
33.15000	44654
33.15813	39481
33.16625	44732
33.17438	39112
33.18250	42753
33.19062	39937
33.19875	39134
33.20687	37478
33.21498	38555
33.22312	38655
33.23123	36465
33.23937	37255
33.24748	43773
33.25560	42097
33.26373	38060
33.27185	40341
33.27998	38299
33.28810	41104
33.29622	39319
33.30435	42005
33.31247	38743
33.32060	40462
33.32872	39391
33.33683	41301
33.34497	42597
33.35308	41112
33.36120	40814
33.36933	39606
33.37745	40593
33.38558	36617
33.39370	40039
33.40182	41019
33.40995	40727
33.41807	44517
33.42620	45031
33.43432	43626
33.44243	42357
33.45057	43020
33.45868	44769
33.46682	44143
33.47493	48189
33.48305	43532
33.49118	44508
33.49930	47428
33.50742	47000
33.51555	50145
33.52367	53765
33.53180	53477
33.53992	55201
33.54803	58791
33.55617	57884
33.56428	64581
33.57242	56455
33.58053	61830
33.58865	65464
33.59678	61399
33.60490	62917
33.61302	68069
33.62115	67114
33.62927	60920
33.63740	64947
33.64552	62962
33.65363	65347
33.66177	68380
33.66988	66210
33.67802	63898
33.68613	65653
33.69425	63870
33.70238	67031
33.71050	70317
33.71863	65095
33.72675	68437
33.73487	68978
33.74300	65390
33.75112	67207
33.75923	69797
33.76737	59998
33.77548	64028
33.78362	58633
33.79173	68299
33.79985	60214
33.80798	64742
33.81610	57083
33.82423	59732
33.83235	61374
33.84047	57202
33.84860	57482
33.85672	57303
33.86483	58194
33.87297	54674
33.88108	54534
33.88922	50776
33.89733	53611
33.90545	52922
33.91358	52140
33.92170	53671
33.92983	51749
33.93795	47337
33.94607	45526
33.95420	50516
33.96232	53186
33.97045	48859
33.97857	47335
33.98668	54182
33.99482	49819
34.00293	47966
34.01105	53273
34.01918	46961
34.02730	44517
34.03543	48659
34.04355	45709
34.05167	48103
34.05980	46940
34.06792	46430
34.07605	45745
34.08417	46835
34.09228	44588
34.10042	43644
34.10853	47525
34.11667	42813
34.12478	46747
34.13290	46178
34.14103	44337
34.14915	43899
34.15727	48456
34.16540	47790
34.17352	46218
34.18165	47108
34.18977	46036
34.19788	47690
34.20602	43382
34.21413	43420
34.22227	42048
34.23038	45452
34.23850	42287
34.24663	40745
34.25475	45298
34.26287	44025
34.27100	46319
34.27912	43177
34.28725	46444
34.29537	46150
34.30348	50993
34.31162	50680
34.31973	48276
34.32787	48614
34.33598	49277
34.34410	49618
34.35223	50117
34.36035	50865
34.36848	53211
34.37660	52501
34.38472	52343
34.39285	55282
34.40097	51155
34.40908	63605
34.41722	64701
34.42533	73045
34.43347	83596
34.44158	95614
34.44970	105721
34.45783	119879
34.46595	125387
34.47408	125380
34.48220	118450
34.49032	117717
34.49845	112366
34.50657	103346
34.51470	104379
34.52282	94365
34.53093	86532
34.53907	85113
34.54718	82184
34.55530	77013
34.56343	73543
34.57155	73143
34.57968	67104
34.58780	68994
34.59592	65610
34.60405	65821
34.61217	64934
34.62030	62272
34.62842	62093
34.63653	61149
34.64467	61120
34.65278	56148
34.66090	53992
34.66903	54622
34.67715	55391
34.68528	50881
34.69340	54889
34.70152	50558
34.70965	51472
34.71777	50841
34.72590	48556
34.73402	46739
34.74213	50645
34.75027	48849
34.75838	48516
34.76652	46557
34.77463	50853
34.78275	47507
34.79088	51880
34.79900	47715
34.80712	49574
34.81525	47061
34.82337	52764
34.83150	52843
34.83962	48463
34.84773	47614
34.85587	48611
34.86398	52833
34.87212	44438
34.88023	51279
34.88835	50377
34.89648	50890
34.90460	52919
34.91272	52409
34.92085	52296
34.92897	53806
34.93710	53722
34.94522	52362
34.95333	52757
34.96147	53822
34.96958	50049
34.97772	51470
34.98583	51670
34.99395	50150
35.00208	47895
35.01020	47387
35.01833	50157
35.02645	52105
35.03457	50561
35.04270	49136
35.05082	51865
35.05893	53483
35.06707	52316
35.07518	47566
35.08332	46367
35.09143	45466
35.09955	44350
35.10768	46428
35.11580	46482
35.12393	44936
35.13205	48617
35.14017	48960
35.14830	51707
35.15642	49342
35.16455	43856
35.17267	47787
35.18078	48829
35.18892	48467
35.19703	47039
35.20515	49871
35.21328	47823
35.22140	51182
35.22953	49259
35.23765	47522
35.24577	49104
35.25390	56293
35.26202	51625
35.27015	52555
35.27827	46755
35.28638	54076
35.29452	49611
35.30263	43398
35.31077	46169
35.31888	46232
35.32700	48932
35.33513	47037
35.34325	50653
35.35137	48756
35.35950	51580
35.36762	48455
35.37575	49281
35.38387	48295
35.39198	46057
35.40012	48905
35.40823	54122
35.41637	52820
35.42448	49257
35.43260	49106
35.44073	53779
35.44885	55055
35.45697	50908
35.46510	52562
35.47322	50540
35.48135	49318
35.48947	51199
35.49758	51220
35.50572	52864
35.51383	48564
35.52197	50114
35.53008	47801
35.53820	55253
35.54633	54814
35.55445	56139
35.56258	65170
35.57070	57904
35.57882	56190
35.58695	52464
35.59507	52710
35.60318	49050
35.61132	50633
35.61943	48612
35.62757	46987
35.63568	50456
35.64380	50518
35.65193	49829
35.66005	52744
35.66818	54578
35.67630	49633
35.68442	58778
35.69255	48814
35.70067	53958
35.70878	52697
35.71692	54180
35.72503	55695
35.73317	54999
35.74128	61235
35.74940	57162
35.75753	60961
35.76565	61753
35.77378	61893
35.78190	56199
35.79002	53955
35.79815	52072
35.80627	55500
35.81440	53220
35.82252	56933
35.83063	53908
35.83877	54543
35.84688	54764
35.85500	52498
35.86313	54099
35.87125	51965
35.87938	48380
35.88750	52330
35.89562	52972
35.90375	50957
35.91187	51207
35.92000	52223
35.92812	50480
35.93623	50270
35.94437	49665
35.95248	48195
35.96062	51846
35.96873	50998
35.97685	51721
35.98498	53779
35.99310	61209
36.00122	55323
36.00935	58733
36.01747	53895
36.02560	54011
36.03372	53240
36.04183	52333
36.04997	52875
36.05808	51370
36.06622	52656
36.07433	50041
36.08245	53135
36.09058	50814
36.09870	54601
36.10682	51756
36.11495	54467
36.12307	52940
36.13120	60239
36.13932	53047
36.14743	58554
36.15557	50523
36.16368	60403
36.17182	52694
36.17993	55094
36.18805	63184
36.19618	74390
36.20430	80000
36.21243	85782
36.22055	85362
36.22867	78231
36.23680	70725
36.24492	68636
36.25303	58554
36.26117	57481
36.26928	53239
36.27742	53883
36.28553	54040
36.29365	58464
36.30178	53590
36.30990	54068
36.31803	56950
36.32615	50935
36.33427	54855
36.34240	54138
36.35052	53807
36.35865	53907
36.36677	58035
36.37488	52374
36.38302	59045
36.39113	55280
36.39925	56230
36.40738	54174
36.41550	54225
36.42363	53934
36.43175	55626
36.43987	52106
36.44800	49256
36.45612	52506
36.46425	52787
36.47237	52938
36.48048	53929
36.48862	52416
36.49673	50101
36.50485	50889
36.51298	50582
36.52110	52623
36.52923	51411
36.53735	54845
36.54547	59695
36.55360	59720
36.56172	54743
36.56985	55273
36.57797	56693
36.58608	54464
36.59422	57188
36.60233	56427
36.61047	54058
36.61858	53301
36.62670	53219
36.63483	52416
36.64295	54754
36.65107	54178
36.65920	49564
36.66732	51236
36.67545	49153
36.68357	52178
36.69168	51036
36.69982	54899
36.70793	54072
36.71607	54184
36.72418	50259
36.73230	51955
36.74043	51177
36.74855	52998
36.75667	61109
36.76480	56150
36.77292	53227
36.78105	51943
36.78917	53099
36.79728	50547
36.80542	58333
36.81353	50804
36.82167	52284
36.82978	54307
36.83790	54317
36.84603	54027
36.85415	51881
36.86228	52355
36.87040	52619
36.87852	55076
36.88665	55536
36.89477	51896
36.90288	54882
36.91102	54330
36.91913	55856
36.92727	60921
36.93538	66153
36.94350	71271
36.95163	72900
36.95975	75153
36.96788	71280
36.97600	70935
36.98412	79225
36.99225	82707
37.00037	97651
37.00850	100857
37.01662	104527
37.02473	102340
37.03287	99273
37.04098	89865
37.04910	73326
37.05723	68988
37.06535	64513
37.07348	65392
37.08160	64546
37.08972	60317
37.09785	61849
37.10597	60659
37.11410	60800
37.12222	61476
37.13033	60823
37.13847	61482
37.14658	61919
37.15470	59600
37.16283	54593
37.17095	57611
37.17908	57547
37.18720	59412
37.19532	60849
37.20345	62823
37.21157	64117
37.21970	70441
37.22782	73121
37.23593	84566
37.24407	95540
37.25218	94819
37.26032	107598
37.26843	106976
37.27655	96315
37.28468	98775
37.29280	92846
37.30092	93519
37.30905	81404
37.31717	84700
37.32530	79050
37.33342	76107
37.34153	76029
37.34967	73428
37.35778	72739
37.36592	68826
37.37403	68521
37.38215	71903
37.39028	67066
37.39840	68878
37.40653	70141
37.41465	69187
37.42277	67881
37.43090	66928
37.43902	68205
37.44713	69890
37.45527	69675
37.46338	72418
37.47152	70168
37.47963	70834
37.48775	70407
