Z:\data\JTB-E02\BACandBLUE\JTB-E02-190-14.D Tue Dec 11 18:12:36 2018
Start of data points
2.09525	96969
2.10337	89874
2.11150	89803
2.11962	91860
2.12773	97370
2.13587	92898
2.14398	87998
2.15212	89340
2.16023	97787
2.16835	89375
2.17648	92812
2.18460	85847
2.19273	88860
2.20085	86348
2.20897	81229
2.21710	81604
2.22522	75431
2.23333	88562
2.24147	76939
2.24958	75576
2.25772	82064
2.26583	84298
2.27395	214608
2.28208	1002525
2.29020	1500203
2.29833	836491
2.30645	445854
2.31457	330136
2.32270	274377
2.33082	250307
2.33895	225779
2.34707	209656
2.35518	197175
2.36332	187140
2.37143	175515
2.37955	174205
2.38768	165851
2.39580	164212
2.40393	162376
2.41205	157661
2.42017	156004
2.42830	159108
2.43642	151083
2.44455	147987
2.45267	147772
2.46078	148932
2.46892	142725
2.47703	142021
2.48515	137136
2.49328	138408
2.50140	148025
2.50953	148435
2.51765	132355
2.52577	132514
2.53390	135036
2.54202	131782
2.55015	135929
2.55827	138719
2.56638	164361
2.57452	159582
2.58263	137693
2.59077	125859
2.59888	126400
2.60700	138968
2.61513	299452
2.62325	476884
2.63137	364760
2.63950	248704
2.64762	192295
2.65575	174881
2.66387	149121
2.67198	142333
2.68012	135754
2.68823	128441
2.69637	128955
2.70448	124565
2.71260	122577
2.72073	122585
2.72885	119690
2.73698	112564
2.74510	112981
2.75322	117153
2.76135	113761
2.76947	113380
2.77758	194194
2.78572	1305100
2.79383	4137391
2.80197	4354106
2.81008	2344249
2.81820	1337327
2.82633	1063145
2.83445	874642
2.84258	672639
2.85070	536106
2.85882	451645
2.86695	401811
2.87507	352241
2.88318	314187
2.89132	291618
2.89943	267808
2.90757	245934
2.91568	224062
2.92380	208472
2.93193	202529
2.94005	187686
2.94818	182350
2.95630	194315
2.96442	176959
2.97255	185082
2.98067	183618
2.98880	173809
2.99692	166407
3.00503	163573
3.01317	166157
3.02128	166786
3.02940	157273
3.03753	156582
3.04565	143851
3.05378	141916
3.06190	144798
3.07002	142134
3.07815	141187
3.08627	176989
3.09440	460256
3.10252	1142627
3.11063	2837194
3.11877	5312668
3.12688	5143212
3.13500	3144898
3.14313	1965821
3.15125	1403152
3.15938	1072689
3.16750	888999
3.17562	856934
3.18375	1018472
3.19187	2156893
3.20000	5759093
3.20812	7750572
3.21623	5788300
3.22437	3723440
3.23248	2694025
3.24062	2074154
3.24873	1664254
3.25685	1387042
3.26498	1167010
3.27310	1003305
3.28122	884466
3.28935	817724
3.29747	1068582
3.30560	2477107
3.31372	5122336
3.32183	7052644
3.32997	6246387
3.33808	4234302
3.34622	2739467
3.35433	1952379
3.36245	1512147
3.37058	1265745
3.37870	1066061
3.38683	947475
3.39495	839277
3.40307	767178
3.41120	698818
3.41932	641302
3.42743	608836
3.43557	601224
3.44368	621882
3.45182	627905
3.45993	564274
3.46805	602477
3.47618	797614
3.48430	982493
3.49243	889856
3.50055	679245
3.50867	519117
3.51680	449385
3.52492	413602
3.53305	410228
3.54117	471493
3.54928	523873
3.55742	532736
3.56553	464098
3.57365	396150
3.58178	362949
3.58990	331680
3.59803	319835
3.60615	302116
3.61427	295823
3.62240	292432
3.63052	295128
3.63865	322710
3.64677	326930
3.65488	333462
3.66302	668401
3.67113	4982510
3.67925	2.301023E+07
3.68738	4.624342E+07
3.69550	5.523761E+07
3.70363	4.73748E+07
3.71175	3.217754E+07
3.71987	2.214225E+07
3.72800	1.741843E+07
3.73612	1.432457E+07
3.74425	1.186079E+07
3.75237	1.022496E+07
3.76048	8927955
3.76862	7723772
3.77673	6830221
3.78487	6085609
3.79298	5463418
3.80110	5063483
3.80923	4766814
3.81735	4829670
3.82547	5298797
3.83360	5135411
3.84172	4511025
3.84985	3884519
3.85797	3527455
3.86608	3226643
3.87422	2992959
3.88233	2816369
3.89047	2650669
3.89858	2499101
3.90670	2358279
3.91483	2283818
3.92295	2369135
3.93107	2815825
3.93920	3407092
3.94732	3414589
3.95545	2875940
3.96357	2488725
3.97168	2450126
3.97982	2478519
3.98793	2221258
3.99607	1921495
4.00418	1776512
4.01230	1911868
4.02043	2344601
4.02855	2594238
4.03668	2307253
4.04480	1844803
4.05292	1543367
4.06105	1383510
4.06917	1263077
4.07728	1203954
4.08542	1165037
4.09353	1149836
4.10167	1118932
4.10978	1092077
4.11790	1062423
4.12603	1022590
4.13415	981508
4.14228	951793
4.15040	941069
4.15852	947947
4.16665	950702
4.17477	955924
4.18290	933759
4.19102	923332
4.19913	903214
4.20727	888682
4.21538	1281228
4.22350	3719973
4.23163	1.036556E+07
4.23975	2.004925E+07
4.24788	2.787956E+07
4.25600	3.342154E+07
4.26412	3.68175E+07
4.27225	3.585702E+07
4.28037	2.425787E+07
4.28850	1.194518E+07
4.29662	8329931
4.30473	6493630
4.31287	5315314
4.32098	4440802
4.32910	3752644
4.33723	3283145
4.34535	2925905
4.35348	2610801
4.36160	2428377
4.36972	2424569
4.37785	2566961
4.38597	2588321
4.39410	2272823
4.40222	1885400
4.41033	1638370
4.41847	1486726
4.42658	1370305
4.43472	1290833
4.44283	1214696
4.45095	1145807
4.45908	1077272
4.46720	1033429
4.47532	1007813
4.48345	958123
4.49157	926824
4.49970	896212
4.50782	873538
4.51593	835296
4.52407	821135
4.53218	806913
4.54032	798126
4.54843	801688
4.55655	853851
4.56468	880702
4.57280	833561
4.58093	768232
4.58905	704446
4.59717	667708
4.60530	668264
4.61342	637858
4.62153	652788
4.62967	766273
4.63778	1196661
4.64592	2092862
4.65403	2899399
4.66215	2890744
4.67028	2227306
4.67840	1602682
4.68653	1268887
4.69465	1128449
4.70277	974333
4.71090	848676
4.71902	755844
4.72713	679549
4.73527	637379
4.74338	601412
4.75152	581146
4.75963	557174
4.76775	544378
4.77588	528559
4.78400	517492
4.79213	518580
4.80025	596567
4.80837	763800
4.81650	952098
4.82462	967791
4.83275	828088
4.84087	738267
4.84898	772342
4.85712	895075
4.86523	943630
4.87335	872691
4.88148	739116
4.88960	633035
4.89773	567802
4.90585	528636
4.91397	515262
4.92210	491398
4.93022	474551
4.93835	470171
4.94647	528468
4.95458	740699
4.96272	1215521
4.97083	1821072
4.97895	2182095
4.98708	2126463
4.99520	1713279
5.00333	1314290
5.01145	1061503
5.01957	926303
5.02770	898081
5.03582	1121427
5.04395	1669522
5.05207	2238765
5.06018	2343701
5.06832	1961712
5.07643	1551760
5.08457	1268794
5.09268	1092842
5.10080	996016
5.10893	893656
5.11705	842871
5.12517	801399
5.13330	741890
5.14142	707486
5.14955	699418
5.15767	748130
5.16578	989210
5.17392	1323551
5.18203	1547489
5.19017	1445495
5.19828	1232479
5.20640	1124574
5.21453	1229157
5.22265	1347336
5.23078	1308113
5.23890	1142635
5.24702	1022142
5.25515	829471
5.26327	719086
5.27138	625267
5.27952	554203
5.28763	508120
5.29577	481895
5.30388	463407
5.31200	453764
5.32013	434473
5.32825	437516
5.33638	448476
5.34450	472577
5.35262	496253
5.36075	499708
5.36887	455918
5.37698	438075
5.38512	424581
5.39323	436811
5.40137	477865
5.40948	546624
5.41760	578683
5.42573	544610
5.43385	480714
5.44198	450880
5.45010	421609
5.45822	497686
5.46635	580536
5.47447	624541
5.48260	580722
5.49072	489908
5.49883	428630
5.50697	369255
5.51508	361448
5.52320	372387
5.53133	373742
5.53945	364545
5.54758	376716
5.55570	394041
5.56382	548911
5.57195	947920
5.58007	1521855
5.58820	1912535
5.59632	1784069
5.60443	1373221
5.61257	930736
5.62068	648504
5.62882	529971
5.63693	459829
5.64505	414750
5.65318	388628
5.66130	370171
5.66942	353548
5.67755	349299
5.68567	362821
5.69380	430940
5.70192	512982
5.71003	549886
5.71817	529470
5.72628	489678
5.73442	422219
5.74253	382567
5.75065	341835
5.75878	328926
5.76690	321923
5.77502	307265
5.78315	293981
5.79127	291941
5.79940	288321
5.80752	295521
5.81563	288285
5.82377	287225
5.83188	284712
5.84002	286504
5.84813	281125
5.85625	274041
5.86438	276242
5.87250	280040
5.88063	263926
5.88875	261991
5.89687	265076
5.90500	260209
5.91312	283027
5.92123	296406
5.92937	343144
5.93748	367279
5.94562	352082
5.95373	343413
5.96185	381825
5.96998	479889
5.97810	598034
5.98623	778464
5.99435	1009641
6.00247	1184336
6.01060	1184001
6.01872	1021130
6.02685	747590
6.03497	565058
6.04308	421675
6.05122	356504
6.05933	311512
6.06745	294836
6.07558	281889
6.08370	277723
6.09183	266738
6.09995	254847
6.10807	241226
6.11620	232762
6.12432	263015
6.13245	381154
6.14057	775085
6.14868	1470103
6.15682	2191347
6.16493	2314039
6.17305	1858575
6.18118	1290546
6.18930	884594
6.19743	676358
6.20555	569530
6.21367	483689
6.22180	437012
6.22992	413796
6.23805	388058
6.24617	378433
6.25428	387402
6.26242	429073
6.27053	494350
6.27867	521230
6.28678	501506
6.29490	413622
6.30303	374956
6.31115	349229
6.31927	340119
6.32740	325479
6.33552	331032
6.34365	337711
6.35177	333052
6.35988	327199
6.36802	321813
6.37613	300878
6.38427	302827
6.39238	308526
6.40050	307948
6.40863	305283
6.41675	292754
6.42487	285631
6.43300	288290
6.44112	279827
6.44925	280917
6.45737	290201
6.46548	306915
6.47362	323763
6.48173	314951
6.48987	303032
6.49798	307323
6.50610	297397
6.51423	306192
6.52235	301604
6.53048	315183
6.53860	322851
6.54672	304070
6.55485	304976
6.56297	326108
6.57108	413209
6.57922	708326
6.58733	1164648
6.59547	1543729
6.60358	1525711
6.61170	1168624
6.61983	781512
6.62795	559629
6.63608	454705
6.64420	401524
6.65232	367917
6.66045	296805
6.66857	278356
6.67670	285160
6.68482	275104
6.69293	263163
6.70107	234539
6.70918	220782
6.71730	219589
6.72543	210726
6.73355	212270
6.74168	197433
6.74980	202891
6.75792	198317
6.76605	195246
6.77417	181826
6.78230	189881
6.79042	186517
6.79853	187019
6.80667	184266
6.81478	168928
6.82290	161290
6.83103	166256
6.83915	157286
6.84728	163474
6.85540	165449
6.86352	177055
6.87165	187981
6.87977	222168
6.88790	240676
6.89602	235707
6.90413	206245
6.91227	175199
6.92038	158522
6.92852	149546
6.93663	140497
6.94475	145634
6.95288	139525
6.96100	137830
6.96912	136237
6.97725	161849
6.98537	180469
6.99350	193308
7.00162	210165
7.00973	187890
7.01787	171746
7.02598	169130
7.03412	172252
7.04223	162012
7.05035	161025
7.05848	166115
7.06660	181185
7.07473	222787
7.08285	303959
7.09097	379603
7.09910	416317
7.10722	401459
7.11533	339939
7.12347	259182
7.13158	221122
7.13972	202283
7.14783	209874
7.15595	227514
7.16408	256221
7.17220	313130
7.18033	373288
7.18845	521895
7.19657	1270981
7.20470	3228069
7.21282	6587941
7.22093	9888920
7.22907	1.098293E+07
7.23718	9091802
7.24532	5472338
7.25343	2656161
7.26155	1111577
7.26968	477719
7.27780	271372
7.28593	210677
7.29405	200594
7.30217	196510
7.31030	200476
7.31842	194426
7.32655	195849
7.33467	205923
7.34278	254164
7.35092	310852
7.35903	363454
7.36715	369796
7.37528	343567
7.38340	297621
7.39153	235065
7.39965	193519
7.40777	179083
7.41590	164456
7.42402	164552
7.43215	158474
7.44027	152207
7.44838	151714
7.45652	145559
7.46463	150954
7.47275	160722
7.48088	166220
7.48900	167870
7.49713	159981
7.50525	143443
7.51337	136092
7.52150	138037
7.52962	151799
7.53775	220526
7.54587	391439
7.55398	878691
7.56212	1861874
7.57023	3388493
7.57837	5296750
7.58648	6797093
7.59460	7466170
7.60273	6707183
7.61085	5160729
7.61897	3499041
7.62710	2159985
7.63522	1315754
7.64335	860836
7.65147	612867
7.65958	481094
7.66772	368595
7.67583	306919
7.68397	255870
7.69208	214234
7.70020	178788
7.70833	156620
7.71645	157798
7.72458	180431
7.73270	230606
7.74082	279194
7.74895	341014
7.75707	359678
7.76518	367869
7.77332	348349
7.78143	314257
7.78957	286510
7.79768	268626
7.80580	273789
7.81393	310266
7.82205	356705
7.83018	387573
7.83830	380841
7.84642	328319
7.85455	279286
7.86267	245015
7.87080	228463
7.87892	253001
7.88703	285252
7.89517	352223
7.90328	413905
7.91140	471967
7.91953	487784
7.92765	408187
7.93578	339556
7.94390	298006
7.95202	296239
7.96015	318264
7.96827	336544
7.97640	315935
7.98452	278903
7.99263	237860
8.00077	197473
8.00888	167905
8.01700	149829
8.02513	142808
8.03325	133847
8.04138	131261
8.04950	130432
8.05762	126955
8.06575	123238
8.07387	125457
8.08200	120187
8.09012	122821
8.09823	123752
8.10637	120070
8.11448	119011
8.12262	110869
8.13073	114856
8.13885	141135
8.14698	206012
8.15510	308446
8.16322	404393
8.17135	438162
8.17947	414930
8.18760	321263
8.19572	231778
8.20383	198090
8.21197	157592
8.22008	143429
8.22822	132422
8.23633	121199
8.24445	115507
8.25258	117867
8.26070	109233
8.26882	106728
8.27695	92231
8.28507	99684
8.29320	104455
8.30132	102965
8.30943	98194
8.31757	99295
8.32568	105777
8.33382	119828
8.34193	121348
8.35005	135103
8.35818	125791
8.36630	113907
8.37443	105161
8.38255	100637
8.39067	93814
8.39880	89556
8.40692	91439
8.41503	82400
8.42317	84380
8.43128	80917
8.43942	78680
8.44753	84554
8.45565	85763
8.46378	83696
8.47190	88797
8.48003	81409
8.48815	80088
8.49627	77859
8.50440	78993
8.51252	78605
8.52065	94740
8.52877	134886
8.53688	210263
8.54502	288855
8.55313	331864
8.56125	305670
8.56938	218119
8.57750	147890
8.58563	108858
8.59375	91759
8.60187	96058
8.61000	112189
8.61812	121004
8.62625	162285
8.63437	193198
8.64248	209978
8.65062	210607
8.65873	185962
8.66685	157220
8.67498	123224
8.68310	103654
8.69123	89105
8.69935	85286
8.70747	86768
8.71560	91932
8.72372	84302
8.73185	81937
8.73997	80940
8.74808	79200
8.75622	78130
8.76433	82230
8.77247	84770
8.78058	113487
8.78870	169283
8.79683	240702
8.80495	341843
8.81307	409868
8.82120	420040
8.82932	353732
8.83745	293360
8.84557	234788
8.85368	225200
8.86182	219039
8.86993	201726
8.87807	194735
8.88618	177028
8.89430	173361
8.90243	158431
8.91055	171130
8.91868	161330
8.92680	196055
8.93492	278478
8.94305	378044
8.95117	470567
8.95928	454361
8.96742	389098
8.97553	300369
8.98367	270136
8.99178	301306
8.99990	338859
9.00803	348767
9.01615	345289
9.02428	286329
9.03240	226342
9.04052	182436
9.04865	158692
9.05677	143498
9.06488	141712
9.07302	130973
9.08113	130536
9.08927	134101
9.09738	149830
9.10550	179239
9.11363	250681
9.12175	359529
9.12988	487363
9.13800	545790
9.14612	492420
9.15425	400619
9.16237	293653
9.17050	233153
9.17862	181735
9.18673	178322
9.19487	162462
9.20298	164677
9.21110	156309
9.21923	144218
9.22735	142121
9.23548	144313
9.24360	146686
9.25172	153703
9.25985	160334
9.26797	156009
9.27610	140036
9.28422	137714
9.29233	131065
9.30047	130384
9.30858	125417
9.31670	128843
9.32483	127556
9.33295	122682
9.34108	125854
9.34920	116686
9.35732	115817
9.36545	108940
9.37357	112072
9.38170	111620
9.38982	125412
9.39793	147505
9.40607	193125
9.41418	269389
9.42232	353297
9.43043	437324
9.43855	519655
9.44668	577270
9.45480	630705
9.46292	632062
9.47105	573233
9.47917	462564
9.48730	358250
9.49542	253542
9.50353	203790
9.51167	171247
9.51978	179636
9.52792	214261
9.53603	246095
9.54415	266949
9.55228	264934
9.56040	236368
9.56853	209501
9.57665	171605
9.58477	150162
9.59290	124629
9.60102	124101
9.60913	110826
9.61727	115921
9.62538	105177
9.63352	103103
9.64163	99519
9.64975	99291
9.65788	95220
9.66600	98705
9.67413	93147
9.68225	98978
9.69037	93986
9.69850	89557
9.70662	93600
9.71473	99547
9.72287	98680
9.73098	95508
9.73912	101408
9.74723	97215
9.75535	93046
9.76348	88461
9.77160	77310
9.77973	77738
9.78785	79072
9.79597	78582
9.80410	75888
9.81222	75252
9.82035	81343
9.82847	74923
9.83658	77198
9.84472	75344
9.85283	76766
9.86095	77173
9.86908	78149
9.87720	73747
9.88533	76688
9.89345	75372
9.90157	77385
9.90970	73516
9.91782	75537
9.92595	76309
9.93407	87899
9.94218	117096
9.95032	193298
9.95843	329542
9.96657	535595
9.97468	745046
9.98280	865854
9.99093	802747
9.99905	649068
10.00717	440349
10.01530	282806
10.02342	189534
10.03155	151823
10.03967	136800
10.04778	135937
10.05592	148624
10.06403	163043
10.07217	163904
10.08028	167513
10.08840	170536
10.09653	160644
10.10465	158617
10.11277	156091
10.12090	138596
10.12902	139942
10.13715	123313
10.14527	128903
10.15338	121177
10.16152	121807
10.16963	119060
10.17777	110042
10.18588	111036
10.19400	115731
10.20213	109522
10.21025	98391
10.21838	103467
10.22650	97802
10.23462	103946
10.24275	103611
10.25087	112328
10.25898	136510
10.26712	243665
10.27523	594122
10.28337	1550142
10.29148	3372854
10.29960	6112805
10.30773	9236747
10.31585	1.252295E+07
10.32398	1.630806E+07
10.33210	2.143742E+07
10.34022	2.775181E+07
10.34835	3.567536E+07
10.35647	4.423723E+07
10.36458	5.028159E+07
10.37272	5.072112E+07
10.38083	3.920083E+07
10.38897	2.145698E+07
10.39708	1.089038E+07
10.40520	6770466
10.41333	4636692
10.42145	3127058
10.42958	2125764
10.43770	1550745
10.44582	1355763
10.45395	1291834
10.46207	1310140
10.47020	1330652
10.47832	1285360
10.48643	1154512
10.49457	1006766
10.50268	849022
10.51080	731343
10.51893	638618
10.52705	601729
10.53518	546573
10.54330	524703
10.55142	519524
10.55955	504414
10.56767	490217
10.57580	464412
10.58392	466546
10.59203	452963
10.60017	429228
10.60828	419758
10.61642	378672
10.62453	355634
10.63265	341510
10.64078	322980
10.64890	324494
10.65702	313264
10.66515	289405
10.67327	277539
10.68140	274063
10.68952	267213
10.69763	272257
10.70577	278924
10.71388	292996
10.72202	302763
10.73013	289864
10.73825	301199
10.74638	277160
10.75450	262231
10.76262	245789
10.77075	237608
10.77887	237934
10.78700	224439
10.79512	217207
10.80323	216904
10.81137	228719
10.81948	253925
10.82762	275116
10.83573	286527
10.84385	283701
10.85198	264589
10.86010	221142
10.86823	207078
10.87635	179245
10.88447	181787
10.89260	172529
10.90072	172661
10.90883	161654
10.91697	163361
10.92508	170722
10.93322	174229
10.94133	169415
10.94945	163197
10.95758	158531
10.96570	155458
10.97383	151035
10.98195	154171
10.99007	155537
10.99820	159748
11.00632	165079
11.01445	174443
11.02257	191205
11.03068	189323
11.03882	199310
11.04693	190261
11.05505	176397
11.06318	168910
11.07130	157974
11.07943	178445
11.08755	210247
11.09567	228408
11.10380	255148
11.11192	252581
11.12005	233415
11.12817	215847
11.13628	189305
11.14442	162908
11.15253	150314
11.16065	137887
11.16878	139806
11.17690	140158
11.18503	129863
11.19315	125237
11.20127	124734
11.20940	111290
11.21752	103534
11.22565	103941
11.23377	98515
11.24188	91169
11.25002	93093
11.25813	90645
11.26627	84301
11.27438	82511
11.28250	82905
11.29063	81196
11.29875	88153
11.30687	104102
11.31500	175793
11.32312	383858
11.33125	903682
11.33937	1878720
11.34748	3226255
11.35562	4576818
11.36373	5224456
11.37187	5125088
11.37998	4266588
11.38810	3097893
11.39623	2185891
11.40435	1614056
11.41248	1256373
11.42060	1056554
11.42872	880573
11.43685	725329
11.44497	612114
11.45308	506433
11.46122	434895
11.46933	381079
11.47747	346275
11.48558	313008
11.49370	328485
11.50183	367995
11.50995	433216
11.51808	500774
11.52620	567223
11.53432	583305
11.54245	538821
11.55057	479991
11.55868	423878
11.56682	389892
11.57493	367623
11.58307	356185
11.59118	354268
11.59930	365384
11.60743	434084
11.61555	577014
11.62368	766120
11.63180	888092
11.63992	875969
11.64805	753703
11.65617	551061
11.66430	390495
11.67242	296321
11.68053	216006
11.68867	199048
11.69678	184661
11.70490	183769
11.71303	169206
11.72115	169244
11.72928	171749
11.73740	164644
11.74552	160963
11.75365	140591
11.76177	137821
11.76990	126745
11.77802	123154
11.78613	112725
11.79427	111541
11.80238	110721
11.81050	100577
11.81863	97394
11.82675	95982
11.83488	92889
11.84300	95211
11.85112	93321
11.85925	92904
11.86737	88262
11.87550	91977
11.88362	86879
11.89173	87905
11.89987	89603
11.90798	84236
11.91612	84726
11.92423	90801
11.93235	94996
11.94048	94225
11.94860	101704
11.95672	93999
11.96485	98332
11.97297	82455
11.98110	80663
11.98922	75089
11.99733	75957
12.00547	77839
12.01358	73384
12.02172	72012
12.02983	73372
12.03795	76900
12.04608	71765
12.05420	74547
12.06233	80631
12.07045	79930
12.07857	88060
12.08670	94709
12.09482	95567
12.10293	114431
12.11107	175055
12.11918	316547
12.12732	607868
12.13543	1093057
12.14355	1706620
12.15168	2134043
12.15980	2275090
12.16793	2011694
12.17605	1515471
12.18417	1016314
12.19230	716699
12.20042	548103
12.20853	492123
12.21667	450893
12.22478	405966
12.23292	380678
12.24103	338371
12.24915	312530
12.25728	284187
12.26540	264156
12.27353	267054
12.28165	247822
12.28977	245285
12.29790	231987
12.30602	211863
12.31415	210514
12.32227	199859
12.33038	187948
12.33852	177564
12.34663	181706
12.35475	176946
12.36288	171327
12.37100	168922
12.37913	170218
12.38725	159875
12.39537	163582
12.40350	174762
12.41162	193573
12.41975	238891
12.42787	300832
12.43598	362096
12.44412	391048
12.45223	359537
12.46037	315554
12.46848	262486
12.47660	209786
12.48473	191134
12.49285	177167
12.50097	174517
12.50910	159324
12.51722	157561
12.52535	147669
12.53347	174642
12.54158	208516
12.54972	262868
12.55783	348806
12.56597	416462
12.57408	455271
12.58220	443621
12.59033	385046
12.59845	302364
12.60657	245677
12.61470	195757
12.62282	184287
12.63095	167726
12.63907	160769
12.64718	140372
12.65532	136874
12.66343	132300
12.67157	141360
12.67968	133346
12.68780	130228
12.69593	123071
12.70405	122751
12.71218	123598
12.72030	125553
12.72842	126311
12.73655	116799
12.74467	127307
12.75278	129914
12.76092	126147
12.76903	122372
12.77717	119871
12.78528	116055
12.79340	106198
12.80153	104062
12.80965	105087
12.81778	97900
12.82590	91170
12.83402	80870
12.84215	72939
12.85027	71554
12.85838	71789
12.86652	66340
12.87463	61774
12.88277	60457
12.89088	64705
12.89900	59808
12.90713	60636
12.91525	64663
12.92338	64305
12.93150	63636
12.93962	60461
12.94775	63318
12.95587	61679
12.96400	68145
12.97212	70126
12.98023	78991
12.98837	89974
12.99648	95842
13.00460	96582
13.01273	90566
13.02085	78761
13.02898	73911
13.03710	66909
13.04522	68815
13.05335	62496
13.06147	61087
13.06960	62118
13.07772	63470
13.08583	69039
13.09397	75981
13.10208	85137
13.11022	75929
13.11833	76556
13.12645	67907
13.13458	73320
13.14270	61716
13.15082	60296
13.15895	63519
13.16707	66391
13.17520	71891
13.18332	74808
13.19143	81985
13.19957	76047
13.20768	75321
13.21582	78070
13.22393	79712
13.23205	83873
13.24018	95188
13.24830	91601
13.25643	98302
13.26455	100794
13.27267	106321
13.28080	97355
13.28892	90322
13.29703	90063
13.30517	83525
13.31328	68291
13.32142	61979
13.32953	59178
13.33765	57203
13.34578	60387
13.35390	62531
13.36203	62785
13.37015	61730
13.37827	64177
13.38640	56864
13.39452	58466
13.40263	59186
13.41077	54511
13.41888	63913
13.42702	59246
13.43513	58881
13.44325	59094
13.45138	55453
13.45950	57732
13.46763	60252
13.47575	65078
13.48387	65125
13.49200	66539
13.50012	67402
13.50825	64600
13.51637	70680
13.52448	75920
13.53262	82249
13.54073	90355
13.54885	85531
13.55698	78929
13.56510	73757
13.57323	70032
13.58135	70168
13.58947	72633
13.59760	89654
13.60572	106521
13.61385	129021
13.62197	153861
13.63008	163583
13.63822	175778
13.64633	170718
13.65445	141949
13.66258	113684
13.67070	89176
13.67883	72496
13.68695	75895
13.69507	60224
13.70320	59055
13.71132	56946
13.71945	54461
13.72757	53341
13.73568	51868
13.74382	52982
13.75193	61497
13.76007	80622
13.76818	103584
13.77630	154765
13.78443	220150
13.79255	338495
13.80067	487349
13.80880	630967
13.81692	783971
13.82505	916304
13.83317	1052280
13.84128	1275083
13.84942	1459703
13.85753	1574209
13.86567	1496840
13.87378	1251840
13.88190	960256
13.89003	699973
13.89815	493224
13.90628	351011
13.91440	276855
13.92252	223859
13.93065	189523
13.93877	153811
13.94688	133278
13.95502	123822
13.96313	115731
13.97127	107618
13.97938	102300
13.98750	95436
13.99563	92496
14.00375	96485
14.01188	102130
14.02000	109962
14.02812	107771
14.03625	95899
14.04437	99039
14.05248	83127
14.06062	75594
14.06873	77716
14.07687	74250
14.08498	71710
14.09310	77398
14.10123	76681
14.10935	69662
14.11748	76803
14.12560	71003
14.13372	63345
14.14185	66584
14.14997	76328
14.15810	78350
14.16622	92750
14.17433	105060
14.18247	109508
14.19058	114409
14.19870	114328
14.20683	119730
14.21495	138817
14.22308	154039
14.23120	182926
14.23932	218496
14.24745	227073
14.25557	254395
14.26370	280827
14.27182	300102
14.27993	314719
14.28807	278797
14.29618	232991
14.30432	196154
14.31243	156536
14.32055	142619
14.32868	125713
14.33680	116303
14.34492	118519
14.35305	117844
14.36117	120793
14.36930	121469
14.37742	108973
14.38553	103372
14.39367	95824
14.40178	94372
14.40992	107379
14.41803	145073
14.42615	197357
14.43428	255469
14.44240	290541
14.45052	287463
14.45865	242798
14.46677	195752
14.47490	170523
14.48302	151781
14.49113	145922
14.49927	140377
14.50738	149342
14.51552	137890
14.52363	125701
14.53175	116277
14.53988	103982
14.54800	96631
14.55613	88459
14.56425	96667
14.57237	81492
14.58050	77002
14.58862	76288
14.59673	70368
14.60487	67298
14.61298	63318
14.62112	68494
14.62923	65698
14.63735	65201
14.64548	62917
14.65360	65004
14.66173	58500
14.66985	56445
14.67797	59663
14.68610	56386
14.69422	59318
14.70233	60206
14.71047	54526
14.71858	55901
14.72672	58169
14.73483	55886
14.74295	59175
14.75108	65741
14.75920	69452
14.76733	70254
14.77545	67509
14.78357	76002
14.79170	93074
14.79982	172987
14.80795	456380
14.81607	1353129
14.82418	3442888
14.83232	7209711
14.84043	1.261849E+07
14.84855	1.878762E+07
14.85668	2.401434E+07
14.86480	2.562317E+07
14.87293	2.301988E+07
14.88105	1.612488E+07
14.88917	9221519
14.89730	4751646
14.90542	2779135
14.91355	2029869
14.92167	1669534
14.92978	1424722
14.93792	1232061
14.94603	1139883
14.95417	998328
14.96228	942689
14.97040	861511
14.97853	797456
14.98665	732585
14.99477	699119
15.00290	642970
15.01102	613813
15.01915	608202
15.02727	572751
15.03538	528483
15.04352	502318
15.05163	478793
15.05977	470581
15.06788	440487
15.07600	421726
15.08413	412256
15.09225	390661
15.10037	372760
15.10850	355885
15.11662	351536
15.12475	338350
15.13287	347583
15.14098	397861
15.14912	440880
15.15723	497080
15.16537	530583
15.17348	488882
15.18160	416077
15.18973	312812
15.19785	218120
15.20598	173906
15.21410	149250
15.22222	139296
15.23035	120369
15.23847	120847
15.24658	120297
15.25472	115418
15.26283	109614
15.27097	111639
15.27908	100978
15.28720	105960
15.29533	92936
15.30345	92399
15.31158	89309
15.31970	86429
15.32782	89609
15.33595	86226
15.34407	80749
15.35220	84183
15.36032	81951
15.36843	80926
15.37657	82746
15.38468	88447
15.39280	100409
15.40093	101481
15.40905	96049
15.41718	94371
15.42530	87681
15.43342	87734
15.44155	81541
15.44967	82221
15.45780	78516
15.46592	79170
15.47403	98754
15.48217	138837
15.49028	206816
15.49840	343774
15.50653	529898
15.51465	695770
15.52278	817842
15.53090	845331
15.53902	732071
15.54715	607341
15.55527	461679
15.56340	355227
15.57152	263237
15.57963	210446
15.58777	164293
15.59588	148751
15.60402	123655
15.61213	114236
15.62025	114977
15.62838	104549
15.63650	97945
15.64462	102820
15.65275	104309
15.66087	95641
15.66900	91603
15.67712	88905
15.68523	87521
15.69337	80671
15.70148	81221
15.70962	82520
15.71773	72569
15.72585	69209
15.73398	66253
15.74210	70346
15.75023	76158
15.75835	95341
15.76647	153768
15.77460	322984
15.78272	673232
15.79083	1234423
15.79897	1812519
15.80708	2232954
15.81522	2172302
15.82333	1777549
15.83145	1205838
15.83958	763384
15.84770	475021
15.85583	327218
15.86395	264152
15.87207	225224
15.88020	210518
15.88832	192696
15.89643	185028
15.90457	166042
15.91268	162230
15.92082	155310
15.92893	141784
15.93705	137295
15.94518	138960
15.95330	131635
15.96143	129224
15.96955	117385
15.97767	115188
15.98580	110379
15.99392	104452
16.00205	105447
16.01017	116474
16.01828	112717
16.02642	121272
16.03453	125263
16.04265	136476
16.05078	130443
16.05890	133782
16.06703	109923
16.07515	107554
16.08327	97163
16.09140	85884
16.09952	80620
16.10765	82587
16.11577	77562
16.12388	84776
16.13202	93247
16.14013	108473
16.14825	125828
16.15638	152501
16.16450	166683
16.17263	172274
16.18075	159253
16.18887	158850
16.19700	127926
16.20512	111519
16.21325	107577
16.22137	103769
16.22948	104317
16.23762	116947
16.24573	109147
16.25387	104392
16.26198	90066
16.27010	88669
16.27823	77787
16.28635	82870
16.29447	91851
16.30260	107786
16.31072	131974
16.31885	143552
16.32697	150397
16.33508	143210
16.34322	135650
16.35133	116566
16.35947	109362
16.36758	97500
16.37570	98505
16.38383	97927
16.39195	92041
16.40008	84906
16.40820	84973
16.41632	79082
16.42445	80990
16.43257	86846
16.44068	91245
16.44882	108380
16.45693	192123
16.46507	459259
16.47318	1171389
16.48130	2518649
16.48943	4315247
16.49755	5925372
16.50568	6688403
16.51380	6083861
16.52192	4489703
16.53005	2770618
16.53817	1595247
16.54628	940300
16.55442	647108
16.56253	502786
16.57067	417831
16.57878	373456
16.58690	339654
16.59503	310146
16.60315	297223
16.61128	282654
16.61940	258763
16.62752	236545
16.63565	224319
16.64377	215723
16.65190	197282
16.66002	181898
16.66813	174481
16.67627	169598
16.68438	170470
16.69250	161163
16.70063	151640
16.70875	147072
16.71688	139715
16.72500	127485
16.73312	112505
16.74125	107215
16.74937	106189
16.75750	121598
16.76562	129690
16.77373	164735
16.78187	200954
16.78998	213907
16.79812	179550
16.80623	157701
16.81435	121640
16.82248	101213
16.83060	86016
16.83872	77607
16.84685	71921
16.85497	74958
16.86310	70700
16.87122	67503
16.87933	64247
16.88747	70167
16.89558	73382
16.90372	64281
16.91183	62591
16.91995	64691
16.92808	67384
16.93620	66974
16.94432	70213
16.95245	71488
16.96057	75537
16.96870	69563
16.97682	68735
16.98493	70392
16.99307	64398
17.00118	70199
17.00932	73558
17.01743	71931
17.02555	80006
17.03368	74808
17.04180	81523
17.04993	100260
17.05805	130956
17.06617	155650
17.07430	178182
17.08242	176987
17.09053	165735
17.09867	139884
17.10678	114112
17.11492	99402
17.12303	94507
17.13115	101224
17.13928	101222
17.14740	107034
17.15553	108041
17.16365	107003
17.17177	100168
17.17990	102477
17.18802	91455
17.19613	91299
17.20427	86019
17.21238	78118
17.22052	77528
17.22863	67244
17.23675	69321
17.24488	64926
17.25300	66670
17.26113	76441
17.26925	76765
17.27737	76668
17.28550	74174
17.29362	70960
17.30175	64855
17.30987	66991
17.31798	75755
17.32612	86432
17.33423	123765
17.34235	167417
17.35048	227073
17.35860	281106
17.36673	306049
17.37485	285824
17.38297	259671
17.39110	227245
17.39922	209610
17.40735	191025
17.41547	185146
17.42358	171516
17.43172	174545
17.43983	167436
17.44797	176805
17.45608	169686
17.46420	164309
17.47233	148287
17.48045	136953
17.48857	125674
17.49670	116587
17.50482	111378
17.51295	102612
17.52107	110326
17.52918	104665
17.53732	104691
17.54543	104987
17.55357	105775
17.56168	114803
17.56980	143333
17.57793	249136
17.58605	545439
17.59417	1229293
17.60230	2432386
17.61042	3906839
17.61855	5261492
17.62667	5980704
17.63478	5802166
17.64292	4640808
17.65103	3267932
17.65917	2024722
17.66728	1227629
17.67540	764549
17.68353	504582
17.69165	367527
17.69978	310246
17.70790	275985
17.71602	248991
17.72415	232630
17.73227	210520
17.74038	201750
17.74852	188333
17.75663	176607
17.76477	161894
17.77288	152996
17.78100	136333
17.78913	126408
17.79725	115772
17.80538	108548
17.81350	104237
17.82162	100238
17.82975	102431
17.83787	102857
17.84600	119935
17.85412	141017
17.86223	187908
17.87037	237716
17.87848	304027
17.88660	352034
17.89473	333888
17.90285	279042
17.91098	211195
17.91910	160319
17.92722	126908
17.93535	95302
17.94347	90597
17.95160	83254
17.95972	77304
17.96783	80881
17.97597	79954
17.98408	72916
17.99220	71304
18.00033	70514
18.00845	82436
18.01658	83222
18.02470	111115
18.03282	172531
18.04095	270909
18.04907	375120
18.05720	496964
18.06532	637821
18.07343	1014563
18.08157	1933199
18.08968	3798443
18.09782	6586922
18.10593	9311353
18.11405	1.055982E+07
18.12218	1.063421E+07
18.13030	8801787
18.13842	6607909
18.14655	4726305
18.15467	3459418
18.16280	2664622
18.17092	2240551
18.17903	1874719
18.18717	1635871
18.19528	1436651
18.20342	1283108
18.21153	1165989
18.21965	1056313
18.22778	962655
18.23590	871926
18.24402	815528
18.25215	765461
18.26027	701696
18.26840	669198
18.27652	614115
18.28463	559033
18.29277	472630
18.30088	373848
18.30902	289729
18.31713	225834
18.32525	184928
18.33338	157673
18.34150	144985
18.34963	135000
18.35775	130124
18.36587	119923
18.37400	132000
18.38212	116865
18.39023	120748
18.39837	114488
18.40648	110610
18.41462	119315
18.42273	124782
18.43085	141881
18.43898	171946
18.44710	223348
18.45523	305174
18.46335	418793
18.47147	654430
18.47960	1025592
18.48772	1564586
18.49585	1931972
18.50397	2131289
18.51208	2033265
18.52022	1613737
18.52833	1144414
18.53645	740243
18.54458	458444
18.55270	299213
18.56083	225938
18.56895	176625
18.57707	150747
18.58520	137805
18.59332	124041
18.60145	115183
18.60957	121738
18.61768	124844
18.62582	139293
18.63393	151447
18.64207	161278
18.65018	151979
18.65830	158645
18.66643	139373
18.67455	121733
18.68267	100863
18.69080	94918
18.69892	88042
18.70705	88796
18.71517	83163
18.72328	78720
18.73142	79196
18.73953	80484
18.74767	76316
18.75578	77741
18.76390	81532
18.77203	76315
18.78015	72138
18.78827	73203
18.79640	75119
18.80452	76218
18.81265	75477
18.82077	82580
18.82888	79717
18.83702	80288
18.84513	77540
18.85327	73465
18.86138	78907
18.86950	80777
18.87763	89503
18.88575	99467
18.89388	107125
18.90200	109973
18.91012	102838
18.91825	101819
18.92637	111209
18.93448	117575
18.94262	119426
18.95073	132816
18.95887	143971
18.96698	149479
18.97510	156605
18.98323	154806
18.99135	137448
18.99948	131884
19.00760	115202
19.01572	103644
19.02385	96447
19.03197	81865
19.04008	84499
19.04822	79169
19.05633	81249
19.06447	79522
19.07258	76060
19.08070	79874
19.08883	103234
19.09695	148399
19.10508	246748
19.11320	350345
19.12132	426023
19.12945	470729
19.13757	437675
19.14570	351738
19.15382	256527
19.16193	171115
19.17007	129649
19.17818	101461
19.18630	90479
19.19443	89021
19.20255	77588
19.21068	79303
19.21880	76364
19.22692	73087
19.23505	71342
19.24317	81976
19.25130	77255
19.25942	100517
19.26753	135551
19.27567	171459
19.28378	190535
19.29192	210586
19.30003	216192
19.30815	239086
19.31628	239354
19.32440	245456
19.33252	236510
19.34065	237058
19.34877	231910
19.35690	251851
19.36502	288958
19.37313	361811
19.38127	463831
19.38938	567057
19.39752	616714
19.40563	601984
19.41375	534066
19.42188	430778
19.43000	368391
19.43812	317485
19.44625	289652
19.45437	282409
19.46250	275599
19.47062	275608
19.47873	263380
19.48687	256467
19.49498	260826
19.50312	266268
19.51123	278975
19.51935	294342
19.52748	329618
19.53560	353908
19.54373	371917
19.55185	389421
19.55997	372807
19.56810	375833
19.57622	326361
19.58433	301271
19.59247	273545
19.60058	250779
19.60872	243493
19.61683	220642
19.62495	209262
19.63308	206807
19.64120	202549
19.64933	218315
19.65745	237897
19.66557	276724
19.67370	349387
19.68182	454922
19.68995	550476
19.69807	622265
19.70618	660143
19.71432	687924
19.72243	652722
19.73055	583607
19.73868	539090
19.74680	481807
19.75493	412865
19.76305	362374
19.77117	322066
19.77930	303133
19.78742	318624
19.79555	360925
19.80367	427810
19.81178	496854
19.81992	555793
19.82803	578830
19.83615	532036
19.84428	469583
19.85240	379404
19.86053	314697
19.86865	296102
19.87677	294418
19.88490	341671
19.89302	478137
19.90115	667464
19.90927	897639
19.91738	1048823
19.92552	1066858
19.93363	971206
19.94177	796269
19.94988	644292
19.95800	510791
19.96613	433071
19.97425	371478
19.98237	355495
19.99050	337896
19.99862	320902
20.00675	303444
20.01487	306895
20.02298	294883
20.03112	293488
20.03923	292190
20.04737	287996
20.05548	282647
20.06360	276981
20.07173	283173
20.07985	331676
20.08797	385607
20.09610	461518
20.10422	514185
20.11235	537875
20.12047	482929
20.12858	433708
20.13672	371994
20.14483	313309
20.15297	301229
20.16108	342722
20.16920	456735
20.17733	684249
20.18545	1030226
20.19358	1473416
20.20170	1892528
20.20982	2200669
20.21795	2146279
20.22607	1940224
20.23418	1626480
20.24232	1291019
20.25043	1089884
20.25857	1003980
20.26668	1089208
20.27480	1315612
20.28293	1581728
20.29105	1771069
20.29918	1824448
20.30730	1751102
20.31542	1523996
20.32355	1264313
20.33167	958414
20.33980	711660
20.34792	530598
20.35603	423522
20.36417	346384
20.37228	281927
20.38040	264564
20.38853	234500
20.39665	229827
20.40478	209140
20.41290	205805
20.42102	196253
20.42915	189326
20.43727	193463
20.44540	201970
20.45352	204597
20.46163	226667
20.46977	236477
20.47788	244439
20.48600	236909
20.49413	221234
20.50225	203415
20.51038	201415
20.51850	181416
20.52662	172737
20.53475	169757
20.54287	178947
20.55100	182648
20.55912	182940
20.56723	190582
20.57537	187627
20.58348	190704
20.59162	177631
20.59973	165844
20.60785	163320
20.61598	151117
20.62410	148727
20.63222	149675
20.64035	158029
20.64847	163322
20.65660	162180
20.66472	174862
20.67283	181374
20.68097	194990
20.68908	176956
20.69722	168205
20.70533	167926
20.71345	157424
20.72158	148373
20.72970	139674
20.73783	137370
20.74595	152087
20.75407	154039
20.76220	165992
20.77032	182871
20.77843	206136
20.78657	231664
20.79468	298078
20.80282	456833
20.81093	809528
20.81905	1358150
20.82718	1996985
20.83530	2441196
20.84343	2613591
20.85155	2260111
20.85967	1658172
20.86780	1077926
20.87592	648412
20.88403	422064
20.89217	301936
20.90028	256368
20.90842	228959
20.91653	228158
20.92465	234740
20.93278	242446
20.94090	269723
20.94903	289829
20.95715	298993
20.96527	291364
20.97340	269085
20.98152	244942
20.98965	214411
20.99777	188925
21.00588	173272
21.01402	159058
21.02213	157524
21.03025	154890
21.03838	154682
21.04650	159554
21.05463	166118
21.06275	168018
21.07087	158369
21.07900	153191
21.08712	155888
21.09525	149155
21.10337	140175
21.11148	143491
21.11962	135764
21.12773	141082
21.13587	141256
21.14398	169510
21.15210	244247
21.16023	376815
21.16835	529810
21.17647	730161
21.18460	768924
21.19272	747396
21.20085	630652
21.20897	492387
21.21708	382510
21.22522	299634
21.23333	249551
21.24147	219752
21.24958	200297
21.25770	176457
21.26583	157770
21.27395	150315
21.28207	135375
21.29020	129752
21.29832	127456
21.30645	131857
21.31457	126470
21.32268	125037
21.33082	118026
21.33893	129426
21.34707	122164
21.35518	123533
21.36330	117856
21.37143	129338
21.37955	132275
21.38768	140848
21.39580	162143
21.40392	190313
21.41205	250798
21.42017	323390
21.42828	381250
21.43642	411953
21.44453	399231
21.45267	339066
21.46078	288793
21.46890	264902
21.47703	211694
21.48515	202799
21.49328	191371
21.50140	171841
21.50952	160276
21.51765	146201
21.52577	139569
21.53388	123196
21.54202	122449
21.55013	124655
21.55827	123201
21.56638	124375
21.57450	120646
21.58263	134298
21.59075	153447
21.59888	182728
21.60700	221699
21.61512	230495
21.62325	228895
21.63137	220036
21.63950	187592
21.64762	183613
21.65573	184846
21.66387	208201
21.67198	240118
21.68010	271833
21.68823	312740
21.69635	340822
21.70448	348817
21.71260	326246
21.72072	285515
21.72885	234165
21.73697	189377
21.74510	159917
21.75322	144872
21.76133	135878
21.76947	127687
21.77758	127931
21.78572	127851
21.79383	128745
21.80195	115821
21.81008	119955
21.81820	122270
21.82632	122750
21.83445	126488
21.84257	133571
21.85070	139352
21.85882	146661
21.86693	161336
21.87507	171887
21.88318	174113
21.89132	176687
21.89943	169381
21.90755	160195
21.91568	152989
21.92380	149276
21.93192	145539
21.94005	141239
21.94817	126864
21.95630	114867
21.96442	112829
21.97253	105429
21.98067	98982
21.98878	92462
21.99692	95005
22.00503	90167
22.01315	88959
22.02128	92857
22.02940	101502
22.03753	105132
22.04565	121288
22.05377	124094
22.06190	136066
22.07002	136316
22.07813	133069
22.08627	128942
22.09438	115663
22.10252	114915
22.11063	103836
22.11875	98687
22.12688	98022
22.13500	96508
22.14313	94941
22.15125	89287
22.15937	92244
22.16750	84069
22.17562	86296
22.18375	81911
22.19187	84327
22.19998	83901
22.20812	79980
22.21623	95213
22.22435	81452
22.23248	84271
22.24060	91612
22.24873	98145
22.25685	102446
22.26497	108556
22.27310	114747
22.28122	120350
22.28935	127902
22.29747	142198
22.30558	155936
22.31372	159485
22.32183	164273
22.32995	150244
22.33808	149080
22.34620	135180
22.35433	130264
22.36245	125159
22.37057	108369
22.37870	109310
22.38682	112599
22.39495	129039
22.40307	174844
22.41118	257898
22.41932	391063
22.42743	542721
22.43557	696403
22.44368	757462
22.45180	716058
22.45993	591403
22.46805	444634
22.47617	320953
22.48430	253201
22.49242	221921
22.50055	230716
22.50867	255667
22.51678	311188
22.52492	345180
22.53303	364395
22.54117	344094
22.54928	324139
22.55740	277075
22.56553	236957
22.57365	209467
22.58177	182298
22.58990	150921
22.59802	144961
22.60615	132704
22.61427	123143
22.62238	112009
22.63052	103950
22.63863	100291
22.64677	97860
22.65488	104301
22.66300	109817
22.67113	120766
22.67925	126305
22.68738	131502
22.69550	140900
22.70362	171722
22.71175	227153
22.71987	294163
22.72798	373808
22.73612	420182
22.74423	446608
22.75237	403051
22.76048	342329
22.76860	292672
22.77673	235198
22.78485	237283
22.79298	272598
22.80110	340667
22.80922	462329
22.81735	613144
22.82547	725959
22.83360	789905
22.84172	748887
22.84983	636171
22.85797	502060
22.86608	400675
22.87420	343920
22.88233	317960
22.89045	320823
22.89858	366755
22.90670	382433
22.91482	394176
22.92295	402839
22.93107	448551
22.93920	487875
22.94732	505653
22.95543	477992
22.96357	440056
22.97168	376649
22.97980	286065
22.98793	217989
22.99605	168698
23.00418	136416
23.01230	125176
23.02042	116169
23.02855	111045
23.03667	100936
23.04480	98519
23.05292	99700
23.06103	106286
23.06917	101912
23.07728	110468
23.08542	121224
23.09353	123534
23.10165	125405
23.10978	115431
23.11790	115650
23.12602	104761
23.13415	99699
23.14227	98913
23.15040	91886
23.15852	90286
23.16663	87658
23.17477	83923
23.18288	84808
23.19102	86021
23.19913	79786
23.20725	79466
23.21538	81172
23.22350	72957
23.23163	69979
23.23975	74989
23.24787	85693
23.25600	93121
23.26412	123208
23.27223	157458
23.28037	190456
23.28848	211953
23.29662	216662
23.30473	198835
23.31285	161796
23.32098	132366
23.32910	119733
23.33723	115529
23.34535	141846
23.35347	188127
23.36160	249097
23.36972	332398
23.37783	414227
23.38597	465105
23.39408	466986
23.40222	435059
23.41033	346825
23.41845	287538
23.42658	214929
23.43470	173583
23.44283	146851
23.45095	146365
23.45907	135547
23.46720	115222
23.47532	114001
23.48345	111636
23.49157	106068
23.49968	99683
23.50782	97147
23.51593	95908
23.52405	93496
23.53218	93002
23.54030	89831
23.54843	98693
23.55655	104292
23.56467	112552
23.57280	122328
23.58092	156755
23.58905	203594
23.59717	277893
23.60528	363748
23.61342	461143
23.62153	508980
23.62965	485412
23.63778	421464
23.64590	335035
23.65403	255465
23.66215	195230
23.67027	158012
23.67840	142364
23.68652	141001
23.69465	134545
23.70277	123122
23.71088	118732
23.71902	111738
23.72713	98776
23.73527	92228
23.74338	97028
23.75150	88411
23.75963	89170
23.76775	92210
23.77587	130220
23.78400	208776
23.79212	389329
23.80025	651155
23.80837	934956
23.81648	1136949
23.82462	1199249
23.83273	1139694
23.84087	936129
23.84898	715370
23.85710	539074
23.86523	422521
23.87335	348358
23.88148	304474
23.88960	271282
23.89772	259048
23.90585	256543
23.91397	294424
23.92208	380743
23.93022	444470
23.93833	506276
23.94647	516270
23.95458	451019
23.96270	358752
23.97083	286480
23.97895	225615
23.98708	192109
23.99520	157470
24.00332	146832
24.01145	138985
24.01957	137147
24.02770	140601
24.03582	144149
24.04393	155437
24.05207	163775
24.06018	164604
24.06830	152702
24.07643	138973
24.08455	124284
24.09268	108781
24.10080	110446
24.10892	108190
24.11705	96108
24.12517	96235
24.13330	104424
24.14142	119911
24.14953	132356
24.15767	160362
24.16578	200988
24.17390	232201
24.18203	245915
24.19015	260335
24.19828	244750
24.20640	253083
24.21452	234651
24.22265	224448
24.23077	217675
24.23890	193261
24.24702	162507
24.25513	152134
24.26327	140312
24.27138	133105
24.27952	126009
24.28763	116679
24.29575	106446
24.30388	107925
24.31200	112831
24.32012	116448
24.32825	121218
24.33637	127553
24.34450	134804
24.35262	137850
24.36073	123784
24.36887	113213
24.37698	109587
24.38512	100789
24.39323	97498
24.40135	97560
24.40948	99361
24.41760	113427
24.42572	124975
24.43385	124202
24.44197	136623
24.45010	132194
24.45822	119184
24.46633	116826
24.47447	105296
24.48258	107089
24.49072	103766
24.49883	105242
24.50695	111410
24.51508	106468
24.52320	113895
24.53133	118769
24.53945	132324
24.54757	160743
24.55570	196119
24.56382	238296
24.57193	273107
24.58007	299266
24.58818	301383
24.59632	285376
24.60443	261197
24.61255	223559
24.62068	187089
24.62880	179735
24.63693	147829
24.64505	131090
24.65317	118389
24.66130	117338
24.66942	107773
24.67755	107035
24.68567	105489
24.69378	107333
24.70192	99062
24.71003	92483
24.71815	98751
24.72628	99256
24.73440	102064
24.74253	103160
24.75065	104130
24.75877	99176
24.76690	106753
24.77502	113163
24.78315	122163
24.79127	144063
24.79938	160965
24.80752	169625
24.81563	175374
24.82375	177784
24.83188	191760
24.84000	198872
24.84813	248472
24.85625	359368
24.86437	511364
24.87250	758629
24.88062	1125155
24.88875	1646650
24.89687	2271316
24.90498	2895645
24.91312	3252478
24.92123	3248659
24.92937	2705565
24.93748	1989254
24.94560	1280922
24.95373	789780
24.96185	474655
24.96997	294106
24.97810	204429
24.98622	176467
24.99435	143553
25.00247	131283
25.01058	135101
25.01872	117144
25.02683	124032
25.03497	125261
25.04308	118654
25.05120	122388
25.05933	116820
25.06745	114999
25.07558	119208
25.08370	118194
25.09182	123302
25.09995	144500
25.10807	189735
25.11618	390142
25.12432	934769
25.13243	2282659
25.14057	4833727
25.14868	8636545
25.15680	1.278806E+07
25.16493	1.565503E+07
25.17305	1.703382E+07
25.18118	1.546633E+07
25.18930	1.172196E+07
25.19742	7761796
25.20555	4424695
25.21367	2398914
25.22178	1278627
25.22992	680689
25.23803	437518
25.24617	339297
25.25428	355677
25.26240	457825
25.27053	634459
25.27865	850401
25.28678	1032764
25.29490	1092280
25.30302	1030332
25.31115	856425
25.31927	644898
25.32740	449445
25.33552	292303
25.34363	211684
25.35177	165028
25.35988	140924
25.36800	126340
25.37613	113795
25.38425	104551
25.39238	100523
25.40050	97031
25.40862	95743
25.41675	89299
25.42487	91662
25.43300	84603
25.44112	86626
25.44923	84194
25.45737	84994
25.46548	90873
25.47360	88575
25.48173	90416
25.48985	92921
25.49798	92425
25.50610	89403
25.51422	98335
25.52235	89814
25.53047	92683
25.53860	85362
25.54672	80462
25.55483	84525
25.56297	78943
25.57108	82472
25.57922	80427
25.58733	87527
25.59545	82040
25.60358	86764
25.61170	91989
25.61982	90744
25.62795	81848
25.63607	80292
25.64420	78165
25.65232	71118
25.66043	72195
25.66857	75551
25.67668	76503
25.68482	86365
25.69293	91988
25.70105	104240
25.70918	102812
25.71730	112483
25.72543	120062
25.73355	126594
25.74167	138083
25.74980	132814
25.75792	122558
25.76603	97931
25.77417	86974
25.78228	84078
25.79042	85170
25.79853	76060
25.80665	70730
25.81478	76871
25.82290	78006
25.83103	72262
25.83915	76513
25.84727	87015
25.85540	81819
25.86352	83262
25.87163	86490
25.87977	81463
25.88788	80488
25.89602	77433
25.90413	79558
25.91225	80328
25.92038	82268
25.92850	80891
25.93663	74239
25.94475	82978
25.95287	88090
25.96100	91596
25.96912	92706
25.97725	94826
25.98537	91541
25.99348	94226
26.00162	86002
26.00973	80949
26.01785	73042
26.02598	73858
26.03410	71847
26.04223	76289
26.05035	75856
26.05847	74608
26.06660	79781
26.07472	79119
26.08285	84626
26.09097	92801
26.09908	107335
26.10722	110699
26.11533	114171
26.12347	139571
26.13158	183668
26.13970	246477
26.14783	319955
26.15595	371709
26.16407	397794
26.17220	393664
26.18032	419176
26.18845	412434
26.19657	429876
26.20468	419503
26.21282	419999
26.22093	415717
26.22907	394077
26.23718	395155
26.24530	399759
26.25343	390333
26.26155	387180
26.26967	390710
26.27780	382575
26.28592	376200
26.29405	376611
26.30217	368121
26.31028	374929
26.31842	368963
26.32653	371658
26.33467	371987
26.34278	368821
26.35090	366648
26.35903	399868
26.36715	448137
26.37528	592790
26.38340	855675
26.39152	1228387
26.39965	1703583
26.40777	2138948
26.41588	2362320
26.42402	2410581
26.43213	2113801
26.44027	1751309
26.44838	1348335
26.45650	993010
26.46463	752689
26.47275	577618
26.48088	486644
26.48900	433459
26.49712	411594
26.50525	389536
26.51337	379646
26.52148	375576
26.52962	352318
26.53773	333825
26.54587	328044
26.55398	327190
26.56210	305708
26.57023	302806
26.57835	310100
26.58648	307097
26.59460	305943
26.60272	294261
26.61085	300457
26.61897	296452
26.62710	291252
26.63522	294518
26.64333	295406
26.65147	289172
26.65958	297101
26.66770	290171
26.67583	286585
26.68395	284205
26.69208	281685
26.70020	279438
26.70832	280350
26.71645	270642
26.72457	276427
26.73270	268513
26.74082	260856
26.74893	261788
26.75707	276001
26.76518	263487
26.77332	256094
26.78143	263366
26.78955	271413
26.79768	273013
26.80580	273757
26.81392	291095
26.82205	283999
26.83017	273678
26.83830	279576
26.84642	272827
26.85453	266350
26.86267	253195
26.87078	255742
26.87892	251598
26.88703	240873
26.89515	244771
26.90328	247432
26.91140	252730
26.91952	240522
26.92765	232671
26.93577	239321
26.94390	231880
26.95202	230027
26.96013	231043
26.96827	239004
26.97638	243214
26.98452	256000
26.99263	278062
27.00075	301184
27.00888	345787
27.01700	420554
27.02513	498081
27.03325	576276
27.04137	643816
27.04950	661657
27.05762	621284
27.06573	557123
27.07387	489910
27.08198	433034
27.09012	383527
27.09823	338650
27.10635	320465
27.11448	307369
27.12260	305968
27.13073	305779
27.13885	311837
27.14697	310418
27.15510	306419
27.16322	292156
27.17135	299386
27.17947	326226
27.18758	378701
27.19572	435846
27.20383	474718
27.21195	526055
27.22008	503878
27.22820	467310
27.23633	418676
27.24445	354397
27.25257	306127
27.26070	278142
27.26882	252978
27.27695	236480
27.28507	219190
27.29318	206330
27.30132	206343
27.30943	202447
27.31755	199755
27.32568	203662
27.33380	206977
27.34193	203812
27.35005	205421
27.35817	213455
27.36630	216333
27.37442	212308
27.38255	217203
27.39067	215906
27.39878	214819
27.40692	204371
27.41503	196796
27.42317	192372
27.43128	191937
27.43940	183730
27.44753	183121
27.45565	181100
27.46377	184961
27.47190	183783
27.48002	176927
27.48815	174603
27.49627	167606
27.50438	168643
27.51252	160916
27.52063	163144
27.52877	160302
27.53688	157361
27.54500	166221
27.55313	167056
27.56125	159160
27.56938	166815
27.57750	176695
27.58562	187981
27.59375	229196
27.60187	270227
27.60998	325780
27.61812	331427
27.62623	348222
27.63437	324997
27.64248	293005
27.65060	246707
27.65873	212979
27.66685	193028
27.67498	182385
27.68310	177268
27.69122	182077
27.69935	179787
27.70747	184922
27.71558	193732
27.72372	180675
27.73183	174318
27.73997	167014
27.74808	152700
27.75620	149358
27.76433	139900
27.77245	134448
27.78058	144316
27.78870	160278
27.79682	179946
27.80495	193670
27.81307	205029
27.82120	199549
27.82932	186462
27.83743	167289
27.84557	150496
27.85368	139187
27.86180	131159
27.86993	126968
27.87805	120484
27.88618	120222
27.89430	123138
27.90242	125263
27.91055	126585
27.91867	126078
27.92680	127511
27.93492	128228
27.94303	127127
27.95117	127349
27.95928	111047
27.96740	112043
27.97553	109727
27.98365	110736
27.99178	111501
27.99990	115253
28.00802	127565
28.01615	133919
28.02427	151272
28.03240	156300
28.04052	186799
28.04863	209953
28.05677	264673
28.06488	306072
28.07302	307966
28.08113	304169
28.08925	265691
28.09738	216738
28.10550	179990
28.11362	155529
28.12175	132309
28.12987	116879
28.13800	113789
28.14612	108487
28.15423	104684
28.16237	103282
28.17048	105782
28.17862	105422
28.18673	105358
28.19485	117525
28.20298	135611
28.21110	169968
28.21923	211826
28.22735	255480
28.23547	301678
28.24360	341941
28.25172	342898
28.25983	305305
28.26797	254322
28.27608	204075
28.28422	170221
28.29233	135469
28.30045	125144
28.30858	127189
28.31670	147508
28.32483	181233
28.33295	220133
28.34107	241416
28.34920	242397
28.35732	242200
28.36543	214587
28.37357	194898
28.38168	172378
28.38982	166551
28.39793	169563
28.40605	177924
28.41418	174204
28.42230	186931
28.43043	177262
28.43855	178063
28.44667	162460
28.45480	153963
28.46292	141591
28.47105	133969
28.47917	126211
28.48728	124840
28.49542	137825
28.50353	146135
28.51165	170534
28.51978	185495
28.52790	199327
28.53603	200952
28.54415	181795
28.55227	157359
28.56040	131955
28.56852	121902
28.57665	104495
28.58477	99966
28.59288	95527
28.60102	91152
28.60913	98416
28.61727	94039
28.62538	96157
28.63350	102525
28.64163	117228
28.64975	123786
28.65787	130182
28.66600	128854
28.67412	124510
28.68225	126163
28.69037	114782
28.69848	113091
28.70662	100344
28.71473	98755
28.72287	92591
28.73098	89293
28.73910	83432
28.74723	79169
28.75535	80610
28.76347	87867
28.77160	83599
28.77972	91616
28.78785	96363
28.79597	117097
28.80408	120974
28.81222	144419
28.82033	159082
28.82847	167157
28.83658	163146
28.84470	162661
28.85283	152088
28.86095	142836
28.86908	134240
28.87720	127689
28.88532	139498
28.89345	154241
28.90157	184510
28.90968	225633
28.91782	251541
28.92593	254876
28.93407	233602
28.94218	201052
28.95030	173561
28.95843	145292
28.96655	116734
28.97468	124076
28.98280	115518
28.99092	105931
28.99905	98690
29.00717	95610
29.01528	94193
29.02342	101801
29.03153	93074
29.03967	100474
29.04778	89971
29.05590	94851
29.06403	95393
29.07215	98577
29.08028	99127
29.08840	106181
29.09652	118156
29.10465	120015
29.11277	127200
29.12090	120325
29.12902	115452
29.13713	105373
29.14527	97171
29.15338	94337
29.16150	92080
29.16963	85767
29.17775	85315
29.18588	93913
29.19400	108049
29.20212	137549
29.21025	186747
29.21837	264229
29.22650	347921
29.23462	412480
29.24273	433292
29.25087	408727
29.25898	358804
29.26712	312521
29.27523	265046
29.28335	231282
29.29148	194757
29.29960	156658
29.30772	134122
29.31585	115390
29.32397	107305
29.33210	92968
29.34022	89278
29.34833	91628
29.35647	84261
29.36458	81214
29.37272	82526
29.38083	87116
29.38895	86778
29.39708	87037
29.40520	90749
29.41333	86092
29.42145	90792
29.42957	95609
29.43770	97195
29.44582	100803
29.45393	99914
29.46207	94713
29.47018	92071
29.47832	90401
29.48643	88831
29.49455	87552
29.50268	85438
29.51080	83091
29.51893	90948
29.52705	91156
29.53517	98596
29.54330	97005
29.55142	91259
29.55953	90736
29.56767	88236
29.57578	88922
29.58392	85543
29.59203	80919
29.60015	84693
29.60828	86551
29.61640	78171
29.62453	88752
29.63265	85559
29.64077	87639
29.64890	77543
29.65702	81571
29.66515	81799
29.67327	80485
29.68138	84343
29.68952	95347
29.69763	110843
29.70575	131306
29.71388	138938
29.72200	143636
29.73013	136241
29.73825	118556
29.74637	105211
29.75450	99093
29.76262	88287
29.77075	81564
29.77887	80099
29.78698	78829
29.79512	78104
29.80323	75791
29.81135	75873
29.81948	77941
29.82760	74412
29.83573	83081
29.84385	75659
29.85197	74893
29.86010	82704
29.86822	78775
29.87635	86029
29.88447	96556
29.89258	115570
29.90072	167450
29.90883	223329
29.91697	268962
29.92508	285600
29.93320	267680
29.94133	225197
29.94945	172989
29.95757	126813
29.96570	103884
29.97382	92390
29.98195	88786
29.99007	88534
29.99818	90526
30.00632	95523
30.01443	97152
30.02257	108189
30.03068	115448
30.03880	117282
30.04693	116165
30.05505	118410
30.06318	117589
30.07130	121019
30.07942	112753
30.08755	118085
30.09567	115044
30.10378	110898
30.11192	110138
30.12003	106666
30.12817	111202
30.13628	111246
30.14440	105894
30.15253	104944
30.16065	98448
30.16878	97659
30.17690	98729
30.18502	96110
30.19315	99001
30.20127	112125
30.20938	114597
30.21752	127498
30.22563	126169
30.23377	125285
30.24188	116099
30.25000	112445
30.25813	102745
30.26625	94175
30.27438	86620
30.28250	84494
30.29062	81129
30.29875	82988
30.30687	90355
30.31500	85752
30.32312	79270
30.33123	85129
30.33937	82427
30.34748	88090
30.35560	84820
30.36373	82279
30.37185	86775
30.37998	85940
30.38810	82214
30.39622	86970
30.40435	80179
30.41247	77195
30.42060	74688
30.42872	78498
30.43683	79615
30.44497	74103
30.45308	76519
30.46122	76397
30.46933	72630
30.47745	82188
30.48558	80264
30.49370	84746
30.50182	88477
30.50995	87634
30.51807	91475
30.52620	94601
30.53432	87713
30.54243	86692
30.55057	86739
30.55868	86027
30.56682	87111
30.57493	84319
30.58305	83849
30.59118	90193
30.59930	79858
30.60742	87963
30.61555	91936
30.62367	83514
30.63180	85759
30.63992	88961
30.64803	80539
30.65617	84403
30.66428	83860
30.67242	76583
30.68053	76049
30.68865	76599
30.69678	74362
30.70490	74222
30.71303	74803
30.72115	74855
30.72927	77747
30.73740	71612
30.74552	79103
30.75363	79812
30.76177	79117
30.76988	76903
30.77802	84242
30.78613	87092
30.79425	109718
30.80238	157984
30.81050	235140
30.81863	316766
30.82675	406561
30.83487	438056
30.84300	406567
30.85112	333677
30.85923	250005
30.86737	183224
30.87548	137856
30.88362	120506
30.89173	116259
30.89985	121487
30.90798	115325
30.91610	111087
30.92423	107233
30.93235	97907
30.94047	96435
30.94860	94726
30.95672	92801
30.96485	98198
30.97297	99017
30.98108	101097
30.98922	95024
30.99733	101458
31.00545	95786
31.01358	94885
31.02170	90250
31.02983	84207
31.03795	84992
31.04607	89269
31.05420	85576
31.06232	85286
31.07045	86963
31.07857	82707
31.08668	81268
31.09482	86954
31.10293	100628
31.11107	122429
31.11918	138128
31.12730	147770
31.13543	148205
31.14355	138121
31.15167	139955
31.15980	121566
31.16792	129228
31.17605	139037
31.18417	135361
31.19228	139396
31.20042	147120
31.20853	154385
31.21667	178393
31.22478	229417
31.23290	276558
31.24103	308859
31.24915	313508
31.25727	282329
31.26540	230523
31.27352	185482
31.28165	141591
31.28977	107967
31.29788	93950
31.30602	86848
31.31413	93357
31.32227	92417
31.33038	104240
31.33850	110917
31.34663	126803
31.35475	132533
31.36288	142226
31.37100	136583
31.37912	122858
31.38725	110116
31.39537	103042
31.40348	90314
31.41162	82783
31.41973	84336
31.42787	79962
31.43598	82335
31.44410	80378
31.45223	77674
31.46035	77275
31.46848	80466
31.47660	81959
31.48472	87946
31.49285	91773
31.50097	100084
31.50910	106680
31.51722	112085
31.52533	121045
31.53347	127250
31.54158	128640
31.54970	132080
31.55783	134312
31.56595	131327
31.57408	124713
31.58220	123309
31.59032	115651
31.59845	112390
31.60657	105559
31.61470	96788
31.62282	89363
31.63093	85695
31.63907	85418
31.64718	83812
31.65530	86774
31.66343	92851
31.67155	118530
31.67968	125815
31.68780	143083
31.69592	155594
31.70405	162713
31.71217	149874
31.72030	141227
31.72842	115062
31.73653	98885
31.74467	89336
31.75278	81293
31.76092	79923
31.76903	83583
31.77715	78374
31.78528	76272
31.79340	78234
31.80152	81648
31.80965	84681
31.81777	79382
31.82590	80898
31.83402	87468
31.84213	83007
31.85027	80798
31.85838	87629
31.86652	85493
31.87463	83314
31.88275	89887
31.89088	91276
31.89900	92135
31.90713	84050
31.91525	95175
31.92337	85080
31.93150	86433
31.93962	86185
31.94773	91698
31.95587	88549
31.96398	94317
31.97212	98226
31.98023	105869
31.98835	108515
31.99648	117960
32.00460	123667
32.01273	135675
32.02085	151878
32.02897	164588
32.03710	164068
32.04522	155246
32.05333	143290
32.06147	129381
32.06958	114773
32.07772	110679
32.08583	101254
32.09395	92784
32.10208	99868
32.11020	98602
32.11833	100604
32.12645	98623
32.13457	93768
32.14270	87234
32.15082	80963
32.15895	84473
32.16707	80294
32.17518	79099
32.18332	79134
32.19143	80917
32.19955	84322
32.20768	82058
32.21580	83873
32.22393	83454
32.23205	85283
32.24017	82335
32.24830	82683
32.25642	81841
32.26455	84330
32.27267	84613
32.28078	89877
32.28892	85491
32.29703	90727
32.30515	84741
32.31328	87123
32.32140	91544
32.32953	85808
32.33765	84647
32.34577	84749
32.35390	83950
32.36202	81439
32.37015	85974
32.37827	79076
32.38638	81218
32.39452	84823
32.40263	83313
32.41077	83080
32.41888	75823
32.42700	79380
32.43513	74915
32.44325	80783
32.45137	81262
32.45950	75426
32.46762	81380
32.47575	80768
32.48387	79999
32.49198	75730
32.50012	73793
32.50823	75484
32.51637	82943
32.52448	81332
32.53260	87769
32.54073	81603
32.54885	85879
32.55698	83504
32.56510	80676
32.57322	81868
32.58135	79560
32.58947	79137
32.59758	79646
32.60572	80580
32.61383	81943
32.62197	75703
32.63008	83667
32.63820	80303
32.64633	75276
32.65445	80461
32.66258	76030
32.67070	79535
32.67882	76535
32.68695	84112
32.69507	86000
32.70318	88893
32.71132	90889
32.71943	94223
32.72757	92949
32.73568	85134
32.74380	82234
32.75193	80058
32.76005	77123
32.76818	80371
32.77630	81756
32.78442	80803
32.79255	79754
32.80067	76833
32.80880	77551
32.81692	77205
32.82503	80158
32.83317	79521
32.84128	85297
32.84940	82504
32.85753	82445
32.86565	83245
32.87378	81775
32.88190	86270
32.89002	91173
32.89815	96950
32.90627	105557
32.91440	111018
32.92252	112598
32.93063	119008
32.93877	111835
32.94688	104880
32.95502	98206
32.96313	90783
32.97125	94769
32.97938	92339
32.98750	115097
32.99562	156942
33.00375	221856
33.01187	301109
33.02000	369085
33.02812	402926
33.03623	385560
33.04437	322960
33.05248	251705
33.06062	201097
33.06873	182868
33.07685	180126
33.08498	199062
33.09310	220787
33.10122	245532
33.10935	281404
33.11747	306934
33.12560	320441
33.13372	295996
33.14183	274643
33.14997	244260
33.15808	214741
33.16622	195801
33.17433	184689
33.18245	164626
33.19058	144779
33.19870	135102
33.20683	115793
33.21495	98919
33.22307	100091
33.23120	105322
33.23932	109922
33.24743	110287
33.25557	107633
33.26368	107273
33.27182	101810
33.27993	98972
33.28805	91565
33.29618	95639
33.30430	98941
33.31243	94918
33.32055	96489
33.32867	94207
33.33680	95737
33.34492	100084
33.35303	102335
33.36117	112845
33.36928	124121
33.37742	137479
33.38553	142726
33.39365	136817
33.40178	129421
33.40990	117211
33.41803	103910
33.42615	93921
33.43427	85904
33.44240	86600
33.45052	78997
33.45865	82900
33.46677	77880
33.47488	82235
33.48302	83309
33.49113	81871
33.49925	81542
33.50738	87998
33.51550	100416
33.52363	100304
33.53175	112822
33.53987	111308
33.54800	127479
33.55612	135518
33.56425	149582
33.57237	161080
33.58048	168999
33.58862	164006
33.59673	147692
33.60487	124755
33.61298	110884
33.62110	99365
33.62923	87402
33.63735	91268
33.64547	90284
33.65360	97183
33.66172	101186
33.66985	107621
33.67797	112530
33.68608	111194
33.69422	102988
33.70233	104763
33.71047	94855
33.71858	89046
33.72670	88290
33.73483	82234
33.74295	82748
33.75108	81544
33.75920	81233
33.76732	80368
33.77545	83623
33.78357	80541
33.79168	74425
33.79982	78797
33.80793	76880
33.81607	76740
33.82418	76686
33.83230	74319
33.84043	78880
33.84855	76826
33.85668	79610
33.86480	77962
33.87292	85816
33.88105	89158
33.88917	89773
33.89728	85836
33.90542	88400
33.91353	90357
33.92167	89992
33.92978	87052
33.93790	86527
33.94603	81313
33.95415	79695
33.96228	79318
33.97040	81568
33.97852	79263
33.98665	83177
33.99477	83258
34.00290	76737
34.01102	76582
34.01913	74781
34.02727	76962
34.03538	75815
34.04350	77717
34.05163	76612
34.05975	81089
34.06788	73476
34.07600	73291
34.08412	80697
34.09225	83084
34.10037	82689
34.10850	78572
34.11662	79166
34.12473	79590
34.13287	76814
34.14098	73285
34.14910	82125
34.15723	92538
34.16535	83397
34.17348	78624
34.18160	81811
34.18972	86824
34.19785	82687
34.20597	82781
34.21410	78151
34.22222	80344
34.23033	82803
34.23847	77217
34.24658	85288
34.25472	77863
34.26283	74413
34.27095	76330
34.27908	75217
34.28720	75413
34.29532	73180
34.30345	71384
34.31157	74705
34.31970	72814
34.32782	73792
34.33593	76671
34.34407	76685
34.35218	75382
34.36032	76291
34.36843	74545
34.37655	79504
34.38468	80067
34.39280	77420
34.40093	77252
34.40905	78797
34.41717	82664
34.42530	78321
34.43342	79641
34.44153	79561
34.44967	78638
34.45778	78353
34.46592	75833
34.47403	78923
34.48215	83257
34.49028	80775
34.49840	77833
34.50653	80494
34.51465	78586
34.52277	74718
34.53090	79182
34.53902	80889
34.54713	87773
34.55527	92139
34.56338	103112
34.57152	113290
34.57963	120878
34.58775	126605
34.59588	129464
34.60400	115646
34.61213	111952
34.62025	108426
34.62837	98695
34.63650	99944
34.64462	94637
34.65275	94384
34.66087	93044
34.66898	88370
34.67712	87114
34.68523	88057
34.69335	88619
34.70148	83145
34.70960	82977
34.71773	88449
34.72585	78236
34.73397	81257
34.74210	80642
34.75022	83823
34.75835	87181
34.76647	81565
34.77458	91835
34.78272	92208
34.79083	102258
34.79897	99554
34.80708	104952
34.81520	94303
34.82333	95893
34.83145	93088
34.83957	93131
34.84770	91693
34.85582	92012
34.86395	83037
34.87207	90873
34.88018	85093
34.88832	84955
34.89643	86446
34.90457	87597
34.91268	82859
34.92080	81001
34.92893	81839
34.93705	77195
34.94517	85906
34.95330	92906
34.96142	94197
34.96955	98843
34.97767	107494
34.98578	111785
34.99392	120577
35.00203	116570
35.01017	110909
35.01828	101576
35.02640	92723
35.03453	92962
35.04265	93525
35.05078	85887
35.05890	83825
35.06702	85064
35.07515	83898
35.08327	91237
35.09138	85079
35.09952	84766
35.10763	84169
35.11577	88630
35.12388	81329
35.13200	84943
35.14013	83494
35.14825	81340
35.15638	84214
35.16450	90653
35.17262	93308
35.18075	90303
35.18887	92841
35.19698	88958
35.20512	92602
35.21323	94880
35.22137	89520
35.22948	85966
35.23760	81262
35.24573	88259
35.25385	83420
35.26198	81918
35.27010	86834
35.27822	88693
35.28635	87514
35.29447	88165
35.30260	87013
35.31072	88552
35.31883	86603
35.32697	83764
35.33508	88559
35.34320	86466
35.35133	85154
35.35945	80822
35.36758	82783
35.37570	81449
35.38382	83763
35.39195	85417
35.40007	86751
35.40820	95630
35.41632	93418
35.42443	100034
35.43257	112088
35.44068	126854
35.44882	131665
35.45693	124921
35.46505	125130
35.47318	115199
35.48130	103105
35.48942	101589
35.49755	101757
35.50567	101789
35.51380	106736
35.52192	103139
35.53003	100749
35.53817	93525
35.54628	98817
35.55442	95057
35.56253	92148
35.57065	83807
35.57878	89618
35.58690	86873
35.59502	85042
35.60315	86336
35.61127	87106
35.61940	87669
35.62752	85780
35.63563	88780
35.64377	80257
35.65188	83572
35.66002	90499
35.66813	91961
35.67625	86743
35.68438	87062
35.69250	88975
35.70063	85342
35.70875	92332
35.71687	84554
35.72500	96098
35.73312	102730
35.74123	94316
35.74937	103450
35.75748	117326
35.76562	127726
35.77373	155959
35.78185	176057
35.78998	193008
35.79810	192752
35.80623	187763
35.81435	153422
35.82247	131008
35.83060	118661
35.83872	106918
35.84685	100177
35.85497	95494
35.86308	92945
35.87122	92832
35.87933	100208
35.88745	95212
35.89558	94536
35.90370	93942
35.91183	92657
35.91995	94830
35.92807	94571
35.93620	89307
35.94432	89930
35.95245	93626
35.96057	92198
35.96868	92301
35.97682	91475
35.98493	87254
35.99305	91157
36.00118	91928
36.00930	96450
36.01743	93139
36.02555	90845
36.03367	94837
36.04180	98623
36.04992	97640
36.05805	94668
36.06617	98928
36.07428	96186
36.08242	93266
36.09053	92087
36.09867	83911
36.10678	89495
36.11490	92144
36.12303	88291
36.13115	98085
36.13927	105955
36.14740	105829
36.15552	119302
36.16365	124575
36.17177	128828
36.17988	134499
36.18802	128831
36.19613	113730
36.20427	106729
36.21238	98505
36.22050	93149
36.22863	92804
36.23675	93119
36.24487	95239
36.25300	91885
36.26112	94410
36.26925	90503
36.27737	94035
36.28548	89122
36.29362	94574
36.30173	91689
36.30987	90689
36.31798	95063
36.32610	95232
36.33423	105205
36.34235	101088
36.35048	99612
36.35860	105861
36.36672	107110
36.37485	100987
36.38297	103608
36.39108	91476
36.39922	97540
36.40733	106314
36.41547	108844
36.42358	106404
36.43170	108038
36.43983	108123
36.44795	112563
36.45608	111653
36.46420	110958
36.47232	102262
36.48045	104624
36.48857	98029
36.49670	99729
36.50482	89509
36.51293	88195
36.52107	88401
36.52918	90976
36.53730	94519
36.54543	92855
36.55355	93998
36.56168	97233
36.56980	96927
36.57792	90300
36.58605	93841
36.59417	97104
36.60230	93347
36.61042	93340
36.61853	92021
36.62667	96390
36.63478	90319
36.64290	99347
36.65103	98844
36.65915	95289
36.66728	97732
36.67540	91834
36.68352	91937
36.69165	91384
36.69977	97246
36.70790	90553
36.71602	93704
36.72413	95938
36.73227	95672
36.74038	96416
36.74852	107095
36.75663	107787
36.76475	104374
36.77288	109744
36.78100	98528
36.78912	98884
36.79725	93128
36.80537	98739
36.81350	97329
36.82162	100014
36.82973	99078
36.83787	102249
36.84598	97359
36.85412	98579
36.86223	93006
36.87035	89197
36.87848	88860
36.88660	87187
36.89473	90760
36.90285	94566
36.91097	94018
36.91910	94721
36.92722	90967
36.93533	89936
36.94347	100354
36.95158	107458
36.95972	148124
36.96783	191016
36.97595	260682
36.98408	311506
36.99220	362147
37.00033	365880
37.00845	301707
37.01657	243912
37.02470	190082
37.03282	147252
37.04093	124588
37.04907	112152
37.05718	102375
37.06532	112059
37.07343	113120
37.08155	112597
37.08968	117171
37.09780	127276
37.10593	124821
37.11405	127765
37.12217	123464
37.13030	126800
37.13842	120016
37.14655	116761
37.15467	107579
37.16278	101190
37.17092	103139
37.17903	100973
37.18715	101456
37.19528	98132
37.20340	96375
37.21153	96134
37.21965	102108
37.22777	102149
37.23590	103227
37.24402	105698
37.25215	111264
37.26027	102184
37.26838	101384
37.27652	100844
37.28463	107989
37.29277	94986
37.30088	100716
37.30900	98737
37.31713	98355
37.32525	98228
37.33337	97998
37.34150	102442
37.34962	101593
37.35775	108035
37.36587	105211
37.37398	106832
37.38212	104325
37.39023	105937
37.39837	111630
37.40648	115241
37.41460	119468
37.42273	113032
37.43085	117347
37.43897	117933
37.44710	127228
37.45522	124944
37.46335	127716
37.47147	125181
37.47958	124597
37.48772	122855
