C:\MassHunter\GCMS\1\data\JTB-E18\JTB-E18-032-13.D Fri Oct 11 10:43:43 2019
Start of data points
2.09520	106186
2.10332	108274
2.11145	114169
2.11957	112161
2.12768	111744
2.13582	125871
2.14393	134029
2.15207	133661
2.16018	138571
2.16830	139608
2.17643	138454
2.18455	141289
2.19268	145036
2.20080	138978
2.20892	132449
2.21705	129793
2.22517	125227
2.23328	118593
2.24142	119507
2.24953	122561
2.25767	120055
2.26578	124011
2.27390	390451
2.28203	2708551
2.29015	4166603
2.29828	2176782
2.30640	1152595
2.31452	825021
2.32265	678633
2.33077	618745
2.33890	604858
2.34702	678067
2.35513	506336
2.36327	418836
2.37138	373100
2.37950	345278
2.38763	342649
2.39575	328935
2.40388	312611
2.41200	307759
2.42012	296696
2.42825	309569
2.43637	320856
2.44450	285687
2.45262	279380
2.46073	274218
2.46887	256275
2.47698	233063
2.48512	226183
2.49323	231272
2.50135	263891
2.50948	248577
2.51760	234305
2.52572	234449
2.53385	223483
2.54197	213189
2.55010	226475
2.55822	227330
2.56633	229148
2.57447	227522
2.58258	197909
2.59072	192397
2.59883	188994
2.60695	189176
2.61508	197397
2.62320	205586
2.63132	195087
2.63945	183695
2.64757	189450
2.65570	178388
2.66382	178388
2.67193	176310
2.68007	168664
2.68818	165804
2.69632	168862
2.70443	161968
2.71255	160968
2.72068	158770
2.72880	156329
2.73693	160455
2.74505	152002
2.75317	149245
2.76130	155341
2.76942	150710
2.77753	137775
2.78567	151404
2.79378	146060
2.80192	147512
2.81003	147547
2.81815	153351
2.82628	145336
2.83440	146016
2.84253	145016
2.85065	142784
2.85877	137513
2.86690	146033
2.87502	144340
2.88313	139883
2.89127	141423
2.89938	144447
2.90752	140640
2.91563	140154
2.92375	135913
2.93188	135536
2.94000	131008
2.94813	125761
2.95625	128548
2.96437	128274
2.97250	135154
2.98062	136357
2.98875	127989
2.99687	127242
3.00498	132424
3.01312	128987
3.02123	130503
3.02935	132621
3.03748	123109
3.04560	126836
3.05373	129772
3.06185	128295
3.06997	128018
3.07810	126072
3.08622	122740
3.09435	119085
3.10247	120037
3.11058	151378
3.11872	198568
3.12683	198769
3.13497	178575
3.14308	164257
3.15120	159248
3.15933	154242
3.16745	145643
3.17557	145732
3.18370	133639
3.19182	140956
3.19995	137323
3.20807	133890
3.21618	130434
3.22432	126974
3.23243	124840
3.24057	123837
3.24868	125548
3.25680	119331
3.26493	117584
3.27305	154373
3.28117	755040
3.28930	7384492
3.29742	3.601548E+07
3.30555	6.967271E+07
3.31367	8.096917E+07
3.32178	7.088574E+07
3.32992	5.220197E+07
3.33803	3.539624E+07
3.34617	2.525942E+07
3.35428	1.904683E+07
3.36240	1.478782E+07
3.37053	1.18555E+07
3.37865	9860898
3.38678	8152116
3.39490	6995776
3.40302	6158679
3.41115	5542780
3.41927	5030202
3.42738	4535145
3.43552	4146860
3.44363	3868121
3.45177	3546040
3.45988	3309700
3.46800	3119874
3.47613	2927379
3.48425	2762195
3.49238	2604956
3.50050	2457834
3.50862	2325933
3.51675	2164515
3.52487	2084697
3.53300	1970207
3.54112	1866276
3.54923	1817987
3.55737	1749315
3.56548	1659631
3.57360	1581619
3.58173	1533629
3.58985	1482677
3.59798	1424391
3.60610	1380173
3.61422	1342373
3.62235	1315170
3.63047	1289288
3.63860	1236112
3.64672	1189850
3.65483	1165470
3.66297	1105060
3.67108	1094046
3.67920	1033413
3.68733	1010018
3.69545	985659
3.70358	970705
3.71170	928589
3.71982	921168
3.72795	914877
3.73607	897713
3.74420	872161
3.75232	862549
3.76043	849445
3.76857	834517
3.77668	799714
3.78482	796474
3.79293	776193
3.80105	751170
3.80918	755040
3.81730	752772
3.82542	728886
3.83355	710563
3.84167	712122
3.84980	683956
3.85792	675004
3.86603	660823
3.87417	657089
3.88228	649725
3.89042	654810
3.89853	654882
3.90665	618568
3.91478	618866
3.92290	600049
3.93102	600728
3.93915	594608
3.94727	589244
3.95540	570369
3.96352	569948
3.97163	558426
3.97977	545693
3.98788	546615
3.99602	527709
4.00413	545918
4.01225	530168
4.02038	539191
4.02850	520354
4.03663	520361
4.04475	515212
4.05287	507982
4.06100	493084
4.06912	494543
4.07723	489744
4.08537	480307
4.09348	480896
4.10162	479384
4.10973	467353
4.11785	461182
4.12598	457985
4.13410	459927
4.14223	472847
4.15035	488563
4.15847	498073
4.16660	501484
4.17472	488089
4.18285	464097
4.19097	462798
4.19908	449696
4.20722	441756
4.21533	438928
4.22345	427291
4.23158	442569
4.23970	455687
4.24783	443130
4.25595	440209
4.26407	430255
4.27220	425270
4.28032	411231
4.28845	420507
4.29657	398344
4.30468	396221
4.31282	397529
4.32093	403555
4.32905	392387
4.33718	401369
4.34530	403840
4.35343	397248
4.36155	400186
4.36967	393587
4.37780	393610
4.38592	385488
4.39405	381122
4.40217	369723
4.41028	364749
4.41842	367630
4.42653	362730
4.43467	353525
4.44278	350597
4.45090	353019
4.45903	346700
4.46715	339706
4.47527	341408
4.48340	335825
4.49152	333279
4.49965	343707
4.50777	330212
4.51588	328286
4.52402	329584
4.53213	320953
4.54027	322170
4.54838	323526
4.55650	319327
4.56463	315766
4.57275	312934
4.58088	315761
4.58900	319757
4.59712	307666
4.60525	318188
4.61337	314521
4.62148	304995
4.62962	302375
4.63773	304935
4.64587	300646
4.65398	295973
4.66210	298932
4.67023	301616
4.67835	291926
4.68648	295326
4.69460	298273
4.70272	284437
4.71085	287052
4.71897	288235
4.72708	287019
4.73522	283310
4.74333	275804
4.75147	280184
4.75958	270700
4.76770	285407
4.77583	287388
4.78395	283614
4.79208	274139
4.80020	261937
4.80832	273314
4.81645	266148
4.82457	275198
4.83270	263111
4.84082	267200
4.84893	254425
4.85707	269589
4.86518	274070
4.87330	263898
4.88143	261264
4.88955	269962
4.89768	274312
4.90580	400955
4.91392	1293139
4.92205	5941883
4.93017	2.148395E+07
4.93830	4.40058E+07
4.94642	5.856595E+07
4.95453	5.974117E+07
4.96267	4.97821E+07
4.97078	3.576869E+07
4.97890	2.362339E+07
4.98703	1.491547E+07
4.99515	9950104
5.00328	7275795
5.01140	5600099
5.01952	4610948
5.02765	3886167
5.03577	3374552
5.04390	2986669
5.05202	2659713
5.06013	2407915
5.06827	2208988
5.07638	2014897
5.08452	1874481
5.09263	1742398
5.10075	1611678
5.10888	1499669
5.11700	1414100
5.12512	1358826
5.13325	1279224
5.14137	1192659
5.14950	1149453
5.15762	1113525
5.16573	1053193
5.17387	1020831
5.18198	967503
5.19012	950084
5.19823	898566
5.20635	884453
5.21448	873788
5.22260	844982
5.23073	888486
5.23885	941345
5.24697	994325
5.25510	980858
5.26322	919169
5.27133	828651
5.27947	767033
5.28758	748273
5.29572	707679
5.30383	709748
5.31195	668923
5.32008	649172
5.32820	647312
5.33633	615393
5.34445	628361
5.35257	589798
5.36070	595910
5.36882	586082
5.37693	568148
5.38507	568919
5.39318	548485
5.40132	531768
5.40943	541206
5.41755	529987
5.42568	525625
5.43380	503376
5.44193	501735
5.45005	487667
5.45817	493654
5.46630	482255
5.47442	480039
5.48255	467201
5.49067	467688
5.49878	457447
5.50692	461987
5.51503	455904
5.52315	456422
5.53128	461201
5.53940	434074
5.54753	436855
5.55565	427469
5.56377	415871
5.57190	427469
5.58002	420480
5.58815	416206
5.59627	416203
5.60438	421035
5.61252	421479
5.62063	430428
5.62877	448047
5.63688	460019
5.64500	447865
5.65313	438574
5.66125	440360
5.66937	434742
5.67750	485554
5.68562	562666
5.69375	629826
5.70187	620616
5.70998	562153
5.71812	490125
5.72623	447450
5.73437	415293
5.74248	409062
5.75060	382525
5.75873	380689
5.76685	364569
5.77497	361767
5.78310	356950
5.79122	353921
5.79935	349709
5.80747	355733
5.81558	341174
5.82372	356968
5.83183	334959
5.83997	347112
5.84808	329717
5.85620	335814
5.86433	326721
5.87245	323529
5.88058	322118
5.88870	312116
5.89682	315336
5.90495	302336
5.91307	262002
5.92118	245880
5.92932	228405
5.93743	221495
5.94557	229564
5.95368	235959
5.96180	232437
5.96993	236072
5.97805	239635
5.98618	251716
5.99430	247068
6.00242	249732
6.01055	237536
6.01867	237440
6.02680	234417
6.03492	228267
6.04303	216021
6.05117	215007
6.05928	208930
6.06740	209881
6.07553	215879
6.08365	207680
6.09178	206157
6.09990	210156
6.10802	202281
6.11615	200706
6.12427	207692
6.13240	202734
6.14052	204945
6.14863	203253
6.15677	211985
6.16488	211662
6.17300	217809
6.18113	216932
6.18925	224754
6.19738	229482
6.20550	231317
6.21362	235609
6.22175	231386
6.22987	230967
6.23800	231890
6.24612	248311
6.25423	251382
6.26237	250748
6.27048	252191
6.27862	256999
6.28673	259146
6.29485	254016
6.30298	267957
6.31110	268262
6.31922	274060
6.32735	261892
6.33547	275590
6.34360	272825
6.35172	280306
6.35983	280050
6.36797	289583
6.37608	279894
6.38422	284286
6.39233	286308
6.40045	299110
6.40858	294081
6.41670	302329
6.42482	321754
6.43295	323585
6.44107	338710
6.44920	340681
6.45732	326917
6.46543	323312
6.47357	328705
6.48168	324022
6.48982	328055
6.49793	332645
6.50605	329980
6.51418	326253
6.52230	326946
6.53043	353091
6.53855	360434
6.54667	373509
6.55480	363066
6.56292	342318
6.57103	335586
6.57917	342033
6.58728	339544
6.59542	322786
6.60353	334025
6.61165	321697
6.61978	251007
6.62790	230602
6.63603	217456
6.64415	213829
6.65227	213104
6.66040	199034
6.66852	187431
6.67665	191390
6.68477	188783
6.69288	197512
6.70102	187930
6.70913	185693
6.71725	175914
6.72538	173994
6.73350	173425
6.74163	179464
6.74975	176679
6.75787	173905
6.76600	172967
6.77412	168258
6.78225	167870
6.79037	169287
6.79848	167352
6.80662	166561
6.81473	163057
6.82285	161758
6.83098	158030
6.83910	157783
6.84723	149734
6.85535	142205
6.86347	123421
6.87160	123117
6.87972	129306
6.88785	126616
6.89597	124662
6.90408	120461
6.91222	117309
6.92033	112536
6.92847	110740
6.93658	107909
6.94470	114096
6.95283	110250
6.96095	104341
6.96907	110781
6.97720	102509
6.98532	106775
6.99345	103721
7.00157	106046
7.00968	102491
7.01782	100156
7.02593	102011
7.03407	98942
7.04218	96346
7.05030	101656
7.05843	99226
7.06655	98363
7.07468	99502
7.08280	102901
7.09092	91713
7.09905	97309
7.10717	100161
7.11528	98646
7.12342	99264
7.13153	91430
7.13967	100959
7.14778	100383
7.15590	95237
7.16403	98309
7.17215	97711
7.18028	98911
7.18840	101115
7.19652	102137
7.20465	99953
7.21277	98387
7.22088	98949
7.22902	94714
7.23713	96947
7.24527	97289
7.25338	92942
7.26150	93683
7.26963	93161
7.27775	91818
7.28588	89051
7.29400	91283
7.30212	90974
7.31025	89063
7.31837	89392
7.32650	94145
7.33462	94231
7.34273	94782
7.35087	90567
7.35898	90407
7.36710	85891
7.37523	90946
7.38335	90582
7.39148	89941
7.39960	95813
7.40772	101712
7.41585	111778
7.42397	118553
7.43210	119773
7.44022	122030
7.44833	119024
7.45647	106042
7.46458	98789
7.47270	94868
7.48083	92957
7.48895	98197
7.49708	88203
7.50520	89189
7.51332	87877
7.52145	93122
7.52957	90962
7.53770	86636
7.54582	82906
7.55393	87145
7.56207	91897
7.57018	88349
7.57832	87742
7.58643	82656
7.59455	83846
7.60268	85632
7.61080	82917
7.61892	85895
7.62705	90020
7.63517	86550
7.64330	84939
7.65142	89975
7.65953	88268
7.66767	87143
7.67578	85143
7.68392	85448
7.69203	82008
7.70015	81234
7.70828	79121
7.71640	78753
7.72453	79827
7.73265	82487
7.74077	77790
7.74890	80826
7.75702	79178
7.76513	81900
7.77327	82172
7.78138	82605
7.78952	78749
7.79763	80185
7.80575	74769
7.81388	81770
7.82200	85601
7.83013	76972
7.83825	76638
7.84637	76363
7.85450	70267
7.86262	75964
7.87075	73456
7.87887	79024
7.88698	80294
7.89512	80813
7.90323	75758
7.91135	74382
7.91948	72026
7.92760	73458
7.93573	77023
7.94385	80635
7.95197	79394
7.96010	77371
7.96822	75167
7.97635	82954
7.98447	80378
7.99258	79297
8.00072	78575
8.00883	78083
8.01695	71987
8.02508	75443
8.03320	67591
8.04133	74053
8.04945	74785
8.05757	71161
8.06570	76348
8.07382	74741
8.08195	75777
8.09007	78674
8.09818	70847
8.10632	71032
8.11443	75356
8.12257	74439
8.13068	72028
8.13880	72259
8.14693	68684
8.15505	78702
8.16317	79262
8.17130	79175
8.17942	82072
8.18755	75601
8.19567	75159
8.20378	70875
8.21192	70889
8.22003	73083
8.22817	68195
8.23628	71294
8.24440	67270
8.25253	71019
8.26065	71535
8.26877	70268
8.27690	68066
8.28502	70537
8.29315	66610
8.30127	74161
8.30938	67395
8.31752	72430
8.32563	75347
8.33377	78978
8.34188	82694
8.35000	82899
8.35813	86012
8.36625	78866
8.37438	72794
8.38250	74568
8.39062	72856
8.39875	68306
8.40687	71774
8.41498	67484
8.42312	69217
8.43123	70641
8.43937	71611
8.44748	68892
8.45560	68453
8.46373	68137
8.47185	71025
8.47998	66643
8.48810	72731
8.49622	75878
8.50435	71489
8.51247	73910
8.52060	77902
8.52872	85380
8.53683	80946
8.54497	84404
8.55308	75533
8.56120	77244
8.56933	171475
8.57745	568573
8.58558	602470
8.59370	293652
8.60182	172418
8.60995	150656
8.61807	143273
8.62620	124586
8.63432	116351
8.64243	110124
8.65057	103090
8.65868	105918
8.66680	106062
8.67493	96918
8.68305	94625
8.69118	91094
8.69930	110788
8.70742	189409
8.71555	550549
8.72367	1766067
8.73180	5401183
8.73992	1.239767E+07
8.74803	1.856992E+07
8.75617	1.902519E+07
8.76428	1.522472E+07
8.77242	9937976
8.78053	5742393
8.78865	3193294
8.79678	2025471
8.80490	1542892
8.81302	1260152
8.82115	1108797
8.82927	921774
8.83740	774733
8.84552	666809
8.85363	588342
8.86177	519306
8.86988	475303
8.87802	421708
8.88613	404139
8.89425	378480
8.90238	335847
8.91050	325780
8.91863	315473
8.92675	300486
8.93487	286917
8.94300	269008
8.95112	250774
8.95923	276676
8.96737	1635298
8.97548	1.750429E+07
8.98362	3.484118E+07
8.99173	2.251659E+07
8.99985	9430691
9.00798	4818381
9.01610	3016805
9.02423	2071641
9.03235	1550962
9.04047	1262486
9.04860	1038078
9.05672	888548
9.06483	781332
9.07297	690531
9.08108	631110
9.08922	572324
9.09733	535458
9.10545	513893
9.11358	480454
9.12170	457658
9.12983	420202
9.13795	405269
9.14607	387919
9.15420	385375
9.16232	374258
9.17045	353603
9.17857	334937
9.18668	320395
9.19482	313365
9.20293	293859
9.21105	283998
9.21918	266337
9.22730	269064
9.23543	250104
9.24355	241761
9.25167	240015
9.25980	238001
9.26792	238108
9.27605	221873
9.28417	216904
9.29228	210035
9.30042	205962
9.30853	204312
9.31665	198243
9.32478	186657
9.33290	181606
9.34103	178633
9.34915	189610
9.35727	180834
9.36540	174066
9.37352	174594
9.38165	184698
9.38977	173163
9.39788	170238
9.40602	170322
9.41413	158084
9.42227	168074
9.43038	153232
9.43850	154898
9.44663	173355
9.45475	699216
9.46287	5347961
9.47100	1.84696E+07
9.47912	2.147655E+07
9.48725	1.206063E+07
9.49537	5535055
9.50348	3025289
9.51162	1966040
9.51973	1391458
9.52787	1036120
9.53598	842065
9.54410	680964
9.55223	581810
9.56035	508889
9.56848	442381
9.57660	396019
9.58472	358724
9.59285	342335
9.60097	314106
9.60908	293146
9.61722	279809
9.62533	259843
9.63347	248788
9.64158	240211
9.64970	229484
9.65783	220936
9.66595	205773
9.67408	200551
9.68220	194750
9.69032	192344
9.69845	185727
9.70657	180463
9.71468	170329
9.72282	165424
9.73093	161432
9.73907	160433
9.74718	157178
9.75530	149246
9.76343	148546
9.77155	146877
9.77968	139356
9.78780	135632
9.79592	139879
9.80405	128527
9.81217	127667
9.82030	129817
9.82842	122774
9.83653	130070
9.84467	123994
9.85278	126767
9.86090	123892
9.86903	119863
9.87715	116434
9.88528	117567
9.89340	112847
9.90152	125548
9.90965	139342
9.91777	147545
9.92590	134253
9.93402	125734
9.94213	123080
9.95027	122109
9.95838	141551
9.96652	163331
9.97463	197611
9.98275	231864
9.99088	227020
9.99900	206420
10.00712	179491
10.01525	156350
10.02337	141998
10.03150	124548
10.03962	123472
10.04773	115111
10.05587	113757
10.06398	113726
10.07212	107035
10.08023	108603
10.08835	107113
10.09648	103452
10.10460	109937
10.11272	104785
10.12085	108262
10.12897	99367
10.13710	105072
10.14522	107154
10.15333	111824
10.16147	103966
10.16958	108863
10.17772	118660
10.18583	124104
10.19395	142470
10.20208	155491
10.21020	191216
10.21833	231984
10.22645	270160
10.23457	250233
10.24270	211107
10.25082	185997
10.25893	156328
10.26707	138910
10.27518	124471
10.28332	122338
10.29143	116772
10.29955	122239
10.30768	112356
10.31580	117042
10.32393	115563
10.33205	113274
10.34017	110872
10.34830	107518
10.35642	103461
10.36453	100313
10.37267	95549
10.38078	95801
10.38892	96597
10.39703	95704
10.40515	99274
10.41328	92399
10.42140	97858
10.42953	89383
10.43765	90528
10.44577	88316
10.45390	89577
10.46202	86683
10.47015	89852
10.47827	87891
10.48638	90947
10.49452	86875
10.50263	86014
10.51075	84274
10.51888	94181
10.52700	86137
10.53513	88036
10.54325	91481
10.55137	87224
10.55950	81283
10.56762	82893
10.57575	85582
10.58387	81733
10.59198	84901
10.60012	80764
10.60823	84803
10.61637	83249
10.62448	75184
10.63260	81098
10.64073	79184
10.64885	76114
10.65697	72370
10.66510	77747
10.67322	78350
10.68135	78564
10.68947	78964
10.69758	79033
10.70572	81125
10.71383	78719
10.72197	79720
10.73008	83335
10.73820	79128
10.74633	78292
10.75445	81594
10.76257	82021
10.77070	82643
10.77882	79762
10.78695	79053
10.79507	86823
10.80318	76397
10.81132	76116
10.81943	76800
10.82757	75839
10.83568	78347
10.84380	75488
10.85193	71897
10.86005	69803
10.86818	71245
10.87630	71021
10.88442	73719
10.89255	73661
10.90067	83796
10.90878	81327
10.91692	81378
10.92503	77502
10.93317	74421
10.94128	75427
10.94940	72468
10.95753	65604
10.96565	70994
10.97378	68794
10.98190	66961
10.99002	72524
10.99815	69620
11.00627	69396
11.01440	73729
11.02252	131890
11.03063	421206
11.03877	1284205
11.04688	2807084
11.05500	3883165
11.06313	3298308
11.07125	2089681
11.07938	1160515
11.08750	706562
11.09562	482349
11.10375	349575
11.11187	287360
11.12000	251662
11.12812	234264
11.13623	235484
11.14437	257613
11.15248	249022
11.16060	258088
11.16873	241510
11.17685	211762
11.18498	185732
11.19310	163620
11.20122	140950
11.20935	136943
11.21747	122922
11.22560	112572
11.23372	117095
11.24183	110143
11.24997	105597
11.25808	103780
11.26622	98941
11.27433	100737
11.28245	98761
11.29058	90722
11.29870	98928
11.30682	96099
11.31495	94724
11.32307	95095
11.33120	93013
11.33932	92610
11.34743	94982
11.35557	88453
11.36368	89387
11.37182	88541
11.37993	86429
11.38805	88724
11.39618	86239
11.40430	86359
11.41243	83212
11.42055	83096
11.42867	82337
11.43680	83302
11.44492	86821
11.45303	83614
11.46117	80827
11.46928	79130
11.47742	78422
11.48553	76850
11.49365	83889
11.50178	80533
11.50990	77775
11.51803	84059
11.52615	78409
11.53427	79291
11.54240	76936
11.55052	76558
11.55863	79589
11.56677	75593
11.57488	77588
11.58302	75768
11.59113	76063
11.59925	75720
11.60738	79953
11.61550	77130
11.62363	73233
11.63175	76330
11.63987	72231
11.64800	72676
11.65612	71371
11.66425	75113
11.67237	76919
11.68048	75638
11.68862	79271
11.69673	83568
11.70485	88060
11.71298	90807
11.72110	93570
11.72923	99286
11.73735	93290
11.74547	86368
11.75360	74888
11.76172	82389
11.76985	83218
11.77797	79413
11.78608	77438
11.79422	71813
11.80233	75487
11.81045	77025
11.81858	75247
11.82670	75787
11.83483	76357
11.84295	76524
11.85107	72918
11.85920	72179
11.86732	71105
11.87545	72075
11.88357	71960
11.89168	70015
11.89982	70820
11.90793	68851
11.91607	69246
11.92418	71001
11.93230	67384
11.94043	69602
11.94855	66354
11.95667	72266
11.96480	77510
11.97292	80841
11.98105	74205
11.98917	72301
11.99728	69328
12.00542	71041
12.01353	70982
12.02167	69987
12.02978	72794
12.03790	67653
12.04603	64421
12.05415	67736
12.06228	64958
12.07040	66649
12.07852	65747
12.08665	68385
12.09477	70097
12.10288	63043
12.11102	65514
12.11913	66174
12.12727	67182
12.13538	66216
12.14350	70473
12.15163	69821
12.15975	69286
12.16788	67985
12.17600	64337
12.18412	67773
12.19225	67951
12.20037	67571
12.20848	64312
12.21662	67078
12.22473	61203
12.23287	63158
12.24098	64751
12.24910	67320
12.25723	68045
12.26535	78698
12.27348	77752
12.28160	78780
12.28972	71358
12.29785	77587
12.30597	74807
12.31410	76458
12.32222	68248
12.33033	73124
12.33847	69217
12.34658	73550
12.35470	68266
12.36283	66970
12.37095	69906
12.37908	67389
12.38720	68353
12.39532	66808
12.40345	66705
12.41157	67168
12.41970	67760
12.42782	69963
12.43593	72775
12.44407	70001
12.45218	75558
12.46032	71953
12.46843	71900
12.47655	66878
12.48468	63897
12.49280	69489
12.50092	67364
12.50905	63676
12.51717	63686
12.52530	63271
12.53342	67055
12.54153	67390
12.54967	68721
12.55778	69830
12.56592	70665
12.57403	67122
12.58215	67215
12.59028	65358
12.59840	62222
12.60652	63445
12.61465	63309
12.62277	60772
12.63090	61784
12.63902	62854
12.64713	62590
12.65527	60615
12.66338	60937
12.67152	65825
12.67963	61940
12.68775	60944
12.69588	64642
12.70400	60439
12.71213	64712
12.72025	68014
12.72837	71107
12.73650	75401
12.74462	74885
12.75273	83989
12.76087	85665
12.76898	86022
12.77712	85138
12.78523	74438
12.79335	71773
12.80148	70115
12.80960	68919
12.81773	68579
12.82585	66657
12.83397	62793
12.84210	62976
12.85022	61369
12.85833	63296
12.86647	59899
12.87458	59553
12.88272	60678
12.89083	59167
12.89895	60083
12.90708	61108
12.91520	58475
12.92333	63496
12.93145	59881
12.93957	59190
12.94770	60746
12.95582	63984
12.96395	63996
12.97207	68707
12.98018	63264
12.98832	60912
12.99643	63444
13.00455	61786
13.01268	60148
13.02080	64678
13.02893	59933
13.03705	65725
13.04517	63790
13.05330	60356
13.06142	65486
13.06955	63645
13.07767	63696
13.08578	63804
13.09392	60158
13.10203	63186
13.11017	64679
13.11828	62581
13.12640	66758
13.13453	79550
13.14265	96314
13.15077	103312
13.15890	106465
13.16702	96719
13.17515	87788
13.18327	78241
13.19138	73578
13.19952	64438
13.20763	62959
13.21577	59710
13.22388	64203
13.23200	63365
13.24013	58705
13.24825	65873
13.25638	55908
13.26450	60433
13.27262	60763
13.28075	66627
13.28887	62020
13.29698	63355
13.30512	62795
13.31323	61485
13.32137	62029
13.32948	58059
13.33760	57916
13.34573	59675
13.35385	64991
13.36198	56437
13.37010	61671
13.37822	58251
13.38635	60528
13.39447	61607
13.40258	56840
13.41072	56935
13.41883	60422
13.42697	58023
13.43508	58781
13.44320	64108
13.45133	54706
13.45945	58998
13.46758	58759
13.47570	57447
13.48382	57531
13.49195	56008
13.50007	56423
13.50820	58003
13.51632	55291
13.52443	59838
13.53257	58970
13.54068	57504
13.54880	57261
13.55693	56557
13.56505	58048
13.57318	54574
13.58130	55402
13.58942	55842
13.59755	53163
13.60567	60771
13.61380	58648
13.62192	58109
13.63003	57758
13.63817	59362
13.64628	57309
13.65440	58013
13.66253	60442
13.67065	60983
13.67878	59262
13.68690	56567
13.69502	56918
13.70315	58725
13.71127	57095
13.71940	53971
13.72752	55763
13.73563	55358
13.74377	54563
13.75188	62691
13.76002	54603
13.76813	59453
13.77625	57179
13.78438	60035
13.79250	60480
13.80062	57156
13.80875	56126
13.81687	61741
13.82500	58846
13.83312	52779
13.84123	57493
13.84937	59075
13.85748	68687
13.86562	73908
13.87373	81089
13.88185	74781
13.88998	71486
13.89810	73050
13.90623	65437
13.91435	63252
13.92247	59100
13.93060	60927
13.93872	62977
13.94683	56378
13.95497	57407
13.96308	59960
13.97122	62351
13.97933	64607
13.98745	71992
13.99558	67454
14.00370	77368
14.01183	84412
14.01995	87526
14.02807	79214
14.03620	70033
14.04432	66013
14.05243	65412
14.06057	58515
14.06868	62465
14.07682	59065
14.08493	61461
14.09305	58445
14.10118	64563
14.10930	102809
14.11743	214494
14.12555	514333
14.13367	1222801
14.14180	2469669
14.14992	3876397
14.15805	4271631
14.16617	3504543
14.17428	2318852
14.18242	1355995
14.19053	793352
14.19865	480722
14.20678	357951
14.21490	288067
14.22303	247856
14.23115	210881
14.23927	186151
14.24740	166623
14.25552	160933
14.26365	147771
14.27177	139593
14.27988	132235
14.28802	122386
14.29613	114453
14.30427	108024
14.31238	96233
14.32050	91248
14.32863	79925
14.33675	75990
14.34487	74642
14.35300	72792
14.36112	75700
14.36925	67302
14.37737	65700
14.38548	69351
14.39362	67326
14.40173	67820
14.40987	67349
14.41798	69265
14.42610	68943
14.43423	71051
14.44235	71007
14.45047	66286
14.45860	67065
14.46672	71453
14.47485	69716
14.48297	70700
14.49108	69874
14.49922	71555
14.50733	70414
14.51547	68235
14.52358	64812
14.53170	60407
14.53983	65717
14.54795	66777
14.55608	67338
14.56420	66657
14.57232	67075
14.58045	64787
14.58857	60374
14.59668	61840
14.60482	63149
14.61293	65542
14.62107	66269
14.62918	67797
14.63730	61498
14.64543	60781
14.65355	64058
14.66168	61389
14.66980	61246
14.67792	65032
14.68605	65729
14.69417	60035
14.70228	62122
14.71042	66525
14.71853	72632
14.72667	87973
14.73478	161393
14.74290	306842
14.75103	521767
14.75915	708737
14.76728	761967
14.77540	633741
14.78352	417268
14.79165	268893
14.79977	178627
14.80790	139488
14.81602	116358
14.82413	107719
14.83227	103763
14.84038	93695
14.84850	93989
14.85663	92155
14.86475	90330
14.87288	86393
14.88100	80922
14.88912	76261
14.89725	80441
14.90537	75812
14.91350	76136
14.92162	75190
14.92973	73826
14.93787	74778
14.94598	67772
14.95412	66024
14.96223	68451
14.97035	70307
14.97848	64544
14.98660	69236
14.99472	172192
15.00285	592978
15.01097	621644
15.01910	309445
15.02722	212846
15.03533	164641
15.04347	140761
15.05158	127989
15.05972	119629
15.06783	113691
15.07595	107125
15.08408	103351
15.09220	103877
15.10032	95275
15.10845	94896
15.11657	93034
15.12470	89361
15.13282	88423
15.14093	84955
15.14907	82975
15.15718	79173
15.16532	82591
15.17343	459178
15.18155	1.446151E+07
15.18968	3.52136E+07
15.19780	1.792483E+07
15.20593	8563172
15.21405	5201392
15.22217	3553320
15.23030	2632410
15.23842	2060130
15.24653	1669720
15.25467	1410650
15.26278	1172166
15.27092	1037217
15.27903	913583
15.28715	817913
15.29528	735635
15.30340	681689
15.31153	637719
15.31965	798116
15.32777	6869833
15.33590	2.607573E+07
15.34402	1.760191E+07
15.35215	7841014
15.36027	4565994
15.36838	3111110
15.37652	2324493
15.38463	1838899
15.39275	1507121
15.40088	1269990
15.40900	1087155
15.41713	961813
15.42525	867885
15.43337	787162
15.44150	730023
15.44962	663721
15.45775	637983
15.46587	588989
15.47398	550331
15.48212	528236
15.49023	492917
15.49835	466038
15.50648	439984
15.51460	408616
15.52273	405656
15.53085	378037
15.53897	361463
15.54710	349781
15.55522	336336
15.56335	327598
15.57147	315611
15.57958	304487
15.58772	307568
15.59583	320160
15.60397	314571
15.61208	285332
15.62020	278329
15.62833	262980
15.63645	282173
15.64457	286562
15.65270	255965
15.66082	257528
15.66895	267448
15.67707	306056
15.68518	352608
15.69332	379292
15.70143	349469
15.70957	305794
15.71768	275940
15.72580	264527
15.73393	250077
15.74205	237863
15.75017	231534
15.75830	230451
15.76642	226049
15.77455	208408
15.78267	212729
15.79078	281571
15.79892	1121337
15.80703	3784544
15.81517	4957049
15.82328	3273470
15.83140	1837551
15.83953	1191327
15.84765	855216
15.85578	668207
15.86390	549004
15.87202	465354
15.88015	402488
15.88827	362831
15.89638	323323
15.90452	295937
15.91263	288776
15.92077	264341
15.92888	248208
15.93700	243711
15.94513	222290
15.95325	223258
15.96138	214392
15.96950	213617
15.97762	203427
15.98575	197552
15.99387	196195
16.00200	201442
16.01012	202189
16.01823	208644
16.02637	217888
16.03448	212672
16.04260	212487
16.05073	196344
16.05885	185074
16.06698	180534
16.07510	178585
16.08322	170611
16.09135	161196
16.09947	160540
16.10760	158060
16.11572	152765
16.12383	145959
16.13197	151279
16.14008	141261
16.14820	146582
16.15633	141476
16.16445	140319
16.17258	140556
16.18070	135498
16.18882	139997
16.19695	137489
16.20507	133477
16.21320	131665
16.22132	132858
16.22943	133136
16.23757	134327
16.24568	138230
16.25382	131817
16.26193	134671
16.27005	141582
16.27818	133800
16.28630	130654
16.29442	127889
16.30255	119941
16.31067	123099
16.31880	120808
16.32692	120884
16.33503	122546
16.34317	119423
16.35128	114269
16.35942	116553
16.36753	114092
16.37565	111410
16.38378	112631
16.39190	115336
16.40003	113055
16.40815	107100
16.41627	108848
16.42440	105119
16.43252	107460
16.44063	104915
16.44877	106229
16.45688	110281
16.46502	110615
16.47313	116033
16.48125	118204
16.48938	119026
16.49750	116788
16.50563	109661
16.51375	105710
16.52187	107673
16.53000	107669
16.53812	107483
16.54623	105103
16.55437	106156
16.56248	104703
16.57062	100335
16.57873	102628
16.58685	97897
16.59498	97625
16.60310	98656
16.61123	99379
16.61935	99222
16.62747	108925
16.63560	102233
16.64372	99403
16.65185	101088
16.65997	98687
16.66808	96769
16.67622	99535
16.68433	98346
16.69245	92619
16.70058	102290
16.70870	95127
16.71683	96044
16.72495	91734
16.73307	95799
16.74120	98560
16.74932	95713
16.75745	95154
16.76557	86975
16.77368	92418
16.78182	92311
16.78993	95227
16.79807	91942
16.80618	97970
16.81430	94227
16.82243	91874
16.83055	97925
16.83867	88377
16.84680	92580
16.85492	89984
16.86305	88376
16.87117	87111
16.87928	90408
16.88742	97748
16.89553	93923
16.90367	98512
16.91178	93533
16.91990	98987
16.92803	96767
16.93615	97287
16.94427	95781
16.95240	99130
16.96052	98795
16.96865	92279
16.97677	93078
16.98488	96217
16.99302	92627
17.00113	88060
17.00927	95496
17.01738	93246
17.02550	96469
17.03363	96640
17.04175	96244
17.04988	95872
17.05800	88656
17.06612	94604
17.07425	100013
17.08237	93441
17.09048	92801
17.09862	92078
17.10673	89783
17.11487	90109
17.12298	89451
17.13110	94614
17.13923	88954
17.14735	92685
17.15548	90854
17.16360	89360
17.17172	88566
17.17985	87818
17.18797	92047
17.19608	90557
17.20422	91253
17.21233	90193
17.22047	85310
17.22858	90776
17.23670	90093
17.24483	87563
17.25295	87871
17.26108	86685
17.26920	89094
17.27732	91485
17.28545	95196
17.29357	133369
17.30170	278376
17.30982	572797
17.31793	835781
17.32607	778016
17.33418	546494
17.34230	380780
17.35043	295851
17.35855	242046
17.36668	213909
17.37480	190260
17.38292	169632
17.39105	157801
17.39917	148554
17.40730	141401
17.41542	134985
17.42353	136243
17.43167	127639
17.43978	121239
17.44792	121201
17.45603	114971
17.46415	115819
17.47228	110598
17.48040	107382
17.48852	106965
17.49665	109869
17.50477	103209
17.51290	99094
17.52102	103385
17.52913	103464
17.53727	104807
17.54538	104209
17.55352	104839
17.56163	99538
17.56975	103709
17.57788	100112
17.58600	96227
17.59412	95977
17.60225	94651
17.61037	90626
17.61850	94732
17.62662	95931
17.63473	95013
17.64287	94091
17.65098	101590
17.65912	100911
17.66723	104079
17.67535	107187
17.68348	101584
17.69160	99715
17.69973	100073
17.70785	92190
17.71597	97951
17.72410	94247
17.73222	92827
17.74033	92499
17.74847	87065
17.75658	88610
17.76472	87009
17.77283	87734
17.78095	87550
17.78908	87597
17.79720	84411
17.80533	85864
17.81345	90384
17.82157	93884
17.82970	85382
17.83782	87243
17.84595	87036
17.85407	88996
17.86218	87030
17.87032	84310
17.87843	85628
17.88655	83103
17.89468	79298
17.90280	81052
17.91093	80252
17.91905	80550
17.92717	81237
17.93530	81680
17.94342	79009
17.95155	82851
17.95967	78364
17.96778	79870
17.97592	79035
17.98403	75581
17.99215	79301
18.00028	81729
18.00840	86765
18.01653	90594
18.02465	92244
18.03277	99332
18.04090	91047
18.04902	89599
18.05715	93058
18.06527	91409
18.07338	95429
18.08152	88134
18.08963	93733
18.09777	96096
18.10588	96773
18.11400	98327
18.12213	97607
18.13025	91310
18.13837	93921
18.14650	89188
18.15462	89767
18.16275	89410
18.17087	92622
18.17898	86657
18.18712	86887
18.19523	88101
18.20337	90936
18.21148	84272
18.21960	84907
18.22773	95180
18.23585	103023
18.24397	118301
18.25210	138953
18.26022	160453
18.26835	169949
18.27647	186406
18.28458	184833
18.29272	179687
18.30083	188707
18.30897	192358
18.31708	195333
18.32520	193207
18.33333	196367
18.34145	195368
18.34958	189577
18.35770	193610
18.36582	193572
18.37395	186282
18.38207	194675
18.39018	194696
18.39832	191888
18.40643	191934
18.41457	185263
18.42268	180132
18.43080	178375
18.43893	176905
18.44705	181453
18.45518	172652
18.46330	171068
18.47142	179890
18.47955	177123
18.48767	177876
18.49580	167776
18.50392	172220
18.51203	164892
18.52017	160294
18.52828	161154
18.53640	155114
18.54453	165475
18.55265	153563
18.56078	155575
18.56890	159411
18.57702	158674
18.58515	158716
18.59327	166945
18.60140	163165
18.60952	160137
18.61763	162367
18.62577	152531
18.63388	141185
18.64202	142843
18.65013	139720
18.65825	137463
18.66638	132432
18.67450	129863
18.68262	135407
18.69075	122256
18.69887	124381
18.70700	129374
18.71512	122339
18.72323	125014
18.73137	124464
18.73948	116471
18.74762	117815
18.75573	121572
18.76385	118734
18.77198	120815
18.78010	114529
18.78822	109684
18.79635	116372
18.80447	114019
18.81260	113039
18.82072	108365
18.82883	108120
18.83697	108035
18.84508	106050
18.85322	101255
18.86133	102587
18.86945	104292
18.87758	103896
18.88570	101671
18.89383	98714
18.90195	107558
18.91007	97250
18.91820	105519
18.92632	103069
18.93443	102501
18.94257	106057
18.95068	98493
18.95882	99057
18.96693	100238
18.97505	97819
18.98318	99105
18.99130	95474
18.99943	99573
19.00755	99760
19.01567	109671
19.02380	112195
19.03192	110580
19.04003	111577
19.04817	118090
19.05628	115210
19.06442	113033
19.07253	118924
19.08065	123227
19.08878	128426
19.09690	132840
19.10503	138622
19.11315	131987
19.12127	127798
19.12940	125007
19.13752	127716
19.14565	125062
19.15377	118745
19.16188	120014
19.17002	114152
19.17813	116352
19.18625	117991
19.19438	110596
19.20250	107447
19.21063	110379
19.21875	108460
19.22687	108206
19.23500	106908
19.24312	109317
19.25125	112217
19.25937	118493
19.26748	126843
19.27562	140423
19.28373	152230
19.29187	164250
19.29998	166366
19.30810	166143
19.31623	155873
19.32435	138930
19.33247	128903
19.34060	125932
19.34872	123142
19.35685	113991
19.36497	110560
19.37308	109181
19.38122	107941
19.38933	105494
19.39747	109641
19.40558	127316
19.41370	177972
19.42183	326272
19.42995	572861
19.43807	939659
19.44620	1341592
19.45432	1459938
19.46245	1211232
19.47057	793438
19.47868	471160
19.48682	270987
19.49493	173594
19.50307	142349
19.51118	121892
19.51930	111851
19.52743	122886
19.53555	137827
19.54368	180787
19.55180	248842
19.55992	307595
19.56805	358803
19.57617	338354
19.58428	272222
19.59242	207331
19.60053	171639
19.60867	165016
19.61678	211359
19.62490	343416
19.63303	559829
19.64115	897217
19.64928	1253454
19.65740	1505205
19.66552	1488971
19.67365	1239620
19.68177	898107
19.68990	608896
19.69802	418502
19.70613	300763
19.71427	238070
19.72238	198549
19.73050	183142
19.73863	172409
19.74675	163833
19.75488	151107
19.76300	142062
19.77112	131376
19.77925	138730
19.78737	125326
19.79550	116475
19.80362	112544
19.81173	108758
19.81987	112288
19.82798	108383
19.83610	103888
19.84423	106544
19.85235	110352
19.86048	107132
19.86860	112451
19.87672	121719
19.88485	141476
19.89297	164360
19.90110	189654
19.90922	211317
19.91733	231539
19.92547	244563
19.93358	233750
19.94172	226213
19.94983	198506
19.95795	179703
19.96608	171163
19.97420	154292
19.98232	142579
19.99045	139767
19.99857	136201
20.00670	131921
20.01482	127478
20.02293	120972
20.03107	125503
20.03918	118298
20.04732	112491
20.05543	112048
20.06355	108186
20.07168	99111
20.07980	99122
20.08792	96257
20.09605	93854
20.10417	98443
20.11230	96047
20.12042	92491
20.12853	91737
20.13667	89598
20.14478	90470
20.15292	92720
20.16103	86772
20.16915	94243
20.17728	93106
20.18540	93427
20.19353	94435
20.20165	109574
20.20977	144888
20.21790	205329
20.22602	332942
20.23413	523383
20.24227	725025
20.25038	900840
20.25852	947194
20.26663	855768
20.27475	675917
20.28288	490899
20.29100	342458
20.29913	262742
20.30725	205614
20.31537	171675
20.32350	149139
20.33162	137590
20.33975	132384
20.34787	124509
20.35598	128693
20.36412	128280
20.37223	139551
20.38035	153951
20.38848	196994
20.39660	270900
20.40473	385899
20.41285	502002
20.42097	574697
20.42910	569000
20.43722	491683
20.44535	385585
20.45347	296379
20.46158	242419
20.46972	194906
20.47783	171851
20.48595	154177
20.49408	140954
20.50220	128829
20.51033	129136
20.51845	120307
20.52657	117655
20.53470	121266
20.54282	118683
20.55095	108311
20.55907	114465
20.56718	113663
20.57532	111465
20.58343	110628
20.59157	118814
20.59968	113471
20.60780	115529
20.61593	104467
20.62405	103517
20.63217	106938
20.64030	106139
20.64842	99701
20.65655	93112
20.66467	99012
20.67278	98409
20.68092	99922
20.68903	91543
20.69717	100477
20.70528	95869
20.71340	88974
20.72153	92381
20.72965	92748
20.73778	89424
20.74590	97625
20.75402	100591
20.76215	105207
20.77027	100892
20.77838	103769
20.78652	114467
20.79463	111301
20.80277	107808
20.81088	110808
20.81900	108445
20.82713	107956
20.83525	110577
20.84338	107349
20.85150	105633
20.85962	105807
20.86775	107159
20.87587	106109
20.88398	103862
20.89212	103834
20.90023	101987
20.90837	101273
20.91648	101086
20.92460	100947
20.93273	100124
20.94085	98080
20.94898	97513
20.95710	105220
20.96522	99790
20.97335	100200
20.98147	98589
20.98960	105212
20.99772	102265
21.00583	102163
21.01397	107098
21.02208	100342
21.03020	100381
21.03833	96538
21.04645	95550
21.05458	94540
21.06270	95090
21.07082	92837
21.07895	92004
21.08707	92094
21.09520	100382
21.10332	109509
21.11143	126276
21.11957	151690
21.12768	167411
21.13582	167210
21.14393	152528
21.15205	139808
21.16018	126223
21.16830	120908
21.17642	112842
21.18455	109854
21.19267	102752
21.20080	107327
21.20892	106478
21.21703	105404
21.22517	103333
21.23328	107211
21.24142	109687
21.24953	103042
21.25765	106288
21.26578	109147
21.27390	105974
21.28202	111855
21.29015	110974
21.29827	108708
21.30640	112141
21.31452	110445
21.32263	104140
21.33077	106374
21.33888	105919
21.34702	108400
21.35513	109250
21.36325	106645
21.37138	119587
21.37950	142497
21.38763	146585
21.39575	155925
21.40387	158691
21.41200	147552
21.42012	136655
21.42823	123598
21.43637	115157
21.44448	108018
21.45262	112004
21.46073	111471
21.46885	100274
21.47698	110067
21.48510	110755
21.49323	108971
21.50135	105277
21.50947	105600
21.51760	106188
21.52572	110357
21.53383	110005
21.54197	110217
21.55008	116816
21.55822	140183
21.56633	180220
21.57445	264376
21.58258	329290
21.59070	383863
21.59883	410763
21.60695	394151
21.61507	331672
21.62320	274571
21.63132	226539
21.63945	174614
21.64757	157043
21.65568	139278
21.66382	138718
21.67193	142716
21.68005	147715
21.68818	145055
21.69630	149318
21.70443	143973
21.71255	128450
21.72067	121491
21.72880	111506
21.73692	117384
21.74505	113414
21.75317	128877
21.76128	148544
21.76942	191813
21.77753	226444
21.78567	262423
21.79378	264534
21.80190	246272
21.81003	214126
21.81815	181396
21.82627	148240
21.83440	126375
21.84252	118170
21.85065	110664
21.85877	110879
21.86688	115353
21.87502	120706
21.88313	126818
21.89127	117484
21.89938	113551
21.90750	107109
21.91563	105555
21.92375	102170
21.93187	95134
21.94000	92245
21.94812	94848
21.95625	89708
21.96437	87913
21.97248	85232
21.98062	87891
21.98873	89721
21.99687	83643
22.00498	92005
22.01310	91939
22.02123	90441
22.02935	87986
22.03748	86863
22.04560	89352
22.05372	91416
22.06185	94518
22.06997	98711
22.07808	107540
22.08622	109448
22.09433	107853
22.10247	103401
22.11058	102104
22.11870	90075
22.12683	96372
22.13495	96257
22.14308	96244
22.15120	103427
22.15932	106883
22.16745	124128
22.17557	126341
22.18370	125062
22.19182	124413
22.19993	115201
22.20807	102821
22.21618	93946
22.22430	92982
22.23243	87430
22.24055	86496
22.24868	82291
22.25680	84120
22.26492	85673
22.27305	84276
22.28117	87544
22.28930	86371
22.29742	94450
22.30553	97897
22.31367	109965
22.32178	122586
22.32990	120116
22.33803	118496
22.34615	108253
22.35428	106594
22.36240	98461
22.37052	91198
22.37865	88888
22.38677	84909
22.39490	80766
22.40302	80845
22.41113	85087
22.41927	79256
22.42738	88711
22.43552	88453
22.44363	88485
22.45175	91802
22.45988	89329
22.46800	89458
22.47612	85853
22.48425	87310
22.49237	88579
22.50050	89553
22.50862	91567
22.51673	88607
22.52487	87022
22.53298	86109
22.54112	78822
22.54923	81059
22.55735	80928
22.56548	81406
22.57360	74677
22.58172	77979
22.58985	75317
22.59797	71601
22.60610	70568
22.61422	71756
22.62233	74991
22.63047	70430
22.63858	71041
22.64672	69991
22.65483	73645
22.66295	69756
22.67108	72566
22.67920	76529
22.68733	72893
22.69545	74962
22.70357	70558
22.71170	66247
22.71982	68459
22.72793	69435
22.73607	71645
22.74418	70922
22.75232	67247
22.76043	68792
22.76855	71799
22.77668	82662
22.78480	80494
22.79293	72086
22.80105	81964
22.80917	74235
22.81730	73811
22.82542	81778
22.83355	78277
22.84167	82851
22.84978	75241
22.85792	83032
22.86603	80282
22.87415	87432
22.88228	86793
22.89040	88120
22.89853	91665
22.90665	94676
22.91477	104704
22.92290	114772
22.93102	121156
22.93915	118511
22.94727	120936
22.95538	114118
22.96352	117084
22.97163	106875
22.97975	108238
22.98788	103313
22.99600	105987
23.00413	99606
23.01225	100107
23.02037	99029
23.02850	90214
23.03662	92658
23.04475	86323
23.05287	83143
23.06098	84061
23.06912	86893
23.07723	84600
23.08537	85009
23.09348	84789
23.10160	85473
23.10973	83886
23.11785	82467
23.12597	85549
23.13410	86670
23.14222	78790
23.15035	83588
23.15847	81111
23.16658	84507
23.17472	86324
23.18283	88904
23.19097	86029
23.19908	81792
23.20720	85513
23.21533	85596
23.22345	83034
23.23158	83060
23.23970	84513
23.24782	85424
23.25595	83622
23.26407	88056
23.27218	90154
23.28032	85525
23.28843	86526
23.29657	89047
23.30468	89519
23.31280	85098
23.32093	85570
23.32905	80414
23.33718	82903
23.34530	83367
23.35342	82411
23.36155	83839
23.36967	82415
23.37778	90185
23.38592	86431
23.39403	84477
23.40217	88013
23.41028	82488
23.41840	81367
23.42653	86512
23.43465	84375
23.44278	80423
23.45090	91836
23.45902	83748
23.46715	84620
23.47527	81813
23.48340	87427
23.49152	82178
23.49963	82277
23.50777	80962
23.51588	79778
23.52400	75871
23.53213	81913
23.54025	81967
23.54838	81151
23.55650	82476
23.56462	87963
23.57275	81509
23.58087	77359
23.58900	88245
23.59712	88701
23.60523	89894
23.61337	89895
23.62148	88482
23.62960	82881
23.63773	87912
23.64585	88387
23.65398	92441
23.66210	92707
23.67022	93846
23.67835	90467
23.68647	86919
23.69460	84126
23.70272	90588
23.71083	90924
23.71897	116646
23.72708	217621
23.73522	541911
23.74333	1557428
23.75145	3933064
23.75958	7531325
23.76770	1.119087E+07
23.77582	1.281061E+07
23.78395	1.251737E+07
23.79207	1.049918E+07
23.80020	7810387
23.80832	5548111
23.81643	3802461
23.82457	2718159
23.83268	1994322
23.84082	1565674
23.84893	1333290
23.85705	1294851
23.86518	1434601
23.87330	1748515
23.88143	1991617
23.88955	2082848
23.89767	1957934
23.90580	1713823
23.91392	1421801
23.92203	1122145
23.93017	911964
23.93828	744611
23.94642	633065
23.95453	553380
23.96265	487066
23.97078	452759
23.97890	414693
23.98703	383582
23.99515	356978
24.00327	336598
24.01140	315829
24.01952	317162
24.02765	305856
24.03577	291850
24.04388	296180
24.05202	303189
24.06013	324321
24.06825	352698
24.07638	336905
24.08450	344421
24.09263	322349
24.10075	301046
24.10887	276656
24.11700	265583
24.12512	265850
24.13325	259034
24.14137	272373
24.14948	290728
24.15762	290284
24.16573	278842
24.17385	272733
24.18198	261248
24.19010	230481
24.19823	216523
24.20635	209513
24.21447	203180
24.22260	205615
24.23072	190084
24.23885	189260
24.24697	189476
24.25508	175077
24.26322	184764
24.27133	176553
24.27947	184497
24.28758	201003
24.29570	229752
24.30383	298697
24.31195	453281
24.32007	711211
24.32820	1026161
24.33632	1206371
24.34445	1226200
24.35257	1012679
24.36068	754662
24.36882	534916
24.37693	366342
24.38507	271634
24.39318	232388
24.40130	207707
24.40943	232907
24.41755	336234
24.42567	547493
24.43380	1007086
24.44192	1645868
24.45005	2211750
24.45817	2361875
24.46628	2204748
24.47442	1796585
24.48253	1370726
24.49067	1004975
24.49878	787129
24.50690	604826
24.51503	495531
24.52315	428108
24.53128	380885
24.53940	359206
24.54752	359054
24.55565	387467
24.56377	415946
24.57188	434937
24.58002	397402
24.58813	342807
24.59627	295679
24.60438	256403
24.61250	235312
24.62063	216568
24.62875	214150
24.63688	204396
24.64500	192766
24.65312	196658
24.66125	197894
24.66937	187640
24.67750	178471
24.68562	175293
24.69373	170527
24.70187	172398
24.70998	166374
24.71810	164699
24.72623	163717
24.73435	165167
24.74248	170938
24.75060	170647
24.75872	171294
24.76685	161793
24.77497	160982
24.78310	152737
24.79122	160157
24.79933	150420
24.80747	150912
24.81558	144096
24.82370	143917
24.83183	145002
24.83995	148580
24.84808	141830
24.85620	144253
24.86432	140708
24.87245	137178
24.88057	144034
24.88870	139270
24.89682	141400
24.90493	139620
24.91307	142727
24.92118	137901
24.92932	132634
24.93743	130054
24.94555	133956
24.95368	127058
24.96180	127552
24.96992	126915
24.97805	132599
24.98617	124355
24.99430	130715
25.00242	131645
25.01053	128421
25.01867	124833
25.02678	120285
25.03492	125080
25.04303	130025
25.05115	122298
25.05928	123880
25.06740	126273
25.07553	117872
25.08365	123240
25.09177	124403
25.09990	126512
25.10802	129458
25.11613	133999
25.12427	133527
25.13238	134458
25.14052	140868
25.14863	152642
25.15675	143887
25.16488	147855
25.17300	149168
25.18113	146419
25.18925	150803
25.19737	158950
25.20550	165857
25.21362	169902
25.22173	169100
25.22987	157512
25.23798	150740
25.24612	146092
25.25423	136046
25.26235	129009
25.27048	135100
25.27860	139883
25.28673	149770
25.29485	151380
25.30297	155538
25.31110	157597
25.31922	157986
25.32735	144229
25.33547	138334
25.34358	135603
25.35172	122783
25.35983	117611
25.36795	117243
25.37608	117457
25.38420	125993
25.39233	125361
25.40045	131269
25.40857	136305
25.41670	132810
25.42482	127541
25.43295	128896
25.44107	127993
25.44918	122794
25.45732	129987
25.46543	131037
25.47355	130918
25.48168	143056
25.48980	133893
25.49793	130525
25.50605	130331
25.51417	120176
25.52230	116262
25.53042	109389
25.53855	107908
25.54667	106653
25.55478	108375
25.56292	101438
25.57103	109005
25.57917	99119
25.58728	101317
25.59540	101325
25.60353	103751
25.61165	101402
25.61977	107171
25.62790	103916
25.63602	106422
25.64415	102586
25.65227	104427
25.66038	103492
25.66852	99207
25.67663	98259
25.68477	100443
25.69288	95927
25.70100	103580
25.70913	99294
25.71725	105281
25.72538	100268
25.73350	99768
25.74162	101214
25.74975	103689
25.75787	97648
25.76598	103180
25.77412	102194
25.78223	98043
25.79037	102342
25.79848	102757
25.80660	101827
25.81473	106657
25.82285	105167
25.83098	101895
25.83910	103014
25.84722	97863
25.85535	95363
25.86347	96214
25.87158	94283
25.87972	98446
25.88783	98002
25.89597	94303
25.90408	96511
25.91220	91349
25.92033	102853
25.92845	98640
25.93658	99484
25.94470	97117
25.95282	97489
25.96095	96988
25.96907	97249
25.97720	96079
25.98532	99571
25.99343	91725
26.00157	90325
26.00968	88475
26.01780	94093
26.02593	88589
26.03405	90356
26.04218	92230
26.05030	88843
26.05842	88837
26.06655	90153
26.07467	95058
26.08280	99712
26.09092	100735
26.09903	100967
26.10717	108786
26.11528	116078
26.12342	125134
26.13153	123089
26.13965	132610
26.14778	124484
26.15590	127038
26.16402	119002
26.17215	127099
26.18027	123451
26.18840	128578
26.19652	119132
26.20463	118051
26.21277	103880
26.22088	106470
26.22902	105101
26.23713	109896
26.24525	104307
26.25338	110038
26.26150	99100
26.26962	101093
26.27775	96334
26.28587	97919
26.29400	97279
26.30212	95501
26.31023	101764
26.31837	96005
26.32648	98305
26.33462	103549
26.34273	100028
26.35085	90649
26.35898	96079
26.36710	95910
26.37523	97362
26.38335	96402
26.39147	91612
26.39960	91344
26.40772	94699
26.41583	93885
26.42397	91838
26.43208	93961
26.44022	89342
26.44833	89937
26.45645	98940
26.46458	93038
26.47270	89096
26.48083	90655
26.48895	86283
26.49707	88991
26.50520	91560
26.51332	85882
26.52145	84630
26.52957	86294
26.53768	86242
26.54582	89770
26.55393	87763
26.56205	85682
26.57018	86020
26.57830	87270
26.58643	90975
26.59455	90782
26.60267	90332
26.61080	95741
26.61892	101081
26.62705	102862
26.63517	101306
26.64328	102997
26.65142	106483
26.65953	113892
26.66765	105523
26.67578	106464
26.68390	109909
26.69203	101117
26.70015	103591
26.70827	102649
26.71640	107894
26.72452	103758
26.73265	103757
26.74077	101131
26.74888	103852
26.75702	103936
26.76513	101784
26.77327	109168
26.78138	115148
26.78950	120348
26.79763	119817
26.80575	118262
26.81387	115080
26.82200	116428
26.83012	113080
26.83825	106710
26.84637	110419
26.85448	115548
26.86262	116668
26.87073	117537
26.87887	131921
26.88698	143844
26.89510	160200
26.90323	185825
26.91135	257610
26.91947	463338
26.92760	1166964
26.93572	4049548
26.94385	1.510702E+07
26.95197	3.688252E+07
26.96008	5.629671E+07
26.96822	6.955158E+07
26.97633	7.953902E+07
26.98447	8.036757E+07
26.99258	7.305782E+07
27.00070	6.249653E+07
27.00883	5.270097E+07
27.01695	4.279971E+07
27.02508	3.483868E+07
27.03320	2.711496E+07
27.04132	2.093883E+07
27.04945	1.585425E+07
27.05757	1.155887E+07
27.06568	8425994
27.07382	6422442
27.08193	5093050
27.09007	4012827
27.09818	3264767
27.10630	2686094
27.11443	2316137
27.12255	2073098
27.13068	1859870
27.13880	1707560
27.14692	1538326
27.15505	1395009
27.16317	1304924
27.17130	1223930
27.17942	1193775
27.18753	1105080
27.19567	1116747
27.20378	1220208
27.21190	1704599
27.22003	2868992
27.22815	5310118
27.23628	8840611
27.24440	1.259914E+07
27.25252	1.495453E+07
27.26065	1.555197E+07
27.26877	1.443623E+07
27.27690	1.184214E+07
27.28502	9615978
27.29313	7580118
27.30127	5650861
27.30938	4298825
27.31750	3292105
27.32563	2578289
27.33375	2109004
27.34188	1744449
27.35000	1516977
27.35812	1296370
27.36625	1167087
27.37437	1071598
27.38250	970610
27.39062	892387
27.39873	860192
27.40687	799000
27.41498	755425
27.42312	745159
27.43123	717718
27.43935	730831
27.44748	714739
27.45560	687816
27.46372	660866
27.47185	619372
27.47997	576920
27.48810	553468
27.49622	528105
27.50433	515022
27.51247	521177
27.52058	511118
27.52872	506705
27.53683	500244
27.54495	483145
27.55308	486754
27.56120	460513
27.56933	443360
27.57745	423608
27.58557	420410
27.59370	399639
27.60182	388850
27.60993	395535
27.61807	383941
27.62618	380360
27.63432	376513
27.64243	358384
27.65055	365786
27.65868	357480
27.66680	349717
27.67493	337730
27.68305	331511
27.69117	314916
27.69930	321327
27.70742	314604
27.71553	308898
27.72367	301721
27.73178	306858
27.73992	299040
27.74803	287177
27.75615	288960
27.76428	285663
27.77240	281246
27.78053	267772
27.78865	279199
27.79677	269732
27.80490	281077
27.81302	274121
27.82115	273738
27.82927	259302
27.83738	255731
27.84552	252804
27.85363	252921
27.86175	254135
27.86988	248349
27.87800	239516
27.88613	245235
27.89425	236526
27.90237	237120
27.91050	233495
27.91862	251678
27.92675	248347
27.93487	260294
27.94298	286488
27.95112	291288
27.95923	298826
27.96735	296606
27.97548	303743
27.98360	282605
27.99173	270346
27.99985	260325
28.00797	235370
28.01610	229192
28.02422	226933
28.03235	231270
28.04047	218835
28.04858	211452
28.05672	207454
28.06483	201565
28.07297	206146
28.08108	205395
28.08920	204876
28.09733	224367
28.10545	235018
28.11357	269153
28.12170	293383
28.12982	315409
28.13795	319898
28.14607	296670
28.15418	273943
28.16232	249817
28.17043	230490
28.17857	217455
28.18668	213099
28.19480	215763
28.20293	227621
28.21105	282198
28.21918	479357
28.22730	969787
28.23542	2295014
28.24355	5571972
28.25167	1.274237E+07
28.25978	2.336152E+07
28.26792	3.292132E+07
28.27603	3.944806E+07
28.28417	4.389239E+07
28.29228	4.424653E+07
28.30040	4.285443E+07
28.30853	3.890061E+07
28.31665	3.428298E+07
28.32478	2.908524E+07
28.33290	2.597783E+07
28.34102	2.191961E+07
28.34915	1.849436E+07
28.35727	1.507672E+07
28.36538	1.252179E+07
28.37352	1.032034E+07
28.38163	8324497
28.38977	6704246
28.39788	5490164
28.40600	4443604
28.41413	3879464
28.42225	3680586
28.43038	3864377
28.43850	4393045
28.44662	5243331
28.45475	6108520
28.46287	6749641
28.47100	7302958
28.47912	7589247
28.48723	7539549
28.49537	7372741
28.50348	6684040
28.51160	6051008
28.51973	5275594
28.52785	4565155
28.53598	3884349
28.54410	3481968
28.55222	2976064
28.56035	2686633
28.56847	2322261
28.57660	1963493
28.58472	1716437
28.59283	1591732
28.60097	1428721
28.60908	1249171
28.61722	1161252
28.62533	1075350
28.63345	988165
28.64158	932497
28.64970	903562
28.65782	886250
28.66595	915737
28.67407	1079443
28.68220	1397909
28.69032	1787471
28.69843	1946891
28.70657	1794595
28.71468	1480356
28.72282	1161469
28.73093	935421
28.73905	813467
28.74718	794432
28.75530	756186
28.76342	689405
28.77155	636674
28.77967	590288
28.78780	532225
28.79592	509454
28.80403	499706
28.81217	476948
28.82028	457377
28.82842	458634
28.83653	436729
28.84465	429199
28.85278	421641
28.86090	402679
28.86903	405634
28.87715	399229
28.88527	383157
28.89340	372358
28.90152	376962
28.90963	377058
28.91777	358051
28.92588	350255
28.93402	345441
28.94213	358998
28.95025	337779
28.95838	337371
28.96650	342963
28.97463	323355
28.98275	320631
28.99087	309495
28.99900	313955
29.00712	302203
29.01523	312639
29.02337	289391
29.03148	288536
29.03962	296384
29.04773	301437
29.05585	287125
29.06398	282299
29.07210	292677
29.08023	286226
29.08835	292103
29.09647	281086
29.10460	281229
29.11272	273131
29.12085	269890
29.12897	260389
29.13708	269477
29.14522	265013
29.15333	265600
29.16145	270587
29.16958	260512
29.17770	261479
29.18583	251703
29.19395	254389
29.20207	249810
29.21020	244926
29.21832	246242
29.22645	254704
29.23457	250419
29.24268	246669
29.25082	238311
29.25893	241914
29.26707	241461
29.27518	248599
29.28330	237909
29.29143	231557
29.29955	237927
29.30767	232590
29.31580	233120
29.32392	230364
29.33205	227532
29.34017	219242
29.34828	232408
29.35642	220602
29.36453	217650
29.37267	217490
29.38078	230244
29.38890	225260
29.39703	237743
29.40515	234785
29.41328	231203
29.42140	231257
29.42952	226848
29.43765	213515
29.44577	210573
29.45388	192891
29.46202	201921
29.47013	200691
29.47827	197634
29.48638	202129
29.49450	196890
29.50263	201199
29.51075	195713
29.51888	193634
29.52700	192168
29.53512	184231
29.54325	175316
29.55137	170743
29.55948	179683
29.56762	183644
29.57573	172768
29.58387	178361
29.59198	170894
29.60010	174275
29.60823	171102
29.61635	170662
29.62448	174109
29.63260	165964
29.64072	166546
29.64885	171702
29.65697	168360
29.66510	168297
29.67322	168603
29.68133	161614
29.68947	164981
29.69758	161717
29.70570	164782
29.71383	159185
29.72195	166270
29.73008	169570
29.73820	165179
29.74632	158686
29.75445	164199
29.76257	153023
29.77070	158894
29.77882	158367
29.78693	157766
29.79507	156290
29.80318	152807
29.81130	162646
29.81943	153713
29.82755	163523
29.83568	175533
29.84380	224783
29.85192	318286
29.86005	536728
29.86817	958599
29.87630	1580443
29.88442	2622719
29.89253	4336621
29.90067	6841544
29.90878	9657395
29.91692	1.204759E+07
29.92503	1.403716E+07
29.93315	1.495789E+07
29.94128	1.473825E+07
29.94940	1.41275E+07
29.95752	1.332488E+07
29.96565	1.206474E+07
29.97377	1.089833E+07
29.98190	1.029047E+07
29.99002	9494150
29.99813	8717602
30.00627	8010535
30.01438	7031199
30.02252	6312053
30.03063	5844619
30.03875	5451917
30.04688	4959621
30.05500	4437036
30.06313	3998327
30.07125	3427370
30.07937	3046425
30.08750	2699423
30.09562	2377879
30.10373	2136414
30.11187	1907235
30.11998	1714006
30.12812	1496851
30.13623	1337424
30.14435	1183963
30.15248	1071046
30.16060	972373
30.16873	873059
30.17685	822524
30.18497	748579
30.19310	664963
30.20122	617031
30.20933	581212
30.21747	541641
30.22558	516669
30.23372	498605
30.24183	463420
30.24995	435013
30.25808	422976
30.26620	410480
30.27433	395356
30.28245	374641
30.29057	374040
30.29870	360553
30.30682	349783
30.31495	345196
30.32307	328589
30.33118	324421
30.33932	315053
30.34743	302576
30.35555	309696
30.36368	289164
30.37180	285948
30.37993	275440
30.38805	286665
30.39617	276408
30.40430	263599
30.41242	260032
30.42055	253716
30.42867	252658
30.43678	252638
30.44492	246544
30.45303	253732
30.46117	251614
30.46928	246719
30.47740	241095
30.48553	237600
30.49365	228939
30.50177	221211
30.50990	231058
30.51802	222620
30.52615	220322
30.53427	213609
30.54238	219846
30.55052	219908
30.55863	225641
30.56677	235877
30.57488	235007
30.58300	242266
30.59113	243572
30.59925	243921
30.60737	244405
30.61550	238789
30.62362	224809
30.63175	210182
30.63987	206851
30.64798	195021
30.65612	194194
30.66423	189101
30.67237	182473
30.68048	175934
30.68860	184219
30.69673	177732
30.70485	181701
30.71298	184265
30.72110	184198
30.72922	180304
30.73735	182253
30.74547	182930
30.75358	184635
30.76172	191307
30.76983	188960
30.77797	178212
30.78608	185542
30.79420	186496
30.80233	180579
30.81045	182725
30.81858	175710
30.82670	172603
30.83482	172266
30.84295	169505
30.85107	169575
30.85918	166112
30.86732	159864
30.87543	156846
30.88357	159031
30.89168	147832
30.89980	158107
30.90793	153161
30.91605	156478
30.92418	154803
30.93230	150775
30.94042	153960
30.94855	149925
30.95667	148066
30.96480	150443
30.97292	153374
30.98103	150810
30.98917	146011
30.99728	148963
31.00540	142361
31.01353	143161
31.02165	143772
31.02978	151096
31.03790	145055
31.04602	141664
31.05415	146121
31.06227	147384
31.07040	155255
31.07852	161235
31.08663	173021
31.09477	180756
31.10288	190158
31.11102	199626
31.11913	201197
31.12725	199798
31.13538	198799
31.14350	209795
31.15162	206702
31.15975	221046
31.16787	228109
31.17600	246828
31.18412	270251
31.19223	299893
31.20037	322140
31.20848	331545
31.21662	299385
31.22473	281812
31.23285	238833
31.24098	214206
31.24910	188837
31.25722	163260
31.26535	153356
31.27347	147690
31.28160	139736
31.28972	138444
31.29783	149965
31.30597	152029
31.31408	166189
31.32222	175097
31.33033	180048
31.33845	180856
31.34658	180377
31.35470	180845
31.36283	168404
31.37095	166600
31.37907	157014
31.38720	157529
31.39532	149590
31.40343	145673
31.41157	139913
31.41968	139450
31.42782	129629
31.43593	139811
31.44405	130378
31.45218	125758
31.46030	125234
31.46843	126863
31.47655	128688
31.48467	124501
31.49280	120780
31.50092	122587
31.50905	125676
31.51717	125941
31.52528	120987
31.53342	122344
31.54153	115634
31.54965	115869
31.55778	123538
31.56590	116399
31.57403	119718
31.58215	119076
31.59027	123732
31.59840	114144
31.60652	123147
31.61465	118824
31.62277	111308
31.63088	114236
31.63902	115403
31.64713	111364
31.65525	114430
31.66338	112792
31.67150	118167
31.67963	119379
31.68775	116999
31.69587	114927
31.70400	114318
31.71212	104948
31.72025	109484
31.72837	111496
31.73648	115603
31.74462	112663
31.75273	111131
31.76087	109521
31.76898	116648
31.77710	118456
31.78523	134515
31.79335	162380
31.80147	222315
31.80960	344259
31.81772	559377
31.82585	901748
31.83397	1392179
31.84208	2020516
31.85022	2777515
31.85833	3696692
31.86647	4713927
31.87458	5576653
31.88270	6110906
31.89083	6430178
31.89895	6763714
31.90708	6670044
31.91520	6235460
31.92332	5670270
31.93145	5197151
31.93957	4807866
31.94768	4237528
31.95582	3736647
31.96393	3259743
31.97207	2828685
31.98018	2529578
31.98830	2254318
31.99643	1992124
32.00455	1733785
32.01268	1495352
32.02080	1244196
32.02892	1041876
32.03705	904406
32.04517	813592
32.05328	713742
32.06142	627151
32.06953	564663
32.07767	523238
32.08578	489406
32.09390	456089
32.10203	414577
32.11015	398285
32.11828	368379
32.12640	349732
32.13452	332385
32.14265	314010
32.15077	319374
32.15890	301898
32.16702	292483
32.17513	279550
32.18327	273708
32.19138	272713
32.19950	265837
32.20763	246100
32.21575	242912
32.22388	241218
32.23200	233640
32.24012	237935
32.24825	231198
32.25637	227525
32.26450	221779
32.27262	225052
32.28073	217606
32.28887	210590
32.29698	212918
32.30510	208738
32.31323	208550
32.32135	210651
32.32948	197492
32.33760	199620
32.34572	198613
32.35385	198182
32.36197	189264
32.37010	182834
32.37822	188919
32.38633	181739
32.39447	176858
32.40258	183773
32.41072	179713
32.41883	172812
32.42695	173742
32.43508	169315
32.44320	165809
32.45132	166209
32.45945	164081
32.46757	163754
32.47570	171793
32.48382	158753
32.49193	162308
32.50007	156105
32.50818	153643
32.51632	154412
32.52443	157024
32.53255	155149
32.54068	172855
32.54880	193033
32.55693	259761
32.56505	388140
32.57317	621822
32.58130	825850
32.58942	921474
32.59753	877139
32.60567	711897
32.61378	520897
32.62192	376664
32.63003	280930
32.63815	218980
32.64628	193401
32.65440	175788
32.66253	165322
32.67065	162319
32.67877	167221
32.68690	157635
32.69502	162218
32.70313	162583
32.71127	151866
32.71938	155936
32.72752	147927
32.73563	148733
32.74375	146152
32.75188	148248
32.76000	140403
32.76813	138888
32.77625	139290
32.78437	134992
32.79250	135513
32.80062	139816
32.80875	134724
32.81687	131760
32.82498	135705
32.83312	131512
32.84123	138116
32.84935	132703
32.85748	133050
32.86560	134480
32.87373	132530
32.88185	129428
32.88997	128380
32.89810	130887
32.90622	135366
32.91435	134844
32.92247	136259
32.93058	130897
32.93872	135054
32.94683	129597
32.95497	130150
32.96308	123456
32.97120	130638
32.97933	126143
32.98745	132007
32.99557	132273
33.00370	131884
33.01182	129531
33.01995	123318
33.02807	123785
33.03618	124279
33.04432	122416
33.05243	129075
33.06057	129982
33.06868	132016
33.07680	140853
33.08493	158762
33.09305	179123
33.10117	206051
33.10930	218847
33.11742	221364
33.12555	212539
33.13367	190403
33.14178	174039
33.14992	164684
33.15803	147560
33.16617	135970
33.17428	140218
33.18240	129856
33.19053	131273
33.19865	129766
33.20678	131453
33.21490	129624
33.22302	129592
33.23115	133808
33.23927	129752
33.24738	124875
33.25552	123341
33.26363	124919
33.27177	122548
33.27988	128676
33.28800	123524
33.29613	123954
33.30425	123036
33.31238	123612
33.32050	119858
33.32862	120888
33.33675	119204
33.34487	116629
33.35298	115377
33.36112	121237
33.36923	114250
33.37737	121106
33.38548	120217
33.39360	119906
33.40173	116884
33.40985	118156
33.41798	122835
33.42610	122531
33.43422	117671
33.44235	118939
33.45047	117760
33.45860	115540
33.46672	115370
33.47483	115622
33.48297	115841
33.49108	122036
33.49920	112192
33.50733	116080
33.51545	120455
33.52358	117311
33.53170	111526
33.53982	114377
33.54795	116678
33.55607	116007
33.56420	113013
33.57232	112931
33.58043	112193
33.58857	114884
33.59668	116398
33.60482	110177
33.61293	112505
33.62105	106393
33.62918	108371
33.63730	113510
33.64542	110869
33.65355	108968
33.66167	105528
33.66980	105111
33.67792	109840
33.68603	109526
33.69417	105850
33.70228	113044
33.71042	116603
33.71853	115994
33.72665	115491
33.73478	120964
33.74290	127807
33.75103	146152
33.75915	161307
33.76727	172431
33.77540	177351
33.78352	174828
33.79163	162908
33.79977	157507
33.80788	158938
33.81602	159688
33.82413	155412
33.83225	160656
33.84038	157312
33.84850	152159
33.85663	142025
33.86475	145378
33.87287	140568
33.88100	135131
33.88912	132242
33.89723	135574
33.90537	123982
33.91348	125043
33.92162	124822
33.92973	118146
33.93785	116215
33.94598	115315
33.95410	115918
33.96223	107488
33.97035	113688
33.97847	118549
33.98660	113686
33.99472	118803
34.00285	112219
34.01097	107089
34.01908	109397
34.02722	114235
34.03533	116746
34.04345	116005
34.05158	115333
34.05970	116067
34.06783	106434
34.07595	108209
34.08407	109374
34.09220	105515
34.10032	105984
34.10845	110669
34.11657	107888
34.12468	115143
34.13282	117657
34.14093	110743
34.14905	118540
34.15718	113879
34.16530	111174
34.17343	112879
34.18155	116713
34.18967	110082
34.19780	111253
34.20592	110036
34.21405	108742
34.22217	108294
34.23028	110867
34.23842	109933
34.24653	106262
34.25467	106409
34.26278	107314
34.27090	111534
34.27903	105951
34.28715	110222
34.29527	105232
34.30340	111882
34.31152	112364
34.31965	112315
34.32777	118264
34.33588	111324
34.34402	107138
34.35213	110822
34.36027	107679
34.36838	110458
34.37650	107109
34.38463	108310
34.39275	117843
34.40088	145263
34.40900	198762
34.41712	330266
34.42525	634094
34.43337	1143268
34.44148	1877887
34.44962	2678553
34.45773	3422452
34.46587	3904683
34.47398	4410867
34.48210	4684424
34.49023	4523042
34.49835	4166472
34.50648	3611969
34.51460	3187521
34.52272	2701940
34.53085	2103296
34.53897	1722217
34.54708	1410410
34.55522	1187330
34.56333	970718
34.57147	828940
34.57958	684028
34.58770	610056
34.59583	554018
34.60395	512869
34.61208	466591
34.62020	440926
34.62832	410508
34.63645	396297
34.64457	369902
34.65270	363427
34.66082	338824
34.66893	311073
34.67707	298379
34.68518	291678
34.69330	281315
34.70143	269485
34.70955	260036
34.71768	258958
34.72580	255055
34.73392	243914
34.74205	240507
34.75017	236422
34.75830	232736
34.76642	219936
34.77453	214728
34.78267	222770
34.79078	216005
34.79892	205740
34.80703	206317
34.81515	203587
34.82328	199238
34.83140	204438
34.83952	199633
34.84765	196750
34.85577	205910
34.86390	203780
34.87202	210621
34.88013	203459
34.88827	199925
34.89638	195690
34.90452	189645
34.91263	181662
34.92075	186162
34.92888	181868
34.93700	182137
34.94512	177970
34.95325	174046
34.96137	177381
34.96950	168646
34.97762	177441
34.98573	171681
34.99387	170402
35.00198	174418
35.01012	173582
35.01823	174847
35.02635	171380
35.03448	172001
35.04260	171957
35.05073	186654
35.05885	196868
35.06697	199882
35.07510	204868
35.08322	195397
35.09133	187454
35.09947	181937
35.10758	175397
35.11572	167867
35.12383	167371
35.13195	170601
35.14008	159656
35.14820	157214
35.15633	159940
35.16445	164959
35.17257	162283
35.18070	167267
35.18882	159411
35.19693	156498
35.20507	150876
35.21318	149480
35.22132	148904
35.22943	149400
35.23755	152404
35.24568	154839
35.25380	154825
35.26193	152780
35.27005	147645
35.27817	153446
35.28630	149771
35.29442	143098
35.30255	143806
35.31067	140999
35.31878	140929
35.32692	137343
35.33503	139606
35.34315	141478
35.35128	141563
35.35940	139189
35.36753	139095
35.37565	133764
35.38377	140795
35.39190	136973
35.40002	136728
35.40815	135394
35.41627	139001
35.42438	144173
35.43252	137955
35.44063	146910
35.44877	148177
35.45688	156501
35.46500	154506
35.47313	154736
35.48125	157582
35.48937	163927
35.49750	164319
35.50562	169760
35.51375	174559
35.52187	167248
35.52998	165084
35.53812	164283
35.54623	165801
35.55437	172450
35.56248	190800
35.57060	210627
35.57873	243573
35.58685	246454
35.59497	241832
35.60310	222970
35.61122	206397
35.61935	178242
35.62747	167100
35.63558	162630
35.64372	156152
35.65183	147256
35.65997	146814
35.66808	143455
35.67620	143831
35.68433	141096
35.69245	138048
35.70058	139411
35.70870	139530
35.71682	134659
35.72495	139199
35.73307	136360
35.74118	133208
35.74932	129275
35.75743	133345
35.76557	134069
35.77368	135075
35.78180	139788
35.78993	143857
35.79805	143737
35.80618	152773
35.81430	152894
35.82242	147294
35.83055	150664
35.83867	140504
35.84680	139789
35.85492	129202
35.86303	125077
35.87117	130669
35.87928	137007
35.88740	123199
35.89553	128876
35.90365	129781
35.91178	127524
35.91990	128516
35.92802	119915
35.93615	126700
35.94427	128379
35.95240	126532
35.96052	126729
35.96863	126391
35.97677	131729
35.98488	137437
35.99300	139306
36.00113	138946
36.00925	143723
36.01738	144971
36.02550	141727
36.03362	140070
36.04175	146531
36.04987	136296
36.05800	130375
36.06612	139426
36.07423	136580
36.08237	137037
36.09048	137668
36.09862	142915
36.10673	142954
36.11485	144515
36.12298	145391
36.13110	141239
36.13922	145957
36.14735	148269
36.15547	140761
36.16360	137761
36.17172	132650
36.17983	141719
36.18797	157235
36.19608	204953
36.20422	308213
36.21233	466681
36.22045	677246
36.22858	862579
36.23670	865809
36.24483	718550
36.25295	552198
36.26107	395551
36.26920	271660
36.27732	215752
36.28543	184622
36.29357	169935
36.30168	164124
36.30982	159952
36.31793	152159
36.32605	150711
36.33418	150443
36.34230	152354
36.35043	144247
36.35855	143020
36.36667	154584
36.37480	161280
36.38292	157913
36.39103	163258
36.39917	169866
36.40728	165073
36.41542	162040
36.42353	151136
36.43165	140725
36.43978	137668
36.44790	143134
36.45603	139157
36.46415	138622
36.47227	140550
36.48040	135971
36.48852	128638
36.49665	126692
36.50477	125550
36.51288	124903
36.52102	130298
36.52913	128453
36.53725	131969
36.54538	146781
36.55350	149425
36.56163	154055
36.56975	153206
36.57787	152192
36.58600	146864
36.59412	142571
36.60225	134652
36.61037	128891
36.61848	134536
36.62662	127662
36.63473	130498
36.64285	127488
36.65098	127230
36.65910	126188
36.66723	122045
36.67535	130877
36.68347	125217
36.69160	127597
36.69972	124510
36.70785	121653
36.71597	124194
36.72408	125356
36.73222	123695
36.74033	116395
36.74847	126705
36.75658	121074
36.76470	117896
36.77283	122887
36.78095	119274
36.78907	123449
36.79720	126539
36.80532	124156
36.81345	121226
36.82157	122907
36.82968	122449
36.83782	128403
36.84593	122520
36.85407	119098
36.86218	116733
36.87030	120198
36.87843	116917
36.88655	121980
36.89468	123304
36.90280	120551
36.91092	124173
36.91905	123834
36.92717	124531
36.93528	120691
36.94342	121526
36.95153	124676
36.95967	118421
36.96778	124209
36.97590	125948
36.98403	122122
36.99215	123059
37.00028	126376
37.00840	128607
37.01652	125448
37.02465	133714
37.03277	126473
37.04088	135422
37.04902	130584
37.05713	129020
37.06527	138025
37.07338	134291
37.08150	134276
37.08963	135737
37.09775	137732
37.10588	135386
37.11400	130997
37.12212	133044
37.13025	136329
37.13837	130090
37.14650	124323
37.15462	126037
37.16273	130504
37.17087	132265
37.17898	135308
37.18710	140393
37.19523	161993
37.20335	236387
37.21148	473111
37.21960	937154
37.22772	1639489
37.23585	2272414
37.24397	2570405
37.25210	2838407
37.26022	2855814
37.26833	2717903
37.27647	2591252
37.28458	2291675
37.29272	1949594
37.30083	1623325
37.30895	1353040
37.31708	1124766
37.32520	947266
37.33332	828075
37.34145	693576
37.34957	609254
37.35770	558601
37.36582	507133
37.37393	481278
37.38207	450171
37.39018	419220
37.39832	402333
37.40643	365218
37.41455	355558
37.42268	331668
37.43080	318023
37.43892	313789
37.44705	300378
37.45517	285433
37.46330	290650
37.47142	278998
37.47953	268511
37.48767	270170
