Z:\data\JTB-E02\BACandBLUE\JTB-E02-193-13.D Wed Dec 19 11:55:02 2018
Start of data points
2.09512	81310
2.10325	77685
2.11137	79558
2.11948	83674
2.12762	78005
2.13573	79280
2.14387	78459
2.15198	76350
2.16010	76694
2.16823	77275
2.17635	76090
2.18447	70015
2.19260	71441
2.20072	74394
2.20885	77139
2.21697	67695
2.22508	69624
2.23322	65702
2.24133	69765
2.24947	68022
2.25758	66469
2.26570	95478
2.27383	498163
2.28195	1649316
2.29007	1848973
2.29820	966333
2.30632	586989
2.31445	452772
2.32257	375778
2.33068	329226
2.33882	297221
2.34693	278222
2.35507	256004
2.36318	227822
2.37130	218489
2.37943	213885
2.38755	210428
2.39568	209532
2.40380	188442
2.41192	197599
2.42005	196796
2.42817	194355
2.43628	187380
2.44442	176435
2.45253	172202
2.46067	169589
2.46878	156696
2.47690	160238
2.48503	158097
2.49315	159470
2.50128	169204
2.50940	169713
2.51752	155887
2.52565	163413
2.53377	149849
2.54188	155707
2.55002	161372
2.55813	165907
2.56627	171484
2.57438	156399
2.58250	146764
2.59063	143154
2.59875	134772
2.60688	213008
2.61500	451347
2.62312	579094
2.63125	408054
2.63937	274209
2.64750	228487
2.65562	199642
2.66373	179365
2.67187	166246
2.67998	152410
2.68810	148466
2.69623	144845
2.70435	140282
2.71248	132629
2.72060	129359
2.72872	125319
2.73685	123062
2.74497	128593
2.75310	127868
2.76122	121552
2.76933	128582
2.77747	407560
2.78558	1962120
2.79372	3791793
2.80183	3094543
2.80995	1638764
2.81808	1067915
2.82620	891227
2.83432	721147
2.84245	567389
2.85057	465970
2.85870	401548
2.86682	359617
2.87493	309569
2.88307	285205
2.89118	270709
2.89932	247334
2.90743	233642
2.91555	215049
2.92368	202707
2.93180	195864
2.93992	185868
2.94805	182510
2.95617	175682
2.96430	178349
2.97242	188038
2.98053	173940
2.98867	165162
2.99678	162234
3.00492	169513
3.01303	171437
3.02115	165488
3.02928	168469
3.03740	153739
3.04553	143563
3.05365	135440
3.06177	142732
3.06990	134334
3.07802	148661
3.08613	274411
3.09427	727367
3.10238	1738630
3.11052	3949253
3.11863	5805848
3.12675	4763510
3.13488	2861073
3.14300	1944814
3.15113	1500954
3.15925	1193225
3.16737	1038947
3.17550	1035862
3.18362	1362035
3.19175	3285647
3.19987	6593009
3.20798	7102989
3.21612	4915420
3.22423	3364536
3.23235	2544265
3.24048	2080803
3.24860	1728093
3.25673	1481886
3.26485	1279867
3.27297	1116111
3.28110	991445
3.28922	980740
3.29735	1513434
3.30547	3638152
3.31358	7127993
3.32172	8885520
3.32983	7752386
3.33795	5513583
3.34608	3909241
3.35420	3013684
3.36233	2422447
3.37045	2060535
3.37857	1781249
3.38670	1574860
3.39482	1412828
3.40295	1278135
3.41107	1174389
3.41918	1089650
3.42732	1029541
3.43543	985965
3.44357	981632
3.45168	937792
3.45980	885690
3.46793	950385
3.47605	1199022
3.48417	1307967
3.49230	1107470
3.50042	882702
3.50855	727323
3.51667	662150
3.52478	615500
3.53292	615102
3.54103	667793
3.54917	730415
3.55728	674736
3.56540	598575
3.57353	526401
3.58165	502309
3.58977	479030
3.59790	452758
3.60602	429905
3.61415	427258
3.62227	420295
3.63038	443721
3.63852	454031
3.64663	442670
3.65477	480327
3.66288	1497160
3.67100	9535698
3.67913	3.030538E+07
3.68725	4.866466E+07
3.69538	5.185789E+07
3.70350	4.023546E+07
3.71162	2.634275E+07
3.71975	1.931029E+07
3.72787	1.564364E+07
3.73598	1.316523E+07
3.74412	1.137461E+07
3.75223	9895230
3.76037	8747925
3.76848	7718273
3.77660	6882965
3.78473	6275789
3.79285	5750785
3.80098	5395213
3.80910	5206851
3.81722	5465418
3.82535	5764139
3.83347	5510726
3.84160	4773220
3.84972	4226549
3.85783	3861548
3.86597	3572316
3.87408	3381716
3.88220	3189428
3.89033	3016772
3.89845	2862724
3.90658	2727515
3.91470	2666801
3.92282	2846422
3.93095	3415463
3.93907	3860065
3.94720	3678862
3.95532	3060413
3.96343	2781841
3.97157	2838448
3.97968	2792699
3.98780	2446907
3.99593	2158991
4.00405	2061821
4.01218	2364546
4.02030	2844827
4.02842	2963958
4.03655	2535137
4.04467	2041784
4.05280	1751017
4.06092	1591545
4.06903	1513425
4.07717	1427394
4.08528	1387290
4.09342	1334935
4.10153	1328033
4.10965	1282762
4.11778	1236073
4.12590	1204677
4.13402	1158899
4.14215	1129447
4.15027	1165276
4.15840	1185919
4.16652	1162528
4.17463	1119807
4.18277	1127516
4.19088	1097369
4.19902	1052841
4.20713	1116997
4.21525	2044202
4.22338	5925831
4.23150	1.420778E+07
4.23963	2.327646E+07
4.24775	2.988358E+07
4.25587	3.464602E+07
4.26400	3.771223E+07
4.27212	3.748889E+07
4.28023	2.735457E+07
4.28837	1.445396E+07
4.29648	9737717
4.30462	7507464
4.31273	6100508
4.32085	5055750
4.32898	4305953
4.33710	3741265
4.34523	3249955
4.35335	2952734
4.36147	2753431
4.36960	2768684
4.37772	2846862
4.38583	2803098
4.39397	2429487
4.40208	2033545
4.41022	1774594
4.41833	1623767
4.42645	1504038
4.43458	1427134
4.44270	1352838
4.45083	1295449
4.45895	1227580
4.46707	1165416
4.47520	1112623
4.48332	1063151
4.49145	1034291
4.49957	1014288
4.50768	986896
4.51582	942185
4.52393	925680
4.53205	917090
4.54018	912640
4.54830	916402
4.55643	945557
4.56455	962922
4.57267	910361
4.58080	836604
4.58892	797408
4.59705	771300
4.60517	747451
4.61328	741495
4.62142	761867
4.62953	914698
4.63767	1495961
4.64578	2435734
4.65390	3120115
4.66203	2902771
4.67015	2151750
4.67827	1544232
4.68640	1280741
4.69452	1144812
4.70265	1007405
4.71077	868566
4.71888	784377
4.72702	730934
4.73513	697043
4.74327	670794
4.75138	652953
4.75950	635079
4.76763	605566
4.77575	602685
4.78387	577606
4.79200	600337
4.80012	672218
4.80825	823129
4.81637	925060
4.82448	914047
4.83262	796600
4.84073	747947
4.84887	820855
4.85698	946373
4.86510	994497
4.87323	906360
4.88135	769209
4.88948	670366
4.89760	604426
4.90572	580256
4.91385	555051
4.92197	535853
4.93008	528642
4.93822	533127
4.94633	664698
4.95447	1037862
4.96258	1826133
4.97070	2784204
4.97883	3344752
4.98695	3178227
4.99508	2602892
5.00320	2026306
5.01132	1652886
5.01945	1430080
5.02757	1367243
5.03568	1602241
5.04382	2186341
5.05193	2675309
5.06007	2606930
5.06818	2177801
5.07630	1743085
5.08443	1499166
5.09255	1326274
5.10068	1202314
5.10880	1114591
5.11692	1054787
5.12505	997716
5.13317	948887
5.14130	895473
5.14942	888929
5.15753	979434
5.16567	1285491
5.17378	1619795
5.18190	1751272
5.19003	1558029
5.19815	1350034
5.20628	1307789
5.21440	1440473
5.22252	1541041
5.23065	1462456
5.23877	1248556
5.24690	1078444
5.25502	1015477
5.26313	826453
5.27127	780059
5.27938	670240
5.28752	630819
5.29563	595086
5.30375	580305
5.31188	555994
5.32000	556873
5.32812	544124
5.33625	561025
5.34437	593051
5.35250	608086
5.36062	577979
5.36873	564153
5.37687	529723
5.38498	511921
5.39312	540095
5.40123	569279
5.40935	643502
5.41748	664110
5.42560	617098
5.43372	546397
5.44185	507623
5.44997	519989
5.45810	605769
5.46622	691048
5.47433	698282
5.48247	633471
5.49058	546186
5.49872	473650
5.50683	442697
5.51495	437885
5.52308	420898
5.53120	416897
5.53933	422301
5.54745	428743
5.55557	481316
5.56370	676142
5.57182	1134358
5.57993	1681456
5.58807	1951775
5.59618	1745611
5.60432	1274317
5.61243	885665
5.62055	652664
5.62868	550802
5.63680	511597
5.64493	488830
5.65305	453973
5.66117	448430
5.66930	428901
5.67742	411317
5.68555	439344
5.69367	508016
5.70178	591408
5.70992	632542
5.71803	603315
5.72615	548088
5.73428	473560
5.74240	438393
5.75053	389398
5.75865	378606
5.76677	365044
5.77490	346576
5.78302	355450
5.79115	349316
5.79927	351888
5.80738	341292
5.81552	339579
5.82363	331236
5.83175	342792
5.83988	334739
5.84800	331960
5.85613	321092
5.86425	324922
5.87237	317063
5.88050	312486
5.88862	314016
5.89675	307304
5.90487	313994
5.91298	311393
5.92112	337781
5.92923	368842
5.93737	391997
5.94548	366159
5.95360	380920
5.96173	436703
5.96985	545447
5.97797	685120
5.98610	912148
5.99422	1149782
6.00235	1337542
6.01047	1330811
6.01858	1165111
6.02672	863885
6.03483	624271
6.04297	479513
6.05108	397313
6.05920	356727
6.06733	322543
6.07545	315993
6.08357	305164
6.09170	293509
6.09982	290105
6.10795	282582
6.11607	273751
6.12418	301039
6.13232	445335
6.14043	910275
6.14857	1654520
6.15668	2240297
6.16480	2256873
6.17293	1776219
6.18105	1200162
6.18918	883321
6.19730	680477
6.20542	583626
6.21355	505627
6.22167	468534
6.22978	422723
6.23792	415147
6.24603	408207
6.25417	423353
6.26228	463132
6.27040	518183
6.27853	529415
6.28665	482754
6.29478	430345
6.30290	382685
6.31102	371003
6.31915	358239
6.32727	353181
6.33540	349720
6.34352	342294
6.35163	350739
6.35977	342396
6.36788	332277
6.37600	329162
6.38413	327315
6.39225	326636
6.40038	332299
6.40850	318471
6.41662	307427
6.42475	309046
6.43287	297142
6.44100	302055
6.44912	302567
6.45723	314943
6.46537	317217
6.47348	324076
6.48162	324429
6.48973	312827
6.49785	317831
6.50598	311188
6.51410	309733
6.52222	321677
6.53035	326300
6.53847	334635
6.54660	328385
6.55472	322644
6.56283	332658
6.57097	448573
6.57908	774501
6.58722	1212589
6.59533	1524784
6.60345	1385932
6.61158	1015449
6.61970	661862
6.62782	501924
6.63595	429454
6.64407	387947
6.65220	355464
6.66032	351083
6.66843	343229
6.67657	349684
6.68468	336299
6.69282	278548
6.70093	269611
6.70905	245098
6.71718	237024
6.72530	229723
6.73343	234024
6.74155	229294
6.74967	223363
6.75780	219320
6.76592	223268
6.77403	217146
6.78217	218074
6.79028	215475
6.79842	203391
6.80653	194640
6.81465	189987
6.82278	198985
6.83090	180469
6.83903	178636
6.84715	178585
6.85527	201819
6.86340	209451
6.87152	240613
6.87963	277099
6.88777	277214
6.89588	257615
6.90402	213503
6.91213	189233
6.92025	170985
6.92838	162749
6.93650	147466
6.94463	148947
6.95275	146455
6.96087	148157
6.96900	158191
6.97712	179959
6.98525	195651
6.99337	217349
7.00148	220079
7.00962	196176
7.01773	183817
7.02585	180381
7.03398	184326
7.04210	179235
7.05023	183550
7.05835	190887
7.06647	232016
7.07460	307368
7.08272	357763
7.09085	388372
7.09897	353217
7.10708	305399
7.11522	246647
7.12333	202314
7.13145	183491
7.13958	182542
7.14770	189094
7.15583	206561
7.16395	264629
7.17207	311386
7.18020	342980
7.18832	322607
7.19645	445289
7.20457	1134761
7.21268	3081589
7.22082	6537454
7.22893	1.021895E+07
7.23707	1.192011E+07
7.24518	1.023563E+07
7.25330	6467021
7.26143	3241332
7.26955	1464627
7.27767	657945
7.28580	342422
7.29392	238053
7.30205	211798
7.31017	207021
7.31828	213134
7.32642	238898
7.33453	280472
7.34267	341722
7.35078	393698
7.35890	393431
7.36703	342775
7.37515	293832
7.38328	237114
7.39140	209046
7.39952	180638
7.40765	173183
7.41577	173522
7.42388	161981
7.43202	156278
7.44013	160613
7.44827	148871
7.45638	164551
7.46450	163504
7.47263	174194
7.48075	184161
7.48888	176333
7.49700	166974
7.50512	153289
7.51325	148286
7.52137	158139
7.52950	212598
7.53762	416614
7.54573	895815
7.55387	1890077
7.56198	3461598
7.57010	5263589
7.57823	6629154
7.58635	7018160
7.59448	6180004
7.60260	4702017
7.61072	3109206
7.61885	1887209
7.62697	1136188
7.63510	726312
7.64322	518570
7.65133	411892
7.65947	327941
7.66758	273774
7.67570	232483
7.68383	204123
7.69195	178847
7.70008	160541
7.70820	155757
7.71632	161663
7.72445	165226
7.73257	179466
7.74070	201047
7.74882	227084
7.75693	239394
7.76507	236753
7.77318	242981
7.78132	237113
7.78943	228276
7.79755	221965
7.80568	247193
7.81380	276191
7.82192	339659
7.83005	351335
7.83817	332500
7.84630	281606
7.85442	231804
7.86253	207391
7.87067	219079
7.87878	241263
7.88692	289563
7.89503	347298
7.90315	423950
7.91128	430523
7.91940	393807
7.92752	335484
7.93565	281033
7.94377	274129
7.95190	302075
7.96002	320359
7.96813	321844
7.97627	302160
7.98438	272955
7.99252	226862
8.00063	191596
8.00875	165407
8.01688	141051
8.02500	131577
8.03313	136424
8.04125	135738
8.04937	126123
8.05750	116869
8.06562	130403
8.07373	124981
8.08187	130083
8.08998	128912
8.09812	122040
8.10623	124968
8.11435	119367
8.12248	111727
8.13060	122392
8.13873	146662
8.14685	221801
8.15497	324138
8.16310	425108
8.17122	445271
8.17935	394796
8.18747	301047
8.19558	226272
8.20372	185178
8.21183	164279
8.21995	141038
8.22808	133241
8.23620	114924
8.24433	111577
8.25245	108860
8.26057	111467
8.26870	104181
8.27682	108620
8.28495	106908
8.29307	98200
8.30118	103066
8.30932	108120
8.31743	108035
8.32555	121200
8.33368	134833
8.34180	145378
8.34993	142852
8.35805	126666
8.36617	115429
8.37430	105559
8.38242	95686
8.39055	100838
8.39867	93903
8.40678	95144
8.41492	86590
8.42303	84358
8.43117	87727
8.43928	89190
8.44740	87486
8.45553	86165
8.46365	90854
8.47177	88083
8.47990	90171
8.48802	89042
8.49615	82131
8.50427	87967
8.51238	85173
8.52052	85832
8.52863	108570
8.53677	167097
8.54488	241553
8.55300	304782
8.56113	310291
8.56925	259892
8.57738	181308
8.58550	130985
8.59362	118584
8.60175	117484
8.60987	132976
8.61798	161133
8.62612	185563
8.63423	203672
8.64237	193642
8.65048	164728
8.65860	139479
8.66673	116635
8.67485	106006
8.68298	95931
8.69110	94023
8.69922	90656
8.70735	89731
8.71547	97662
8.72358	91517
8.73172	89655
8.73983	89016
8.74797	84269
8.75608	84835
8.76420	92114
8.77233	120148
8.78045	212412
8.78858	400013
8.79670	714271
8.80482	1010970
8.81295	1117446
8.82107	1038966
8.82920	777615
8.83732	567285
8.84543	438247
8.85357	374972
8.86168	337429
8.86980	321640
8.87793	304451
8.88605	286028
8.89418	269651
8.90230	243418
8.91042	238437
8.91855	236256
8.92667	250830
8.93480	311368
8.94292	418291
8.95103	530030
8.95917	551036
8.96728	507929
8.97540	428124
8.98353	373969
8.99165	376748
8.99978	396753
9.00790	391298
9.01602	364214
9.02415	297445
9.03227	248337
9.04040	206500
9.04852	197924
9.05663	181836
9.06477	172147
9.07288	170397
9.08102	163437
9.08913	178155
9.09725	188964
9.10538	236140
9.11350	327567
9.12162	419874
9.12975	524162
9.13787	557641
9.14600	479919
9.15412	384467
9.16223	294992
9.17037	239060
9.17848	207245
9.18662	206925
9.19473	184382
9.20285	178294
9.21098	171333
9.21910	167690
9.22723	169912
9.23535	161978
9.24347	174271
9.25160	174447
9.25972	179078
9.26783	176140
9.27597	161999
9.28408	154210
9.29222	151974
9.30033	149813
9.30845	144210
9.31658	144042
9.32470	144992
9.33283	142205
9.34095	138610
9.34907	132638
9.35720	132576
9.36532	131251
9.37343	134260
9.38157	127955
9.38968	140282
9.39782	167504
9.40593	197535
9.41405	240972
9.42218	285755
9.43030	344803
9.43843	433557
9.44655	524964
9.45467	584103
9.46280	576876
9.47092	495319
9.47905	394204
9.48717	290745
9.49528	209550
9.50342	175179
9.51153	159517
9.51965	175254
9.52778	202722
9.53590	245464
9.54403	253908
9.55215	255808
9.56027	225620
9.56840	190983
9.57652	163439
9.58465	146253
9.59277	119122
9.60088	120910
9.60902	114921
9.61713	107753
9.62527	107571
9.63338	103283
9.64150	101223
9.64963	101270
9.65775	102006
9.66587	92895
9.67400	97320
9.68212	96153
9.69025	95848
9.69837	97339
9.70648	91159
9.71462	98711
9.72273	94237
9.73087	102352
9.73898	98956
9.74710	96119
9.75523	99007
9.76335	86380
9.77147	88779
9.77960	86377
9.78772	78731
9.79585	80580
9.80397	81094
9.81208	78930
9.82022	83939
9.82833	80583
9.83647	80321
9.84458	81340
9.85270	78381
9.86083	80661
9.86895	87030
9.87708	80041
9.88520	87524
9.89332	76874
9.90145	79020
9.90957	81821
9.91768	76217
9.92582	87176
9.93393	95919
9.94207	126605
9.95018	178539
9.95830	270083
9.96643	384775
9.97455	448043
9.98268	445355
9.99080	389648
9.99892	307085
10.00705	225975
10.01517	172449
10.02330	152641
10.03142	140709
10.03953	133156
10.04767	132803
10.05578	139558
10.06390	137959
10.07203	144110
10.08015	155158
10.08828	157263
10.09640	147013
10.10452	151901
10.11265	145950
10.12077	137782
10.12890	138105
10.13702	129298
10.14513	128934
10.15327	124871
10.16138	125837
10.16950	120823
10.17763	122601
10.18575	112585
10.19388	118204
10.20200	115278
10.21012	112214
10.21825	111043
10.22637	106087
10.23450	110530
10.24262	115271
10.25073	120239
10.25887	152106
10.26698	238695
10.27512	577501
10.28323	1471528
10.29135	3260304
10.29948	6045813
10.30760	9447875
10.31572	1.300621E+07
10.32385	1.689091E+07
10.33197	2.126077E+07
10.34010	2.694168E+07
10.34822	3.438926E+07
10.35633	4.336237E+07
10.36447	5.148458E+07
10.37258	5.576684E+07
10.38072	5.055226E+07
10.38883	3.194554E+07
10.39695	1.451799E+07
10.40508	6724471
10.41320	3901249
10.42132	2478026
10.42945	1727909
10.43757	1316040
10.44570	1151103
10.45382	1098544
10.46193	1100020
10.47007	1117582
10.47818	1105453
10.48632	1068942
10.49443	961657
10.50255	843821
10.51068	724768
10.51880	648569
10.52693	594687
10.53505	570412
10.54317	543285
10.55130	521838
10.55942	525681
10.56753	517603
10.57567	505516
10.58378	500515
10.59192	479396
10.60003	480867
10.60815	438830
10.61628	422674
10.62440	400847
10.63253	368850
10.64065	348705
10.64877	343061
10.65690	324148
10.66502	322618
10.67315	302218
10.68127	307269
10.68938	297180
10.69752	311059
10.70563	314996
10.71375	330697
10.72188	325171
10.73000	338297
10.73813	313845
10.74625	294042
10.75437	288882
10.76250	271283
10.77062	263573
10.77875	259247
10.78687	240178
10.79498	233559
10.80312	236928
10.81123	250633
10.81935	263867
10.82748	283628
10.83560	287277
10.84373	283658
10.85185	244769
10.85997	224798
10.86810	205278
10.87622	192938
10.88435	188167
10.89247	182475
10.90058	184857
10.90872	188747
10.91683	178091
10.92497	180735
10.93308	170657
10.94120	172264
10.94933	171014
10.95745	166062
10.96557	168814
10.97370	165665
10.98182	169085
10.98995	163811
10.99807	183658
11.00618	173577
11.01432	183161
11.02243	196219
11.03057	205277
11.03868	192128
11.04680	178322
11.05493	165487
11.06305	159917
11.07118	169613
11.07930	169505
11.08742	196639
11.09555	207539
11.10367	225233
11.11178	218949
11.11992	211892
11.12803	191712
11.13617	170917
11.14428	154860
11.15240	141774
11.16053	125082
11.16865	135036
11.17678	128723
11.18490	128474
11.19302	130683
11.20115	129068
11.20927	127641
11.21738	122814
11.22552	118976
11.23363	108882
11.24177	111322
11.24988	104433
11.25800	104112
11.26613	90624
11.27425	88242
11.28238	86362
11.29050	88159
11.29862	100710
11.30675	126750
11.31487	233789
11.32300	491803
11.33112	1085104
11.33923	2114603
11.34737	3391500
11.35548	4432705
11.36360	4791077
11.37173	4331526
11.37985	3374868
11.38798	2347610
11.39610	1555067
11.40422	1148295
11.41235	913375
11.42047	795104
11.42860	690565
11.43672	580205
11.44483	497604
11.45297	430649
11.46108	379979
11.46920	337574
11.47733	314587
11.48545	302813
11.49358	322253
11.50170	392272
11.50982	479010
11.51795	553680
11.52607	591953
11.53420	580175
11.54232	503304
11.55043	445752
11.55857	392923
11.56668	365160
11.57482	350145
11.58293	333364
11.59105	315955
11.59918	338587
11.60730	401402
11.61542	557265
11.62355	743029
11.63167	902915
11.63980	934655
11.64792	793443
11.65603	600948
11.66417	426852
11.67228	297389
11.68042	237121
11.68853	205412
11.69665	190686
11.70478	186358
11.71290	181132
11.72103	190466
11.72915	185624
11.73727	193602
11.74540	200061
11.75352	182015
11.76163	169936
11.76977	157133
11.77788	138481
11.78602	127954
11.79413	127117
11.80225	117857
11.81038	116666
11.81850	109966
11.82663	107412
11.83475	104654
11.84287	99747
11.85100	101056
11.85912	97785
11.86725	104929
11.87537	101526
11.88348	93369
11.89162	90359
11.89973	90744
11.90785	90673
11.91598	90209
11.92410	95278
11.93223	108638
11.94035	107356
11.94847	109122
11.95660	107666
11.96472	102218
11.97285	88355
11.98097	89819
11.98908	85905
11.99722	80324
12.00533	80345
12.01345	82708
12.02158	81223
12.02970	78875
12.03783	78692
12.04595	72118
12.05407	77676
12.06220	86948
12.07032	82894
12.07845	93411
12.08657	100011
12.09468	108005
12.10282	125138
12.11093	175097
12.11907	271279
12.12718	473704
12.13530	776549
12.14343	1084953
12.15155	1284300
12.15967	1249556
12.16780	1019195
12.17592	720067
12.18405	512376
12.19217	353714
12.20028	323359
12.20842	305240
12.21653	299102
12.22467	297398
12.23278	269569
12.24090	256434
12.24903	242624
12.25715	225506
12.26527	220958
12.27340	207451
12.28152	214188
12.28965	202924
12.29777	198019
12.30588	185061
12.31402	180799
12.32213	173611
12.33027	164205
12.33838	168876
12.34650	165064
12.35463	163312
12.36275	147517
12.37088	152999
12.37900	152114
12.38712	159104
12.39525	163848
12.40337	176067
12.41148	233518
12.41962	340690
12.42773	516390
12.43587	686579
12.44398	788730
12.45210	760416
12.46023	598031
12.46835	454648
12.47648	342293
12.48460	267687
12.49272	234181
12.50085	211917
12.50897	191800
12.51710	180097
12.52522	174497
12.53333	182449
12.54147	197385
12.54958	241999
12.55770	297319
12.56583	360118
12.57395	395157
12.58208	401164
12.59020	353448
12.59832	306475
12.60645	232905
12.61457	196852
12.62270	175278
12.63082	165861
12.63893	150697
12.64707	145208
12.65518	148565
12.66330	143866
12.67143	136816
12.67955	143045
12.68768	138805
12.69580	137332
12.70392	137120
12.71205	130470
12.72017	127763
12.72830	124195
12.73642	127158
12.74453	129313
12.75267	132610
12.76078	134473
12.76892	124071
12.77703	118920
12.78515	117466
12.79328	116769
12.80140	109581
12.80952	103219
12.81765	107676
12.82577	99015
12.83390	86653
12.84202	81041
12.85013	74498
12.85827	79610
12.86638	75906
12.87452	72778
12.88263	72629
12.89075	70056
12.89888	70258
12.90700	72939
12.91513	71760
12.92325	67526
12.93137	68882
12.93950	70041
12.94762	65410
12.95573	67135
12.96387	66832
12.97198	74908
12.98012	83110
12.98823	88022
12.99635	99082
13.00448	98393
13.01260	99661
13.02073	87584
13.02885	76111
13.03697	69810
13.04510	71001
13.05322	68823
13.06133	70611
13.06947	70894
13.07758	70298
13.08572	79178
13.09383	80645
13.10195	80530
13.11008	82883
13.11820	80283
13.12633	74404
13.13445	71298
13.14257	71944
13.15070	72356
13.15882	68874
13.16695	73602
13.17507	79995
13.18318	78758
13.19132	79256
13.19943	88224
13.20755	89489
13.21568	95842
13.22380	88945
13.23193	99244
13.24005	105739
13.24817	104898
13.25630	108014
13.26442	102337
13.27255	106378
13.28067	110525
13.28878	97309
13.29692	92939
13.30503	83342
13.31315	76366
13.32128	65633
13.32940	68160
13.33753	64585
13.34565	66827
13.35377	67470
13.36190	66243
13.37002	66655
13.37815	66248
13.38627	67104
13.39438	62601
13.40252	64538
13.41063	62178
13.41877	61103
13.42688	67566
13.43500	65419
13.44313	63493
13.45125	62036
13.45937	59870
13.46750	65460
13.47562	67158
13.48375	73160
13.49187	68759
13.49998	67435
13.50812	66082
13.51623	68787
13.52437	74765
13.53248	85586
13.54060	90100
13.54873	88031
13.55685	86045
13.56498	81890
13.57310	74525
13.58122	72888
13.58935	86689
13.59747	89640
13.60558	114001
13.61372	131917
13.62183	152586
13.62997	174805
13.63808	175911
13.64620	171290
13.65433	147451
13.66245	119409
13.67058	90861
13.67870	82143
13.68682	69285
13.69495	63624
13.70307	62479
13.71118	61390
13.71932	62081
13.72743	58537
13.73557	58325
13.74368	56152
13.75180	63347
13.75993	80182
13.76805	105275
13.77618	160313
13.78430	220873
13.79242	333202
13.80055	476256
13.80867	627676
13.81680	781461
13.82492	937659
13.83303	1097087
13.84117	1324872
13.84928	1495961
13.85740	1552416
13.86553	1445014
13.87365	1168106
13.88178	876585
13.88990	633314
13.89802	449788
13.90615	334465
13.91427	263456
13.92240	203506
13.93052	171594
13.93863	141591
13.94677	135610
13.95488	120248
13.96302	121576
13.97113	111333
13.97925	97882
13.98738	93550
13.99550	98000
14.00362	93608
14.01175	99061
14.01987	101064
14.02800	107408
14.03612	104535
14.04423	99033
14.05237	88416
14.06048	83112
14.06862	79584
14.07673	80384
14.08485	81745
14.09298	85892
14.10110	85515
14.10922	81173
14.11735	79919
14.12547	77210
14.13360	71571
14.14172	75142
14.14983	79711
14.15797	83846
14.16608	94719
14.17422	100195
14.18233	105956
14.19045	115842
14.19858	120792
14.20670	139743
14.21483	177344
14.22295	233702
14.23107	295850
14.23920	339000
14.24732	352015
14.25543	376513
14.26357	382886
14.27168	389689
14.27982	366034
14.28793	330642
14.29605	263070
14.30418	220317
14.31230	192959
14.32043	166980
14.32855	152598
14.33667	145796
14.34480	139035
14.35292	142337
14.36103	141468
14.36917	134718
14.37728	120192
14.38542	116246
14.39353	100762
14.40165	106072
14.40978	120709
14.41790	152293
14.42603	197681
14.43415	276187
14.44227	307159
14.45040	286458
14.45852	250467
14.46665	206558
14.47477	172932
14.48288	161629
14.49102	149082
14.49913	156135
14.50725	146929
14.51538	133432
14.52350	124880
14.53163	110615
14.53975	108603
14.54787	106321
14.55600	101085
14.56412	89743
14.57225	93229
14.58037	81705
14.58848	83380
14.59662	79715
14.60473	72770
14.61287	71816
14.62098	74623
14.62910	66778
14.63723	66895
14.64535	65615
14.65347	67873
14.66160	60727
14.66972	58488
14.67785	57902
14.68597	58025
14.69408	62744
14.70222	62016
14.71033	63634
14.71847	63818
14.72658	67579
14.73470	63713
14.74283	68476
14.75095	72771
14.75907	71518
14.76720	77098
14.77532	76513
14.78345	82083
14.79157	97061
14.79968	175948
14.80782	459914
14.81593	1408949
14.82407	3531764
14.83218	7373358
14.84030	1.296296E+07
14.84843	1.916359E+07
14.85655	2.435396E+07
14.86468	2.601421E+07
14.87280	2.285694E+07
14.88092	1.604259E+07
14.88905	8901933
14.89717	4530987
14.90528	2683040
14.91342	1897665
14.92153	1557171
14.92967	1354059
14.93778	1190604
14.94590	1054043
14.95403	975084
14.96215	902170
14.97028	828537
14.97840	763909
14.98652	721415
14.99465	674577
15.00277	632295
15.01090	608252
15.01902	574562
15.02713	548446
15.03527	514491
15.04338	491816
15.05150	471106
15.05963	435085
15.06775	410336
15.07588	402485
15.08400	380498
15.09212	356773
15.10025	349282
15.10837	341238
15.11650	320162
15.12462	317357
15.13273	331035
15.14087	360508
15.14898	413000
15.15710	485718
15.16523	519580
15.17335	470635
15.18148	402401
15.18960	298392
15.19772	216516
15.20585	168775
15.21397	152542
15.22210	133648
15.23022	125559
15.23833	121524
15.24647	120732
15.25458	112771
15.26272	115471
15.27083	112819
15.27895	107235
15.28708	102450
15.29520	93013
15.30332	93508
15.31145	98386
15.31957	91455
15.32770	89276
15.33582	88830
15.34393	87925
15.35207	87794
15.36018	83909
15.36832	91500
15.37643	81081
15.38455	94466
15.39268	102757
15.40080	100879
15.40893	102548
15.41705	98071
15.42517	100903
15.43330	87239
15.44142	85440
15.44953	81296
15.45767	86440
15.46578	84987
15.47392	106494
15.48203	149578
15.49015	223343
15.49828	352333
15.50640	524091
15.51453	653650
15.52265	722139
15.53077	713138
15.53890	644575
15.54702	506726
15.55513	403206
15.56327	306768
15.57138	232070
15.57952	187096
15.58763	159671
15.59575	145174
15.60388	129422
15.61200	123268
15.62013	118953
15.62825	118791
15.63637	117168
15.64450	115596
15.65262	114392
15.66075	109529
15.66887	105957
15.67698	97875
15.68512	91235
15.69323	92472
15.70135	84132
15.70948	80231
15.71760	73747
15.72573	78554
15.73385	76391
15.74197	80986
15.75010	79668
15.75822	99113
15.76635	167803
15.77447	326706
15.78258	676970
15.79072	1230962
15.79883	1785292
15.80695	2181043
15.81508	2151088
15.82320	1664997
15.83133	1136215
15.83945	705256
15.84757	452610
15.85570	309326
15.86382	245619
15.87195	220274
15.88007	201142
15.88818	187700
15.89632	174609
15.90443	168035
15.91257	155182
15.92068	143102
15.92880	143792
15.93693	137079
15.94505	135352
15.95317	130956
15.96130	123342
15.96942	115907
15.97755	114623
15.98567	113954
15.99378	113364
16.00192	124532
16.01003	127900
16.01817	156756
16.02628	174246
16.03440	201816
16.04253	197808
16.05065	197351
16.05878	177956
16.06690	150934
16.07502	129126
16.08315	115811
16.09127	103293
16.09938	96039
16.10752	92864
16.11563	89730
16.12377	88727
16.13188	104438
16.14000	118967
16.14813	135376
16.15625	155793
16.16438	175457
16.17250	173239
16.18062	160055
16.18875	151671
16.19687	132187
16.20498	109445
16.21312	105044
16.22123	107169
16.22937	105626
16.23748	110443
16.24560	109827
16.25373	104086
16.26185	86600
16.26998	82733
16.27810	86106
16.28622	93552
16.29435	101402
16.30247	114870
16.31060	141068
16.31872	148839
16.32683	153356
16.33497	152114
16.34308	148073
16.35120	133732
16.35933	140598
16.36745	131986
16.37558	127379
16.38370	118623
16.39182	112807
16.39995	99439
16.40807	96136
16.41620	95111
16.42432	90755
16.43243	92571
16.44057	101804
16.44868	118423
16.45682	213527
16.46493	487695
16.47305	1228144
16.48118	2577939
16.48930	4383313
16.49742	6042168
16.50555	6584965
16.51367	5761794
16.52180	4237380
16.52992	2570003
16.53803	1425914
16.54617	822707
16.55428	545736
16.56242	415729
16.57053	351701
16.57865	307577
16.58678	289689
16.59490	270206
16.60302	257228
16.61115	239011
16.61927	215912
16.62740	205370
16.63552	191581
16.64363	171136
16.65177	168619
16.65988	155721
16.66802	160908
16.67613	146991
16.68425	146787
16.69238	132173
16.70050	134716
16.70863	134978
16.71675	118853
16.72487	109755
16.73300	110332
16.74112	106509
16.74923	98785
16.75737	115154
16.76548	139981
16.77362	176425
16.78173	190205
16.78985	199745
16.79798	183225
16.80610	145607
16.81423	122854
16.82235	94863
16.83047	87340
16.83860	78667
16.84672	77837
16.85483	79749
16.86297	74798
16.87108	78179
16.87922	70152
16.88733	73067
16.89545	67828
16.90358	64675
16.91170	63233
16.91983	65920
16.92795	66998
16.93607	77760
16.94420	64643
16.95232	66111
16.96045	67432
16.96857	69445
16.97668	72027
16.98482	69105
16.99293	70630
17.00105	73705
17.00918	70015
17.01730	68621
17.02543	74398
17.03355	78127
17.04167	86525
17.04980	103415
17.05792	138410
17.06605	167596
17.07417	177445
17.08228	184596
17.09042	160535
17.09853	133177
17.10667	112916
17.11478	90961
17.12290	89410
17.13103	89188
17.13915	88688
17.14727	103500
17.15540	97171
17.16352	99080
17.17165	94418
17.17977	90679
17.18788	90721
17.19602	85451
17.20413	78053
17.21227	73568
17.22038	72777
17.22850	65207
17.23663	71228
17.24475	65190
17.25288	70205
17.26100	76580
17.26912	77610
17.27725	77112
17.28537	79537
17.29348	71879
17.30162	64365
17.30973	66189
17.31787	77016
17.32598	89279
17.33410	119224
17.34223	165297
17.35035	214851
17.35848	243962
17.36660	274493
17.37472	268285
17.38285	245972
17.39097	228847
17.39908	204567
17.40722	184923
17.41533	180138
17.42347	169262
17.43158	180380
17.43970	168288
17.44783	170175
17.45595	167163
17.46408	155032
17.47220	135597
17.48032	128871
17.48845	119314
17.49657	107497
17.50470	108530
17.51282	113596
17.52093	108582
17.52907	107238
17.53718	105411
17.54530	104607
17.55343	103207
17.56155	109219
17.56968	151261
17.57780	282378
17.58592	616946
17.59405	1362066
17.60217	2630156
17.61030	4086344
17.61842	5528957
17.62653	6009376
17.63467	5655030
17.64278	4526289
17.65090	3112009
17.65903	1955199
17.66715	1151892
17.67528	707871
17.68340	487942
17.69152	361840
17.69965	303803
17.70777	256696
17.71590	244190
17.72402	229213
17.73213	210794
17.74027	204462
17.74838	186221
17.75652	168251
17.76463	149397
17.77275	138311
17.78088	129365
17.78900	118043
17.79712	114690
17.80525	109072
17.81337	104249
17.82150	104353
17.82962	103931
17.83773	110758
17.84587	126143
17.85398	136757
17.86212	172094
17.87023	222876
17.87835	278105
17.88648	307410
17.89460	302463
17.90273	250249
17.91085	193570
17.91897	144032
17.92710	115779
17.93522	101703
17.94333	94179
17.95147	86420
17.95958	86106
17.96772	79773
17.97583	75177
17.98395	77648
17.99208	80735
18.00020	78934
18.00833	78194
18.01645	89224
18.02457	117279
18.03270	165081
18.04082	254088
18.04893	380791
18.05707	485086
18.06518	642041
18.07332	1006732
18.08143	1956270
18.08955	3846913
18.09768	6356022
18.10580	9158254
18.11393	1.063089E+07
18.12205	1.044925E+07
18.13017	8614370
18.13830	6233900
18.14642	4392415
18.15455	3137980
18.16267	2471168
18.17078	2044355
18.17892	1760156
18.18703	1514380
18.19515	1308435
18.20328	1147442
18.21140	1013061
18.21953	939970
18.22765	873014
18.23577	805842
18.24390	747178
18.25202	674265
18.26015	633258
18.26827	588666
18.27638	531876
18.28452	471116
18.29263	403583
18.30077	327919
18.30888	254349
18.31700	195332
18.32513	170343
18.33325	154302
18.34137	132948
18.34950	129447
18.35762	123654
18.36575	123327
18.37387	119073
18.38198	114112
18.39012	113914
18.39823	114271
18.40637	110483
18.41448	113146
18.42260	128961
18.43073	140144
18.43885	177614
18.44697	221249
18.45510	270536
18.46322	412510
18.47135	663861
18.47947	1050657
18.48758	1560015
18.49572	2023362
18.50383	2144922
18.51197	1931047
18.52008	1526356
18.52820	1073218
18.53633	698285
18.54445	451817
18.55258	287184
18.56070	212640
18.56882	176868
18.57695	151765
18.58507	143077
18.59318	132645
18.60132	123373
18.60943	128524
18.61757	145039
18.62568	156903
18.63380	162663
18.64193	165042
18.65005	159503
18.65818	153754
18.66630	134659
18.67442	117316
18.68255	106343
18.69067	98765
18.69878	89433
18.70692	90392
18.71503	88541
18.72317	84002
18.73128	83852
18.73940	80110
18.74753	88425
18.75565	83788
18.76378	78702
18.77190	77774
18.78002	77661
18.78815	80182
18.79627	79453
18.80440	78102
18.81252	81733
18.82063	87159
18.82877	81446
18.83688	85280
18.84500	84838
18.85313	81045
18.86125	83606
18.86938	81183
18.87750	94762
18.88562	89602
18.89375	94803
18.90187	96215
18.91000	100988
18.91812	98927
18.92623	102121
18.93437	112765
18.94248	130926
18.95062	141806
18.95873	175413
18.96685	213034
18.97498	271864
18.98310	349115
18.99122	367180
18.99935	371765
19.00747	340645
19.01560	331960
19.02372	314711
19.03183	300534
19.03997	294464
19.04808	282776
19.05622	279673
19.06433	272296
19.07245	266923
19.08058	272009
19.08870	294200
19.09682	309165
19.10495	343318
19.11307	388528
19.12120	438308
19.12932	441359
19.13743	410311
19.14557	378981
19.15368	341204
19.16182	310727
19.16993	300875
19.17805	278433
19.18618	269933
19.19430	262765
19.20243	261700
19.21055	268038
19.21867	259206
19.22680	254668
19.23492	262252
19.24303	263967
19.25117	259697
19.25928	253910
19.26742	256271
19.27553	255065
19.28365	248243
19.29178	253234
19.29990	258832
19.30803	276352
19.31615	271008
19.32427	275783
19.33240	271432
19.34052	263483
19.34865	261604
19.35677	271651
19.36488	313779
19.37302	375774
19.38113	480187
19.38925	573942
19.39738	614836
19.40550	606235
19.41363	508462
19.42175	432809
19.42987	366829
19.43800	312723
19.44612	292003
19.45425	277138
19.46237	277453
19.47048	266118
19.47862	264155
19.48673	264123
19.49485	267008
19.50298	277763
19.51110	289888
19.51923	333200
19.52735	375508
19.53547	419614
19.54360	462352
19.55172	464136
19.55985	438264
19.56797	396279
19.57608	355551
19.58422	306213
19.59233	284524
19.60047	258129
19.60858	236592
19.61670	223847
19.62483	230863
19.63295	224640
19.64107	239609
19.64920	272536
19.65732	344629
19.66545	498524
19.67357	735511
19.68168	1013895
19.68982	1270721
19.69793	1372861
19.70607	1342192
19.71418	1192318
19.72230	998203
19.73043	802201
19.73855	665292
19.74668	576329
19.75480	507777
19.76292	420353
19.77105	372519
19.77917	346219
19.78728	359668
19.79542	390291
19.80353	438010
19.81167	499066
19.81978	537290
19.82790	542187
19.83603	493045
19.84415	438054
19.85228	361669
19.86040	325376
19.86852	296471
19.87665	311840
19.88477	375061
19.89288	507224
19.90102	707461
19.90913	919620
19.91727	1048067
19.92538	1048401
19.93350	952015
19.94163	764019
19.94975	594830
19.95788	483227
19.96600	403678
19.97412	357686
19.98225	329737
19.99037	310834
19.99850	310416
20.00662	286541
20.01473	286905
20.02287	275516
20.03098	282388
20.03910	271320
20.04723	266613
20.05535	267231
20.06348	266122
20.07160	280633
20.07972	324399
20.08785	375476
20.09597	425222
20.10410	469216
20.11222	481939
20.12033	442904
20.12847	390805
20.13658	329686
20.14470	297604
20.15283	287382
20.16095	307862
20.16908	395013
20.17720	524145
20.18532	757598
20.19345	983743
20.20157	1223577
20.20970	1342954
20.21782	1346780
20.22593	1229764
20.23407	1047673
20.24218	864150
20.25032	745535
20.25843	716425
20.26655	815974
20.27468	1003242
20.28280	1247758
20.29092	1528517
20.29905	1724838
20.30717	1758185
20.31530	1634304
20.32342	1344844
20.33153	1036534
20.33967	790380
20.34778	582960
20.35592	438648
20.36403	351684
20.37215	307458
20.38028	273812
20.38840	249002
20.39653	237149
20.40465	240144
20.41277	218715
20.42090	215504
20.42902	229047
20.43713	238420
20.44527	260834
20.45338	300295
20.46152	340849
20.46963	373423
20.47775	378134
20.48588	360433
20.49400	329978
20.50213	279044
20.51025	247751
20.51837	219413
20.52650	212794
20.53462	212758
20.54273	205711
20.55087	199370
20.55898	210343
20.56712	212971
20.57523	206321
20.58335	195200
20.59148	193783
20.59960	182409
20.60773	173027
20.61585	174238
20.62397	167517
20.63210	168658
20.64022	164345
20.64835	168563
20.65647	183136
20.66458	187375
20.67272	196887
20.68083	193294
20.68895	187518
20.69708	177179
20.70520	172894
20.71333	167447
20.72145	158105
20.72957	159518
20.73770	150709
20.74582	153986
20.75395	154548
20.76207	171039
20.77018	186762
20.77832	209830
20.78643	236715
20.79457	306928
20.80268	467329
20.81080	783160
20.81893	1285044
20.82705	1815949
20.83517	2225717
20.84330	2262055
20.85142	1943164
20.85955	1371430
20.86767	889835
20.87578	542202
20.88392	356307
20.89203	262881
20.90017	228294
20.90828	210217
20.91640	201669
20.92453	199415
20.93265	205153
20.94077	199306
20.94890	212870
20.95702	210727
20.96515	212259
20.97327	209529
20.98138	196683
20.98952	185079
20.99763	174210
21.00577	160821
21.01388	153908
21.02200	153526
21.03013	161689
21.03825	172737
21.04638	164938
21.05450	170802
21.06262	172589
21.07075	166450
21.07887	165983
21.08698	160502
21.09512	163179
21.10323	154395
21.11137	152380
21.11948	147132
21.12760	144557
21.13573	157849
21.14385	192231
21.15198	235696
21.16010	337709
21.16822	488983
21.17635	598457
21.18447	687334
21.19258	641865
21.20072	537903
21.20883	412215
21.21697	326728
21.22508	274059
21.23320	233627
21.24133	205792
21.24945	196989
21.25758	184592
21.26570	159846
21.27382	152719
21.28195	152401
21.29007	149310
21.29820	142278
21.30632	145662
21.31443	136936
21.32257	133483
21.33068	135116
21.33880	130504
21.34693	134443
21.35505	132210
21.36318	132965
21.37130	137068
21.37942	145045
21.38755	152363
21.39567	172989
21.40380	206277
21.41192	268413
21.42003	330931
21.42817	393431
21.43628	422064
21.44442	404686
21.45253	359867
21.46065	318205
21.46878	272888
21.47690	228048
21.48502	203634
21.49315	185641
21.50127	173006
21.50940	161009
21.51752	155054
21.52563	137904
21.53377	132461
21.54188	138960
21.55002	135911
21.55813	132815
21.56625	130781
21.57438	127627
21.58250	147130
21.59063	159482
21.59875	188493
21.60687	215491
21.61500	232957
21.62312	222240
21.63123	211007
21.63937	200771
21.64748	221153
21.65562	242627
21.66373	286866
21.67185	341547
21.67998	387996
21.68810	425510
21.69623	421071
21.70435	398484
21.71247	348540
21.72060	305250
21.72872	256618
21.73683	213694
21.74497	182134
21.75308	169107
21.76122	152747
21.76933	146280
21.77745	152948
21.78558	139112
21.79370	133921
21.80183	136946
21.80995	133822
21.81807	139504
21.82620	138110
21.83432	158095
21.84245	177388
21.85057	197444
21.85868	239582
21.86682	261548
21.87493	289496
21.88305	280393
21.89118	254939
21.89930	223185
21.90743	195842
21.91555	177822
21.92367	164606
21.93180	160938
21.93992	153934
21.94805	140422
21.95617	128039
21.96428	114128
21.97242	111458
21.98053	109276
21.98865	103705
21.99678	98998
22.00490	103064
22.01303	101450
22.02115	97901
22.02927	104779
22.03740	117169
22.04552	128268
22.05365	134340
22.06177	139691
22.06988	135039
22.07802	140520
22.08613	131106
22.09427	132986
22.10238	121469
22.11050	114860
22.11863	119149
22.12675	106630
22.13487	107333
22.14300	100399
22.15112	108953
22.15925	99867
22.16737	91155
22.17548	98987
22.18362	96411
22.19173	95336
22.19987	93124
22.20798	99024
22.21610	96457
22.22423	97412
22.23235	107523
22.24048	114521
22.24860	120293
22.25672	132908
22.26485	140871
22.27297	142486
22.28108	138395
22.28922	146310
22.29733	147509
22.30547	163491
22.31358	165618
22.32170	164285
22.32983	159360
22.33795	146566
22.34608	132233
22.35420	129585
22.36232	128612
22.37045	121977
22.37857	122206
22.38668	119166
22.39482	136297
22.40293	177423
22.41107	263764
22.41918	383962
22.42730	537063
22.43543	669747
22.44355	710298
22.45168	653318
22.45980	523969
22.46792	397682
22.47605	293992
22.48417	232179
22.49230	209974
22.50042	219710
22.50853	259343
22.51667	291021
22.52478	327889
22.53290	332057
22.54103	326769
22.54915	281479
22.55728	248685
22.56540	219021
22.57352	178453
22.58165	163103
22.58977	145069
22.59790	135334
22.60602	125804
22.61413	114036
22.62227	108499
22.63038	103034
22.63852	103000
22.64663	105699
22.65475	104229
22.66288	113916
22.67100	117553
22.67912	125441
22.68725	125344
22.69537	138500
22.70350	170695
22.71162	209807
22.71973	269368
22.72787	331624
22.73598	376096
22.74412	375887
22.75223	342899
22.76035	283459
22.76848	243590
22.77660	203819
22.78472	217634
22.79285	244446
22.80097	318763
22.80910	452031
22.81722	560927
22.82533	671070
22.83347	704246
22.84158	657702
22.84972	535388
22.85783	428133
22.86595	339162
22.87408	290896
22.88220	274440
22.89033	281779
22.89845	321737
22.90657	325979
22.91470	357196
22.92282	392182
22.93093	445223
22.93907	507153
22.94718	553235
22.95532	536429
22.96343	487789
22.97155	401766
22.97968	322777
22.98780	251438
22.99593	195605
23.00405	166052
23.01217	140018
23.02030	136487
23.02842	126431
23.03653	112059
23.04467	111538
23.05278	103870
23.06092	108756
23.06903	116337
23.07715	126009
23.08528	127533
23.09340	128984
23.10153	129755
23.10965	117771
23.11777	117092
23.12590	112048
23.13402	111812
23.14215	106286
23.15027	112291
23.15838	103799
23.16652	107678
23.17463	108402
23.18275	101413
23.19088	95183
23.19900	93230
23.20713	81950
23.21525	82748
23.22337	82615
23.23150	80365
23.23962	82269
23.24775	87227
23.25587	100950
23.26398	127097
23.27212	157020
23.28023	186654
23.28837	215576
23.29648	203524
23.30460	175833
23.31273	151280
23.32085	138315
23.32897	117843
23.33710	122784
23.34522	137218
23.35335	190168
23.36147	246681
23.36958	338865
23.37772	418102
23.38583	464684
23.39397	467439
23.40208	411176
23.41020	353800
23.41833	273014
23.42645	221038
23.43457	172893
23.44270	144914
23.45082	139838
23.45895	130234
23.46707	113694
23.47518	107792
23.48332	110032
23.49143	104280
23.49957	99050
23.50768	101525
23.51580	97761
23.52393	95711
23.53205	92232
23.54018	92019
23.54830	95220
23.55642	111153
23.56455	118396
23.57267	131088
23.58078	164000
23.58892	196376
23.59703	262062
23.60517	335334
23.61328	399618
23.62140	416574
23.62953	400159
23.63765	340543
23.64578	271786
23.65390	203647
23.66202	167679
23.67015	146445
23.67827	137307
23.68640	136733
23.69452	127508
23.70263	118217
23.71077	116963
23.71888	107936
23.72700	95991
23.73513	95872
23.74325	95530
23.75138	92940
23.75950	107182
23.76762	161728
23.77575	340948
23.78387	771277
23.79200	1523023
23.80012	2574592
23.80823	3385715
23.81637	3773151
23.82448	3525832
23.83260	2944118
23.84073	2205022
23.84885	1581437
23.85698	1099066
23.86510	848486
23.87322	651800
23.88135	560450
23.88947	497061
23.89760	448360
23.90572	423452
23.91383	446484
23.92197	488802
23.93008	549604
23.93822	566933
23.94633	552103
23.95445	489812
23.96258	396503
23.97070	343287
23.97882	284133
23.98695	259825
23.99507	233736
24.00320	221018
24.01132	212387
24.01943	197901
24.02757	198301
24.03568	205009
24.04382	210010
24.05193	203700
24.06005	205882
24.06818	199780
24.07630	186967
24.08442	180802
24.09255	159712
24.10067	159498
24.10880	152184
24.11692	152838
24.12503	146276
24.13317	147929
24.14128	159011
24.14942	170954
24.15753	191607
24.16565	221702
24.17378	245137
24.18190	253720
24.19003	261934
24.19815	248751
24.20627	249035
24.21440	248115
24.22252	244712
24.23063	228553
24.23877	206056
24.24688	210600
24.25502	203677
24.26313	189535
24.27125	178013
24.27938	158920
24.28750	147927
24.29563	139892
24.30375	144129
24.31187	146531
24.32000	148531
24.32812	148465
24.33625	154766
24.34437	153024
24.35248	162919
24.36062	157967
24.36873	140574
24.37685	137457
24.38498	131529
24.39310	122421
24.40123	132143
24.40935	138945
24.41747	152883
24.42560	181075
24.43372	193872
24.44185	201946
24.44997	196296
24.45808	168216
24.46622	159742
24.47433	143132
24.48245	131980
24.49058	138011
24.49870	138626
24.50683	138156
24.51495	143034
24.52307	148776
24.53120	173834
24.53932	178992
24.54745	218005
24.55557	243633
24.56368	280967
24.57182	298939
24.57993	311936
24.58807	308756
24.59618	276656
24.60430	265052
24.61243	216510
24.62055	202801
24.62867	174018
24.63680	161306
24.64492	142098
24.65305	130497
24.66117	126305
24.66928	122130
24.67742	121581
24.68553	125944
24.69367	122623
24.70178	121364
24.70990	111256
24.71803	114790
24.72615	113527
24.73428	111550
24.74240	126249
24.75052	118178
24.75865	121618
24.76677	123068
24.77488	127499
24.78302	150021
24.79113	166908
24.79927	185954
24.80738	200367
24.81550	191872
24.82363	192885
24.83175	194593
24.83988	212857
24.84800	264075
24.85612	357965
24.86425	498564
24.87237	733956
24.88048	1093470
24.88862	1655250
24.89673	2280997
24.90487	2939808
24.91298	3301679
24.92110	3122002
24.92923	2621798
24.93735	1910927
24.94548	1247927
24.95360	746794
24.96172	457880
24.96985	299217
24.97797	218897
24.98610	178318
24.99422	155661
25.00233	149850
25.01047	141155
25.01858	135294
25.02670	135498
25.03483	133653
25.04295	135232
25.05108	130561
25.05920	124845
25.06732	129701
25.07545	125313
25.08357	127214
25.09170	139774
25.09982	150971
25.10793	216800
25.11607	413149
25.12418	972908
25.13232	2330285
25.14043	4944162
25.14855	8591091
25.15668	1.250676E+07
25.16480	1.499608E+07
25.17292	1.565004E+07
25.18105	1.395507E+07
25.18917	1.027738E+07
25.19730	6545383
25.20542	3683318
25.21353	1906264
25.22167	1024547
25.22978	581197
25.23792	374860
25.24603	315487
25.25415	320645
25.26228	425966
25.27040	559211
25.27852	705230
25.28665	826003
25.29477	829928
25.30290	771750
25.31102	633197
25.31913	469176
25.32727	335882
25.33538	244387
25.34352	198778
25.35163	160629
25.35975	145025
25.36788	130573
25.37600	122746
25.38413	108275
25.39225	113888
25.40037	106782
25.40850	98924
25.41662	96567
25.42473	92593
25.43287	89775
25.44098	96572
25.44912	95354
25.45723	95482
25.46535	90683
25.47348	90799
25.48160	91720
25.48973	103997
25.49785	103713
25.50597	101921
25.51410	116112
25.52222	109704
25.53033	109149
25.53847	103519
25.54658	94657
25.55472	89244
25.56283	91536
25.57095	92628
25.57908	91769
25.58720	100456
25.59533	99932
25.60345	100385
25.61157	126675
25.61970	131520
25.62782	123847
25.63595	109367
25.64407	99999
25.65218	89403
25.66032	93038
25.66843	85761
25.67655	87161
25.68468	96081
25.69280	100284
25.70093	104857
25.70905	110428
25.71717	113245
25.72530	107828
25.73342	110420
25.74155	108280
25.74967	103904
25.75778	102665
25.76592	101889
25.77403	90713
25.78217	91258
25.79028	83507
25.79840	87169
25.80653	82736
25.81465	84485
25.82277	82357
25.83090	89416
25.83902	89619
25.84715	84006
25.85527	82660
25.86338	81283
25.87152	83724
25.87963	84895
25.88777	76991
25.89588	84255
25.90400	83442
25.91213	83825
25.92025	87029
25.92837	83245
25.93650	84748
25.94462	87982
25.95275	92053
25.96087	92093
25.96898	99733
25.97712	97966
25.98523	98822
25.99337	100308
26.00148	109830
26.00960	141135
26.01773	198116
26.02585	287699
26.03398	331057
26.04210	346003
26.05022	351365
26.05835	371861
26.06647	374948
26.07458	375447
26.08272	410333
26.09083	396097
26.09897	408569
26.10708	417806
26.11520	421437
26.12333	433798
26.13145	422442
26.13958	417314
26.14770	409073
26.15582	415987
26.16395	423507
26.17207	431642
26.18020	437466
26.18832	434517
26.19643	413569
26.20457	426140
26.21268	406120
26.22080	399339
26.22893	405091
26.23705	397672
26.24518	400821
26.25330	388018
26.26142	390490
26.26955	378783
26.27767	375706
26.28580	371403
26.29392	358894
26.30203	368139
26.31017	358114
26.31828	369798
26.32640	371256
26.33453	353839
26.34265	344489
26.35078	359452
26.35890	345534
26.36702	368705
26.37515	408154
26.38327	468719
26.39140	565570
26.39952	680773
26.40763	817104
26.41577	908590
26.42388	953887
26.43202	874889
26.44013	775675
26.44825	697625
26.45638	576742
26.46450	498446
26.47262	438406
26.48075	411045
26.48887	392815
26.49700	376177
26.50512	369269
26.51323	362983
26.52137	342119
26.52948	330214
26.53762	327459
26.54573	311564
26.55385	316899
26.56198	295549
26.57010	282819
26.57822	285188
26.58635	290421
26.59447	281950
26.60260	295920
26.61072	290837
26.61883	293933
26.62697	291584
26.63508	289323
26.64322	288925
26.65133	287001
26.65945	286536
26.66758	279817
26.67570	271677
26.68383	279441
26.69195	280882
26.70007	265588
26.70820	266048
26.71632	266375
26.72443	266105
26.73257	264677
26.74068	258549
26.74882	257777
26.75693	254852
26.76505	261260
26.77318	261083
26.78130	255815
26.78943	258057
26.79755	267570
26.80567	267313
26.81380	262001
26.82192	275537
26.83005	274857
26.83817	263700
26.84628	262382
26.85442	257508
26.86253	257657
26.87065	259454
26.87878	249058
26.88690	245572
26.89503	245118
26.90315	251535
26.91127	246928
26.91940	231840
26.92752	242830
26.93565	231387
26.94377	226462
26.95188	219600
26.96002	230002
26.96813	241140
26.97625	259878
26.98438	292056
26.99250	406786
27.00063	621880
27.00875	1051615
27.01687	1722555
27.02500	2472641
27.03312	3154449
27.04125	3378404
27.04937	3169196
27.05748	2710504
27.06562	2032622
27.07373	1515615
27.08187	1130112
27.08998	879885
27.09810	751628
27.10623	647813
27.11435	583549
27.12247	542609
27.13060	506204
27.13872	496723
27.14685	457057
27.15497	439102
27.16308	418065
27.17122	414926
27.17933	439853
27.18747	466304
27.19558	503082
27.20370	537801
27.21183	528871
27.21995	518590
27.22808	469026
27.23620	432848
27.24432	378542
27.25245	340949
27.26057	318448
27.26868	303692
27.27682	296841
27.28493	279242
27.29307	266423
27.30118	253914
27.30930	265228
27.31743	251399
27.32555	240398
27.33368	251518
27.34180	251899
27.34992	240932
27.35805	249403
27.36617	247214
27.37428	241884
27.38242	249789
27.39053	250133
27.39867	240756
27.40678	234529
27.41490	228251
27.42303	214605
27.43115	212913
27.43928	204659
27.44740	211173
27.45552	212470
27.46365	204829
27.47177	216039
27.47990	203049
27.48802	200460
27.49613	195295
27.50427	186060
27.51238	192727
27.52050	183884
27.52863	182970
27.53675	187336
27.54488	184354
27.55300	192796
27.56112	190184
27.56925	191205
27.57737	201381
27.58550	221623
27.59362	246173
27.60173	297083
27.60987	342540
27.61798	362051
27.62610	365069
27.63423	330232
27.64235	292266
27.65048	253557
27.65860	227914
27.66672	209315
27.67485	192947
27.68297	195611
27.69110	192683
27.69922	196079
27.70733	190522
27.71547	191972
27.72358	186548
27.73172	177215
27.73983	174499
27.74795	164294
27.75608	162599
27.76420	152479
27.77232	152741
27.78045	154423
27.78857	166356
27.79670	172167
27.80482	180119
27.81293	189152
27.82107	174784
27.82918	166118
27.83732	162291
27.84543	155345
27.85355	146417
27.86168	141646
27.86980	137525
27.87793	143590
27.88605	140592
27.89417	140738
27.90230	138963
27.91042	139612
27.91853	135946
27.92667	138063
27.93478	136422
27.94292	135479
27.95103	134916
27.95915	124772
27.96728	126372
27.97540	123485
27.98353	125128
27.99165	124725
27.99977	130079
28.00790	129410
28.01602	134124
28.02415	144782
28.03227	155908
28.04038	173681
28.04852	193164
28.05663	234720
28.06475	248572
28.07288	258266
28.08100	254303
28.08913	235380
28.09725	198257
28.10537	168962
28.11350	148807
28.12162	131582
28.12975	124785
28.13787	121140
28.14598	116177
28.15412	111836
28.16223	113544
28.17035	107872
28.17848	109223
28.18660	113533
28.19473	123158
28.20285	139818
28.21097	183000
28.21910	227196
28.22722	271996
28.23535	327139
28.24347	349759
28.25158	338229
28.25972	307390
28.26783	261080
28.27597	204704
28.28408	162952
28.29220	148137
28.30033	136157
28.30845	142600
28.31657	158973
28.32470	190382
28.33282	227794
28.34095	269039
28.34907	308882
28.35718	325573
28.36532	365718
28.37343	419774
28.38157	459818
28.38968	494196
28.39780	504881
28.40593	506556
28.41405	496258
28.42217	474463
28.43030	436269
28.43842	388320
28.44655	355120
28.45467	311221
28.46278	274598
28.47092	247325
28.47903	240101
28.48717	226559
28.49528	212546
28.50340	215688
28.51153	211093
28.51965	223288
28.52778	211588
28.53590	204515
28.54402	198018
28.55215	182685
28.56027	159966
28.56838	162197
28.57652	143610
28.58463	152287
28.59277	146962
28.60088	135792
28.60900	141067
28.61713	139978
28.62525	146118
28.63338	154892
28.64150	150911
28.64962	155367
28.65775	169284
28.66587	164625
28.67400	169338
28.68212	160323
28.69023	152703
28.69837	151751
28.70648	141790
28.71460	131682
28.72273	132656
28.73085	120769
28.73898	123504
28.74710	118341
28.75522	113434
28.76335	119126
28.77147	120073
28.77960	122521
28.78772	131776
28.79583	144852
28.80397	154933
28.81208	184256
28.82020	188554
28.82833	194579
28.83645	186943
28.84458	177974
28.85270	163246
28.86082	151007
28.86895	143736
28.87707	149084
28.88520	147485
28.89332	158856
28.90143	189160
28.90957	214912
28.91768	242449
28.92582	228986
28.93393	209853
28.94205	178700
28.95018	159845
28.95830	143263
28.96642	131654
28.97455	130690
28.98267	126724
28.99080	120077
28.99892	119177
29.00703	117184
29.01517	108231
29.02328	107718
29.03142	109136
29.03953	99683
29.04765	106190
29.05578	103461
29.06390	105370
29.07203	107280
29.08015	106933
29.08827	107001
29.09640	119901
29.10452	123069
29.11263	131363
29.12077	129812
29.12888	121406
29.13702	117159
29.14513	108534
29.15325	99823
29.16138	95746
29.16950	101420
29.17763	101813
29.18575	103180
29.19387	118115
29.20200	142409
29.21012	193140
29.21823	244017
29.22637	309505
29.23448	353903
29.24262	351838
29.25073	335654
29.25885	298554
29.26698	245758
29.27510	211644
29.28323	191010
29.29135	162662
29.29947	143779
29.30760	121146
29.31572	109849
29.32385	106960
29.33197	101735
29.34008	95341
29.34822	94213
29.35633	94862
29.36445	94473
29.37258	90099
29.38070	95881
29.38883	87792
29.39695	94827
29.40507	91743
29.41320	95464
29.42132	98861
29.42945	99563
29.43757	98832
29.44568	103194
29.45382	102213
29.46193	106319
29.47005	92307
29.47818	93949
29.48630	97181
29.49443	91589
29.50255	92381
29.51067	102598
29.51880	107633
29.52692	107312
29.53505	109325
29.54317	113064
29.55128	110812
29.55942	112175
29.56753	102917
29.57567	98025
29.58378	94191
29.59190	97956
29.60003	88021
29.60815	86988
29.61627	86563
29.62440	89894
29.63252	91596
29.64065	89799
29.64877	96616
29.65688	89119
29.66502	92001
29.67313	93162
29.68127	90461
29.68938	97919
29.69750	110156
29.70563	124235
29.71375	128978
29.72188	130369
29.73000	129698
29.73812	114670
29.74625	109846
29.75437	97762
29.76248	89521
29.77062	84320
29.77873	93959
29.78687	89135
29.79498	85167
29.80310	78852
29.81123	75962
29.81935	76756
29.82748	76875
29.83560	77635
29.84372	84432
29.85185	85201
29.85997	83082
29.86808	87676
29.87622	86019
29.88433	104346
29.89247	127498
29.90058	162070
29.90870	196132
29.91683	238980
29.92495	249835
29.93308	214897
29.94120	184093
29.94932	144918
29.95745	120361
29.96557	105840
29.97370	100380
29.98182	104282
29.98993	109265
29.99807	127205
30.00618	147959
30.01430	162337
30.02243	177751
30.03055	200517
30.03868	220392
30.04680	238085
30.05492	247516
30.06305	252471
30.07117	234409
30.07930	244539
30.08742	230723
30.09553	229266
30.10367	216951
30.11178	202068
30.11992	190710
30.12803	183202
30.13615	171669
30.14428	156803
30.15240	154440
30.16052	140213
30.16865	137821
30.17677	138855
30.18490	137736
30.19302	134765
30.20113	138964
30.20927	140108
30.21738	141413
30.22552	142554
30.23363	134854
30.24175	132407
30.24988	126199
30.25800	118602
30.26612	113645
30.27425	109575
30.28237	105419
30.29050	102310
30.29862	101611
30.30673	101624
30.31487	100917
30.32298	94832
30.33112	94001
30.33923	97166
30.34735	102198
30.35548	99386
30.36360	94338
30.37173	97147
30.37985	97966
30.38797	96004
30.39610	99223
30.40422	86980
30.41233	93236
30.42047	91833
30.42858	87951
30.43672	86070
30.44483	89468
30.45295	92009
30.46108	88354
30.46920	87194
30.47733	91775
30.48545	84505
30.49357	92876
30.50170	97843
30.50982	88004
30.51795	91039
30.52607	84868
30.53418	85711
30.54232	86927
30.55043	86964
30.55855	90628
30.56668	86822
30.57480	91332
30.58293	83804
30.59105	88085
30.59917	96954
30.60730	88498
30.61542	96098
30.62355	88381
30.63167	88562
30.63978	87818
30.64792	88642
30.65603	82174
30.66415	80707
30.67228	84749
30.68040	78883
30.68853	85512
30.69665	76463
30.70477	75449
30.71290	72571
30.72102	78206
30.72915	78028
30.73727	78959
30.74538	83793
30.75352	82972
30.76163	85146
30.76977	86283
30.77788	88290
30.78600	94651
30.79413	112122
30.80225	145908
30.81037	211256
30.81850	274221
30.82662	331426
30.83475	344349
30.84287	324311
30.85098	263658
30.85912	191050
30.86723	148904
30.87537	118167
30.88348	109415
30.89160	99663
30.89973	96795
30.90785	89616
30.91597	88618
30.92410	87173
30.93222	87271
30.94035	81806
30.94847	82848
30.95658	82065
30.96472	84371
30.97283	85887
30.98097	83446
30.98908	84322
30.99720	84589
31.00533	87170
31.01345	82062
31.02158	79761
31.02970	75303
31.03782	85004
31.04595	81879
31.05407	83044
31.06218	80186
31.07032	80463
31.07843	78387
31.08657	85253
31.09468	95970
31.10280	93770
31.11093	117981
31.11905	138314
31.12718	139948
31.13530	142457
31.14342	140362
31.15155	128238
31.15967	116806
31.16780	124912
31.17592	132497
31.18403	134433
31.19217	143131
31.20028	159495
31.20840	209989
31.21653	273301
31.22465	386567
31.23278	484867
31.24090	555606
31.24902	580119
31.25715	511614
31.26527	400057
31.27340	296277
31.28152	198523
31.28963	148192
31.29777	116539
31.30588	105622
31.31400	101419
31.32213	100093
31.33025	109546
31.33838	114742
31.34650	120549
31.35462	130011
31.36275	128185
31.37087	123172
31.37900	115281
31.38712	102069
31.39523	93937
31.40337	90047
31.41148	85363
31.41962	84517
31.42773	81865
31.43585	79948
31.44398	83558
31.45210	83092
31.46022	86149
31.46835	87309
31.47647	88393
31.48460	87228
31.49272	91035
31.50083	85694
31.50897	90894
31.51708	101331
31.52522	107799
31.53333	114065
31.54145	113470
31.54958	112306
31.55770	118744
31.56583	112142
31.57395	102925
31.58207	99294
31.59020	101734
31.59832	101902
31.60643	92708
31.61457	85951
31.62268	88318
31.63082	82535
31.63893	83100
31.64705	87721
31.65518	86444
31.66330	96144
31.67143	105874
31.67955	121804
31.68767	126845
31.69580	134163
31.70392	131437
31.71203	128247
31.72017	117702
31.72828	101254
31.73642	97359
31.74453	92091
31.75265	82251
31.76078	78870
31.76890	75164
31.77703	75691
31.78515	79850
31.79327	82409
31.80140	78876
31.80952	80609
31.81765	81337
31.82577	79319
31.83388	84666
31.84202	81926
31.85013	89453
31.85825	80579
31.86638	84092
31.87450	85815
31.88263	87823
31.89075	85599
31.89887	82139
31.90700	86360
31.91512	81654
31.92325	80525
31.93137	84501
31.93948	84205
31.94762	96784
31.95573	102912
31.96385	113207
31.97198	133903
31.98010	147267
31.98823	165705
31.99635	168776
32.00447	190508
32.01260	199947
32.02072	209760
32.02885	210130
32.03697	195036
32.04508	189279
32.05322	180319
32.06133	154975
32.06947	143732
32.07758	135663
32.08570	126136
32.09383	119338
32.10195	112962
32.11007	120233
32.11820	112777
32.12632	110297
32.13445	110578
32.14257	104195
32.15068	96795
32.15882	96020
32.16693	92487
32.17507	89612
32.18318	86657
32.19130	84177
32.19943	85889
32.20755	85217
32.21568	89246
32.22380	84382
32.23192	81121
32.24005	84039
32.24817	82540
32.25628	81440
32.26442	85394
32.27253	80496
32.28067	80849
32.28878	89123
32.29690	86515
32.30503	89261
32.31315	83700
32.32128	82596
32.32940	81358
32.33752	80459
32.34565	81907
32.35377	88368
32.36190	80449
32.37002	81312
32.37813	81135
32.38627	81038
32.39438	88985
32.40250	84288
32.41063	82325
32.41875	84463
32.42688	74715
32.43500	75826
32.44312	76387
32.45125	75926
32.45937	81535
32.46750	76367
32.47562	75029
32.48373	73966
32.49187	73636
32.49998	76835
32.50810	79548
32.51623	77752
32.52435	76045
32.53248	73506
32.54060	80982
32.54872	80790
32.55685	74752
32.56497	82222
32.57310	77188
32.58122	77811
32.58933	76482
32.59747	79008
32.60558	74624
32.61372	75487
32.62183	71713
32.62995	75848
32.63808	70505
32.64620	73386
32.65432	70774
32.66245	73573
32.67057	81406
32.67870	79081
32.68682	82135
32.69493	93603
32.70307	96473
32.71118	95144
32.71932	96669
32.72743	93679
32.73555	94364
32.74368	85026
32.75180	81906
32.75992	80077
32.76805	77115
32.77617	81042
32.78430	76424
32.79242	75955
32.80053	69769
32.80867	75157
32.81678	74712
32.82492	74851
32.83303	74631
32.84115	77539
32.84928	74541
32.85740	74618
32.86553	76716
32.87365	75209
32.88177	80377
32.88990	82624
32.89802	87338
32.90613	91727
32.91427	95367
32.92238	103152
32.93052	99835
32.93863	94786
32.94675	93665
32.95488	86955
32.96300	86339
32.97113	83468
32.97925	88527
32.98737	102137
32.99550	118992
33.00362	148825
33.01175	199331
33.01987	228045
33.02798	235114
33.03612	232305
33.04423	206473
33.05235	170056
33.06048	143601
33.06860	139845
33.07673	153993
33.08485	172846
33.09297	188634
33.10110	208909
33.10922	226184
33.11735	241056
33.12547	257712
33.13358	245492
33.14172	233150
33.14983	207153
33.15795	177811
33.16608	155494
33.17420	136881
33.18233	125390
33.19045	119451
33.19857	112739
33.20670	94951
33.21482	98140
33.22295	92421
33.23107	95031
33.23918	98454
33.24732	97297
33.25543	96420
33.26357	86403
33.27168	89111
33.27980	86377
33.28793	85259
33.29605	80641
33.30417	90372
33.31230	85901
33.32042	88371
33.32855	91356
33.33667	85556
33.34478	89182
33.35292	89056
33.36103	96120
33.36917	111819
33.37728	117630
33.38540	119223
33.39353	119195
33.40165	105786
33.40978	94039
33.41790	87144
33.42602	84305
33.43415	79007
33.44227	78678
33.45038	71626
33.45852	71028
33.46663	72618
33.47477	73149
33.48288	74251
33.49100	74153
33.49913	79164
33.50725	76565
33.51538	82786
33.52350	92244
33.53162	88727
33.53975	98518
33.54787	95516
33.55598	111158
33.56412	124206
33.57223	126450
33.58037	135297
33.58848	138980
33.59660	120127
33.60473	110213
33.61285	94312
33.62098	84077
33.62910	87102
33.63722	80932
33.64535	79164
33.65347	85832
33.66160	86248
33.66972	87312
33.67783	94583
33.68597	98565
33.69408	91599
33.70220	92652
33.71033	79859
33.71845	85005
33.72658	75736
33.73470	75630
33.74282	69733
33.75095	74514
33.75907	74130
33.76720	76896
33.77532	77310
33.78343	77055
33.79157	69977
33.79968	72203
33.80780	78042
33.81593	75603
33.82405	76491
33.83218	71808
33.84030	68820
33.84842	75831
33.85655	70369
33.86467	80045
33.87280	74265
33.88092	80199
33.88903	80676
33.89717	82647
33.90528	86257
33.91342	81788
33.92153	84865
33.92965	82592
33.93778	78188
33.94590	76287
33.95402	74583
33.96215	73415
33.97027	74523
33.97840	73942
33.98652	67785
33.99463	71725
34.00277	69803
34.01088	72988
34.01902	75720
34.02713	72521
34.03525	70273
34.04338	74414
34.05150	68720
34.05963	69401
34.06775	73605
34.07587	73174
34.08400	76619
34.09212	71671
34.10023	74787
34.10837	67572
34.11648	75965
34.12462	71915
34.13273	73258
34.14085	78403
34.14898	74371
34.15710	73308
34.16523	71342
34.17335	75716
34.18147	73812
34.18960	74177
34.19772	69319
34.20583	69361
34.21397	73034
34.22208	70580
34.23022	70432
34.23833	66997
34.24645	69350
34.25458	73995
34.26270	69785
34.27083	64700
34.27895	67468
34.28707	68797
34.29520	69274
34.30332	72125
34.31145	67019
34.31957	68631
34.32768	63449
34.33582	68422
34.34393	68394
34.35205	70536
34.36018	73380
34.36830	67798
34.37643	68702
34.38455	65793
34.39267	73110
34.40080	72551
34.40892	74209
34.41705	72646
34.42517	70863
34.43328	78217
34.44142	70750
34.44953	74119
34.45767	73917
34.46578	70358
34.47390	68949
34.48203	75856
34.49015	75109
34.49827	70408
34.50640	71516
34.51452	67672
34.52265	67402
34.53077	72784
34.53888	74132
34.54702	79538
34.55513	90235
34.56327	98912
34.57138	109666
34.57950	121818
34.58763	135128
34.59575	134434
34.60387	134584
34.61200	130859
34.62012	119377
34.62825	115225
34.63637	101311
34.64448	99529
34.65262	88613
34.66073	94437
34.66887	89068
34.67698	88958
34.68510	91173
34.69323	85919
34.70135	83274
34.70948	81792
34.71760	88958
34.72572	80129
34.73385	84767
34.74197	82697
34.75008	84187
34.75822	83781
34.76633	85224
34.77447	90645
34.78258	91349
34.79070	92753
34.79883	93145
34.80695	92010
34.81508	90689
34.82320	88152
34.83132	80709
34.83945	81818
34.84757	77542
34.85568	79939
34.86382	79608
34.87193	79697
34.88007	79454
34.88818	80464
34.89630	80611
34.90443	77150
34.91255	78192
34.92068	76654
34.92880	78536
34.93692	76215
34.94505	78027
34.95317	78022
34.96130	82481
34.96942	87555
34.97753	90330
34.98567	102756
34.99378	100901
35.00190	105874
35.01003	97820
35.01815	99316
35.02628	86516
35.03440	85333
35.04252	84182
35.05065	79315
35.05877	81741
35.06690	83725
35.07502	83546
35.08313	77801
35.09127	75744
35.09938	81056
35.10752	77821
35.11563	80767
35.12375	80235
35.13188	78287
35.14000	76351
35.14812	79457
35.15625	92636
35.16437	88013
35.17250	85144
35.18062	89661
35.18873	88736
35.19687	90892
35.20498	85034
35.21312	80741
35.22123	85449
35.22935	79179
35.23748	80523
35.24560	76654
35.25372	77079
35.26185	77156
35.26997	76000
35.27810	78203
35.28622	82522
35.29433	82025
35.30247	83226
35.31058	87567
35.31872	80842
35.32683	81076
35.33495	74394
35.34308	74008
35.35120	77170
35.35933	75633
35.36745	74379
35.37557	73289
35.38370	76425
35.39182	76073
35.39993	87649
35.40807	84578
35.41618	87946
35.42432	92047
35.43243	95839
35.44055	98413
35.44868	97746
35.45680	102315
35.46493	95980
35.47305	96699
35.48117	97165
35.48930	86407
35.49742	91276
35.50555	90074
35.51367	87593
35.52178	88411
35.52992	89697
35.53803	79705
35.54615	83588
35.55428	82432
35.56240	80898
35.57053	78891
35.57865	77566
35.58677	78228
35.59490	75214
35.60302	84531
35.61115	79525
35.61927	76906
35.62738	76469
35.63552	82448
35.64363	79152
35.65175	77782
35.65988	78306
35.66800	78241
35.67613	81057
35.68425	73568
35.69237	84480
35.70050	81859
35.70862	81126
35.71675	89438
35.72487	86067
35.73298	88989
35.74112	93259
35.74923	96539
35.75737	99276
35.76548	107520
35.77360	129997
35.78173	144014
35.78985	155310
35.79797	153554
35.80610	135114
35.81422	118634
35.82235	108481
35.83047	92297
35.83858	88628
35.84672	89516
35.85483	80553
35.86297	80187
35.87108	85714
35.87920	85063
35.88733	80746
35.89545	87417
35.90358	83253
35.91170	75801
35.91982	83543
35.92795	82688
35.93607	77878
35.94418	77605
35.95232	78145
35.96043	83124
35.96857	76870
35.97668	78734
35.98480	78654
35.99293	82092
36.00105	80129
36.00918	76831
36.01730	79750
36.02542	82539
36.03355	86266
36.04167	89556
36.04978	84515
36.05792	87141
36.06603	82244
36.07417	85889
36.08228	79562
36.09040	85776
36.09853	81724
36.10665	78776
36.11478	83605
36.12290	84267
36.13102	81919
36.13915	87801
36.14727	92460
36.15540	96612
36.16352	103876
36.17163	105733
36.17977	100668
36.18788	102686
36.19600	91341
36.20413	90927
36.21225	83574
36.22038	81466
36.22850	79632
36.23662	83143
36.24475	75069
36.25287	79517
36.26100	78225
36.26912	79841
36.27723	82975
36.28537	81556
36.29348	84877
36.30160	82365
36.30973	87431
36.31785	80949
36.32598	95022
36.33410	91718
36.34222	93566
36.35035	99118
36.35847	99704
36.36660	92128
36.37472	94791
36.38283	88643
36.39097	93714
36.39908	92055
36.40722	94486
36.41533	99623
36.42345	93907
36.43158	94561
36.43970	95533
36.44782	96520
36.45595	91474
36.46407	92797
36.47220	88537
36.48032	86319
36.48843	83299
36.49657	80701
36.50468	82134
36.51282	78383
36.52093	78484
36.52905	78939
36.53718	80400
36.54530	83387
36.55343	77031
36.56155	79487
36.56967	82027
36.57780	80956
36.58592	77825
36.59403	83804
36.60217	80626
36.61028	80377
36.61842	80953
36.62653	78552
36.63465	88201
36.64278	82213
36.65090	85089
36.65903	84233
36.66715	85164
36.67527	84732
36.68340	82727
36.69152	84613
36.69963	84847
36.70777	82368
36.71588	85716
36.72402	87688
36.73213	86517
36.74025	85825
36.74838	87268
36.75650	88289
36.76463	87721
36.77275	79705
36.78087	92209
36.78900	86137
36.79712	81252
36.80525	88689
36.81337	84257
36.82148	82580
36.82962	85714
36.83773	89708
36.84585	86677
36.85398	84046
36.86210	83922
36.87023	79346
36.87835	86918
36.88647	83267
36.89460	76075
36.90272	74320
36.91085	82957
36.91897	82564
36.92708	83731
36.93522	80940
36.94333	83603
36.95147	98283
36.95958	110977
36.96770	138518
36.97583	167091
36.98395	204730
36.99207	222414
37.00020	221710
37.00832	202643
37.01645	165881
37.02457	133486
37.03268	110987
37.04082	102589
37.04893	90817
37.05707	90290
37.06518	91650
37.07330	94492
37.08143	92156
37.08955	98658
37.09767	102047
37.10580	96899
37.11392	101021
37.12205	102243
37.13017	101490
37.13828	101163
37.14642	95789
37.15453	95661
37.16267	90172
37.17078	85862
37.17890	86972
37.18703	88744
37.19515	87664
37.20328	89710
37.21140	87800
37.21952	85100
37.22765	96547
37.23577	85231
37.24388	89279
37.25202	87690
37.26013	92949
37.26827	92026
37.27638	90047
37.28450	91723
37.29263	85004
37.30075	88311
37.30888	91140
37.31700	89735
37.32512	88550
37.33325	87930
37.34137	89269
37.34948	92972
37.35762	95542
37.36573	95260
37.37387	95621
37.38198	105498
37.39010	110551
37.39823	110625
37.40635	110479
37.41448	107451
37.42260	106792
37.43072	116335
37.43885	109973
37.44697	111964
37.45510	110562
37.46322	104998
37.47133	108841
37.47947	103228
37.48758	101657
