Z:\data\JTB-E02\BACandBLUE\JTB-E02-199-07.D Wed Feb 27 09:15:54 2019
Start of data points
2.09512,74826
2.10323,73920
2.11137,76864
2.11948,74827
2.12760,76969
2.13573,73166
2.14385,71524
2.15197,69512
2.16010,69440
2.16822,66868
2.17635,61154
2.18447,64719
2.19258,59600
2.20072,59444
2.20883,55921
2.21697,57283
2.22508,64344
2.23320,55244
2.24133,56680
2.24945,52295
2.25757,58865
2.26570,185354
2.27382,1559755
2.28195,3644224
2.29007,2807136
2.29818,1474876
2.30632,985598
2.31443,774563
2.32257,709136
2.33068,623612
2.33880,600160
2.34693,504607
2.35505,419287
2.36318,369483
2.37130,332069
2.37942,325785
2.38755,346784
2.39567,310914
2.40378,329275
2.41192,381477
2.42003,438281
2.42817,625342
2.43628,456292
2.44440,379278
2.45253,353723
2.46065,317773
2.46878,274970
2.47690,251328
2.48502,226996
2.49315,229657
2.50127,216519
2.50940,213217
2.51752,212866
2.52563,209225
2.53377,196290
2.54188,196331
2.55000,233737
2.55813,243820
2.56625,260648
2.57438,224626
2.58250,189363
2.59062,169545
2.59875,171855
2.60687,171001
2.61500,181187
2.62312,173477
2.63123,171647
2.63937,160998
2.64748,155413
2.65560,155518
2.66373,150865
2.67185,147802
2.67998,143577
2.68810,146011
2.69622,140825
2.70435,141300
2.71247,145115
2.72060,132841
2.72872,130708
2.73683,131031
2.74497,125400
2.75308,123843
2.76122,125834
2.76933,120116
2.77745,118010
2.78558,124072
2.79370,118943
2.80182,126324
2.80995,137838
2.81807,141004
2.82620,124433
2.83432,121814
2.84243,129794
2.85057,118777
2.85868,126232
2.86682,134668
2.87493,127400
2.88305,125322
2.89118,124729
2.89930,127038
2.90743,118197
2.91555,115901
2.92367,109462
2.93180,118568
2.93992,108057
2.94803,110534
2.95617,110167
2.96428,105088
2.97242,107387
2.98053,109151
2.98865,108944
2.99678,103090
3.00490,107325
3.01303,120125
3.02115,112566
3.02927,107707
3.03740,100694
3.04552,101848
3.05363,105555
3.06177,103567
3.06988,106778
3.07802,102393
3.08613,108851
3.09425,105787
3.10238,112566
3.11050,150143
3.11863,181955
3.12675,169874
3.13487,160250
3.14300,139277
3.15112,137201
3.15925,126269
3.16737,125745
3.17548,113262
3.18362,107373
3.19173,106064
3.19985,107765
3.20798,99668
3.21610,97665
3.22423,96173
3.23235,99859
3.24047,98776
3.24860,98597
3.25672,91481
3.26485,96210
3.27297,95712
3.28108,123783
3.28922,409714
3.29733,2276934
3.30545,8143505
3.31358,1.61419E+07
3.32170,1.95709E+07
3.32983,1.708465E+07
3.33795,1.249942E+07
3.34607,8909859
3.35420,6535614
3.36232,5014955
3.37045,4072534
3.37857,3332514
3.38668,2800695
3.39482,2396005
3.40293,2115998
3.41107,1884209
3.41918,1701768
3.42730,1510859
3.43543,1394095
3.44355,1276650
3.45167,1206546
3.45980,1129080
3.46792,1060806
3.47605,1013486
3.48417,954334
3.49228,912039
3.50042,868912
3.50853,831721
3.51667,784930
3.52478,784879
3.53290,731219
3.54103,682366
3.54915,667944
3.55728,620304
3.56540,631480
3.57352,606720
3.58165,584934
3.58977,570697
3.59788,553620
3.60602,539512
3.61413,532922
3.62227,543269
3.63038,539756
3.63850,503551
3.64663,493013
3.65475,465976
3.66288,449849
3.67100,444055
3.67912,441761
3.68725,448721
3.69537,442391
3.70348,432586
3.71162,426352
3.71973,422289
3.72787,391035
3.73598,391681
3.74410,397611
3.75223,364456
3.76035,361282
3.76848,361539
3.77660,356230
3.78472,369520
3.79285,358233
3.80097,365141
3.80910,368696
3.81722,385187
3.82533,395564
3.83347,396681
3.84158,377393
3.84970,369404
3.85783,337849
3.86595,331196
3.87408,323455
3.88220,329192
3.89032,305067
3.89845,312328
3.90657,304159
3.91470,294627
3.92282,297997
3.93093,286057
3.93907,288369
3.94718,287789
3.95532,289619
3.96343,272982
3.97155,274189
3.97968,273457
3.98780,271455
3.99592,264105
4.00405,256332
4.01217,269076
4.02030,264134
4.02842,262554
4.03653,259069
4.04467,260884
4.05278,261242
4.06092,255956
4.06903,249958
4.07715,247783
4.08528,240183
4.09340,242282
4.10152,236913
4.10965,237678
4.11777,236991
4.12590,237163
4.13402,250944
4.14213,286774
4.15027,406326
4.15838,502254
4.16652,483853
4.17463,412306
4.18275,350434
4.19088,298183
4.19900,265857
4.20713,260846
4.21525,249732
4.22337,248874
4.23150,251874
4.23962,258887
4.24773,267141
4.25587,247327
4.26398,231833
4.27212,223855
4.28023,217149
4.28835,220196
4.29648,217567
4.30460,217525
4.31273,211009
4.32085,221178
4.32897,239368
4.33710,242569
4.34522,227711
4.35333,236009
4.36147,223420
4.36958,219290
4.37772,231275
4.38583,222886
4.39395,219875
4.40208,211451
4.41020,209897
4.41833,203069
4.42645,201923
4.43457,202900
4.44270,197514
4.45082,198787
4.45895,198619
4.46707,202915
4.47518,200593
4.48332,200197
4.49143,192472
4.49955,196009
4.50768,197675
4.51580,203680
4.52393,200327
4.53205,191268
4.54017,182132
4.54830,187498
4.55642,183552
4.56455,177264
4.57267,190986
4.58078,183802
4.58892,176751
4.59703,179047
4.60517,179934
4.61328,171860
4.62140,180926
4.62953,168365
4.63765,176962
4.64577,173750
4.65390,166582
4.66202,176088
4.67015,187869
4.67827,175335
4.68638,174487
4.69452,167905
4.70263,172271
4.71077,162302
4.71888,160151
4.72700,159228
4.73513,157922
4.74325,161158
4.75138,166017
4.75950,158759
4.76762,154737
4.77575,157517
4.78387,158883
4.79198,157898
4.80012,164098
4.80823,158008
4.81637,154640
4.82448,164069
4.83260,150119
4.84073,157546
4.84885,159367
4.85698,156978
4.86510,161011
4.87322,167048
4.88135,167605
4.88947,170164
4.89758,163503
4.90572,162789
4.91383,162183
4.92197,160407
4.93008,171562
4.93820,274876
4.94633,733531
4.95445,2003059
4.96258,4282709
4.97070,6768729
4.97882,7853280
4.98695,7067612
4.99507,5459344
5.00320,3918643
5.01132,2840135
5.01943,2189889
5.02757,1740009
5.03568,1433173
5.04380,1250240
5.05193,1104508
5.06005,1013165
5.06818,906772
5.07630,854227
5.08442,762053
5.09255,727443
5.10067,700552
5.10880,648436
5.11692,621810
5.12503,605318
5.13317,569044
5.14128,567671
5.14940,528238
5.15753,523772
5.16565,501193
5.17378,500920
5.18190,500367
5.19002,510046
5.19815,516243
5.20627,489541
5.21440,467014
5.22252,460056
5.23063,445628
5.23877,430984
5.24688,446463
5.25502,447574
5.26313,428256
5.27125,414594
5.27938,377159
5.28750,378333
5.29562,376378
5.30375,356570
5.31187,354815
5.32000,344463
5.32812,343774
5.33623,335283
5.34437,329563
5.35248,322816
5.36062,336650
5.36873,328756
5.37685,323778
5.38498,329805
5.39310,315308
5.40123,312840
5.40935,296143
5.41747,293601
5.42560,281867
5.43372,280553
5.44183,269870
5.44997,284118
5.45808,283197
5.46622,279804
5.47433,274434
5.48245,276818
5.49058,275678
5.49870,265572
5.50683,257252
5.51495,255312
5.52307,258986
5.53120,251305
5.53932,254353
5.54743,252282
5.55557,248355
5.56368,230743
5.57182,242719
5.57993,239268
5.58805,243425
5.59618,257913
5.60430,256782
5.61243,263017
5.62055,278052
5.62867,302818
5.63680,332789
5.64492,337342
5.65305,330922
5.66117,303806
5.66928,279669
5.67742,268845
5.68553,284346
5.69365,308955
5.70178,325792
5.70990,306668
5.71803,293882
5.72615,267735
5.73427,249974
5.74240,234161
5.75052,232043
5.75865,228923
5.76677,220417
5.77488,226648
5.78302,215995
5.79113,206420
5.79927,203132
5.80738,218244
5.81550,209839
5.82363,199325
5.83175,205264
5.83987,202235
5.84800,202190
5.85612,206963
5.86425,198305
5.87237,194786
5.88048,190866
5.88862,192379
5.89673,189576
5.90487,190327
5.91298,174188
5.92110,159122
5.92923,145720
5.93735,141234
5.94547,147969
5.95360,143618
5.96172,147103
5.96985,160035
5.97797,174871
5.98608,205979
5.99422,223378
6.00233,210773
6.01047,195636
6.01858,169541
6.02670,170502
6.03483,156131
6.04295,151944
6.05108,155037
6.05920,147031
6.06732,156369
6.07545,141925
6.08357,142671
6.09168,145373
6.09982,144639
6.10793,132549
6.11607,135403
6.12418,145495
6.13230,140445
6.14043,153116
6.14855,143427
6.15668,156909
6.16480,151305
6.17292,151143
6.18105,161646
6.18917,156391
6.19728,162822
6.20542,158523
6.21353,155420
6.22167,163781
6.22978,164374
6.23790,172200
6.24603,171217
6.25415,173999
6.26228,186718
6.27040,180003
6.27852,178516
6.28665,184284
6.29477,182703
6.30290,188420
6.31102,184490
6.31913,183610
6.32727,186715
6.33538,191583
6.34350,199571
6.35163,197384
6.35975,204064
6.36788,197882
6.37600,200609
6.38412,202156
6.39225,213288
6.40037,218315
6.40850,215299
6.41662,219188
6.42473,209658
6.43287,212185
6.44098,231718
6.44912,232534
6.45723,245336
6.46535,254562
6.47348,246067
6.48160,245411
6.48972,237463
6.49785,244410
6.50597,246103
6.51410,247507
6.52222,246782
6.53033,237591
6.53847,246337
6.54658,243678
6.55472,223396
6.56283,184148
6.57095,170783
6.57908,169904
6.58720,150310
6.59532,157869
6.60345,153896
6.61157,152916
6.61970,148035
6.62782,146799
6.63593,142483
6.64407,143900
6.65218,139676
6.66032,146711
6.66843,137495
6.67655,141524
6.68468,136691
6.69280,137520
6.70093,142137
6.70905,133185
6.71717,131223
6.72530,128610
6.73342,139620
6.74153,136359
6.74967,133327
6.75778,133429
6.76592,129718
6.77403,128325
6.78215,129463
6.79028,127659
6.79840,127358
6.80653,123499
6.81465,121733
6.82277,124094
6.83090,128127
6.83902,124761
6.84715,114265
6.85527,120426
6.86338,109692
6.87152,113992
6.87963,115148
6.88775,118176
6.89588,120088
6.90400,110117
6.91213,102576
6.92025,92411
6.92837,87249
6.93650,85673
6.94462,80269
6.95275,79564
6.96087,75028
6.96898,78595
6.97712,83428
6.98523,77602
6.99335,68767
7.00148,78969
7.00960,75079
7.01773,71899
7.02585,76597
7.03397,75219
7.04210,74518
7.05022,79268
7.05835,82748
7.06647,75764
7.07458,74627
7.08272,72759
7.09083,68888
7.09897,75344
7.10708,77998
7.11520,69814
7.12333,70050
7.13145,74009
7.13957,75883
7.14770,71309
7.15582,71487
7.16395,68732
7.17207,68874
7.18018,73047
7.18832,73275
7.19643,81526
7.20457,95242
7.21268,102890
7.22080,98729
7.22893,93640
7.23705,87660
7.24517,82076
7.25330,68569
7.26142,71079
7.26955,70365
7.27767,71771
7.28578,76195
7.29392,66913
7.30203,67221
7.31017,72157
7.31828,72455
7.32640,72678
7.33453,68541
7.34265,64627
7.35078,65956
7.35890,67835
7.36702,69065
7.37515,68060
7.38327,64223
7.39138,65217
7.39952,70034
7.40763,70330
7.41577,75162
7.42388,73950
7.43200,83733
7.44013,92093
7.44825,107155
7.45638,107033
7.46450,105307
7.47262,95499
7.48075,89030
7.48887,76352
7.49700,73424
7.50512,69287
7.51323,71764
7.52137,69469
7.52948,74097
7.53760,67385
7.54573,64513
7.55385,67220
7.56198,67141
7.57010,65727
7.57822,66668
7.58635,65167
7.59447,69799
7.60260,62836
7.61072,63104
7.61883,68732
7.62697,63986
7.63508,62427
7.64320,63536
7.65133,71205
7.65945,63992
7.66758,66055
7.67570,62045
7.68382,65383
7.69195,64915
7.70007,66035
7.70820,69590
7.71632,64064
7.72443,63912
7.73257,63931
7.74068,63345
7.74882,61271
7.75693,61157
7.76505,61260
7.77318,67645
7.78130,68961
7.78942,66250
7.79755,64473
7.80567,68412
7.81380,61694
7.82192,65179
7.83003,66530
7.83817,69983
7.84628,61116
7.85442,58418
7.86253,58273
7.87065,55551
7.87878,59255
7.88690,54881
7.89503,60578
7.90315,57498
7.91127,55599
7.91940,57646
7.92752,54276
7.93563,56845
7.94377,58741
7.95188,58249
7.96002,57201
7.96813,66516
7.97625,71262
7.98438,77256
7.99250,74616
8.00063,76895
8.00875,68922
8.01687,64112
8.02500,65788
8.03312,60413
8.04123,56744
8.04937,59373
8.05748,57341
8.06562,59242
8.07373,59305
8.08185,68579
8.08998,59121
8.09810,59865
8.10623,60572
8.11435,61818
8.12247,62818
8.13060,56386
8.13872,61461
8.14685,60809
8.15497,61083
8.16308,69224
8.17122,71771
8.17933,74559
8.18745,77180
8.19558,82629
8.20370,72987
8.21183,71513
8.21995,65124
8.22807,59361
8.23620,56865
8.24432,60173
8.25245,52840
8.26057,58866
8.26868,60793
8.27682,61786
8.28493,57184
8.29307,60082
8.30118,57985
8.30930,60626
8.31743,61116
8.32555,64726
8.33367,72041
8.34180,88904
8.34992,94242
8.35805,100578
8.36617,93332
8.37428,89723
8.38242,75306
8.39053,72263
8.39867,69150
8.40678,61937
8.41490,61254
8.42303,61437
8.43115,63678
8.43927,69610
8.44740,65197
8.45552,68164
8.46365,66024
8.47177,60961
8.47988,61139
8.48802,64233
8.49613,64840
8.50427,71885
8.51238,78451
8.52050,84737
8.52863,98503
8.53675,107834
8.54488,102737
8.55300,97176
8.56112,90340
8.56925,86288
8.57737,80468
8.58548,77918
8.59362,75995
8.60173,77757
8.60987,72669
8.61798,74444
8.62610,70314
8.63423,68189
8.64235,72975
8.65048,76087
8.65860,67901
8.66672,71809
8.67485,70265
8.68297,67503
8.69108,71373
8.69922,68151
8.70733,68192
8.71547,70784
8.72358,68760
8.73170,69180
8.73983,77039
8.74795,66656
8.75608,73472
8.76420,84956
8.77232,129816
8.78045,263610
8.78857,547338
8.79670,1022712
8.80482,1548614
8.81293,1861393
8.82107,1711271
8.82918,1401178
8.83730,1084728
8.84543,852552
8.85355,701547
8.86168,556773
8.86980,485094
8.87792,435164
8.88605,401018
8.89417,355542
8.90230,321692
8.91042,312668
8.91853,297977
8.92667,280441
8.93478,264983
8.94292,259525
8.95103,245506
8.95915,234661
8.96728,226433
8.97540,222291
8.98352,219396
8.99165,213344
8.99977,207203
9.00790,200902
9.01602,204388
9.02413,194901
9.03227,191110
9.04038,174096
9.04852,179339
9.05663,169076
9.06475,170431
9.07288,166959
9.08100,160384
9.08912,165384
9.09725,161172
9.10537,155936
9.11350,151972
9.12162,152677
9.12973,148547
9.13787,153754
9.14598,143803
9.15412,138057
9.16223,141656
9.17035,143638
9.17848,150223
9.18660,140035
9.19473,146855
9.20285,148160
9.21097,141903
9.21910,144242
9.22722,132493
9.23533,130748
9.24347,130336
9.25158,127134
9.25972,126541
9.26783,128309
9.27595,124203
9.28408,115654
9.29220,132202
9.30033,121195
9.30845,118465
9.31657,120179
9.32470,122952
9.33282,112819
9.34095,108860
9.34907,111144
9.35718,103496
9.36532,106682
9.37343,105446
9.38155,99952
9.38968,104157
9.39780,98397
9.40593,104805
9.41405,99197
9.42217,103849
9.43030,97122
9.43842,95018
9.44655,100351
9.45467,92547
9.46278,96218
9.47092,94793
9.47903,94646
9.48715,94356
9.49528,90963
9.50340,94279
9.51153,93057
9.51965,97286
9.52777,101408
9.53590,105873
9.54402,108811
9.55215,109632
9.56027,115574
9.56838,105464
9.57652,90515
9.58463,87855
9.59277,82508
9.60088,91076
9.60900,94340
9.61713,98312
9.62525,92446
9.63337,91676
9.64150,79712
9.64962,72033
9.65775,71113
9.66587,70143
9.67398,70956
9.68212,64207
9.69023,64292
9.69837,64962
9.70648,59932
9.71460,62971
9.72273,65424
9.73085,61251
9.73897,64551
9.74710,58719
9.75522,60536
9.76335,56792
9.77147,59232
9.77958,57477
9.78772,56771
9.79583,57341
9.80397,56580
9.81208,62797
9.82020,60355
9.82833,51243
9.83645,59684
9.84458,57729
9.85270,64519
9.86082,67440
9.86895,58779
9.87707,61402
9.88518,60054
9.89332,56507
9.90143,52943
9.90957,52221
9.91768,51427
9.92580,51809
9.93393,54799
9.94205,50313
9.95018,56142
9.95830,56303
9.96642,62745
9.97455,60458
9.98267,72883
9.99080,81503
9.99892,80069
10.00703,84964
10.01517,95208
10.02328,101354
10.03140,108402
10.03953,111874
10.04765,109728
10.05578,97572
10.06390,98999
10.07202,93126
10.08015,86678
10.08827,82939
10.09640,75456
10.10452,77148
10.11263,70707
10.12077,67181
10.12888,63747
10.13700,62516
10.14513,61966
10.15325,63057
10.16138,58612
10.16950,56588
10.17762,60170
10.18575,60111
10.19387,60558
10.20200,55090
10.21012,56203
10.21823,60325
10.22637,66945
10.23448,73216
10.24262,75553
10.25073,85966
10.25885,90741
10.26698,84747
10.27510,75250
10.28322,71234
10.29135,72283
10.29947,74922
10.30760,63945
10.31572,64241
10.32383,72920
10.33197,72528
10.34008,67856
10.34822,65131
10.35633,62817
10.36445,64088
10.37258,63737
10.38070,60751
10.38883,60869
10.39695,64308
10.40507,59379
10.41320,61647
10.42132,55602
10.42943,59074
10.43757,56226
10.44568,57241
10.45382,56963
10.46193,55380
10.47005,53841
10.47818,56790
10.48630,58166
10.49443,54456
10.50255,53047
10.51067,52269
10.51880,58104
10.52692,51642
10.53503,54280
10.54317,53425
10.55128,55557
10.55942,56936
10.56753,55433
10.57565,57811
10.58378,53070
10.59190,54898
10.60003,56472
10.60815,55530
10.61627,56802
10.62440,52073
10.63252,52849
10.64065,55544
10.64877,54169
10.65688,57842
10.66502,56386
10.67313,53999
10.68125,55283
10.68938,57405
10.69750,59502
10.70563,62971
10.71375,60935
10.72187,64499
10.73000,60095
10.73812,66838
10.74625,60669
10.75437,60360
10.76248,59315
10.77062,65630
10.77873,72059
10.78685,72507
10.79498,65969
10.80310,63194
10.81123,61206
10.81935,57924
10.82747,53669
10.83560,60463
10.84372,63646
10.85185,55500
10.85997,53328
10.86808,55849
10.87622,52512
10.88433,53345
10.89247,50342
10.90058,53675
10.90870,52273
10.91683,52532
10.92495,49019
10.93307,55092
10.94120,51500
10.94932,56057
10.95745,55096
10.96557,57673
10.97368,57458
10.98182,57129
10.98993,57249
10.99807,65252
11.00618,57690
11.01430,56878
11.02243,52133
11.03055,54510
11.03868,50707
11.04680,45331
11.05492,52619
11.06305,51673
11.07117,48990
11.07928,50341
11.08742,52837
11.09553,53676
11.10367,53225
11.11178,49615
11.11990,56618
11.12803,52134
11.13615,49413
11.14428,56034
11.15240,49579
11.16052,54385
11.16865,55252
11.17677,62194
11.18490,71118
11.19302,79018
11.20113,88702
11.20927,103165
11.21738,109225
11.22550,105199
11.23363,96450
11.24175,85830
11.24988,77464
11.25800,66314
11.26612,60081
11.27425,57440
11.28237,55758
11.29050,52984
11.29862,58991
11.30673,61587
11.31487,55360
11.32298,58419
11.33110,58884
11.33923,59254
11.34735,60142
11.35548,59289
11.36360,56622
11.37172,56088
11.37985,56687
11.38797,53744
11.39610,51502
11.40422,50746
11.41233,58387
11.42047,52843
11.42858,50709
11.43672,46657
11.44483,51926
11.45295,50131
11.46108,49194
11.46920,50686
11.47732,48256
11.48545,47576
11.49357,45091
11.50170,52059
11.50982,53834
11.51793,50503
11.52607,48197
11.53418,50079
11.54232,51218
11.55043,47705
11.55855,48232
11.56668,52480
11.57480,53496
11.58292,54450
11.59105,54063
11.59917,48328
11.60730,45037
11.61542,49079
11.62353,49455
11.63167,51559
11.63978,50124
11.64792,52866
11.65603,52019
11.66415,51389
11.67228,53245
11.68040,48386
11.68853,47628
11.69665,50952
11.70477,53873
11.71290,56815
11.72102,58945
11.72913,64381
11.73727,61033
11.74538,57031
11.75352,65226
11.76163,60502
11.76975,64664
11.77788,62804
11.78600,60567
11.79413,63780
11.80225,64627
11.81037,59717
11.81850,53741
11.82662,53611
11.83475,58910
11.84287,56611
11.85098,56450
11.85912,62613
11.86723,61149
11.87535,56935
11.88348,61896
11.89160,60143
11.89973,53989
11.90785,51153
11.91597,52383
11.92410,51615
11.93222,54659
11.94035,52652
11.94847,55615
11.95658,51218
11.96472,56619
11.97283,51103
11.98095,49037
11.98908,51222
11.99720,53225
12.00533,50827
12.01345,55096
12.02157,48068
12.02970,50559
12.03782,52514
12.04595,54667
12.05407,52698
12.06218,53003
12.07032,48451
12.07843,53855
12.08657,48196
12.09468,50341
12.10280,48789
12.11093,52111
12.11905,50274
12.12717,50091
12.13530,54020
12.14342,58226
12.15155,56455
12.15967,57450
12.16778,55081
12.17592,58502
12.18403,58340
12.19217,56641
12.20028,52332
12.20840,53608
12.21653,55851
12.22465,59101
12.23278,52432
12.24090,53460
12.24902,53276
12.25715,51624
12.26527,54453
12.27338,50583
12.28152,51861
12.28963,52586
12.29777,55288
12.30588,51399
12.31400,49077
12.32213,47261
12.33025,50879
12.33838,48942
12.34650,54542
12.35462,52734
12.36275,53134
12.37087,50302
12.37898,50757
12.38712,53032
12.39523,52772
12.40337,55852
12.41148,55673
12.41960,52236
12.42773,52602
12.43585,56080
12.44398,58046
12.45210,68616
12.46022,73869
12.46835,75387
12.47647,86661
12.48460,78776
12.49272,71170
12.50083,63166
12.50897,58937
12.51708,61897
12.52520,57337
12.53333,55173
12.54145,55438
12.54958,56684
12.55770,54010
12.56582,51033
12.57395,62378
12.58207,56496
12.59020,51144
12.59832,56828
12.60643,50154
12.61457,55761
12.62268,52396
12.63080,54269
12.63893,53982
12.64705,50939
12.65518,57198
12.66330,50128
12.67142,49153
12.67955,50168
12.68767,52891
12.69580,53466
12.70392,53259
12.71203,57680
12.72017,56477
12.72828,66079
12.73642,81561
12.74453,94646
12.75265,110886
12.76078,123159
12.76890,113407
12.77702,102417
12.78515,92004
12.79327,81482
12.80140,75327
12.80952,67362
12.81763,66467
12.82577,63915
12.83388,64767
12.84202,62406
12.85013,61598
12.85825,56774
12.86638,62678
12.87450,64447
12.88263,59405
12.89075,60908
12.89887,58435
12.90700,58126
12.91512,53991
12.92323,53223
12.93137,54148
12.93948,55186
12.94762,54654
12.95573,58476
12.96385,54177
12.97198,57797
12.98010,58715
12.98823,57116
12.99635,58606
13.00447,56601
13.01260,55419
13.02072,53331
13.02883,56685
13.03697,56938
13.04508,52686
13.05322,55370
13.06133,52281
13.06945,54024
13.07758,59197
13.08570,62184
13.09383,58388
13.10195,54449
13.11007,59687
13.11820,59966
13.12632,52389
13.13445,57964
13.14257,57774
13.15068,59855
13.15882,57161
13.16693,59671
13.17505,59973
13.18318,59470
13.19130,59872
13.19943,73506
13.20755,76925
13.21567,79298
13.22380,80167
13.23192,81255
13.24005,74875
13.24817,68227
13.25628,71096
13.26442,63184
13.27253,57110
13.28067,61140
13.28878,62299
13.29690,53534
13.30503,57731
13.31315,57602
13.32127,56287
13.32940,54398
13.33752,55032
13.34565,55272
13.35377,54936
13.36188,60090
13.37002,56464
13.37813,59168
13.38627,59140
13.39438,53891
13.40250,53511
13.41063,55083
13.41875,56211
13.42687,54746
13.43500,54919
13.44312,51665
13.45125,53965
13.45937,58013
13.46748,55698
13.47562,53954
13.48373,54338
13.49187,54226
13.49998,55959
13.50810,55647
13.51623,54232
13.52435,55589
13.53248,57306
13.54060,52229
13.54872,53945
13.55685,58091
13.56497,61705
13.57308,59390
13.58122,59918
13.58933,54892
13.59747,56289
13.60558,54900
13.61370,54560
13.62183,51946
13.62995,55687
13.63808,57494
13.64620,51264
13.65432,54233
13.66245,53197
13.67057,50023
13.67868,55863
13.68682,52832
13.69493,53219
13.70307,59223
13.71118,54881
13.71930,57388
13.72743,57177
13.73555,55329
13.74368,50393
13.75180,55132
13.75992,56972
13.76805,52019
13.77617,56855
13.78430,63811
13.79242,60529
13.80053,61846
13.80867,69643
13.81678,66947
13.82490,68985
13.83303,67181
13.84115,69724
13.84928,72087
13.85740,68366
13.86552,69680
13.87365,67417
13.88177,65394
13.88990,71164
13.89802,64062
13.90613,71708
13.91427,65953
13.92238,71216
13.93052,72732
13.93863,84172
13.94675,80498
13.95488,76968
13.96300,76613
13.97112,79538
13.97925,72150
13.98737,69413
13.99550,64853
14.00362,72445
14.01173,68709
14.01987,76212
14.02798,76093
14.03612,66122
14.04423,75067
14.05235,71878
14.06048,72706
14.06860,74599
14.07672,80945
14.08485,83356
14.09297,82933
14.10110,80896
14.10922,77394
14.11733,72618
14.12547,73955
14.13358,70544
14.14172,69459
14.14983,74073
14.15795,71523
14.16608,73633
14.17420,74324
14.18233,85989
14.19045,106282
14.19857,161695
14.20670,270798
14.21482,421506
14.22293,551452
14.23107,656501
14.23918,617648
14.24732,511236
14.25543,415308
14.26355,345751
14.27168,289789
14.27980,257208
14.28793,222038
14.29605,197141
14.30417,183415
14.31230,165567
14.32042,150113
14.32855,142475
14.33667,139409
14.34478,135246
14.35292,123843
14.36103,126623
14.36915,107249
14.37728,91270
14.38540,86901
14.39353,79300
14.40165,74420
14.40977,68166
14.41790,63884
14.42602,69881
14.43415,67639
14.44227,70262
14.45038,66112
14.45852,68417
14.46663,70277
14.47475,66807
14.48288,61363
14.49100,60295
14.49913,65547
14.50725,60074
14.51537,60985
14.52350,61458
14.53162,61580
14.53975,63106
14.54787,63701
14.55598,64176
14.56412,64600
14.57223,66826
14.58037,67000
14.58848,67156
14.59660,65560
14.60473,68354
14.61285,66584
14.62097,59909
14.62910,61990
14.63722,55628
14.64535,57401
14.65347,59671
14.66158,61073
14.66972,62115
14.67783,53788
14.68597,59320
14.69408,55866
14.70220,55989
14.71033,60155
14.71845,61686
14.72658,56817
14.73470,65243
14.74282,60309
14.75095,59795
14.75907,59845
14.76718,57637
14.77532,56470
14.78343,56811
14.79157,59809
14.79968,53409
14.80780,56378
14.81593,58831
14.82405,61429
14.83218,65175
14.84030,61678
14.84842,64105
14.85655,69899
14.86467,62947
14.87278,68308
14.88092,68064
14.88903,70680
14.89717,69754
14.90528,64370
14.91340,67857
14.92153,68590
14.92965,67018
14.93778,65333
14.94590,65273
14.95402,70142
14.96215,63655
14.97027,63426
14.97840,62572
14.98652,64215
14.99463,62646
15.00277,59429
15.01088,65086
15.01900,62352
15.02713,58872
15.03525,60455
15.04338,65354
15.05150,58654
15.05962,61440
15.06775,56942
15.07587,65067
15.08400,55569
15.09212,59140
15.10023,59563
15.10837,61094
15.11648,56175
15.12460,55886
15.13273,60057
15.14085,59208
15.14898,66026
15.15710,57413
15.16522,57176
15.17335,56139
15.18147,61984
15.18960,61787
15.19772,61283
15.20583,65717
15.21397,62721
15.22208,61986
15.23022,66583
15.23833,57758
15.24645,62691
15.25458,65695
15.26270,56634
15.27082,61281
15.27895,60513
15.28707,53836
15.29520,53908
15.30332,56931
15.31143,60329
15.31957,58390
15.32768,54056
15.33582,54560
15.34393,56638
15.35205,53571
15.36018,50138
15.36830,53268
15.37643,62568
15.38455,59665
15.39267,58760
15.40080,52068
15.40892,55146
15.41703,54338
15.42517,56005
15.43328,56843
15.44142,56124
15.44953,53347
15.45765,53255
15.46578,52659
15.47390,48745
15.48203,56163
15.49015,53121
15.49827,61426
15.50640,61354
15.51452,61483
15.52263,62889
15.53077,66386
15.53888,64790
15.54702,58855
15.55513,59211
15.56325,58638
15.57138,55455
15.57950,56540
15.58763,60510
15.59575,54832
15.60387,54916
15.61200,60505
15.62012,53591
15.62825,56607
15.63637,53249
15.64448,57306
15.65262,55698
15.66073,57887
15.66885,56157
15.67698,51245
15.68510,57245
15.69323,49840
15.70135,54067
15.70947,56599
15.71760,58179
15.72572,51963
15.73385,64017
15.74197,57745
15.75008,52776
15.75822,57896
15.76633,56520
15.77447,57077
15.78258,58390
15.79070,55408
15.79883,57156
15.80695,61618
15.81507,60531
15.82320,60194
15.83132,55220
15.83945,56109
15.84757,62341
15.85568,58743
15.86382,60324
15.87193,55605
15.88007,56422
15.88818,56483
15.89630,56047
15.90443,60106
15.91255,60744
15.92067,55718
15.92880,56331
15.93692,59269
15.94505,56884
15.95317,59324
15.96128,57051
15.96942,58564
15.97753,59981
15.98567,61320
15.99378,60304
16.00190,68859
16.01003,74996
16.01815,93461
16.02628,125067
16.03440,155850
16.04252,192328
16.05065,216637
16.05877,201444
16.06688,177008
16.07502,141082
16.08313,118250
16.09127,108592
16.09938,99147
16.10750,88128
16.11563,82005
16.12375,89698
16.13188,81791
16.14000,79924
16.14812,72094
16.15625,68491
16.16437,79511
16.17248,70058
16.18062,71718
16.18873,76178
16.19687,75872
16.20498,67860
16.21310,71047
16.22123,70501
16.22935,67006
16.23748,65663
16.24560,66980
16.25372,74587
16.26185,67104
16.26997,65007
16.27810,67447
16.28622,68057
16.29433,66658
16.30247,65304
16.31058,63092
16.31870,62771
16.32683,65607
16.33495,69809
16.34308,73453
16.35120,66422
16.35932,69033
16.36745,72188
16.37557,64753
16.38370,64947
16.39182,63520
16.39993,66371
16.40807,65795
16.41618,60603
16.42432,66974
16.43243,60466
16.44055,59906
16.44868,62997
16.45680,63024
16.46492,59238
16.47305,60713
16.48117,61244
16.48930,64074
16.49742,63665
16.50553,64743
16.51367,66788
16.52178,64204
16.52992,60882
16.53803,57643
16.54615,61966
16.55428,63382
16.56240,52823
16.57053,66504
16.57865,58783
16.58677,60989
16.59490,55660
16.60302,60065
16.61113,61766
16.61927,60098
16.62738,58610
16.63552,58464
16.64363,59162
16.65175,59022
16.65988,60421
16.66800,58398
16.67613,55759
16.68425,54833
16.69237,57284
16.70050,55298
16.70862,60854
16.71673,58217
16.72487,55308
16.73298,58639
16.74112,57125
16.74923,53501
16.75735,54661
16.76548,54741
16.77360,55742
16.78173,56023
16.78985,57339
16.79797,60357
16.80610,51312
16.81422,58340
16.82235,55186
16.83047,55053
16.83858,53736
16.84672,50031
16.85483,52708
16.86295,55786
16.87108,52748
16.87920,53666
16.88733,51819
16.89545,50357
16.90357,54256
16.91170,50916
16.91982,51888
16.92795,56955
16.93607,56113
16.94418,57382
16.95232,60636
16.96043,58712
16.96855,56802
16.97668,55042
16.98480,53241
16.99293,51248
17.00105,51908
17.00917,54397
17.01730,55024
17.02542,49901
17.03355,51823
17.04167,55342
17.04978,56083
17.05792,56432
17.06603,48763
17.07417,54177
17.08228,49965
17.09040,50999
17.09853,55473
17.10665,59240
17.11477,53829
17.12290,54938
17.13102,58557
17.13915,55205
17.14727,59902
17.15538,57624
17.16352,53807
17.17163,50468
17.17977,54786
17.18788,51699
17.19600,52335
17.20413,51353
17.21225,49542
17.22038,48772
17.22850,50296
17.23662,51703
17.24475,48479
17.25287,50196
17.26098,52706
17.26912,56003
17.27723,55935
17.28537,56725
17.29348,64242
17.30160,60427
17.30973,56079
17.31785,54705
17.32598,52316
17.33410,49812
17.34222,52086
17.35035,56405
17.35847,58208
17.36658,65215
17.37472,65686
17.38283,76484
17.39097,71990
17.39908,74320
17.40720,66770
17.41533,65688
17.42345,62809
17.43158,64970
17.43970,53432
17.44782,61162
17.45595,58610
17.46407,61142
17.47220,58078
17.48032,58375
17.48843,57372
17.49657,55474
17.50468,55648
17.51280,62225
17.52093,60825
17.52905,60935
17.53718,60038
17.54530,61190
17.55342,58866
17.56155,61102
17.56967,62826
17.57780,54115
17.58592,58459
17.59403,55498
17.60217,53747
17.61028,51891
17.61842,52640
17.62653,54747
17.63465,50898
17.64278,50166
17.65090,55106
17.65902,55777
17.66715,57055
17.67527,61759
17.68340,60986
17.69152,63960
17.69963,64364
17.70777,61943
17.71588,60525
17.72402,62733
17.73213,72933
17.74025,65915
17.74838,60635
17.75650,67094
17.76462,60999
17.77275,57967
17.78087,65469
17.78900,61125
17.79712,54989
17.80523,53506
17.81337,57031
17.82148,56368
17.82962,59470
17.83773,57019
17.84585,61098
17.85398,68513
17.86210,68086
17.87023,68467
17.87835,58716
17.88647,62373
17.89460,53626
17.90272,54104
17.91083,57820
17.91897,52169
17.92708,52562
17.93522,55010
17.94333,51545
17.95145,55038
17.95958,47313
17.96770,52716
17.97583,51315
17.98395,50405
17.99207,50747
18.00020,53324
18.00832,55603
18.01643,62178
18.02457,50025
18.03268,56401
18.04082,56620
18.04893,54745
18.05705,58232
18.06518,57386
18.07330,56993
18.08143,62167
18.08955,60816
18.09767,64003
18.10580,67619
18.11392,74434
18.12205,71798
18.13017,66125
18.13828,65392
18.14642,65387
18.15453,60932
18.16265,61971
18.17078,63287
18.17890,65860
18.18703,67230
18.19515,62127
18.20327,62856
18.21140,59494
18.21952,60466
18.22765,54439
18.23577,55839
18.24388,59805
18.25202,60175
18.26013,65810
18.26827,67238
18.27638,70837
18.28450,71741
18.29263,67088
18.30075,62232
18.30887,60328
18.31700,61660
18.32512,57402
18.33325,58962
18.34137,58696
18.34948,51257
18.35762,56868
18.36573,59515
18.37387,55840
18.38198,60264
18.39010,57633
18.39823,56747
18.40635,55932
18.41447,57459
18.42260,54641
18.43072,51344
18.43885,57091
18.44697,58314
18.45508,56750
18.46322,58869
18.47133,59065
18.47947,52302
18.48758,55512
18.49570,62153
18.50383,55265
18.51195,60537
18.52008,53878
18.52820,56248
18.53632,58167
18.54445,57228
18.55257,55313
18.56068,56239
18.56882,57553
18.57693,54093
18.58507,56582
18.59318,50891
18.60130,55060
18.60943,56867
18.61755,58269
18.62568,60611
18.63380,55485
18.64192,59098
18.65005,53416
18.65817,58218
18.66630,58644
18.67442,54959
18.68253,56709
18.69067,55515
18.69878,53465
18.70690,56810
18.71503,53372
18.72315,54671
18.73128,56416
18.73940,51489
18.74752,53028
18.75565,52387
18.76377,52841
18.77190,50157
18.78002,55716
18.78813,59119
18.79627,52015
18.80438,51919
18.81250,57093
18.82063,54200
18.82875,52476
18.83688,54695
18.84500,59401
18.85312,53084
18.86125,52938
18.86937,54894
18.87750,51946
18.88562,56127
18.89373,55057
18.90187,53787
18.90998,53848
18.91812,62391
18.92623,54645
18.93435,55088
18.94248,53836
18.95060,55935
18.95872,57990
18.96685,56522
18.97497,47036
18.98310,53402
18.99122,55410
18.99933,51835
19.00747,56444
19.01558,53354
19.02372,55971
19.03183,51253
19.03995,51583
19.04808,52170
19.05620,48970
19.06432,50866
19.07245,51559
19.08057,50837
19.08870,57705
19.09682,60218
19.10493,71293
19.11307,76356
19.12118,81730
19.12932,79432
19.13743,77193
19.14555,73525
19.15368,68997
19.16180,64825
19.16993,63248
19.17805,63214
19.18617,62630
19.19430,64677
19.20242,62081
19.21053,57917
19.21867,57649
19.22678,59008
19.23492,64066
19.24303,55062
19.25115,58204
19.25928,65253
19.26740,58168
19.27553,68166
19.28365,74773
19.29177,89041
19.29990,103394
19.30802,106675
19.31615,112439
19.32427,110405
19.33238,107283
19.34052,93440
19.34863,91773
19.35675,82533
19.36488,79974
19.37300,75919
19.38113,73535
19.38925,72782
19.39737,70872
19.40550,64724
19.41362,72415
19.42175,63530
19.42987,61448
19.43798,65638
19.44612,63139
19.45423,65929
19.46235,67779
19.47048,66276
19.47860,61399
19.48673,66047
19.49485,86023
19.50297,112506
19.51110,169938
19.51922,244655
19.52735,323791
19.53547,371079
19.54358,325312
19.55172,252453
19.55983,184809
19.56797,119852
19.57608,95232
19.58420,75307
19.59233,72462
19.60045,67994
19.60857,63612
19.61670,63724
19.62482,73006
19.63295,82430
19.64107,99476
19.64918,147244
19.65732,244693
19.66543,420900
19.67357,628411
19.68168,866989
19.68980,1071978
19.69793,1088743
19.70605,927793
19.71418,698400
19.72230,484320
19.73042,350914
19.73855,271078
19.74667,208385
19.75478,184093
19.76292,163555
19.77103,144422
19.77917,122685
19.78728,114239
19.79540,109560
19.80353,105416
19.81165,100245
19.81978,94703
19.82790,85904
19.83602,85753
19.84415,86011
19.85227,80375
19.86038,72277
19.86852,85642
19.87663,90947
19.88477,98867
19.89288,125925
19.90100,171277
19.90913,213927
19.91725,283380
19.92538,324175
19.93350,344940
19.94162,349656
19.94975,341121
19.95787,335930
19.96600,332429
19.97412,317966
19.98223,304987
19.99037,310399
19.99848,290367
20.00660,289167
20.01473,278675
20.02285,268090
20.03098,260194
20.03910,257725
20.04722,236221
20.05535,220273
20.06347,209064
20.07160,177200
20.07972,160527
20.08783,153092
20.09597,137781
20.10408,131599
20.11222,132959
20.12033,131746
20.12845,127918
20.13658,125575
20.14470,123440
20.15282,115281
20.16095,117561
20.16907,113849
20.17720,114657
20.18532,109767
20.19343,112118
20.20157,115715
20.20968,113626
20.21782,111974
20.22593,108971
20.23405,109840
20.24218,112251
20.25030,131277
20.25842,176122
20.26655,272681
20.27467,435611
20.28280,640632
20.29092,868422
20.29903,1023626
20.30717,1054048
20.31528,915222
20.32342,716500
20.33153,512414
20.33965,379593
20.34778,289181
20.35590,225724
20.36403,195279
20.37215,171573
20.38027,157772
20.38840,154706
20.39652,141304
20.40463,143218
20.41277,143774
20.42088,153836
20.42902,174291
20.43713,206846
20.44525,255384
20.45338,301706
20.46150,330681
20.46963,337101
20.47775,309392
20.48587,261336
20.49400,228760
20.50212,184149
20.51023,152737
20.51837,141430
20.52648,129876
20.53462,122432
20.54273,113291
20.55085,113821
20.55898,102828
20.56710,106119
20.57523,102932
20.58335,106360
20.59147,104683
20.59960,100954
20.60772,97457
20.61585,100255
20.62397,96420
20.63208,96040
20.64022,96191
20.64833,93379
20.65645,92704
20.66458,92047
20.67270,94977
20.68083,93926
20.68895,90866
20.69707,96311
20.70520,90198
20.71332,89533
20.72145,92462
20.72957,88197
20.73768,88123
20.74582,88378
20.75393,84776
20.76207,90036
20.77018,82813
20.77830,85494
20.78643,85697
20.79455,89462
20.80267,82933
20.81080,81587
20.81892,84415
20.82705,81330
20.83517,81421
20.84328,83637
20.85142,85692
20.85953,82350
20.86767,76529
20.87578,79564
20.88390,80885
20.89203,79898
20.90015,79575
20.90827,79403
20.91640,78516
20.92452,78878
20.93265,81696
20.94077,77662
20.94888,81705
20.95702,77203
20.96513,83003
20.97327,79821
20.98138,82042
20.98950,78546
20.99763,76671
21.00575,79385
21.01388,79562
21.02200,78673
21.03012,78155
21.03825,78166
21.04637,78509
21.05448,75798
21.06262,81544
21.07073,80979
21.07887,83048
21.08698,84738
21.09510,78601
21.10323,86353
21.11135,80287
21.11948,86625
21.12760,85429
21.13572,82392
21.14385,87908
21.15197,83812
21.16010,83058
21.16822,83253
21.17633,91104
21.18447,95526
21.19258,88708
21.20070,89072
21.20883,83674
21.21695,87860
21.22508,83528
21.23320,84882
21.24132,87069
21.24945,88725
21.25757,90565
21.26570,89278
21.27382,87802
21.28193,94269
21.29007,90230
21.29818,86563
21.30630,86608
21.31443,86046
21.32255,85042
21.33068,85321
21.33880,82684
21.34692,80610
21.35505,83887
21.36317,81613
21.37130,83565
21.37942,81822
21.38753,83311
21.39567,81912
21.40378,82488
21.41192,82928
21.42003,81871
21.42815,80863
21.43628,81844
21.44440,84511
21.45252,81078
21.46065,79444
21.46877,80167
21.47690,87402
21.48502,83503
21.49313,81805
21.50127,80736
21.50938,80761
21.51752,75237
21.52563,80288
21.53375,81919
21.54188,84179
21.55000,81064
21.55812,80871
21.56625,80819
21.57437,78785
21.58250,80781
21.59062,80396
21.59873,81792
21.60687,83795
21.61498,89389
21.62312,100925
21.63123,125901
21.63935,166392
21.64748,214932
21.65560,256741
21.66373,273215
21.67185,255398
21.67997,220721
21.68810,180043
21.69622,144879
21.70433,119872
21.71247,107736
21.72058,99344
21.72872,94846
21.73683,90100
21.74495,91416
21.75308,93910
21.76120,85842
21.76933,85760
21.77745,89878
21.78557,89897
21.79370,86801
21.80182,85328
21.80995,83520
21.81807,93442
21.82618,112262
21.83432,148397
21.84243,180942
21.85055,219220
21.85868,251450
21.86680,241356
21.87493,211848
21.88305,167717
21.89117,145841
21.89930,116853
21.90742,96112
21.91555,89849
21.92367,84351
21.93178,84473
21.93992,84424
21.94803,82907
21.95617,80534
21.96428,80640
21.97240,76444
21.98053,75643
21.98865,73441
21.99677,69333
22.00490,63886
22.01302,69085
22.02115,68546
22.02927,67751
22.03738,68594
22.04552,66562
22.05363,64962
22.06177,65086
22.06988,64292
22.07800,69718
22.08613,65926
22.09425,65299
22.10237,67207
22.11050,70393
22.11862,66239
22.12675,64774
22.13487,67487
22.14298,65837
22.15112,67850
22.15923,68600
22.16737,67387
22.17548,66144
22.18360,68196
22.19173,67884
22.19985,68453
22.20798,67359
22.21610,70499
22.22422,86557
22.23235,83157
22.24047,89803
22.24858,101466
22.25672,97999
22.26483,91650
22.27297,84170
22.28108,81309
22.28920,68023
22.29733,72090
22.30545,63015
22.31358,64494
22.32170,63077
22.32982,60715
22.33795,66291
22.34607,64558
22.35418,71165
22.36232,65851
22.37043,65344
22.37857,64766
22.38668,67004
22.39480,62575
22.40293,62544
22.41105,65644
22.41918,55894
22.42730,55634
22.43542,55086
22.44355,55025
22.45167,58811
22.45980,57134
22.46792,59284
22.47603,57570
22.48417,61830
22.49228,58886
22.50040,55397
22.50853,58527
22.51665,50556
22.52478,52884
22.53290,52124
22.54102,53495
22.54915,55123
22.55727,50985
22.56540,47503
22.57352,53229
22.58163,54077
22.58977,55535
22.59788,55060
22.60602,55470
22.61413,56327
22.62225,51601
22.63038,53056
22.63850,50073
22.64662,48622
22.65475,47729
22.66287,53006
22.67100,48289
22.67912,52019
22.68723,51015
22.69537,53788
22.70348,51617
22.71162,55246
22.71973,56956
22.72785,56124
22.73598,55723
22.74410,55594
22.75222,51869
22.76035,48325
22.76847,51714
22.77660,52581
22.78472,56224
22.79283,51575
22.80097,50108
22.80908,48592
22.81722,49064
22.82533,46558
22.83345,50336
22.84158,52195
22.84970,52810
22.85783,54966
22.86595,60604
22.87407,57240
22.88220,64639
22.89032,59544
22.89843,66295
22.90657,65181
22.91468,68764
22.92282,69586
22.93093,77279
22.93905,92890
22.94718,95587
22.95530,110243
22.96343,100742
22.97155,107981
22.97967,97841
22.98780,99881
22.99592,102003
23.00405,89915
23.01217,87618
23.02028,86106
23.02842,76641
23.03653,72036
23.04465,66102
23.05278,66809
23.06090,61837
23.06903,60809
23.07715,56908
23.08527,63118
23.09340,58302
23.10152,59554
23.10965,57985
23.11777,58715
23.12588,65161
23.13402,51429
23.14213,54567
23.15025,55928
23.15838,49084
23.16650,53359
23.17463,53316
23.18275,52551
23.19087,54281
23.19900,51761
23.20712,55381
23.21525,52888
23.22337,54662
23.23148,48485
23.23962,52406
23.24773,54328
23.25587,50136
23.26398,48252
23.27210,49028
23.28023,49126
23.28835,51952
23.29647,54854
23.30460,48931
23.31272,53923
23.32085,49312
23.32897,46406
23.33708,49426
23.34522,47792
23.35333,50041
23.36147,48300
23.36958,51337
23.37770,48867
23.38583,53057
23.39395,50498
23.40207,54817
23.41020,55434
23.41832,51516
23.42645,55339
23.43457,50402
23.44268,50396
23.45082,53686
23.45893,51671
23.46707,50047
23.47518,51731
23.48330,49514
23.49143,47567
23.49955,51781
23.50768,53137
23.51580,56777
23.52392,53995
23.53205,53132
23.54017,57982
23.54828,54878
23.55642,53128
23.56453,58449
23.57267,52602
23.58078,58587
23.58890,59724
23.59703,59209
23.60515,53191
23.61328,55919
23.62140,57266
23.62952,60257
23.63765,58928
23.64577,57032
23.65390,57109
23.66202,60534
23.67013,69074
23.67827,82542
23.68638,79613
23.69450,85613
23.70263,87683
23.71075,80212
23.71888,76056
23.72700,72984
23.73512,77867
23.74325,78057
23.75137,115474
23.75950,224543
23.76762,602038
23.77573,1649902
23.78387,3600138
23.79198,5871123
23.80010,7333084
23.80823,7825638
23.81635,7052872
23.82448,5563773
23.83260,3976405
23.84072,2665781
23.84885,1837660
23.85697,1340413
23.86510,993238
23.87322,779819
23.88133,660724
23.88947,565000
23.89758,500693
23.90572,462019
23.91383,396057
23.92195,375488
23.93008,346361
23.93820,322841
23.94632,300410
23.95445,270716
23.96257,265485
23.97070,251396
23.97882,236963
23.98693,231964
23.99507,215987
24.00318,208719
24.01132,191767
24.01943,188071
24.02755,188564
24.03568,185932
24.04380,173014
24.05193,177040
24.06005,165113
24.06817,160832
24.07630,153439
24.08442,159533
24.09253,149544
24.10067,154729
24.10878,142873
24.11692,144382
24.12503,142653
24.13315,150576
24.14128,160467
24.14940,173302
24.15753,183584
24.16565,185461
24.17377,169961
24.18190,170206
24.19002,146812
24.19813,139633
24.20627,143600
24.21438,143425
24.22252,160029
24.23063,181534
24.23875,187019
24.24688,187410
24.25500,185725
24.26313,168696
24.27125,143237
24.27937,142057
24.28750,122931
24.29562,117745
24.30375,121406
24.31187,116721
24.31998,124858
24.32812,111559
24.33623,108137
24.34435,105074
24.35248,102276
24.36060,104124
24.36873,105692
24.37685,109366
24.38497,117565
24.39310,131112
24.40122,172493
24.40935,231638
24.41747,276254
24.42558,312610
24.43372,293903
24.44183,236247
24.44997,180232
24.45808,129352
24.46620,113990
24.47433,104797
24.48245,104516
24.49057,102133
24.49870,104901
24.50682,115795
24.51495,141463
24.52307,160936
24.53118,164776
24.53932,175056
24.54743,174477
24.55557,153012
24.56368,131589
24.57180,125668
24.57993,108686
24.58805,104074
24.59617,103888
24.60430,99302
24.61242,93505
24.62055,101690
24.62867,99521
24.63678,96870
24.64492,89985
24.65303,103364
24.66117,98442
24.66928,95417
24.67740,98779
24.68553,97572
24.69365,97227
24.70178,86851
24.70990,94889
24.71802,82430
24.72615,84181
24.73427,79502
24.74238,77616
24.75052,80996
24.75863,82740
24.76677,80192
24.77488,83976
24.78300,79910
24.79113,81119
24.79925,84701
24.80738,76515
24.81550,74879
24.82362,74275
24.83175,76259
24.83987,77513
24.84798,68928
24.85612,76552
24.86423,72924
24.87237,77786
24.88048,75049
24.88860,78252
24.89673,73785
24.90485,75772
24.91298,74042
24.92110,63839
24.92922,65232
24.93735,69729
24.94547,74082
24.95360,74115
24.96172,67828
24.96983,70247
24.97797,68040
24.98608,69797
24.99420,71676
25.00233,67900
25.01045,70463
25.01858,69459
25.02670,67987
25.03482,66789
25.04295,70850
25.05107,74097
25.05920,67332
25.06732,67179
25.07543,64710
25.08357,66030
25.09168,63450
25.09982,71228
25.10793,66628
25.11605,67531
25.12418,70198
25.13230,68875
25.14042,72275
25.14855,78942
25.15667,76065
25.16480,73095
25.17292,76598
25.18103,79883
25.18917,80512
25.19728,78148
25.20542,78431
25.21353,75526
25.22165,74991
25.22978,69799
25.23790,72481
25.24602,82238
25.25415,75748
25.26227,72468
25.27040,70451
25.27852,70004
25.28663,72671
25.29477,74921
25.30288,83390
25.31102,95991
25.31913,103965
25.32725,113373
25.33538,109534
25.34350,102981
25.35163,100944
25.35975,87302
25.36787,85231
25.37600,76437
25.38412,75299
25.39223,68327
25.40037,67194
25.40848,66128
25.41662,62836
25.42473,62794
25.43285,63644
25.44098,65727
25.44910,66266
25.45723,66195
25.46535,64391
25.47347,70098
25.48160,73343
25.48972,77345
25.49785,86614
25.50597,85767
25.51408,88850
25.52222,80585
25.53033,77999
25.53845,76625
25.54658,71860
25.55470,67596
25.56283,68792
25.57095,69465
25.57907,63385
25.58720,66392
25.59532,61255
25.60345,65965
25.61157,56776
25.61968,65107
25.62782,60554
25.63593,60787
25.64405,58914
25.65218,58947
25.66030,58200
25.66843,59233
25.67655,61383
25.68467,57097
25.69280,60247
25.70092,58567
25.70905,62480
25.71717,58238
25.72528,58485
25.73342,61649
25.74153,60135
25.74967,65027
25.75778,60352
25.76590,63408
25.77403,61920
25.78215,62451
25.79027,61745
25.79840,59137
25.80652,59035
25.81465,59339
25.82277,63186
25.83088,60816
25.83902,64384
25.84713,63184
25.85527,58126
25.86338,58600
25.87150,54648
25.87963,60423
25.88775,62936
25.89587,59816
25.90400,55987
25.91212,56630
25.92025,56329
25.92837,55579
25.93648,57748
25.94462,59803
25.95273,54358
25.96087,57477
25.96898,54067
25.97710,56104
25.98523,54832
25.99335,63626
26.00148,55930
26.00960,60747
26.01772,55623
26.02585,53450
26.03397,52466
26.04208,55686
26.05022,54209
26.05833,50530
26.06647,55568
26.07458,67916
26.08270,57583
26.09083,62226
26.09895,56670
26.10708,60392
26.11520,64227
26.12332,70084
26.13145,75853
26.13957,88196
26.14770,89878
26.15582,90961
26.16393,97221
26.17207,99191
26.18018,91555
26.18830,83828
26.19643,73979
26.20455,73659
26.21268,66710
26.22080,66238
26.22892,60816
26.23705,58939
26.24517,60205
26.25330,57362
26.26142,63847
26.26953,62925
26.27767,71210
26.28578,68733
26.29390,72656
26.30203,70022
26.31015,68944
26.31828,66914
26.32640,59625
26.33452,64855
26.34265,62861
26.35077,61775
26.35890,59431
26.36702,60908
26.37513,54724
26.38327,57105
26.39138,59427
26.39952,60942
26.40763,59770
26.41575,53049
26.42388,57132
26.43200,61321
26.44012,61931
26.44825,58432
26.45637,58998
26.46450,53545
26.47262,51980
26.48073,54527
26.48887,51031
26.49698,55949
26.50512,50801
26.51323,56543
26.52135,56336
26.52948,59024
26.53760,60523
26.54573,53749
26.55385,55256
26.56197,51610
26.57010,57090
26.57822,59982
26.58633,57326
26.59447,58786
26.60258,54664
26.61072,64105
26.61883,56531
26.62695,57841
26.63508,48192
26.64320,56927
26.65133,50318
26.65945,51612
26.66757,56936
26.67570,55795
26.68382,56246
26.69193,56829
26.70007,55309
26.70818,57990
26.71632,59334
26.72443,54666
26.73255,58925
26.74068,54084
26.74880,56086
26.75693,61567
26.76505,58551
26.77317,68188
26.78130,60599
26.78942,62067
26.79755,61011
26.80567,61936
26.81378,62225
26.82192,63637
26.83003,68276
26.83815,75267
26.84628,71234
26.85440,72809
26.86253,75613
26.87065,77740
26.87877,76792
26.88690,78238
26.89502,77748
26.90315,71646
26.91127,71723
26.91938,68522
26.92752,70031
26.93563,68679
26.94375,73723
26.95188,93071
26.96000,148047
26.96813,301074
26.97625,763814
26.98437,2000226
26.99250,5089189
27.00062,1.119458E+07
27.00875,1.771933E+07
27.01687,2.201308E+07
27.02498,2.228046E+07
27.03312,1.913456E+07
27.04123,1.506363E+07
27.04937,1.091043E+07
27.05748,7729985
27.06560,5418569
27.07373,3716471
27.08185,2673672
27.08997,2078114
27.09810,1598378
27.10622,1316398
27.11435,1102513
27.12247,967531
27.13058,841838
27.13872,757238
27.14683,708181
27.15497,650884
27.16308,593004
27.17120,537707
27.17933,518247
27.18745,461939
27.19558,455343
27.20370,428008
27.21182,417127
27.21995,383678
27.22807,377036
27.23618,340618
27.24432,326409
27.25243,312023
27.26057,286558
27.26868,289540
27.27680,276598
27.28493,263942
27.29305,248947
27.30118,248065
27.30930,252050
27.31742,240178
27.32555,233745
27.33367,225583
27.34180,216209
27.34992,210273
27.35803,208952
27.36617,201125
27.37428,189106
27.38240,193874
27.39053,192935
27.39865,188024
27.40678,194755
27.41490,185801
27.42302,181928
27.43115,176313
27.43927,171945
27.44740,164118
27.45552,173687
27.46363,157440
27.47177,162201
27.47988,149754
27.48800,147530
27.49613,147794
27.50425,140501
27.51238,149519
27.52050,140388
27.52862,148057
27.53675,155277
27.54487,158405
27.55300,152177
27.56112,162761
27.56923,150973
27.57737,148188
27.58548,140885
27.59362,140300
27.60173,129499
27.60985,127784
27.61798,138480
27.62610,141170
27.63422,142276
27.64235,140303
27.65047,132079
27.65860,129277
27.66672,128022
27.67483,121781
27.68297,115499
27.69108,125706
27.69922,112492
27.70733,109614
27.71545,108915
27.72358,115927
27.73170,110965
27.73982,107462
27.74795,106956
27.75607,109736
27.76420,111419
27.77232,108171
27.78043,107661
27.78857,105077
27.79668,111918
27.80482,104509
27.81293,107334
27.82105,106273
27.82918,106217
27.83730,99883
27.84543,107557
27.85355,105719
27.86167,103192
27.86980,98827
27.87792,101721
27.88603,97641
27.89417,102048
27.90228,98413
27.91042,96160
27.91853,101871
27.92665,95256
27.93478,93575
27.94290,91497
27.95103,87165
27.95915,89817
27.96727,85909
27.97540,85203
27.98352,86999
27.99165,81568
27.99977,90106
28.00788,91971
28.01602,87371
28.02413,90816
28.03225,86163
28.04038,87236
28.04850,88407
28.05663,91984
28.06475,87031
28.07287,88574
28.08100,88226
28.08912,89346
28.09725,94012
28.10537,85384
28.11348,88053
28.12162,90419
28.12973,89467
28.13785,86883
28.14598,84870
28.15410,85187
28.16223,84103
28.17035,81009
28.17847,84687
28.18660,86703
28.19472,88285
28.20285,93053
28.21097,103590
28.21908,115691
28.22722,122818
28.23533,130394
28.24347,130348
28.25158,119047
28.25970,109203
28.26783,103754
28.27595,101224
28.28407,103907
28.29220,127611
28.30032,167677
28.30845,265911
28.31657,405053
28.32468,670200
28.33282,1025550
28.34093,1509299
28.34907,2005447
28.35718,2425740
28.36530,2778136
28.37343,2902833
28.38155,2959310
28.38968,2757344
28.39780,2464808
28.40592,2073084
28.41405,1772640
28.42217,1469737
28.43028,1199071
28.43842,986286
28.44653,818809
28.45467,691353
28.46278,604811
28.47090,526229
28.47903,447639
28.48715,414690
28.49528,388603
28.50340,356397
28.51152,325782
28.51965,301699
28.52777,283509
28.53588,275817
28.54402,264439
28.55213,246535
28.56027,241546
28.56838,229212
28.57650,222992
28.58463,210461
28.59275,203565
28.60088,205627
28.60900,189540
28.61712,182284
28.62525,176360
28.63337,177357
28.64150,173274
28.64962,172548
28.65773,179016
28.66587,189530
28.67398,178568
28.68210,177603
28.69023,179024
28.69835,162924
28.70648,163678
28.71460,161464
28.72272,146868
28.73085,155092
28.73897,140538
28.74710,144124
28.75522,149169
28.76333,149501
28.77147,164073
28.77958,184709
28.78770,215612
28.79583,238065
28.80395,229334
28.81208,208137
28.82020,176458
28.82832,154328
28.83645,140493
28.84457,128625
28.85270,125111
28.86082,121463
28.86893,124380
28.87707,115213
28.88518,114732
28.89332,118861
28.90143,119254
28.90955,110671
28.91768,117079
28.92580,119103
28.93392,110678
28.94205,111456
28.95017,112156
28.95830,108130
28.96642,112234
28.97453,118714
28.98267,113237
28.99078,114661
28.99892,106681
29.00703,110041
29.01515,107720
29.02328,109372
29.03140,108581
29.03953,103785
29.04765,105719
29.05577,105250
29.06390,99540
29.07202,102614
29.08013,102523
29.08827,94596
29.09638,102486
29.10452,105385
29.11263,98162
29.12075,100515
29.12888,95394
29.13700,99035
29.14513,99246
29.15325,100456
29.16137,96091
29.16950,98395
29.17762,101861
29.18573,103936
29.19387,99393
29.20198,105931
29.21012,101779
29.21823,98105
29.22635,96422
29.23448,96935
29.24260,97547
29.25073,95904
29.25885,92633
29.26697,95151
29.27510,97697
29.28322,96414
29.29135,91752
29.29947,98007
29.30758,100333
29.31572,100345
29.32383,94428
29.33195,92348
29.34008,98522
29.34820,89875
29.35633,94177
29.36445,96883
29.37257,94056
29.38070,86206
29.38882,91531
29.39695,93135
29.40507,90439
29.41318,90527
29.42132,91539
29.42943,92250
29.43757,91369
29.44568,87011
29.45380,87928
29.46193,85725
29.47005,77521
29.47817,87923
29.48630,87763
29.49442,89254
29.50255,94979
29.51067,101631
29.51878,107936
29.52692,107131
29.53503,108266
29.54317,96398
29.55128,92688
29.55940,84513
29.56753,84564
29.57565,81551
29.58377,73049
29.59190,81739
29.60002,75920
29.60815,78929
29.61627,79542
29.62438,85914
29.63252,80596
29.64063,83796
29.64877,82447
29.65688,79059
29.66500,79756
29.67313,78477
29.68125,76381
29.68938,76883
29.69750,73830
29.70562,73941
29.71375,74551
29.72187,72588
29.72998,74262
29.73812,77402
29.74623,70272
29.75437,75249
29.76248,73723
29.77060,73728
29.77873,70809
29.78685,69892
29.79498,72476
29.80310,79082
29.81122,70986
29.81935,71475
29.82747,66958
29.83558,70584
29.84372,69109
29.85183,70841
29.85997,72880
29.86808,72991
29.87620,72356
29.88433,71191
29.89245,85162
29.90058,86828
29.90870,92639
29.91682,102306
29.92495,105070
29.93307,104241
29.94120,111688
29.94932,122158
29.95743,153236
29.96557,186950
29.97368,247830
29.98180,290129
29.98993,373298
29.99805,480050
30.00618,564793
30.01430,660430
30.02242,702770
30.03055,731831
30.03867,768109
30.04680,761902
30.05492,731857
30.06303,698303
30.07117,660045
30.07928,603293
30.08742,549340
30.09553,496161
30.10365,454065
30.11178,401075
30.11990,364254
30.12802,321749
30.13615,288633
30.14427,268458
30.15240,261668
30.16052,226393
30.16863,214491
30.17677,196839
30.18488,183511
30.19302,174531
30.20113,161795
30.20925,157821
30.21738,150655
30.22550,148743
30.23362,140210
30.24175,134496
30.24987,129015
30.25800,135319
30.26612,122722
30.27423,124157
30.28237,121362
30.29048,116923
30.29862,112709
30.30673,112102
30.31485,111477
30.32298,107207
30.33110,96285
30.33923,105849
30.34735,100226
30.35547,101300
30.36360,103519
30.37172,100973
30.37983,96671
30.38797,89267
30.39608,98687
30.40422,93170
30.41233,93314
30.42045,86907
30.42858,90159
30.43670,85374
30.44483,88097
30.45295,87456
30.46107,87042
30.46920,91714
30.47732,86273
30.48545,86859
30.49357,84347
30.50168,83950
30.50982,85485
30.51793,83712
30.52605,80586
30.53418,85994
30.54230,83880
30.55043,81440
30.55855,78250
30.56667,75951
30.57480,79063
30.58292,84209
30.59105,76064
30.59917,77275
30.60728,81257
30.61542,76670
30.62353,76167
30.63165,74609
30.63978,76324
30.64790,75737
30.65603,71663
30.66415,76779
30.67227,67745
30.68040,66745
30.68852,69185
30.69665,72595
30.70477,68883
30.71288,74745
30.72102,65002
30.72913,74265
30.73727,68348
30.74538,72524
30.75350,75071
30.76163,74231
30.76975,72537
30.77787,71460
30.78600,71408
30.79412,69990
30.80225,70457
30.81037,69722
30.81848,79024
30.82662,79305
30.83473,80732
30.84287,79519
30.85098,70944
30.85910,73730
30.86723,72202
30.87535,68996
30.88348,69749
30.89160,64039
30.89972,65525
30.90785,71029
30.91597,63233
30.92408,68051
30.93222,71522
30.94033,67283
30.94847,67558
30.95658,68937
30.96470,65688
30.97283,67528
30.98095,66109
30.98908,70570
30.99720,65500
31.00532,69473
31.01345,64268
31.02157,64233
31.02968,67467
31.03782,72836
31.04593,72266
31.05407,71425
31.06218,69028
31.07030,63830
31.07843,68938
31.08655,71393
31.09468,81929
31.10280,83066
31.11092,88347
31.11905,89614
31.12717,95646
31.13530,91562
31.14342,79734
31.15153,77858
31.15967,76998
31.16778,76167
31.17590,79429
31.18403,82675
31.19215,86515
31.20028,91331
31.20840,100343
31.21652,113357
31.22465,124505
31.23277,125772
31.24090,129494
31.24902,129536
31.25713,110375
31.26527,98326
31.27338,92952
31.28150,84005
31.28963,78397
31.29775,74610
31.30588,69693
31.31400,67698
31.32212,68297
31.33025,66795
31.33837,63075
31.34650,63882
31.35462,63229
31.36273,66259
31.37087,67661
31.37898,63448
31.38712,61683
31.39523,62761
31.40335,61531
31.41148,66096
31.41960,67984
31.42772,68548
31.43585,69935
31.44397,76644
31.45210,78441
31.46022,71739
31.46833,73820
31.47647,68623
31.48458,58772
31.49272,59179
31.50083,63398
31.50895,60540
31.51708,59309
31.52520,59576
31.53333,62916
31.54145,61942
31.54957,61226
31.55770,60706
31.56582,66649
31.57393,61340
31.58207,58103
31.59018,62618
31.59832,63031
31.60643,59311
31.61455,59924
31.62268,59050
31.63080,63776
31.63893,58445
31.64705,65395
31.65517,66463
31.66330,69113
31.67142,66940
31.67953,71374
31.68767,70784
31.69578,65745
31.70392,69669
31.71203,68058
31.72015,59690
31.72828,60204
31.73640,59361
31.74453,55253
31.75265,59407
31.76077,54630
31.76890,56526
31.77702,58532
31.78515,56290
31.79327,60775
31.80138,62612
31.80952,64844
31.81763,66419
31.82575,69251
31.83388,65468
31.84200,66798
31.85013,64026
31.85825,66700
31.86637,68516
31.87450,72458
31.88262,67269
31.89075,71081
31.89887,84628
31.90698,87619
31.91512,105080
31.92323,132284
31.93137,161006
31.93948,199242
31.94760,245714
31.95573,300738
31.96385,324579
31.97197,359789
31.98010,379723
31.98822,386326
31.99635,373636
32.00447,368644
32.01258,349942
32.02072,320821
32.02883,292324
32.03697,255276
32.04508,239529
32.05320,207748
32.06133,189313
32.06945,176775
32.07757,178057
32.08570,172288
32.09382,163003
32.10195,160581
32.11007,161337
32.11818,148243
32.12632,136339
32.13443,123332
32.14257,117751
32.15068,108319
32.15880,109883
32.16693,99987
32.17505,98751
32.18318,94285
32.19130,91791
32.19942,89687
32.20755,89839
32.21567,87703
32.22378,83104
32.23192,81233
32.24003,79541
32.24817,86670
32.25628,84436
32.26440,77257
32.27253,87294
32.28065,80449
32.28878,75736
32.29690,76721
32.30502,81434
32.31315,78073
32.32127,76486
32.32938,76020
32.33752,77086
32.34563,77487
32.35377,77213
32.36188,77479
32.37000,80880
32.37813,78572
32.38625,73133
32.39438,71162
32.40250,73511
32.41062,76565
32.41875,67800
32.42687,73466
32.43500,69234
32.44312,68321
32.45123,70440
32.45937,68879
32.46748,71333
32.47560,71477
32.48373,71802
32.49185,69619
32.49998,65444
32.50810,68982
32.51622,69927
32.52435,65946
32.53247,69285
32.54060,65498
32.54872,68994
32.55683,64216
32.56497,67067
32.57308,65064
32.58122,63889
32.58933,66366
32.59745,62196
32.60558,58968
32.61370,63612
32.62182,67590
32.62995,62058
32.63807,61338
32.64620,63886
32.65432,68992
32.66243,79552
32.67057,89894
32.67868,105132
32.68682,122778
32.69493,133067
32.70305,120311
32.71118,105256
32.71930,94281
32.72743,87072
32.73555,75724
32.74367,71951
32.75180,72550
32.75992,68450
32.76803,66842
32.77617,63528
32.78428,60460
32.79242,64954
32.80053,59604
32.80865,62608
32.81678,58689
32.82490,62089
32.83303,53574
32.84115,66473
32.84927,64165
32.85740,54766
32.86552,64393
32.87363,58758
32.88177,57265
32.88988,60865
32.89802,61591
32.90613,60485
32.91425,58278
32.92238,60434
32.93050,62732
32.93863,58353
32.94675,58390
32.95487,62539
32.96300,58464
32.97112,59108
32.97925,58113
32.98737,61440
32.99548,59104
33.00362,59569
33.01173,64546
33.01985,58142
33.02798,57771
33.03610,59394
33.04423,59150
33.05235,55553
33.06047,51003
33.06860,56628
33.07672,57866
33.08485,60891
33.09297,58476
33.10108,67163
33.10922,68190
33.11733,79316
33.12545,89898
33.13358,93303
33.14170,94254
33.14983,92342
33.15795,81881
33.16607,71594
33.17420,64610
33.18232,62953
33.19045,66384
33.19857,71030
33.20668,69582
33.21482,72294
33.22293,76092
33.23107,74779
33.23918,69954
33.24730,70448
33.25543,65821
33.26355,64517
33.27167,62777
33.27980,65316
33.28792,61018
33.29605,61950
33.30417,60071
33.31228,57591
33.32042,58995
33.32853,59648
33.33667,59187
33.34478,61121
33.35290,59506
33.36103,57170
33.36915,60302
33.37727,61615
33.38540,58539
33.39352,58603
33.40165,58133
33.40977,56730
33.41788,51286
33.42602,54825
33.43413,60512
33.44227,55166
33.45038,57211
33.45850,61470
33.46663,56337
33.47475,56387
33.48288,60489
33.49100,59609
33.49912,60224
33.50725,58753
33.51537,54381
33.52348,62148
33.53162,54665
33.53973,58762
33.54787,63454
33.55598,61289
33.56410,56095
33.57223,62540
33.58035,56266
33.58848,55076
33.59660,57240
33.60472,65323
33.61285,57175
33.62097,53936
33.62910,59824
33.63722,57745
33.64533,52800
33.65347,55513
33.66158,53915
33.66970,51892
33.67783,54269
33.68595,57124
33.69408,56362
33.70220,60292
33.71032,55040
33.71845,49396
33.72657,57607
33.73470,51481
33.74282,51455
33.75093,53539
33.75907,51126
33.76718,52781
33.77532,54302
33.78343,57779
33.79155,61060
33.79968,53119
33.80780,58657
33.81592,57253
33.82405,61038
33.83217,60551
33.84030,57183
33.84842,66679
33.85653,63413
33.86467,62247
33.87278,64679
33.88092,62152
33.88903,65665
33.89715,60215
33.90528,63560
33.91340,65510
33.92152,59068
33.92965,57018
33.93777,59774
33.94590,56083
33.95402,64702
33.96213,60601
33.97027,61504
33.97838,61187
33.98652,56121
33.99463,59059
34.00275,58178
34.01088,54786
34.01900,55964
34.02713,54830
34.03525,58078
34.04337,60178
34.05150,57466
34.05962,59085
34.06773,57070
34.07587,55253
34.08398,53498
34.09212,55242
34.10023,59476
34.10835,57839
34.11648,57599
34.12460,60912
34.13273,59505
34.14085,61218
34.14897,58922
34.15710,58458
34.16522,65080
34.17333,55923
34.18147,62464
34.18958,55363
34.19772,57659
34.20583,58644
34.21395,53280
34.22208,59666
34.23020,59691
34.23833,59137
34.24645,60181
34.25457,64778
34.26270,60475
34.27082,57810
34.27895,57137
34.28707,55650
34.29518,66775
34.30332,64326
34.31143,72412
34.31955,65459
34.32768,61923
34.33580,64797
34.34393,66416
34.35205,62736
34.36017,65432
34.36830,67618
34.37642,65767
34.38455,63501
34.39267,63897
34.40078,62726
34.40892,60446
34.41703,63360
34.42517,58937
34.43328,63772
34.44140,64620
34.44953,59868
34.45765,59152
34.46577,58651
34.47390,59386
34.48202,61415
34.49015,61490
34.49827,62634
34.50638,69270
34.51452,72509
34.52263,81005
34.53077,113792
34.53888,134161
34.54700,186199
34.55513,228390
34.56325,260173
34.57137,282716
34.57950,287667
34.58762,266895
34.59575,243665
34.60387,211841
34.61198,180040
34.62012,165211
34.62823,144614
34.63637,131462
34.64448,116244
34.65260,109799
34.66073,105033
34.66885,100999
34.67698,96634
34.68510,91414
34.69322,83533
34.70135,93728
34.70947,90687
34.71758,81573
34.72572,77799
34.73383,82019
34.74197,88703
34.75008,84485
34.75820,88873
34.76633,86748
34.77445,79977
34.78258,82565
34.79070,76747
34.79882,74792
34.80695,74859
34.81507,71061
34.82320,76328
34.83132,70867
34.83943,69940
34.84757,71735
34.85568,68832
34.86380,69577
34.87193,66992
34.88005,71200
34.88818,72161
34.89630,69242
34.90442,69734
34.91255,72722
34.92067,67995
34.92880,69032
34.93692,71889
34.94503,72615
34.95317,77949
34.96128,76644
34.96940,81119
34.97753,84511
34.98565,88225
34.99378,87426
35.00190,86780
35.01002,84769
35.01815,86560
35.02627,79561
35.03440,77731
35.04252,77216
35.05063,75341
35.05877,73106
35.06688,72948
35.07502,78321
35.08313,78509
35.09125,71572
35.09938,80171
35.10750,72946
35.11562,75088
35.12375,74350
35.13187,78083
35.14000,94973
35.14812,102245
35.15623,111754
35.16437,120503
35.17248,131538
35.18062,121980
35.18873,111660
35.19685,100573
35.20498,92911
35.21310,83777
35.22122,76842
35.22935,75166
35.23747,75615
35.24560,68595
35.25372,63336
35.26183,70668
35.26997,72574
35.27808,71932
35.28622,67430
35.29433,67003
35.30245,68108
35.31058,69714
35.31870,62647
35.32683,68001
35.33495,63655
35.34307,63741
35.35120,67105
35.35932,63399
35.36743,62903
35.37557,61847
35.38368,69042
35.39182,65685
35.39993,61047
35.40805,65906
35.41618,62217
35.42430,62914
35.43243,64953
35.44055,63694
35.44867,71990
35.45680,68581
35.46492,74204
35.47305,75825
35.48117,75667
35.48928,79443
35.49742,73590
35.50553,76866
35.51365,76439
35.52178,71428
35.52990,68005
35.53803,65022
35.54615,61737
35.55427,67179
35.56240,64722
35.57052,64505
35.57865,68822
35.58677,68187
35.59488,75580
35.60302,71337
35.61113,68224
35.61925,73296
35.62738,73731
35.63550,70027
35.64363,67678
35.65175,73943
35.65987,68698
35.66800,70586
35.67612,75642
35.68425,75843
35.69237,84731
35.70048,92607
35.70862,94226
35.71673,87917
35.72487,85093
35.73298,79756
35.74110,82198
35.74923,71480
35.75735,72341
35.76547,73945
35.77360,68579
35.78172,75929
35.78985,70559
35.79797,68929
35.80608,68145
35.81422,67018
35.82233,68862
35.83047,77156
35.83858,73118
35.84670,76562
35.85483,71294
35.86295,68357
35.87108,74881
35.87920,74001
35.88732,72684
35.89545,66998
35.90357,68782
35.91168,65098
35.91982,67675
35.92793,68680
35.93607,66637
35.94418,67129
35.95230,68712
35.96043,67970
35.96855,66726
35.97668,68850
35.98480,70552
35.99292,69285
36.00105,72984
36.00917,72604
36.01728,76973
36.02542,79493
36.03353,82436
36.04167,82302
36.04978,78955
36.05790,81291
36.06603,73431
36.07415,69808
36.08228,68676
36.09040,71413
36.09852,71152
36.10665,65620
36.11477,70614
36.12290,68258
36.13102,69881
36.13913,73705
36.14727,77140
36.15538,70019
36.16350,71330
36.17163,75216
36.17975,76520
36.18788,72119
36.19600,76006
36.20412,74143
36.21225,73808
36.22037,76122
36.22850,82673
36.23662,75730
36.24473,78371
36.25287,69178
36.26098,69787
36.26912,71015
36.27723,74869
36.28535,63515
36.29348,69309
36.30160,74663
36.30972,85968
36.31785,96308
36.32597,115291
36.33410,118301
36.34222,125003
36.35033,117062
36.35847,106843
36.36658,103728
36.37472,98187
36.38283,94208
36.39095,99411
36.39908,101214
36.40720,97337
36.41532,93735
36.42345,90099
36.43157,83814
36.43970,84522
36.44782,76593
36.45593,75175
36.46407,69623
36.47218,70939
36.48032,63450
36.48843,68019
36.49655,71738
36.50468,61896
36.51280,70490
36.52093,74815
36.52905,67446
36.53717,62074
36.54530,65526
36.55342,67486
36.56153,70245
36.56967,68202
36.57778,70776
36.58592,66442
36.59403,68663
36.60215,69298
36.61028,69012
36.61840,69873
36.62653,68902
36.63465,67412
36.64277,72993
36.65090,68006
36.65902,67845
36.66713,68810
36.67527,74969
36.68338,72911
36.69152,76241
36.69963,75933
36.70775,74883
36.71588,75169
36.72400,75426
36.73213,68839
36.74025,68862
36.74837,71927
36.75650,73019
36.76462,66303
36.77275,64120
36.78087,63292
36.78898,67426
36.79712,65578
36.80523,70451
36.81335,66054
36.82148,66653
36.82960,67301
36.83773,71152
36.84585,71369
36.85397,68735
36.86210,68314
36.87022,66846
36.87835,68358
36.88647,68942
36.89458,64520
36.90272,60625
36.91083,66864
36.91897,65473
36.92708,61499
36.93520,66336
36.94333,66526
36.95145,63332
36.95957,66834
36.96770,63303
36.97582,64086
36.98395,70567
36.99207,65975
37.00018,63608
37.00832,61177
37.01643,66877
37.02457,62633
37.03268,63825
37.04080,69985
37.04893,65632
37.05705,66946
37.06517,71639
37.07330,71558
37.08142,67488
37.08955,66140
37.09767,70744
37.10578,68168
37.11392,69789
37.12203,62454
37.13017,64378
37.13828,70421
37.14640,68720
37.15453,66924
37.16265,69856
37.17078,69630
37.17890,69015
37.18702,72155
37.19515,71650
37.20327,73013
37.21138,73991
37.21952,71767
37.22763,77066
37.23577,67973
37.24388,75148
37.25200,65085
37.26013,69213
37.26825,68456
37.27638,69785
37.28450,77291
37.29262,72640
37.30075,67092
37.30887,66080
37.31700,76209
37.32512,81787
37.33323,85123
37.34137,106150
37.34948,123828
37.35760,157906
37.36573,190634
37.37385,206893
37.38198,201589
37.39010,187656
37.39822,172603
37.40635,155530
37.41447,146345
37.42260,135657
37.43072,122586
37.43883,119072
37.44697,104209
37.45508,96217
37.46320,100824
37.47133,104146
37.47945,99805
37.48758,97970
