C:\MassHunter\GCMS\1\data\JTB-E02\BACandBLUE\JTB-E18-010-13.D Fri May 17 15:29:16 2019
Start of data points
2.09540,77403
2.10352,76078
2.11165,77827
2.11977,78854
2.12788,82621
2.13602,77783
2.14413,74300
2.15225,76036
2.16038,72725
2.16850,76810
2.17663,73321
2.18475,74825
2.19287,84405
2.20100,76564
2.20912,74846
2.21725,70840
2.22537,73892
2.23348,70156
2.24162,67921
2.24973,74023
2.25785,70982
2.26598,94978
2.27410,534267
2.28223,1518030
2.29035,928416
2.29847,408876
2.30660,285086
2.31472,241489
2.32285,220743
2.33097,210107
2.33908,218335
2.34722,190136
2.35533,169686
2.36347,153344
2.37158,147550
2.37970,145301
2.38783,138716
2.39595,141791
2.40407,134014
2.41220,133966
2.42032,132788
2.42845,135549
2.43657,127122
2.44468,127037
2.45282,123390
2.46093,120470
2.46907,124757
2.47718,120473
2.48530,119936
2.49343,153634
2.50155,158968
2.50968,133169
2.51780,120148
2.52592,117535
2.53405,117629
2.54217,120283
2.55028,114636
2.55842,143699
2.56653,167859
2.57467,146363
2.58278,124741
2.59090,123590
2.59903,125782
2.60715,242558
2.61528,602035
2.62340,536568
2.63152,315235
2.63965,220346
2.64777,181118
2.65588,165106
2.66402,152898
2.67213,136313
2.68027,134077
2.68838,127234
2.69650,123526
2.70463,115113
2.71275,121227
2.72088,110665
2.72900,112633
2.73712,118539
2.74525,107732
2.75337,109326
2.76150,107078
2.76962,103595
2.77773,139330
2.78587,317803
2.79398,472931
2.80210,318730
2.81023,213761
2.81835,192170
2.82648,189931
2.83460,162852
2.84272,156563
2.85085,144865
2.85897,139264
2.86710,132435
2.87522,124667
2.88333,122499
2.89147,124154
2.89958,122246
2.90772,117803
2.91583,115927
2.92395,111211
2.93208,112292
2.94020,107680
2.94832,108785
2.95645,109596
2.96457,105351
2.97270,108107
2.98082,109580
2.98893,97918
2.99707,109305
3.00518,107283
3.01332,113273
3.02143,108590
3.02955,101737
3.03768,103876
3.04580,103270
3.05392,103992
3.06205,104380
3.07017,109406
3.07830,113635
3.08642,199229
3.09453,501634
3.10267,1324989
3.11078,3091388
3.11892,3582821
3.12703,2274287
3.13515,1434638
3.14328,1089195
3.15140,878594
3.15953,720808
3.16765,599852
3.17577,529814
3.18390,552129
3.19202,897137
3.20013,1257871
3.20827,1057228
3.21638,758793
3.22452,611881
3.23263,513684
3.24075,451143
3.24888,399985
3.25700,352176
3.26513,317441
3.27325,302045
3.28137,295316
3.28950,424425
3.29762,1192193
3.30573,3032632
3.31387,4744536
3.32198,4563604
3.33012,3138740
3.33823,1954417
3.34635,1360473
3.35448,1032688
3.36260,845649
3.37073,733787
3.37885,628543
3.38697,570995
3.39510,514602
3.40322,472257
3.41135,450742
3.41947,428538
3.42758,405035
3.43572,399927
3.44383,389392
3.45195,375235
3.46008,367260
3.46820,364695
3.47633,354888
3.48445,368679
3.49257,343807
3.50070,338512
3.50882,326413
3.51695,311006
3.52507,314751
3.53318,313317
3.54132,327422
3.54943,332055
3.55757,316500
3.56568,295389
3.57380,297101
3.58193,295959
3.59005,294499
3.59817,286730
3.60630,274941
3.61442,286383
3.62255,295177
3.63067,285792
3.63878,297881
3.64692,284210
3.65503,295648
3.66317,517603
3.67128,2205171
3.67940,6284552
3.68753,8820195
3.69565,6598430
3.70377,3822155
3.71190,2605281
3.72002,2046370
3.72815,1739181
3.73627,1496668
3.74438,1357198
3.75252,1210460
3.76063,1110323
3.76877,1024008
3.77688,951720
3.78500,871238
3.79313,842991
3.80125,860029
3.80938,1180573
3.81750,1874216
3.82562,2089837
3.83375,1649470
3.84187,1190425
3.84998,990665
3.85812,893106
3.86623,805880
3.87437,740847
3.88248,700443
3.89060,664539
3.89873,624169
3.90685,601000
3.91498,601445
3.92310,648454
3.93122,756147
3.93935,759141
3.94747,686644
3.95560,728759
3.96372,985085
3.97183,1226218
3.97997,1105322
3.98808,817445
3.99620,653808
4.00433,774379
4.01245,1151102
4.02058,1406963
4.02870,1233649
4.03682,859006
4.04495,623738
4.05307,513268
4.06120,458106
4.06932,429890
4.07743,404663
4.08557,385027
4.09368,385863
4.10180,375134
4.10993,363725
4.11805,351056
4.12618,344931
4.13430,337683
4.14242,360485
4.15055,380268
4.15867,388963
4.16680,371635
4.17492,370140
4.18303,365286
4.19117,347343
4.19928,332849
4.20742,477341
4.21553,1542477
4.22365,5263198
4.23178,1.120498E+07
4.23990,1.484209E+07
4.24802,1.328573E+07
4.25615,8442880
4.26427,4996575
4.27240,3370794
4.28052,2487985
4.28863,1878025
4.29677,1505155
4.30488,1237054
4.31302,1059559
4.32113,930842
4.32925,836171
4.33738,764973
4.34550,695588
4.35362,664962
4.36175,641871
4.36987,645763
4.37800,613591
4.38612,579164
4.39423,537500
4.40237,500745
4.41048,475612
4.41862,461988
4.42673,452762
4.43485,424363
4.44298,420802
4.45110,399011
4.45923,385236
4.46735,390107
4.47547,375830
4.48360,362595
4.49172,365387
4.49983,360206
4.50797,348711
4.51608,343486
4.52422,343758
4.53233,330705
4.54045,323545
4.54858,342041
4.55670,325571
4.56483,328311
4.57295,310345
4.58107,309504
4.58920,290613
4.59732,293720
4.60545,293501
4.61357,293263
4.62168,297218
4.62982,347633
4.63793,456270
4.64605,541455
4.65418,548910
4.66230,449241
4.67043,376186
4.67855,336527
4.68667,316881
4.69480,292283
4.70292,282201
4.71105,274449
4.71917,277844
4.72728,271390
4.73542,275372
4.74353,270156
4.75167,258343
4.75978,253642
4.76790,250605
4.77603,249571
4.78415,264548
4.79227,377306
4.80040,712335
4.80852,1103186
4.81665,1204139
4.82477,971114
4.83288,729981
4.84102,608804
4.84913,562027
4.85727,521494
4.86538,473732
4.87350,398673
4.88163,385206
4.88975,351408
4.89787,331012
4.90600,325087
4.91412,312253
4.92225,310779
4.93037,326685
4.93848,442234
4.94662,890190
4.95473,1777714
4.96287,2891927
4.97098,3418859
4.97910,3035500
4.98723,2201757
4.99535,1457732
5.00348,1003040
5.01160,756391
5.01972,641142
5.02785,600394
5.03597,606676
5.04408,657511
5.05222,657503
5.06033,602996
5.06847,516778
5.07658,480200
5.08470,450870
5.09283,434513
5.10095,411597
5.10908,412558
5.11720,392741
5.12532,383485
5.13345,369333
5.14157,366890
5.14968,358748
5.15782,395479
5.16593,429296
5.17407,460660
5.18218,429865
5.19030,402295
5.19843,392568
5.20655,401215
5.21468,398816
5.22280,396977
5.23092,372439
5.23905,383491
5.24717,364252
5.25530,339946
5.26342,323161
5.27153,304339
5.27967,291828
5.28778,280594
5.29590,282691
5.30403,278149
5.31215,270912
5.32028,268222
5.32840,276840
5.33652,277619
5.34465,288455
5.35277,286970
5.36090,269017
5.36902,272849
5.37713,264053
5.38527,258412
5.39338,268645
5.40152,267125
5.40963,266368
5.41775,264675
5.42588,248955
5.43400,253590
5.44212,252211
5.45025,242690
5.45837,257552
5.46650,252037
5.47462,246122
5.48273,231883
5.49087,229776
5.49898,231957
5.50712,241946
5.51523,235306
5.52335,240271
5.53148,238402
5.53960,238938
5.54772,234496
5.55585,242062
5.56397,257195
5.57210,288555
5.58022,318871
5.58833,311576
5.59647,279718
5.60458,254578
5.61272,243288
5.62083,222302
5.62895,225923
5.63708,232980
5.64520,233993
5.65333,226443
5.66145,224397
5.66957,228909
5.67770,239507
5.68582,261485
5.69393,295024
5.70207,296517
5.71018,269613
5.71832,250945
5.72643,236310
5.73455,222312
5.74268,216033
5.75080,214202
5.75893,215858
5.76705,204118
5.77517,206329
5.78330,198219
5.79142,199924
5.79955,200553
5.80767,198208
5.81578,194456
5.82392,198734
5.83203,196657
5.84015,203347
5.84828,202361
5.85640,199455
5.86453,190274
5.87265,195186
5.88077,187091
5.88890,195051
5.89702,191885
5.90515,198464
5.91327,171617
5.92138,149426
5.92952,138665
5.93763,142167
5.94575,150521
5.95388,169587
5.96200,188303
5.97013,215905
5.97825,244109
5.98637,284088
5.99450,308421
6.00262,307150
6.01075,258156
6.01887,212610
6.02698,179205
6.03512,167212
6.04323,153665
6.05137,150629
6.05948,135128
6.06760,134012
6.07573,138516
6.08385,136984
6.09197,130070
6.10010,136713
6.10822,133081
6.11635,144081
6.12447,160323
6.13258,203022
6.14072,287493
6.14883,375916
6.15697,390169
6.16508,334129
6.17320,274368
6.18133,218567
6.18945,194199
6.19757,192230
6.20570,184122
6.21382,176627
6.22195,176911
6.23007,175095
6.23818,180636
6.24632,169836
6.25443,166930
6.26257,175039
6.27068,172956
6.27880,168984
6.28693,164570
6.29505,158523
6.30318,166434
6.31130,174025
6.31942,167751
6.32755,179628
6.33567,195781
6.34378,207249
6.35192,216654
6.36003,189496
6.36817,183788
6.37628,181115
6.38440,176325
6.39253,174708
6.40065,178177
6.40878,178304
6.41690,178560
6.42502,172910
6.43315,169836
6.44127,174838
6.44940,170095
6.45752,175205
6.46563,177627
6.47377,178376
6.48188,177826
6.49000,179769
6.49813,176780
6.50625,177998
6.51438,178357
6.52250,182289
6.53062,182357
6.53875,189665
6.54687,180383
6.55500,175923
6.56312,184985
6.57123,198976
6.57937,220617
6.58748,234957
6.59560,234371
6.60373,216604
6.61185,206766
6.61998,200272
6.62810,203380
6.63622,195300
6.64435,189342
6.65247,209543
6.66060,241120
6.66872,310385
6.67683,342856
6.68497,329498
6.69308,295907
6.70122,243163
6.70933,224414
6.71745,216997
6.72558,213983
6.73370,191664
6.74182,174215
6.74995,161785
6.75807,159882
6.76620,156447
6.77432,151404
6.78243,156277
6.79057,159585
6.79868,154521
6.80682,147664
6.81493,147609
6.82305,141904
6.83118,134012
6.83930,133309
6.84743,139644
6.85555,135844
6.86367,132383
6.87180,118316
6.87992,103251
6.88803,99044
6.89617,93461
6.90428,86980
6.91242,83628
6.92053,86215
6.92865,81361
6.93678,79423
6.94490,82157
6.95303,82384
6.96115,87814
6.96927,93027
6.97740,101943
6.98552,115153
6.99363,117496
7.00177,105504
7.00988,93635
7.01802,90680
7.02613,92625
7.03425,82368
7.04238,87068
7.05050,84866
7.05863,78490
7.06675,83957
7.07487,82151
7.08300,82945
7.09112,83208
7.09925,77434
7.10737,73944
7.11548,74953
7.12362,79974
7.13173,73808
7.13985,77938
7.14798,91699
7.15610,124940
7.16423,156576
7.17235,161742
7.18047,147841
7.18860,133926
7.19672,119752
7.20485,172155
7.21297,411594
7.22108,1009128
7.22922,1784356
7.23733,2333825
7.24547,2077796
7.25358,1404165
7.26170,798968
7.26983,481316
7.27795,318866
7.28607,230211
7.29420,151507
7.30232,115618
7.31045,110640
7.31857,109672
7.32668,114391
7.33482,117243
7.34293,114993
7.35107,109167
7.35918,105440
7.36730,99894
7.37543,92914
7.38355,88299
7.39167,98145
7.39980,88117
7.40792,90789
7.41605,90838
7.42417,86381
7.43228,89626
7.44042,83669
7.44853,85057
7.45667,86039
7.46478,85751
7.47290,89618
7.48103,78907
7.48915,77350
7.49728,78553
7.50540,76973
7.51352,81933
7.52165,86746
7.52977,105500
7.53788,149135
7.54602,210947
7.55413,285807
7.56227,339978
7.57038,369047
7.57850,318898
7.58663,257270
7.59475,194692
7.60288,146380
7.61100,116845
7.61912,99684
7.62725,91433
7.63537,85242
7.64348,84019
7.65162,81194
7.65973,81538
7.66787,76639
7.67598,73863
7.68410,78816
7.69223,73425
7.70035,71636
7.70848,78663
7.71660,83567
7.72472,79421
7.73285,76642
7.74097,73644
7.74910,75156
7.75722,76104
7.76533,72279
7.77347,72055
7.78158,77550
7.78970,77456
7.79783,79443
7.80595,87706
7.81408,89862
7.82220,94946
7.83032,84991
7.83845,80627
7.84657,77199
7.85470,75494
7.86282,79224
7.87093,95041
7.87907,97435
7.88718,112059
7.89532,116654
7.90343,116610
7.91155,103906
7.91968,93069
7.92780,94613
7.93592,106863
7.94405,111124
7.95217,131479
7.96030,125630
7.96842,114930
7.97653,97533
7.98467,92459
7.99278,84501
8.00092,73187
8.00903,79015
8.01715,67688
8.02528,68679
8.03340,67692
8.04152,69840
8.04965,68091
8.05777,68710
8.06590,65478
8.07402,62114
8.08213,68529
8.09027,62026
8.09838,64360
8.10652,62484
8.11463,65501
8.12275,66906
8.13088,74322
8.13900,77069
8.14713,85995
8.15525,91369
8.16337,95726
8.17150,84383
8.17962,79709
8.18773,71991
8.19587,68744
8.20398,65870
8.21212,68587
8.22023,69194
8.22835,67057
8.23648,64591
8.24460,65912
8.25273,62051
8.26085,68013
8.26897,66141
8.27710,63872
8.28522,62096
8.29335,67097
8.30147,64820
8.30958,64241
8.31772,71597
8.32583,67020
8.33395,68877
8.34208,72505
8.35020,65499
8.35833,60880
8.36645,61787
8.37457,65680
8.38270,62061
8.39082,68152
8.39895,67272
8.40707,62665
8.41518,64518
8.42332,63500
8.43143,66903
8.43955,61456
8.44768,60696
8.45580,65421
8.46393,61315
8.47205,60178
8.48017,59674
8.48830,60354
8.49642,57132
8.50455,58668
8.51267,72488
8.52078,120999
8.52892,263232
8.53703,584848
8.54517,1007033
8.55328,1265544
8.56140,1191733
8.56953,867034
8.57765,507583
8.58577,277584
8.59390,166698
8.60202,133151
8.61015,119192
8.61827,113644
8.62638,109879
8.63452,101260
8.64263,99148
8.65077,87392
8.65888,88803
8.66700,83031
8.67513,81805
8.68325,77862
8.69137,78434
8.69950,80029
8.70762,83994
8.71575,80744
8.72387,73408
8.73198,70967
8.74012,74457
8.74823,76023
8.75637,95516
8.76448,176435
8.77260,325370
8.78073,597131
8.78885,861120
8.79698,953882
8.80510,818907
8.81322,587098
8.82135,372908
8.82947,247652
8.83758,183862
8.84572,156434
8.85383,162233
8.86197,151926
8.87008,150368
8.87820,138536
8.88633,139231
8.89445,135329
8.90258,130061
8.91070,130028
8.91882,124988
8.92695,131743
8.93507,139791
8.94320,153821
8.95132,169197
8.95943,163982
8.96757,155908
8.97568,134304
8.98380,134056
8.99193,132434
9.00005,126281
9.00818,120426
9.01630,117119
9.02442,115297
9.03255,108071
9.04067,105918
9.04880,101335
9.05692,100548
9.06503,103010
9.07317,100109
9.08128,99625
9.08940,92510
9.09753,100958
9.10565,104805
9.11378,114413
9.12190,120658
9.13002,118456
9.13815,113010
9.14627,112757
9.15440,109721
9.16252,98497
9.17063,95127
9.17877,90557
9.18688,93555
9.19502,91305
9.20313,88447
9.21125,88784
9.21938,84966
9.22750,86423
9.23562,81760
9.24375,89115
9.25187,86725
9.26000,90591
9.26812,85008
9.27623,81426
9.28437,79729
9.29248,80172
9.30062,77229
9.30873,84568
9.31685,81634
9.32498,75789
9.33310,76291
9.34123,73329
9.34935,75001
9.35747,74051
9.36560,75718
9.37372,72865
9.38183,77012
9.38997,75561
9.39808,81385
9.40622,81847
9.41433,76550
9.42245,87824
9.43058,98916
9.43870,102331
9.44683,105257
9.45495,99558
9.46307,97976
9.47120,88914
9.47932,81225
9.48743,74642
9.49557,78374
9.50368,83380
9.51182,90683
9.51993,100725
9.52805,111658
9.53618,111672
9.54430,103477
9.55243,91037
9.56055,82341
9.56867,76158
9.57680,83446
9.58492,90670
9.59305,101272
9.60117,110319
9.60928,101161
9.61742,83650
9.62553,73633
9.63365,60708
9.64178,50912
9.64990,53808
9.65803,50422
9.66615,52688
9.67427,50470
9.68240,52994
9.69052,43264
9.69865,47312
9.70677,44495
9.71488,45020
9.72302,47723
9.73113,48800
9.73925,44029
9.74738,43352
9.75550,44892
9.76363,46144
9.77175,42477
9.77987,42313
9.78800,47930
9.79612,46028
9.80425,44295
9.81237,45016
9.82048,48675
9.82862,45810
9.83673,42939
9.84487,45518
9.85298,46649
9.86110,43402
9.86923,50163
9.87735,49699
9.88547,45271
9.89360,42880
9.90172,44896
9.90985,44610
9.91797,44176
9.92608,48128
9.93422,54163
9.94233,70032
9.95047,81188
9.95858,96514
9.96670,108870
9.97483,108083
9.98295,92236
9.99108,75933
9.99920,68809
10.00732,62616
10.01545,63354
10.02357,63483
10.03168,59525
10.03982,55273
10.04793,55842
10.05607,54094
10.06418,53346
10.07230,55526
10.08043,57349
10.08855,56298
10.09668,52003
10.10480,54133
10.11292,53388
10.12105,47030
10.12917,49588
10.13730,48255
10.14542,51646
10.15353,46536
10.16167,47579
10.16978,54236
10.17790,43527
10.18603,44094
10.19415,43717
10.20228,44506
10.21040,48303
10.21852,46715
10.22665,49348
10.23477,51882
10.24290,56051
10.25102,65072
10.25913,96134
10.26727,223210
10.27538,588250
10.28350,1363301
10.29163,2576656
10.29975,4211718
10.30788,6096092
10.31600,8969247
10.32412,1.352331E+07
10.33225,1.997202E+07
10.34037,2.5954E+07
10.34850,2.925776E+07
10.35662,2.653654E+07
10.36473,1.775792E+07
10.37287,8909073
10.38098,3799297
10.38912,1933440
10.39723,1240261
10.40535,946112
10.41348,785078
10.42160,665753
10.42972,583506
10.43785,513764
10.44597,473150
10.45410,444721
10.46222,414058
10.47033,386837
10.47847,347801
10.48658,324404
10.49472,311183
10.50283,299575
10.51095,283486
10.51908,272289
10.52720,265440
10.53532,248568
10.54345,259316
10.55157,255079
10.55970,252985
10.56782,231767
10.57593,217824
10.58407,210671
10.59218,203988
10.60032,199898
10.60843,187018
10.61655,182298
10.62468,172807
10.63280,165726
10.64093,157840
10.64905,158697
10.65717,146733
10.66530,146213
10.67342,142806
10.68153,144429
10.68967,140556
10.69778,139252
10.70592,137748
10.71403,128158
10.72215,135032
10.73028,125133
10.73840,127877
10.74653,127997
10.75465,115973
10.76277,115673
10.77090,112607
10.77902,109168
10.78713,106265
10.79527,108538
10.80338,110528
10.81152,107319
10.81963,104981
10.82775,107888
10.83588,102430
10.84400,99505
10.85213,96073
10.86025,91920
10.86837,94254
10.87650,89129
10.88462,82859
10.89275,88249
10.90087,95471
10.90898,82686
10.91712,85246
10.92523,84682
10.93335,79487
10.94148,80986
10.94960,77284
10.95773,78284
10.96585,81093
10.97397,78923
10.98210,73197
10.99022,74014
10.99835,78622
11.00647,76348
11.01458,74971
11.02272,71304
11.03083,70526
11.03897,71264
11.04708,71958
11.05520,70070
11.06333,65166
11.07145,70039
11.07957,78576
11.08770,69141
11.09582,71937
11.10395,69308
11.11207,64074
11.12018,60180
11.12832,59089
11.13643,52014
11.14457,48595
11.15268,48702
11.16080,48813
11.16893,47938
11.17705,54743
11.18518,57118
11.19330,61832
11.20142,57827
11.20955,59103
11.21767,54919
11.22578,55784
11.23392,48687
11.24203,43973
11.25017,44189
11.25828,44699
11.26640,43964
11.27453,42282
11.28265,44008
11.29078,43248
11.29890,49809
11.30702,54443
11.31515,70733
11.32327,106813
11.33138,151539
11.33952,205434
11.34763,235329
11.35577,249792
11.36388,219599
11.37200,171013
11.38013,130939
11.38825,100240
11.39638,83523
11.40450,80875
11.41262,74144
11.42075,67333
11.42887,65977
11.43700,64289
11.44512,56927
11.45323,53353
11.46137,52941
11.46948,57348
11.47760,67540
11.48573,90079
11.49385,116443
11.50198,139480
11.51010,143634
11.51822,144652
11.52635,130529
11.53447,121144
11.54260,113495
11.55072,107350
11.55883,99602
11.56697,93274
11.57508,79700
11.58320,74840
11.59133,72693
11.59945,91993
11.60758,127002
11.61570,157528
11.62382,180938
11.63195,170319
11.64007,153772
11.64820,121925
11.65632,93816
11.66443,73320
11.67257,63606
11.68068,62600
11.68882,59902
11.69693,59583
11.70505,59354
11.71318,60086
11.72130,54636
11.72942,62178
11.73755,56100
11.74567,55343
11.75380,54245
11.76192,47343
11.77003,45458
11.77817,46118
11.78628,46349
11.79442,47310
11.80253,43918
11.81065,45775
11.81878,41151
11.82690,42424
11.83503,44910
11.84315,45520
11.85127,42900
11.85940,42906
11.86752,41158
11.87563,43775
11.88377,42889
11.89188,42219
11.90002,43944
11.90813,45002
11.91625,48286
11.92438,50296
11.93250,52572
11.94063,57659
11.94875,49685
11.95687,47669
11.96500,42328
11.97312,45227
11.98123,44431
11.98937,52223
11.99748,66908
12.00562,85239
12.01373,95855
12.02185,117669
12.02998,94877
12.03810,80231
12.04623,66531
12.05435,58442
12.06247,58002
12.07060,49129
12.07872,45831
12.08685,45444
12.09497,47263
12.10308,46982
12.11122,46627
12.11933,46715
12.12745,55418
12.13558,54871
12.14370,56723
12.15183,57771
12.15995,54749
12.16807,46758
12.17620,50507
12.18432,46302
12.19245,49299
12.20057,45026
12.20868,46068
12.21682,44574
12.22493,42871
12.23307,42369
12.24118,44250
12.24930,45485
12.25743,43275
12.26555,42799
12.27367,52938
12.28180,43011
12.28992,41197
12.29805,40523
12.30617,45594
12.31428,38937
12.32242,39479
12.33053,40499
12.33867,47205
12.34678,37788
12.35490,48116
12.36303,36982
12.37115,39788
12.37927,41404
12.38740,42533
12.39552,45823
12.40365,46763
12.41177,55182
12.41988,66821
12.42802,67131
12.43613,73520
12.44427,71236
12.45238,67844
12.46050,55727
12.46863,51014
12.47675,52849
12.48488,46544
12.49300,49570
12.50112,45484
12.50925,44968
12.51737,45906
12.52548,57342
12.53362,87178
12.54173,166465
12.54987,339739
12.55798,600810
12.56610,871280
12.57423,964001
12.58235,850705
12.59048,618506
12.59860,380294
12.60672,240250
12.61485,160126
12.62297,124062
12.63108,107437
12.63922,95117
12.64733,87390
12.65547,77504
12.66358,76386
12.67170,70198
12.67983,72946
12.68795,69882
12.69608,59649
12.70420,62585
12.71232,54573
12.72045,59694
12.72857,61537
12.73670,60554
12.74482,60345
12.75293,60529
12.76107,54724
12.76918,54132
12.77730,53069
12.78543,48675
12.79355,47054
12.80168,48506
12.80980,45522
12.81792,40732
12.82605,46565
12.83417,45748
12.84230,41153
12.85042,42909
12.85853,49339
12.86667,40315
12.87478,40509
12.88292,41893
12.89103,39046
12.89915,42252
12.90728,36987
12.91540,37876
12.92352,38976
12.93165,36711
12.93977,38391
12.94790,40444
12.95602,38194
12.96413,41508
12.97227,49601
12.98038,52601
12.98852,59746
12.99663,61414
13.00475,54152
13.01288,49540
13.02100,43136
13.02912,39583
13.03725,41811
13.04537,41480
13.05350,39981
13.06162,42120
13.06973,39921
13.07787,42384
13.08598,39245
13.09412,40873
13.10223,46058
13.11035,40421
13.11848,41540
13.12660,39953
13.13473,37223
13.14285,37969
13.15097,40061
13.15910,41695
13.16722,42070
13.17533,44361
13.18347,43823
13.19158,43364
13.19972,45288
13.20783,49300
13.21595,45166
13.22408,50299
13.23220,45930
13.24033,41981
13.24845,40754
13.25657,41375
13.26470,40192
13.27282,41376
13.28095,40994
13.28907,35689
13.29718,38915
13.30532,38674
13.31343,37834
13.32155,37167
13.32968,37229
13.33780,35134
13.34593,32673
13.35405,33958
13.36217,32430
13.37030,32568
13.37842,32656
13.38655,37792
13.39467,34978
13.40278,35637
13.41092,35306
13.41903,34829
13.42715,36103
13.43528,35375
13.44340,33239
13.45153,32443
13.45965,36499
13.46777,36765
13.47590,35630
13.48402,34606
13.49215,36290
13.50027,34908
13.50838,36479
13.51652,38274
13.52463,38573
13.53277,40441
13.54088,38475
13.54900,38255
13.55713,38083
13.56525,36976
13.57337,37796
13.58150,35256
13.58962,39244
13.59775,42334
13.60587,50864
13.61398,54516
13.62212,57404
13.63023,60219
13.63837,55085
13.64648,52897
13.65460,45087
13.66273,40448
13.67085,40070
13.67898,37016
13.68710,32168
13.69522,35606
13.70335,34938
13.71147,38692
13.71958,37386
13.72772,33302
13.73583,41578
13.74397,51608
13.75208,81472
13.76020,133862
13.76833,231579
13.77645,328010
13.78458,442557
13.79270,490700
13.80082,487888
13.80895,449085
13.81707,376746
13.82518,320785
13.83332,292031
13.84143,273096
13.84957,248692
13.85768,219977
13.86580,172985
13.87393,147910
13.88205,126490
13.89018,108844
13.89830,92059
13.90642,90438
13.91455,81594
13.92267,79940
13.93080,79493
13.93892,76053
13.94703,78568
13.95517,73623
13.96328,74288
13.97140,80639
13.97953,85243
13.98765,84876
13.99578,91033
14.00390,85798
14.01202,88757
14.02015,85008
14.02827,83580
14.03640,78194
14.04452,70532
14.05263,72288
14.06077,78401
14.06888,75279
14.07700,70342
14.08513,66508
14.09325,71072
14.10138,66404
14.10950,64876
14.11762,66221
14.12575,66022
14.13387,67814
14.14200,63097
14.15012,66204
14.15823,66151
14.16637,71036
14.17448,70233
14.18262,85215
14.19073,109158
14.19885,158668
14.20698,210213
14.21510,242921
14.22322,244856
14.23135,234927
14.23947,212194
14.24760,202092
14.25572,200659
14.26383,193927
14.27197,182364
14.28008,153861
14.28822,133753
14.29633,115832
14.30445,103755
14.31258,105162
14.32070,94138
14.32883,89546
14.33695,96025
14.34507,90389
14.35320,94076
14.36132,85991
14.36943,81725
14.37757,73221
14.38568,65982
14.39382,60955
14.40193,56823
14.41005,56394
14.41818,65526
14.42630,67358
14.43443,68002
14.44255,63499
14.45067,61339
14.45880,55741
14.46692,54894
14.47503,48662
14.48317,45387
14.49128,47096
14.49942,47889
14.50753,49525
14.51565,46185
14.52378,48521
14.53190,53171
14.54003,47730
14.54815,46793
14.55627,44903
14.56440,47309
14.57252,46606
14.58065,43051
14.58877,45064
14.59688,41542
14.60502,43148
14.61313,40542
14.62125,40072
14.62938,39313
14.63750,38403
14.64563,42455
14.65375,40719
14.66187,39325
14.67000,36136
14.67812,37803
14.68625,38910
14.69437,35200
14.70248,36897
14.71062,37365
14.71873,37893
14.72687,36470
14.73498,40804
14.74310,38984
14.75123,40369
14.75935,42515
14.76747,39680
14.77560,45486
14.78372,49984
14.79185,88610
14.79997,213890
14.80808,553872
14.81622,1256662
14.82433,2305845
14.83247,3406769
14.84058,3832940
14.84870,3687493
14.85683,2830243
14.86495,1928168
14.87307,1184698
14.88120,759496
14.88932,522849
14.89745,401307
14.90557,323258
14.91368,289046
14.92182,245215
14.92993,212945
14.93807,200107
14.94618,179054
14.95430,166550
14.96243,158431
14.97055,146119
14.97868,142390
14.98680,135716
14.99492,127075
15.00305,121398
15.01117,115384
15.01928,115268
15.02742,111721
15.03553,106660
15.04367,108256
15.05178,95933
15.05990,92565
15.06803,90725
15.07615,85852
15.08428,87538
15.09240,86750
15.10052,83912
15.10865,82229
15.11677,80143
15.12488,81624
15.13302,88254
15.14113,98045
15.14927,102798
15.15738,101222
15.16550,95675
15.17363,79402
15.18175,75534
15.18988,62565
15.19800,56230
15.20612,53598
15.21425,50872
15.22237,49695
15.23050,48440
15.23862,44108
15.24673,47538
15.25487,45689
15.26298,45488
15.27110,43255
15.27923,40900
15.28735,42494
15.29548,42026
15.30360,40740
15.31172,42997
15.31985,44161
15.32797,38458
15.33610,38146
15.34422,39886
15.35233,39642
15.36047,39615
15.36858,42259
15.37672,40391
15.38483,42996
15.39295,40376
15.40108,39384
15.40920,41279
15.41732,42286
15.42545,36675
15.43357,36586
15.44170,41570
15.44982,37778
15.45793,39333
15.46607,43211
15.47418,40879
15.48232,49400
15.49043,57488
15.49855,69351
15.50668,77582
15.51480,80544
15.52292,79854
15.53105,78710
15.53917,74692
15.54730,71807
15.55542,65787
15.56353,59826
15.57167,57775
15.57978,50232
15.58792,43803
15.59603,37343
15.60415,41074
15.61228,37794
15.62040,36481
15.62853,39485
15.63665,37347
15.64477,36929
15.65290,39528
15.66102,40710
15.66913,37843
15.67727,34115
15.68538,35812
15.69352,39211
15.70163,35048
15.70975,37005
15.71788,36077
15.72600,35081
15.73413,36089
15.74225,37475
15.75037,46555
15.75850,65199
15.76662,106349
15.77475,183951
15.78287,284561
15.79098,368061
15.79912,398638
15.80723,379166
15.81535,295290
15.82348,211565
15.83160,146049
15.83973,110265
15.84785,94813
15.85597,78666
15.86410,85586
15.87222,90054
15.88035,92492
15.88847,93600
15.89658,108640
15.90472,97159
15.91283,92628
15.92095,84786
15.92908,74150
15.93720,67873
15.94533,61652
15.95345,61197
15.96157,57986
15.96970,63100
15.97782,60495
15.98595,63425
15.99407,64888
16.00218,63325
16.01032,66162
16.01843,62487
16.02657,65063
16.03468,62713
16.04280,65288
16.05093,62185
16.05905,57073
16.06717,52787
16.07530,55893
16.08342,48528
16.09155,47664
16.09967,46483
16.10778,43734
16.11592,48600
16.12403,50014
16.13217,47003
16.14028,47061
16.14840,48135
16.15653,49864
16.16465,50037
16.17278,49386
16.18090,47356
16.18902,46671
16.19715,41997
16.20527,40016
16.21338,45617
16.22152,46715
16.22963,41664
16.23777,43006
16.24588,43817
16.25400,41695
16.26213,42862
16.27025,40106
16.27838,45536
16.28650,45002
16.29462,43839
16.30275,46031
16.31087,46818
16.31898,53407
16.32712,43387
16.33523,44560
16.34337,45317
16.35148,52932
16.35960,52420
16.36773,63388
16.37585,66989
16.38398,78762
16.39210,73379
16.40022,71034
16.40835,66301
16.41647,52374
16.42460,51018
16.43272,51198
16.44083,55147
16.44897,78237
16.45708,128187
16.46520,235782
16.47333,437327
16.48145,611968
16.48958,740933
16.49770,750117
16.50582,581999
16.51395,417987
16.52207,264198
16.53020,186147
16.53832,138488
16.54643,111883
16.55457,102424
16.56268,84936
16.57082,86764
16.57893,84921
16.58705,79453
16.59518,74278
16.60330,73375
16.61142,76562
16.61955,69939
16.62767,65511
16.63580,69170
16.64392,68678
16.65203,64475
16.66017,57536
16.66828,56874
16.67642,58719
16.68453,55929
16.69265,54562
16.70078,54418
16.70890,54645
16.71702,51009
16.72515,46199
16.73327,49288
16.74140,45013
16.74952,50128
16.75763,51143
16.76577,58006
16.77388,52300
16.78202,55582
16.79013,51035
16.79825,49011
16.80638,50429
16.81450,44266
16.82263,43036
16.83075,42397
16.83887,39156
16.84700,40880
16.85512,39187
16.86323,41426
16.87137,42773
16.87948,38807
16.88762,40035
16.89573,39660
16.90385,39953
16.91198,42474
16.92010,37779
16.92823,40649
16.93635,42381
16.94447,47009
16.95260,42804
16.96072,41169
16.96883,38997
16.97697,40717
16.98508,38315
16.99322,45576
17.00133,40387
17.00945,42649
17.01758,46869
17.02570,37281
17.03383,38390
17.04195,40413
17.05007,44024
17.05820,49567
17.06632,49471
17.07445,47269
17.08257,44138
17.09068,48457
17.09882,46658
17.10693,47670
17.11505,51750
17.12318,49824
17.13130,54168
17.13943,49480
17.14755,50368
17.15567,52355
17.16380,52137
17.17192,41697
17.18005,48341
17.18817,38360
17.19628,39571
17.20442,41682
17.21253,38374
17.22067,37657
17.22878,37982
17.23690,38451
17.24503,42932
17.25315,43804
17.26127,41134
17.26940,41541
17.27752,40614
17.28565,41857
17.29377,36995
17.30188,37032
17.31002,38343
17.31813,39814
17.32627,49841
17.33438,48138
17.34250,56744
17.35063,60319
17.35875,58367
17.36687,63617
17.37500,59425
17.38312,53220
17.39125,52068
17.39937,51204
17.40748,51284
17.41562,46846
17.42373,49706
17.43187,49960
17.43998,50781
17.44810,49938
17.45623,47969
17.46435,48626
17.47248,45037
17.48060,43945
17.48872,42910
17.49685,40392
17.50497,38919
17.51308,42856
17.52122,40759
17.52933,41664
17.53747,41292
17.54558,44649
17.55370,45672
17.56183,57107
17.56995,82070
17.57808,133549
17.58620,218774
17.59432,359266
17.60245,523496
17.61057,689471
17.61870,733886
17.62682,628914
17.63493,494128
17.64307,337274
17.65118,230142
17.65930,168886
17.66743,137061
17.67555,117298
17.68368,104879
17.69180,104086
17.69992,96967
17.70805,84065
17.71617,83394
17.72430,72461
17.73242,70112
17.74053,68860
17.74867,65759
17.75678,64706
17.76490,59842
17.77303,59787
17.78115,57054
17.78928,60996
17.79740,56347
17.80552,52154
17.81365,53303
17.82177,57229
17.82990,58125
17.83802,63038
17.84613,66370
17.85427,68451
17.86238,71946
17.87052,77803
17.87863,75253
17.88675,71543
17.89488,67667
17.90300,60164
17.91112,54879
17.91925,50722
17.92737,49078
17.93550,48935
17.94362,45699
17.95173,44641
17.95987,43533
17.96798,47074
17.97612,46463
17.98423,39897
17.99235,43476
18.00048,41376
18.00860,48781
18.01672,53794
18.02485,63441
18.03297,78254
18.04110,93003
18.04922,96577
18.05733,96442
18.06547,83804
18.07358,85074
18.08172,86878
18.08983,96906
18.09795,107222
18.10608,107057
18.11420,109765
18.12233,102282
18.13045,94666
18.13857,89739
18.14670,82406
18.15482,83483
18.16293,83151
18.17107,77245
18.17918,73334
18.18732,66646
18.19543,69516
18.20355,63585
18.21168,59924
18.21980,57592
18.22793,54128
18.23605,53775
18.24417,51171
18.25230,50753
18.26042,53319
18.26855,52954
18.27667,54377
18.28478,53600
18.29292,46366
18.30103,47367
18.30915,48160
18.31728,43968
18.32540,43097
18.33353,42129
18.34165,38869
18.34977,38673
18.35790,40325
18.36602,40098
18.37415,38641
18.38227,38378
18.39038,40273
18.39852,35371
18.40663,39392
18.41475,38181
18.42288,41243
18.43100,41427
18.43913,51811
18.44725,64871
18.45537,84744
18.46350,115456
18.47162,158806
18.47975,205171
18.48787,234141
18.49598,235537
18.50412,211189
18.51223,177848
18.52037,135566
18.52848,103179
18.53660,81213
18.54473,70210
18.55285,67619
18.56097,56277
18.56910,56079
18.57722,55113
18.58535,50962
18.59347,58378
18.60158,57046
18.60972,53888
18.61783,53002
18.62597,57167
18.63408,54506
18.64220,55093
18.65033,48323
18.65845,52653
18.66658,47797
18.67470,49464
18.68282,45517
18.69095,43817
18.69907,45289
18.70718,40718
18.71532,46531
18.72343,42606
18.73157,44946
18.73968,61416
18.74780,82540
18.75593,102670
18.76405,118236
18.77218,127003
18.78030,133281
18.78842,140638
18.79655,145082
18.80467,148189
18.81278,152795
18.82092,149580
18.82903,153226
18.83717,156739
18.84528,152192
18.85340,154086
18.86153,153274
18.86965,150872
18.87778,154054
18.88590,158294
18.89402,151701
18.90215,157505
18.91027,158103
18.91840,159477
18.92652,156693
18.93463,166024
18.94277,162306
18.95088,168980
18.95900,173528
18.96713,166907
18.97525,169699
18.98338,175554
18.99150,170211
18.99962,161652
19.00775,151932
19.01587,156222
19.02400,144567
19.03212,151693
19.04023,150931
19.04837,151449
19.05648,158749
19.06462,194266
19.07273,286884
19.08085,482722
19.08898,848020
19.09710,1382719
19.10522,1849424
19.11335,2118857
19.12147,1998982
19.12960,1621483
19.13772,1168773
19.14583,765656
19.15397,519126
19.16208,356846
19.17022,287037
19.17833,245144
19.18645,216000
19.19458,193538
19.20270,181718
19.21082,184772
19.21895,165969
19.22707,162955
19.23520,157604
19.24332,154191
19.25143,146044
19.25957,139099
19.26768,139485
19.27582,152575
19.28393,152703
19.29205,161010
19.30018,155193
19.30830,157996
19.31643,160611
19.32455,155154
19.33267,144139
19.34080,138103
19.34892,137651
19.35703,150976
19.36517,162833
19.37328,178473
19.38142,189329
19.38953,181615
19.39765,170196
19.40578,155019
19.41390,139645
19.42203,133716
19.43015,127300
19.43827,122479
19.44640,127230
19.45452,131071
19.46263,136795
19.47077,141285
19.47888,142284
19.48702,165739
19.49513,180750
19.50325,216572
19.51138,239608
19.51950,256435
19.52763,262621
19.53575,246823
19.54387,205758
19.55200,167347
19.56012,144224
19.56825,136816
19.57637,124474
19.58448,118456
19.59262,113850
19.60073,111610
19.60885,109640
19.61698,109271
19.62510,107442
19.63323,112738
19.64135,126549
19.64947,142732
19.65760,179556
19.66572,221134
19.67385,276512
19.68197,317165
19.69008,321903
19.69822,320880
19.70633,290567
19.71447,265734
19.72258,231166
19.73070,214239
19.73883,180022
19.74695,161171
19.75507,149471
19.76320,136207
19.77132,126863
19.77945,117103
19.78757,120377
19.79568,124043
19.80382,123438
19.81193,126620
19.82007,127610
19.82818,121785
19.83630,103537
19.84443,105145
19.85255,100202
19.86067,98356
19.86880,98810
19.87692,105495
19.88505,115790
19.89317,146253
19.90128,176955
19.90942,210216
19.91753,222021
19.92567,228267
19.93378,221021
19.94190,222425
19.95003,206272
19.95815,199877
19.96628,192810
19.97440,197901
19.98252,180929
19.99065,175137
19.99877,179357
20.00688,164550
20.01502,164040
20.02313,170616
20.03127,161640
20.03938,157271
20.04750,141698
20.05563,140486
20.06375,126593
20.07188,122368
20.08000,118402
20.08812,112698
20.09625,112655
20.10437,108609
20.11250,106549
20.12062,101858
20.12873,93968
20.13687,86867
20.14498,88475
20.15310,93898
20.16123,98446
20.16935,105650
20.17748,125724
20.18560,135374
20.19372,147553
20.20185,149657
20.20997,150029
20.21810,144675
20.22622,132117
20.23433,131543
20.24247,132771
20.25058,137630
20.25870,179835
20.26683,230215
20.27495,295809
20.28308,369413
20.29120,400075
20.29932,385280
20.30745,361361
20.31557,296084
20.32370,251411
20.33182,189607
20.33993,159508
20.34807,139072
20.35618,121757
20.36432,113410
20.37243,100879
20.38055,95028
20.38868,92242
20.39680,86704
20.40492,85358
20.41305,86585
20.42117,88076
20.42930,90481
20.43742,94894
20.44553,100192
20.45367,105056
20.46178,104948
20.46992,101811
20.47803,95130
20.48615,93391
20.49428,88191
20.50240,86488
20.51052,77240
20.51865,72353
20.52677,69131
20.53490,79596
20.54302,67131
20.55113,70998
20.55927,69393
20.56738,64471
20.57552,68161
20.58363,69799
20.59175,70386
20.59988,63068
20.60800,63663
20.61613,63270
20.62425,60164
20.63237,60208
20.64050,64907
20.64862,60240
20.65673,59832
20.66487,61216
20.67298,58516
20.68112,59949
20.68923,62414
20.69735,58751
20.70548,65215
20.71360,61357
20.72173,58839
20.72985,58776
20.73797,61816
20.74610,62098
20.75422,58762
20.76235,59107
20.77047,60352
20.77858,64425
20.78672,74105
20.79483,89313
20.80295,120654
20.81108,164118
20.81920,194004
20.82733,204865
20.83545,188356
20.84357,167229
20.85170,131982
20.85982,101301
20.86795,81257
20.87607,72236
20.88418,69741
20.89232,72716
20.90043,67225
20.90857,63671
20.91668,64613
20.92480,61680
20.93293,59352
20.94105,62028
20.94917,61947
20.95730,61836
20.96542,57316
20.97355,55798
20.98167,56994
20.98978,54683
20.99792,53878
21.00603,55842
21.01417,56861
21.02228,53749
21.03040,58052
21.03853,60180
21.04665,56802
21.05477,61608
21.06290,59624
21.07102,61923
21.07915,60908
21.08727,60302
21.09538,62851
21.10352,57417
21.11163,57261
21.11977,58889
21.12788,61276
21.13600,68688
21.14413,82524
21.15225,104275
21.16038,126251
21.16850,150528
21.17662,147507
21.18475,138381
21.19287,116620
21.20098,96986
21.20912,86280
21.21723,79667
21.22537,69285
21.23348,69529
21.24160,71633
21.24973,65870
21.25785,61334
21.26598,61458
21.27410,62487
21.28222,57298
21.29035,62817
21.29847,58826
21.30658,55515
21.31472,59675
21.32283,59309
21.33097,56439
21.33908,54183
21.34720,56478
21.35533,57720
21.36345,52436
21.37158,50794
21.37970,52343
21.38782,53429
21.39595,51467
21.40407,54513
21.41220,57285
21.42032,57567
21.42843,57414
21.43657,60137
21.44468,56767
21.45280,55650
21.46093,52464
21.46905,52845
21.47718,48729
21.48530,46766
21.49342,49799
21.50155,45903
21.50967,45940
21.51780,46915
21.52592,49009
21.53403,42568
21.54217,44720
21.55028,48045
21.55842,45398
21.56653,44188
21.57465,48358
21.58278,50684
21.59090,54150
21.59902,59443
21.60715,67577
21.61527,67381
21.62340,70248
21.63152,78009
21.63963,81948
21.64777,95790
21.65588,97766
21.66402,99231
21.67213,92282
21.68025,94076
21.68838,89917
21.69650,84911
21.70462,74841
21.71275,72311
21.72087,65033
21.72900,59572
21.73712,57885
21.74523,57264
21.75337,58717
21.76148,54834
21.76962,53894
21.77773,54859
21.78585,58868
21.79398,57057
21.80210,58496
21.81023,59086
21.81835,61844
21.82647,71078
21.83460,76410
21.84272,84500
21.85083,88060
21.85897,83793
21.86708,82881
21.87522,71604
21.88333,66571
21.89145,62312
21.89958,57801
21.90770,57069
21.91583,52706
21.92395,53144
21.93207,50058
21.94020,48531
21.94832,48589
21.95645,45834
21.96457,48273
21.97268,41618
21.98082,42296
21.98893,46198
21.99705,41477
22.00518,44572
22.01330,44834
22.02143,44650
22.02955,47841
22.03767,46517
22.04580,45957
22.05392,44528
22.06205,46092
22.07017,45516
22.07828,43161
22.08642,45665
22.09453,47954
22.10265,46790
22.11078,46767
22.11890,49546
22.12703,56705
22.13515,60573
22.14327,65735
22.15140,68327
22.15952,71167
22.16765,80107
22.17577,71571
22.18388,77689
22.19202,83148
22.20013,78696
22.20827,82323
22.21638,84476
22.22450,83477
22.23263,85803
22.24075,86496
22.24887,89109
22.25700,87746
22.26512,90633
22.27325,88893
22.28137,94182
22.28948,91325
22.29762,90409
22.30573,90327
22.31387,93019
22.32198,95459
22.33010,89020
22.33823,86168
22.34635,82607
22.35447,76283
22.36260,74694
22.37072,68617
22.37885,67159
22.38697,67937
22.39508,71634
22.40322,86880
22.41133,99289
22.41947,113957
22.42758,112268
22.43570,115145
22.44383,110606
22.45195,87743
22.46008,81439
22.46820,72053
22.47632,65846
22.48445,61824
22.49257,67057
22.50068,65883
22.50882,69417
22.51693,76155
22.52507,70199
22.53318,66411
22.54130,62277
22.54943,64134
22.55755,56035
22.56568,53752
22.57380,53198
22.58192,53536
22.59005,48695
22.59817,46645
22.60630,43153
22.61442,44105
22.62253,43681
22.63067,45688
22.63878,56541
22.64690,71883
22.65503,89025
22.66315,95372
22.67128,97867
22.67940,109573
22.68752,122083
22.69565,129171
22.70377,136464
22.71190,142512
22.72002,151713
22.72813,162286
22.73627,160042
22.74438,153054
22.75250,151524
22.76063,144810
22.76875,143670
22.77688,147068
22.78500,151986
22.79312,151274
22.80125,159016
22.80937,164220
22.81750,164247
22.82562,170385
22.83373,162854
22.84187,158414
22.84998,151901
22.85812,147779
22.86623,152250
22.87435,148085
22.88248,157939
22.89060,152300
22.89872,159139
22.90685,171422
22.91497,183492
22.92310,206085
22.93122,214156
22.93933,205361
22.94747,206111
22.95558,190249
22.96372,180066
22.97183,158360
22.97995,158947
22.98808,146780
22.99620,144987
23.00433,139548
23.01245,130908
23.02057,129411
23.02870,125885
23.03682,124636
23.04493,114129
23.05307,121310
23.06118,120127
23.06932,118814
23.07743,117238
23.08555,119137
23.09368,112452
23.10180,113475
23.10993,108593
23.11805,111291
23.12617,109993
23.13430,103255
23.14242,100936
23.15053,103422
23.15867,104389
23.16678,99227
23.17492,100166
23.18303,98287
23.19115,99902
23.19928,94116
23.20740,93245
23.21553,96814
23.22365,93977
23.23177,94575
23.23990,95226
23.24802,90138
23.25615,97410
23.26427,103865
23.27238,103515
23.28052,103766
23.28863,100878
23.29675,98376
23.30488,90055
23.31300,90952
23.32113,92731
23.32925,93743
23.33737,100645
23.34550,99739
23.35362,111912
23.36175,116075
23.36987,126376
23.37798,126201
23.38612,126799
23.39423,119308
23.40235,113701
23.41048,107449
23.41860,105109
23.42673,107064
23.43485,106751
23.44297,101004
23.45110,95403
23.45922,97426
23.46735,96276
23.47547,92337
23.48358,91742
23.49172,86767
23.49983,85391
23.50797,87383
23.51608,79971
23.52420,83943
23.53233,84771
23.54045,85781
23.54857,80045
23.55670,86303
23.56482,91536
23.57295,101654
23.58107,119305
23.58918,146797
23.59732,169663
23.60543,200971
23.61357,219973
23.62168,215401
23.62980,184287
23.63793,170304
23.64605,142238
23.65418,148950
23.66230,147367
23.67042,139767
23.67855,143036
23.68667,130373
23.69478,123228
23.70292,109478
23.71103,103133
23.71917,100943
23.72728,90510
23.73540,93325
23.74353,98472
23.75165,119650
23.75978,203196
23.76790,370775
23.77602,695413
23.78415,1160246
23.79227,1645173
23.80038,1930442
23.80852,2003190
23.81663,1831305
23.82477,1543685
23.83288,1182437
23.84100,912073
23.84913,714501
23.85725,567931
23.86538,470206
23.87350,393760
23.88162,330737
23.88975,300458
23.89787,279001
23.90600,259268
23.91412,245010
23.92223,224833
23.93037,219341
23.93848,210471
23.94660,198814
23.95473,180109
23.96285,177365
23.97098,170448
23.97910,153681
23.98722,148878
23.99535,142734
24.00347,144429
24.01160,169170
24.01972,213397
24.02783,280446
24.03597,335093
24.04408,352551
24.05222,324899
24.06033,267858
24.06845,198571
24.07658,156049
24.08470,129239
24.09282,106763
24.10095,106827
24.10907,99239
24.11720,98163
24.12532,95823
24.13343,108093
24.14157,116440
24.14968,126301
24.15782,131570
24.16593,134541
24.17405,127747
24.18218,119696
24.19030,107091
24.19842,101119
24.20655,101581
24.21467,102432
24.22280,96942
24.23092,97123
24.23903,95263
24.24717,90112
24.25528,83884
24.26342,82463
24.27153,77051
24.27965,73098
24.28778,75671
24.29590,73934
24.30403,74264
24.31215,72686
24.32027,69199
24.32840,68399
24.33652,71783
24.34463,70058
24.35277,68307
24.36088,73105
24.36902,73699
24.37713,92988
24.38525,133254
24.39338,164257
24.40150,197568
24.40963,218081
24.41775,228853
24.42587,219798
24.43400,203049
24.44212,195057
24.45025,194789
24.45837,180499
24.46648,190879
24.47462,186291
24.48273,184754
24.49085,201316
24.49898,198349
24.50710,203544
24.51523,208195
24.52335,212886
24.53147,208470
24.53960,214110
24.54772,214721
24.55585,208815
24.56397,214839
24.57208,202585
24.58022,200322
24.58833,194506
24.59645,185913
24.60458,187201
24.61270,187091
24.62083,181492
24.62895,173199
24.63707,177057
24.64520,175097
24.65332,174961
24.66145,169980
24.66957,173077
24.67768,170404
24.68582,166016
24.69393,167632
24.70207,166852
24.71018,161849
24.71830,166515
24.72643,162170
24.73455,155332
24.74267,171063
24.75080,156832
24.75892,159893
24.76705,166275
24.77517,162434
24.78328,162851
24.79142,161261
24.79953,165234
24.80767,162812
24.81578,163022
24.82390,166079
24.83203,171146
24.84015,177479
24.84827,207148
24.85640,234176
24.86452,273457
24.87265,340831
24.88077,400208
24.88888,492139
24.89702,535414
24.90513,516749
24.91327,466721
24.92138,376872
24.92950,296518
24.93763,230959
24.94575,199764
24.95388,177732
24.96200,164834
24.97012,154480
24.97825,148358
24.98637,144752
24.99448,144276
25.00262,148071
25.01073,150912
25.01887,142360
25.02698,142000
25.03510,141046
25.04323,132193
25.05135,138919
25.05948,132367
25.06760,134875
25.07572,137694
25.08385,132248
25.09197,147363
25.10010,176681
25.10822,254999
25.11633,429937
25.12447,785636
25.13258,1360925
25.14070,1978670
25.14883,2477291
25.15695,2573763
25.16508,2217220
25.17320,1668604
25.18132,1123896
25.18945,708387
25.19757,458369
25.20570,314425
25.21382,235637
25.22193,196642
25.23007,183854
25.23818,203542
25.24630,262725
25.25443,357393
25.26255,493731
25.27068,632333
25.27880,733078
25.28692,724989
25.29505,638391
25.30317,488100
25.31130,346836
25.31942,247033
25.32753,176946
25.33567,134999
25.34378,111874
25.35192,100178
25.36003,93989
25.36815,83358
25.37628,82629
25.38440,77397
25.39252,76622
25.40065,68460
25.40877,69454
25.41690,69505
25.42502,69908
25.43313,65166
25.44127,68711
25.44938,60893
25.45752,63278
25.46563,66972
25.47375,67592
25.48188,71670
25.49000,67056
25.49813,66755
25.50625,65733
25.51437,64342
25.52250,60374
25.53062,59626
25.53873,61177
25.54687,55387
25.55498,65267
25.56312,61506
25.57123,57945
25.57935,57793
25.58748,59316
25.59560,56272
25.60373,58317
25.61185,62378
25.61997,68910
25.62810,67858
25.63622,84355
25.64433,92343
25.65247,97150
25.66058,99171
25.66872,88119
25.67683,87232
25.68495,90544
25.69308,107065
25.70120,125731
25.70933,138452
25.71745,154158
25.72557,149630
25.73370,164228
25.74182,165354
25.74995,167363
25.75807,168096
25.76618,171304
25.77432,178276
25.78243,177082
25.79055,170216
25.79868,184605
25.80680,182522
25.81493,178776
25.82305,172455
25.83117,173180
25.83930,175268
25.84742,177678
25.85555,176874
25.86367,176968
25.87178,171555
25.87992,172281
25.88803,176201
25.89615,169797
25.90428,170123
25.91240,163387
25.92053,157672
25.92865,162582
25.93677,165087
25.94490,159202
25.95302,157924
25.96115,154905
25.96927,159298
25.97738,152479
25.98552,160740
25.99363,147013
26.00177,145532
26.00988,149568
26.01800,142144
26.02613,140528
26.03425,136080
26.04237,138852
26.05050,137779
26.05862,136802
26.06675,140625
26.07487,137799
26.08298,141424
26.09112,132100
26.09923,135409
26.10737,135895
26.11548,131101
26.12360,137442
26.13173,138186
26.13985,134463
26.14798,141180
26.15610,143526
26.16422,136818
26.17235,134890
26.18047,130583
26.18858,122456
26.19672,127831
26.20483,121974
26.21297,123538
26.22108,122438
26.22920,122328
26.23733,116798
26.24545,118272
26.25358,116522
26.26170,116419
26.26982,117950
26.27795,112974
26.28607,113806
26.29420,109302
26.30232,113188
26.31043,110245
26.31857,108267
26.32668,105861
26.33480,106649
26.34293,108834
26.35105,108613
26.35918,105946
26.36730,109074
26.37542,110160
26.38355,115347
26.39167,121196
26.39980,127599
26.40792,130274
26.41603,122778
26.42417,121902
26.43228,117698
26.44040,107007
26.44853,109277
26.45665,102469
26.46478,94141
26.47290,93873
26.48102,100272
26.48915,96220
26.49727,97627
26.50540,96750
26.51352,91198
26.52163,95097
26.52977,91090
26.53788,88974
26.54602,83854
26.55413,86372
26.56225,82854
26.57038,87894
26.57850,84632
26.58662,82743
26.59475,82099
26.60287,79266
26.61100,78336
26.61912,77473
26.62723,77812
26.63537,82893
26.64348,76149
26.65162,76084
26.65973,80175
26.66785,82878
26.67598,80672
26.68410,83654
26.69222,72553
26.70035,75245
26.70847,69352
26.71660,68931
26.72472,70894
26.73283,67308
26.74097,65639
26.74908,66800
26.75722,66174
26.76533,64525
26.77345,63243
26.78158,64844
26.78970,66550
26.79783,66543
26.80595,66861
26.81407,71162
26.82220,68482
26.83032,64481
26.83843,60158
26.84657,63099
26.85468,66406
26.86282,63166
26.87093,60240
26.87905,59196
26.88718,62961
26.89530,59021
26.90343,60980
26.91155,58291
26.91967,56030
26.92780,52258
26.93592,51613
26.94405,54715
26.95217,56619
26.96028,59393
26.96842,65908
26.97653,77037
26.98465,90014
26.99278,120891
27.00090,162287
27.00903,223079
27.01715,290316
27.02527,354345
27.03340,382855
27.04152,385505
27.04965,352967
27.05777,317541
27.06588,281361
27.07402,226106
27.08213,200921
27.09025,178468
27.09838,148500
27.10650,143112
27.11463,133831
27.12275,129700
27.13087,121249
27.13900,114957
27.14712,108329
27.15525,104361
27.16337,109305
27.17148,111286
27.17962,105314
27.18773,117385
27.19587,115038
27.20398,110054
27.21210,98665
27.22023,100775
27.22835,94209
27.23647,89812
27.24460,85699
27.25272,82663
27.26085,80695
27.26897,74388
27.27708,71936
27.28522,74666
27.29333,72362
27.30147,68730
27.30958,68750
27.31770,65631
27.32583,62283
27.33395,63567
27.34208,67547
27.35020,70201
27.35832,65228
27.36645,69029
27.37457,69266
27.38268,71051
27.39082,67539
27.39893,64975
27.40707,61554
27.41518,62951
27.42330,59185
27.43143,57737
27.43955,58618
27.44768,58889
27.45580,58017
27.46392,56361
27.47205,53886
27.48017,55053
27.48828,58518
27.49642,55058
27.50453,50854
27.51267,51952
27.52078,52095
27.52890,57161
27.53703,48532
27.54515,59308
27.55328,61390
27.56140,56317
27.56952,54503
27.57765,61558
27.58577,61252
27.59390,70608
27.60202,78520
27.61013,77761
27.61827,77459
27.62638,64054
27.63450,62801
27.64263,59933
27.65075,54296
27.65888,58266
27.66700,54384
27.67512,54327
27.68325,56366
27.69137,52047
27.69950,52613
27.70762,49546
27.71573,51697
27.72387,50709
27.73198,52558
27.74010,48858
27.74823,47280
27.75635,57510
27.76448,64604
27.77260,70004
27.78072,91403
27.78885,100662
27.79697,109245
27.80510,107947
27.81322,95535
27.82133,82861
27.82947,67686
27.83758,60021
27.84572,55708
27.85383,55955
27.86195,54187
27.87008,49122
27.87820,51913
27.88632,49611
27.89445,49918
27.90257,46903
27.91070,48467
27.91882,54655
27.92693,48307
27.93507,46548
27.94318,48459
27.95132,48337
27.95943,47418
27.96755,44649
27.97568,48478
27.98380,49021
27.99193,51509
28.00005,51985
28.00817,56182
28.01630,53739
28.02442,55896
28.03253,54241
28.04067,59989
28.04878,58159
28.05692,53882
28.06503,55677
28.07315,55506
28.08128,53365
28.08940,50722
28.09753,50341
28.10565,54650
28.11377,51867
28.12190,43831
28.13002,45082
28.13813,43890
28.14627,45466
28.15438,42472
28.16252,46277
28.17063,40728
28.17875,47205
28.18688,53909
28.19500,53118
28.20313,62687
28.21125,72355
28.21937,76416
28.22750,86312
28.23562,79412
28.24375,76001
28.25187,69924
28.25998,59665
28.26812,54805
28.27623,54116
28.28435,48398
28.29248,48401
28.30060,46363
28.30873,49327
28.31685,51512
28.32497,57230
28.33310,64012
28.34122,73932
28.34935,84220
28.35747,96833
28.36558,107607
28.37372,121121
28.38183,134246
28.38997,144577
28.39808,142180
28.40620,150629
28.41433,145055
28.42245,139430
28.43057,131872
28.43870,128245
28.44682,113052
28.45495,114926
28.46307,109670
28.47118,100189
28.47932,103052
28.48743,91292
28.49557,87979
28.50368,85736
28.51180,86020
28.51993,84812
28.52805,81172
28.53617,81426
28.54430,73857
28.55242,70074
28.56055,68773
28.56867,67172
28.57678,66521
28.58492,65403
28.59303,64937
28.60117,67945
28.60928,58579
28.61740,61753
28.62553,65034
28.63365,68194
28.64178,66179
28.64990,65441
28.65802,66093
28.66615,72970
28.67427,70898
28.68238,66396
28.69052,69353
28.69863,65149
28.70677,61423
28.71488,58100
28.72300,58725
28.73113,59606
28.73925,57508
28.74738,60807
28.75550,59372
28.76362,66703
28.77175,76498
28.77987,78862
28.78800,83123
28.79612,79815
28.80423,77321
28.81237,69225
28.82048,68608
28.82860,66391
28.83673,62384
28.84485,57951
28.85298,56650
28.86110,61667
28.86922,53387
28.87735,60250
28.88547,63225
28.89360,63266
28.90172,66860
28.90983,68834
28.91797,67276
28.92608,61487
28.93420,58326
28.94233,61206
28.95045,60682
28.95858,61110
28.96670,65412
28.97482,62818
28.98295,58377
28.99107,60673
28.99920,52721
29.00732,50898
29.01543,49175
29.02357,52779
29.03168,48875
29.03982,48192
29.04793,53848
29.05605,56858
29.06418,60157
29.07230,64846
29.08042,69769
29.08855,68012
29.09667,65079
29.10480,64775
29.11292,62197
29.12103,58469
29.12917,52639
29.13728,51296
29.14542,44274
29.15353,46915
29.16165,45964
29.16978,48652
29.17790,49380
29.18602,55807
29.19415,64719
29.20227,71742
29.21040,83339
29.21852,86713
29.22663,93740
29.23477,88569
29.24288,85652
29.25102,80490
29.25913,78954
29.26725,77538
29.27538,80078
29.28350,77727
29.29163,67861
29.29975,66553
29.30787,59802
29.31600,50465
29.32412,53239
29.33223,49212
29.34037,48587
29.34848,48360
29.35662,47565
29.36473,44176
29.37285,50053
29.38098,49055
29.38910,51912
29.39723,54976
29.40535,60977
29.41347,81719
29.42160,89892
29.42972,110545
29.43785,115856
29.44597,111780
29.45408,97604
29.46222,81401
29.47033,67511
29.47845,63185
29.48658,59118
29.49470,60270
29.50283,58875
29.51095,60714
29.51907,59146
29.52720,59571
29.53532,57823
29.54345,58375
29.55157,51584
29.55968,53439
29.56782,50575
29.57593,48571
29.58405,50210
29.59218,46249
29.60030,47847
29.60843,48043
29.61655,46616
29.62467,49677
29.63280,49573
29.64092,52693
29.64905,48192
29.65717,43972
29.66528,43395
29.67342,48785
29.68153,47972
29.68967,49102
29.69778,49053
29.70590,50850
29.71403,48724
29.72215,50867
29.73027,49506
29.73840,45628
29.74652,46060
29.75465,43978
29.76277,42759
29.77088,41162
29.77902,43175
29.78713,41813
29.79527,42618
29.80338,42040
29.81150,38750
29.81963,40879
29.82775,43879
29.83588,41115
29.84400,45867
29.85212,48100
29.86025,49042
29.86837,57474
29.87648,74548
29.88462,102198
29.89273,137762
29.90087,168064
29.90898,192140
29.91710,176550
29.92523,144812
29.93335,108792
29.94148,82433
29.94960,66901
29.95772,63520
29.96585,59918
29.97397,65122
29.98208,64880
29.99022,69890
29.99833,74852
30.00647,78000
30.01458,83743
30.02270,88676
30.03083,87731
30.03895,92653
30.04708,89936
30.05520,90423
30.06332,92731
30.07145,89361
30.07957,94559
30.08770,98563
30.09582,91605
30.10393,89257
30.11207,89303
30.12018,89941
30.12830,85958
30.13643,81762
30.14455,75837
30.15268,81209
30.16080,70241
30.16892,77275
30.17705,77213
30.18517,68494
30.19330,65889
30.20142,63995
30.20953,65628
30.21767,63053
30.22578,63973
30.23390,60990
30.24203,58988
30.25015,54212
30.25828,61434
30.26640,57539
30.27452,53855
30.28265,55058
30.29077,54139
30.29890,51711
30.30702,50805
30.31513,50889
30.32327,49667
30.33138,50391
30.33952,52077
30.34763,51947
30.35575,50690
30.36388,49338
30.37200,49249
30.38012,52063
30.38825,47080
30.39637,50269
30.40450,48699
30.41262,48741
30.42073,44608
30.42887,43330
30.43698,46420
30.44512,47099
30.45323,44423
30.46135,46661
30.46948,51842
30.47760,44410
30.48573,48912
30.49385,46969
30.50197,47948
30.51010,50859
30.51822,47636
30.52633,48575
30.53447,48653
30.54258,48935
30.55072,48345
30.55883,45206
30.56695,40461
30.57508,43390
30.58320,45506
30.59133,43839
30.59945,41900
30.60757,43443
30.61570,44419
30.62382,47858
30.63193,44537
30.64007,45327
30.64818,45770
30.65632,40351
30.66443,44879
30.67255,41787
30.68068,40337
30.68880,45742
30.69693,44856
30.70505,42869
30.71317,45803
30.72130,42684
30.72942,42946
30.73755,39925
30.74567,44082
30.75378,41332
30.76192,48928
30.77003,54969
30.77815,79993
30.78628,133248
30.79440,198084
30.80253,289925
30.81065,391443
30.81877,408685
30.82690,379384
30.83502,306716
30.84315,224639
30.85127,149974
30.85938,99967
30.86752,81929
30.87563,67816
30.88377,62831
30.89188,56506
30.90000,58247
30.90813,54492
30.91625,53227
30.92437,47304
30.93250,44886
30.94062,44500
30.94875,50236
30.95687,47088
30.96498,44676
30.97312,47606
30.98123,49285
30.98937,43310
30.99748,50653
31.00560,45291
31.01373,46603
31.02185,49067
31.02997,50294
31.03810,53409
31.04622,51806
31.05435,58346
31.06247,58395
31.07058,60442
31.07872,63220
31.08683,69195
31.09497,75057
31.10308,81337
31.11120,83385
31.11933,77160
31.12745,78641
31.13558,74253
31.14370,64952
31.15182,67594
31.15995,67037
31.16807,72029
31.17618,70162
31.18432,76358
31.19243,74944
31.20057,87614
31.20868,97959
31.21680,116912
31.22493,127285
31.23305,126817
31.24118,125659
31.24930,102381
31.25742,94866
31.26555,79740
31.27367,71427
31.28180,65057
31.28992,63567
31.29803,69905
31.30617,61752
31.31428,63497
31.32240,66165
31.33053,66214
31.33865,62160
31.34678,65101
31.35490,62323
31.36302,63779
31.37115,59864
31.37927,60105
31.38740,65063
31.39552,61836
31.40363,57935
31.41177,63505
31.41988,65850
31.42800,61469
31.43613,62706
31.44425,61412
31.45238,59020
31.46050,63617
31.46862,69745
31.47675,78434
31.48487,80829
31.49300,92667
31.50112,97202
31.50923,86983
31.51737,81990
31.52548,74067
31.53362,71037
31.54173,69214
31.54985,75483
31.55798,81894
31.56610,82755
31.57422,87202
31.58235,84534
31.59047,82318
31.59860,77018
31.60672,67768
31.61483,64881
31.62297,58148
31.63108,56715
31.63922,54959
31.64733,58390
31.65545,54419
31.66358,58531
31.67170,57011
31.67983,59869
31.68795,56254
31.69607,55136
31.70420,58118
31.71232,52814
31.72043,53887
31.72857,52095
31.73668,51128
31.74482,49688
31.75293,50136
31.76105,48113
31.76918,50721
31.77730,51663
31.78543,46821
31.79355,54406
31.80167,48607
31.80980,52679
31.81792,54075
31.82603,54190
31.83417,48726
31.84228,52203
31.85042,55429
31.85853,56779
31.86665,53241
31.87478,57003
31.88290,60660
31.89103,56773
31.89915,60431
31.90727,56681
31.91540,63878
31.92352,62856
31.93165,66864
31.93977,70589
31.94788,71308
31.95602,82072
31.96413,79939
31.97225,84495
31.98038,83507
31.98850,94617
31.99663,88264
32.00475,92310
32.01287,96186
32.02100,94790
32.02912,92556
32.03725,92891
32.04537,84094
32.05348,80557
32.06162,81860
32.06973,80176
32.07785,79533
32.08598,78346
32.09410,80471
32.10223,70744
32.11035,76057
32.11847,65985
32.12660,63064
32.13472,66523
32.14285,62776
32.15097,57303
32.15908,58720
32.16722,57163
32.17533,58025
32.18347,55101
32.19158,56601
32.19970,54122
32.20783,52196
32.21595,56175
32.22407,56280
32.23220,54074
32.24032,51313
32.24845,58457
32.25657,55588
32.26468,57061
32.27282,59578
32.28093,57517
32.28907,60397
32.29718,55169
32.30530,53331
32.31343,52779
32.32155,51756
32.32968,53585
32.33780,52567
32.34592,51719
32.35405,52159
32.36217,54651
32.37028,52760
32.37842,52756
32.38653,51728
32.39467,52902
32.40278,50354
32.41090,46231
32.41903,45342
32.42715,47574
32.43528,47006
32.44340,51444
32.45152,47145
32.45965,45705
32.46777,44924
32.47588,45465
32.48402,45875
32.49213,50989
32.50027,46832
32.50838,43629
32.51650,48837
32.52463,47856
32.53275,47871
32.54088,48850
32.54900,51623
32.55712,49651
32.56525,50525
32.57337,51328
32.58150,50166
32.58962,47348
32.59773,46899
32.60587,45781
32.61398,47404
32.62210,44481
32.63023,44445
32.63835,47660
32.64648,47809
32.65460,52660
32.66272,54294
32.67085,55073
32.67897,59611
32.68710,58923
32.69522,56642
32.70333,59467
32.71147,54435
32.71958,53341
32.72772,55045
32.73583,53640
32.74395,49006
32.75208,47402
32.76020,48832
32.76832,45607
32.77645,44929
32.78457,40540
32.79270,43083
32.80082,47083
32.80893,45548
32.81707,42990
32.82518,43220
32.83332,40412
32.84143,41030
32.84955,42681
32.85768,42781
32.86580,41671
32.87392,41500
32.88205,42868
32.89017,42172
32.89830,41132
32.90642,43794
32.91453,45741
32.92267,48652
32.93078,48563
32.93892,43471
32.94703,42336
32.95515,46647
32.96328,48202
32.97140,56749
32.97953,69706
32.98765,89422
32.99577,117843
33.00390,141618
33.01202,158040
33.02013,152639
33.02827,129050
33.03638,107174
33.04452,88106
33.05263,75724
33.06075,64532
33.06888,71081
33.07700,66975
33.08513,64902
33.09325,67836
33.10137,76617
33.10950,82163
33.11762,92833
33.12573,95795
33.13387,92688
33.14198,88953
33.15012,74897
33.15823,68587
33.16635,64092
33.17448,58157
33.18260,55899
33.19073,49973
33.19885,52197
33.20697,51590
33.21510,50764
33.22322,52069
33.23135,50738
33.23947,50363
33.24758,47738
33.25572,45917
33.26383,46460
33.27195,52120
33.28008,52357
33.28820,47302
33.29633,46306
33.30445,47793
33.31257,50892
33.32070,50126
33.32882,46145
33.33695,48333
33.34507,49642
33.35318,48945
33.36132,52250
33.36943,50603
33.37757,50457
33.38568,50691
33.39380,46873
33.40193,49407
33.41005,46565
33.41817,45123
33.42630,42490
33.43442,45337
33.44255,48608
33.45067,46009
33.45878,48699
33.46692,46113
33.47503,42231
33.48317,46296
33.49128,49814
33.49940,47939
33.50753,50927
33.51565,59871
33.52377,51289
33.53190,54117
33.54002,55185
33.54815,48866
33.55627,48333
33.56438,52473
33.57252,48755
33.58063,48811
33.58877,52715
33.59688,45620
33.60500,46349
33.61313,43931
33.62125,42047
33.62938,44649
33.63750,47096
33.64562,50704
33.65375,48973
33.66187,52920
33.66998,46357
33.67812,45643
33.68623,49117
33.69437,48493
33.70248,45250
33.71060,42112
33.71873,42861
33.72685,46895
33.73498,44624
33.74310,47015
33.75122,40947
33.75935,46795
33.76747,49050
33.77560,46972
33.78372,44127
33.79183,42856
33.79997,43400
33.80808,45316
33.81620,45011
33.82433,47186
33.83245,43164
33.84058,47530
33.84870,50052
33.85682,46420
33.86495,45609
33.87307,48633
33.88120,45104
33.88932,48315
33.89743,49214
33.90557,48256
33.91368,44033
33.92180,49541
33.92993,48037
33.93805,46023
33.94618,46945
33.95430,45386
33.96242,45529
33.97055,45233
33.97867,45327
33.98680,46920
33.99492,46033
34.00303,48681
34.01117,47640
34.01928,47490
34.02742,45997
34.03553,42967
34.04365,44534
34.05178,50113
34.05990,47079
34.06802,47598
34.07615,46382
34.08427,44927
34.09240,45296
34.10052,45745
34.10863,47877
34.11677,47577
34.12488,43505
34.13302,43512
34.14113,46240
34.14925,45427
34.15738,46950
34.16550,45288
34.17363,52096
34.18175,44997
34.18987,47671
34.19800,44803
34.20612,45614
34.21423,46081
34.22237,45007
34.23048,46392
34.23862,46359
34.24673,45635
34.25485,45665
34.26298,47381
34.27110,45877
34.27923,53750
34.28735,46205
34.29547,46182
34.30360,46861
34.31172,48322
34.31983,50347
34.32797,45895
34.33608,43872
34.34422,48686
34.35233,48471
34.36045,46670
34.36858,45275
34.37670,41618
34.38483,49411
34.39295,45963
34.40107,47334
34.40920,47255
34.41732,51998
34.42545,45461
34.43357,41810
34.44168,44636
34.44982,42627
34.45793,46690
34.46605,40106
34.47418,45986
34.48230,46016
34.49043,42451
34.49855,45147
34.50667,47349
34.51480,52474
34.52292,54912
34.53105,64044
34.53917,66993
34.54728,73899
34.55542,85417
34.56353,85160
34.57165,88392
34.57978,84115
34.58790,75939
34.59603,79915
34.60415,78807
34.61227,72734
34.62040,68927
34.62852,63100
34.63665,62282
34.64477,57903
34.65288,61285
34.66102,57194
34.66913,54510
34.67727,57066
34.68538,58873
34.69350,52822
34.70163,54434
34.70975,54859
34.71787,51266
34.72600,55246
34.73412,55463
34.74225,47135
34.75037,53469
34.75848,52681
34.76662,53447
34.77473,54937
34.78287,56455
34.79098,56506
34.79910,52217
34.80723,47633
34.81535,50702
34.82348,49798
34.83160,46443
34.83972,49917
34.84785,46417
34.85597,51964
34.86408,49369
34.87222,54260
34.88033,48390
34.88847,51588
34.89658,49179
34.90470,48209
34.91283,52497
34.92095,50613
34.92908,52379
34.93720,50374
34.94532,51867
34.95345,56904
34.96157,61446
34.96968,54870
34.97782,55836
34.98593,58300
34.99407,57416
35.00218,56082
35.01030,55930
35.01843,56535
35.02655,51793
35.03468,50388
35.04280,48092
35.05092,47951
35.05905,46389
35.06717,51411
35.07530,49251
35.08342,49392
35.09153,50656
35.09967,49534
35.10778,49719
35.11590,51525
35.12403,48715
35.13215,52707
35.14028,51374
35.14840,52612
35.15652,49889
35.16465,53561
35.17277,47922
35.18090,50067
35.18902,48586
35.19713,45719
35.20527,50184
35.21338,47124
35.22152,47919
35.22963,50529
35.23775,49707
35.24588,47351
35.25400,51070
35.26212,52597
35.27025,51051
35.27837,54722
35.28650,51304
35.29462,58433
35.30273,54240
35.31087,50392
35.31898,47498
35.32712,47186
35.33523,47221
35.34335,49208
35.35148,47590
35.35960,47739
35.36772,45894
35.37585,49616
35.38397,45965
35.39210,47903
35.40022,46681
35.40833,45032
35.41647,48863
35.42458,47446
35.43272,47615
35.44083,50243
35.44895,51401
35.45708,53211
35.46520,52358
35.47333,55873
35.48145,54677
35.48957,56136
35.49770,56187
35.50582,58287
35.51393,51147
35.52207,53253
35.53018,52045
35.53832,50722
35.54643,50469
35.55455,51676
35.56268,51381
35.57080,47388
35.57893,51301
35.58705,53117
35.59517,52320
35.60330,47584
35.61142,49092
35.61953,47532
35.62767,50287
35.63578,53947
35.64392,49868
35.65203,50374
35.66015,50729
35.66828,54405
35.67640,50635
35.68453,52670
35.69265,56152
35.70077,53623
35.70890,54465
35.71702,52174
35.72515,55539
35.73327,51326
35.74138,52127
35.74952,53497
35.75763,58704
35.76575,56038
35.77388,54881
35.78200,63009
35.79013,56069
35.79825,53141
35.80637,53388
35.81450,53221
35.82262,48762
35.83075,51328
35.83887,50936
35.84698,50832
35.85512,52479
35.86323,51269
35.87137,50021
35.87948,47998
35.88760,49003
35.89573,51464
35.90385,51051
35.91197,50116
35.92010,56039
35.92822,50449
35.93635,52927
35.94447,47542
35.95258,53128
35.96072,49146
35.96883,51127
35.97697,46352
35.98508,49815
35.99320,51911
36.00133,51389
36.00945,53292
36.01758,58756
36.02570,57224
36.03382,56634
36.04195,57646
36.05007,58264
36.05818,50708
36.06632,53009
36.07443,54331
36.08257,52779
36.09068,54609
36.09880,56044
36.10693,53099
36.11505,48959
36.12318,46838
36.13130,51490
36.13942,54565
36.14755,55034
36.15567,55694
36.16378,58776
36.17192,57997
36.18003,53774
36.18817,56122
36.19628,54769
36.20440,54059
36.21253,51774
36.22065,56655
36.22878,53419
36.23690,46168
36.24502,49853
36.25315,51247
36.26127,48439
36.26940,52583
36.27752,52636
36.28563,53437
36.29377,49888
36.30188,59693
36.31000,60549
36.31813,62964
36.32625,63119
36.33438,64220
36.34250,61086
36.35062,60388
36.35875,56214
36.36687,53600
36.37500,55152
36.38312,52218
36.39123,55264
36.39937,55100
36.40748,53813
36.41560,54947
36.42373,55794
36.43185,55482
36.43998,56309
36.44810,54991
36.45622,51008
36.46435,56315
36.47247,54502
36.48060,52326
36.48872,48880
36.49683,51396
36.50497,55887
36.51308,53969
36.52122,54308
36.52933,54183
36.53745,55362
36.54558,52600
36.55370,58123
36.56182,51749
36.56995,51216
36.57807,54630
36.58620,50875
36.59432,48706
36.60243,49043
36.61057,52159
36.61868,52680
36.62682,51352
36.63493,52773
36.64305,53207
36.65118,56563
36.65930,55531
36.66743,56879
36.67555,57701
36.68367,58859
36.69180,57753
36.69992,56772
36.70803,53304
36.71617,57621
36.72428,59810
36.73242,55049
36.74053,56203
36.74865,54944
36.75678,57332
36.76490,56479
36.77303,52059
36.78115,56195
36.78927,57534
36.79740,56254
36.80552,53911
36.81363,56893
36.82177,53855
36.82988,55402
36.83802,55962
36.84613,56062
36.85425,55068
36.86238,54268
36.87050,52476
36.87863,57023
36.88675,55841
36.89487,53794
36.90300,58370
36.91112,53917
36.91925,54965
36.92737,56034
36.93548,62909
36.94362,71187
36.95173,78234
36.95985,87411
36.96798,96418
36.97610,105120
36.98423,107290
36.99235,95301
37.00047,79321
37.00860,76832
37.01672,68186
37.02485,65033
37.03297,63809
37.04108,66226
37.04922,64369
37.05733,63914
37.06547,59843
37.07358,60799
37.08170,59151
37.08983,59397
37.09795,64323
37.10607,67022
37.11420,63310
37.12232,63843
37.13045,61233
37.13857,61409
37.14668,62200
37.15482,62142
37.16293,65776
37.17107,55918
37.17918,59833
37.18730,59449
37.19543,62888
37.20355,63756
37.21167,59656
37.21980,65313
37.22792,58718
37.23605,64298
37.24417,58176
37.25228,60059
37.26042,58765
37.26853,56373
37.27667,60547
37.28478,54962
37.29290,58854
37.30103,61481
37.30915,58688
37.31728,59585
37.32540,64878
37.33352,68058
37.34165,74581
37.34977,81303
37.35788,82406
37.36602,84489
37.37413,82462
37.38227,83828
37.39038,86612
37.39850,83061
37.40663,83006
37.41475,77540
37.42288,81347
37.43100,75793
37.43912,78293
37.44725,75503
37.45537,72605
37.46348,72786
37.47162,75434
37.47973,73835
37.48787,70429
