Z:\data\JTB-E02\BACandBLUE\JTB-E02-197-06.D Thu Feb 21 09:51:19 2019
Start of data points
2.09540,52396
2.10352,50552
2.11165,55490
2.11977,50744
2.12788,52271
2.13602,50893
2.14413,51137
2.15225,60750
2.16038,58195
2.16850,59082
2.17663,58831
2.18475,61736
2.19287,58288
2.20100,56862
2.20912,62484
2.21725,58868
2.22537,51565
2.23348,54260
2.24162,51266
2.24973,45573
2.25785,52111
2.26598,187138
2.27410,1227771
2.28223,2516714
2.29035,1989958
2.29847,975144
2.30660,612500
2.31472,478688
2.32285,417374
2.33097,375807
2.33908,323616
2.34722,293088
2.35533,266534
2.36347,233742
2.37158,218207
2.37970,208753
2.38783,201811
2.39595,188187
2.40407,191171
2.41220,176563
2.42032,185157
2.42845,193464
2.43657,172564
2.44468,157002
2.45282,172152
2.46093,153121
2.46907,139059
2.47718,133502
2.48530,134051
2.49343,131248
2.50155,122253
2.50968,117818
2.51780,122112
2.52592,116847
2.53405,115603
2.54217,118709
2.55028,122601
2.55842,131233
2.56653,124883
2.57467,115201
2.58278,109809
2.59090,112759
2.59903,107493
2.60715,115566
2.61528,118040
2.62340,121873
2.63152,113211
2.63965,105487
2.64777,101877
2.65588,101249
2.66402,102014
2.67213,99331
2.68027,101698
2.68838,96834
2.69650,94818
2.70463,101338
2.71275,94175
2.72088,93486
2.72900,93225
2.73712,86295
2.74525,86264
2.75337,87392
2.76150,93239
2.76962,90397
2.77773,87956
2.78587,84472
2.79398,90873
2.80210,94516
2.81023,86693
2.81835,88794
2.82648,91695
2.83460,84436
2.84272,79660
2.85085,81993
2.85897,86859
2.86710,86995
2.87522,85589
2.88333,79142
2.89147,86098
2.89958,83542
2.90770,83436
2.91583,78183
2.92395,82343
2.93208,76437
2.94020,76258
2.94832,80849
2.95645,81354
2.96457,78807
2.97270,78946
2.98082,77474
2.98893,76676
2.99707,78491
3.00518,75034
3.01332,79582
3.02143,77030
3.02955,72561
3.03768,72905
3.04580,73978
3.05392,72926
3.06205,75978
3.07017,66614
3.07830,74628
3.08642,71634
3.09453,70604
3.10267,74977
3.11078,83538
3.11892,90745
3.12703,88796
3.13515,86133
3.14328,80137
3.15140,74152
3.15953,81713
3.16765,74335
3.17577,72921
3.18390,70661
3.19202,69880
3.20013,72395
3.20827,70930
3.21638,71793
3.22452,74282
3.23263,67372
3.24075,66314
3.24888,66482
3.25700,71624
3.26513,65984
3.27325,68198
3.28137,81461
3.28950,195890
3.29762,927784
3.30573,3436067
3.31387,7400724
3.32198,9802596
3.33012,8883818
3.33823,6691171
3.34635,5004065
3.35448,3872102
3.36260,3078041
3.37073,2527261
3.37885,2167310
3.38697,1845241
3.39510,1622835
3.40322,1427971
3.41135,1272806
3.41947,1186107
3.42758,1064285
3.43572,972260
3.44383,904809
3.45195,845010
3.46008,802233
3.46820,757572
3.47633,708446
3.48445,690807
3.49257,650139
3.50070,621395
3.50882,596629
3.51695,572381
3.52507,559184
3.53318,522002
3.54132,512002
3.54943,493608
3.55757,469807
3.56568,459113
3.57380,445326
3.58193,426410
3.59005,429262
3.59817,404344
3.60630,400433
3.61442,395168
3.62255,388747
3.63067,372403
3.63878,371223
3.64692,358383
3.65503,366571
3.66317,345811
3.67128,323795
3.67940,330311
3.68753,321972
3.69565,317197
3.70377,311741
3.71190,303557
3.72002,303898
3.72815,296309
3.73627,283132
3.74438,284979
3.75252,274960
3.76063,278836
3.76877,269313
3.77688,270163
3.78500,276008
3.79313,271114
3.80125,276358
3.80938,257873
3.81750,268075
3.82562,256585
3.83375,261028
3.84187,254852
3.84998,245450
3.85812,250490
3.86623,240562
3.87437,234738
3.88248,237078
3.89060,231937
3.89873,235254
3.90685,230958
3.91498,236257
3.92310,220224
3.93122,220997
3.93935,215369
3.94747,218106
3.95560,215962
3.96372,211196
3.97183,215530
3.97997,206676
3.98808,202051
3.99620,204916
4.00433,202815
4.01245,212331
4.02058,201617
4.02870,204379
4.03682,205006
4.04495,203888
4.05307,195268
4.06120,191040
4.06932,192485
4.07743,196548
4.08557,194778
4.09368,195908
4.10180,187906
4.10993,181355
4.11805,181078
4.12618,185334
4.13430,185570
4.14242,183514
4.15055,195818
4.15867,193552
4.16680,195051
4.17492,187973
4.18303,190347
4.19117,187105
4.19928,174638
4.20742,182111
4.21553,176110
4.22365,179250
4.23178,180803
4.23990,186790
4.24802,185633
4.25615,180392
4.26427,168359
4.27240,172165
4.28052,174470
4.28863,168512
4.29677,170457
4.30488,164689
4.31302,165332
4.32113,162184
4.32925,169244
4.33738,171247
4.34550,175071
4.35362,169042
4.36175,167453
4.36987,168092
4.37800,169515
4.38612,162491
4.39423,167312
4.40237,165216
4.41048,166709
4.41862,154028
4.42673,154310
4.43485,158484
4.44298,159366
4.45110,151485
4.45923,150197
4.46735,154972
4.47547,153259
4.48360,153469
4.49172,148538
4.49983,151304
4.50797,146214
4.51608,155230
4.52422,149071
4.53233,149530
4.54045,150900
4.54858,143882
4.55670,143309
4.56483,144250
4.57295,143579
4.58107,143166
4.58920,145344
4.59732,153909
4.60545,145543
4.61357,147895
4.62168,141057
4.62982,144150
4.63793,140885
4.64605,149654
4.65418,140311
4.66230,138872
4.67043,142050
4.67855,141064
4.68667,142383
4.69480,140588
4.70292,141152
4.71105,145661
4.71917,137701
4.72728,134609
4.73542,137621
4.74353,132606
4.75165,141192
4.75978,133290
4.76790,139276
4.77603,135020
4.78415,136483
4.79227,134044
4.80040,126649
4.80852,131711
4.81665,136836
4.82477,130581
4.83288,128679
4.84102,137252
4.84913,133509
4.85727,134605
4.86538,129993
4.87350,126868
4.88163,132299
4.88975,130537
4.89787,130978
4.90600,134509
4.91412,128710
4.92225,124813
4.93037,133926
4.93848,184526
4.94662,388432
4.95473,996901
4.96287,2178521
4.97098,3439689
4.97910,4181858
4.98723,3854463
4.99535,3075918
5.00348,2278585
5.01160,1747903
5.01972,1381707
5.02785,1131457
5.03597,957434
5.04408,848961
5.05222,766310
5.06033,699114
5.06847,659702
5.07658,592351
5.08470,565439
5.09283,530907
5.10095,502767
5.10908,478373
5.11720,459187
5.12532,435370
5.13345,421347
5.14157,413232
5.14968,401018
5.15782,395818
5.16593,372217
5.17407,357850
5.18218,364520
5.19030,352478
5.19843,344593
5.20655,346247
5.21468,328487
5.22280,332898
5.23092,320667
5.23905,325652
5.24717,324581
5.25530,324544
5.26342,312178
5.27153,302601
5.27967,285570
5.28778,280428
5.29590,280855
5.30403,274964
5.31215,265577
5.32028,265776
5.32840,258172
5.33652,255671
5.34465,255333
5.35277,251942
5.36090,252962
5.36902,257221
5.37713,249141
5.38527,248106
5.39338,239513
5.40150,243529
5.40963,232992
5.41775,248507
5.42588,225150
5.43400,229400
5.44212,226959
5.45025,233397
5.45837,223170
5.46650,224626
5.47462,224325
5.48273,210997
5.49087,207593
5.49898,219534
5.50712,208263
5.51523,206611
5.52335,206787
5.53148,204081
5.53960,207714
5.54772,210010
5.55585,200440
5.56397,206244
5.57210,198680
5.58022,199491
5.58833,204763
5.59647,205287
5.60458,205454
5.61272,203593
5.62083,204056
5.62895,225312
5.63708,234348
5.64520,236002
5.65333,234374
5.66145,219316
5.66957,200695
5.67770,209765
5.68582,210826
5.69393,226125
5.70207,236444
5.71018,251987
5.71832,232992
5.72643,210300
5.73455,196937
5.74268,193931
5.75080,180093
5.75893,181180
5.76705,179857
5.77517,175549
5.78330,183128
5.79142,179429
5.79955,180281
5.80767,176909
5.81578,173301
5.82392,175788
5.83203,180725
5.84015,172955
5.84828,172306
5.85640,180688
5.86453,170324
5.87265,181533
5.88077,177431
5.88890,168035
5.89702,173812
5.90515,171662
5.91327,153269
5.92138,136715
5.92952,124954
5.93763,126433
5.94575,124707
5.95388,123575
5.96200,123545
5.97013,121424
5.97825,129907
5.98637,143048
5.99450,145318
6.00262,138752
6.01075,133045
6.01887,137355
6.02698,131913
6.03512,125492
6.04323,123192
6.05137,121536
6.05948,121616
6.06760,121175
6.07573,117573
6.08385,114694
6.09197,119674
6.10010,111083
6.10822,116445
6.11635,115420
6.12447,121288
6.13258,123995
6.14072,116768
6.14883,118189
6.15697,123555
6.16508,128305
6.17320,131012
6.18133,128232
6.18945,122195
6.19757,130804
6.20570,128378
6.21382,143955
6.22195,136408
6.23007,140183
6.23818,141305
6.24632,140960
6.25443,144582
6.26257,140297
6.27068,149816
6.27880,151491
6.28693,153982
6.29505,158933
6.30318,152438
6.31130,164578
6.31942,164062
6.32755,169678
6.33567,173219
6.34378,169774
6.35192,170674
6.36003,170700
6.36817,174349
6.37628,185022
6.38440,183465
6.39253,178337
6.40065,185796
6.40878,187518
6.41690,188676
6.42502,195598
6.43315,190508
6.44127,199125
6.44940,206498
6.45752,203202
6.46563,213441
6.47377,206172
6.48188,213437
6.49000,209634
6.49813,214440
6.50625,210416
6.51438,216995
6.52250,217304
6.53062,215680
6.53875,214789
6.54687,226092
6.55500,225314
6.56312,223170
6.57123,199135
6.57937,169898
6.58748,151172
6.59560,147099
6.60373,148054
6.61185,140338
6.61998,139223
6.62810,134920
6.63622,137274
6.64435,136487
6.65247,122719
6.66060,129548
6.66872,129939
6.67683,128877
6.68497,121729
6.69308,127614
6.70122,118998
6.70933,120513
6.71745,120623
6.72558,126687
6.73370,123555
6.74182,122137
6.74995,119966
6.75807,115917
6.76620,119260
6.77432,117266
6.78243,117411
6.79057,106647
6.79868,116193
6.80682,106767
6.81493,112450
6.82305,109559
6.83118,114565
6.83930,108553
6.84743,107261
6.85555,105426
6.86367,99985
6.87180,87914
6.87992,86745
6.88803,85297
6.89617,80817
6.90428,80028
6.91242,68833
6.92053,63408
6.92865,60668
6.93678,72097
6.94490,66389
6.95303,60907
6.96115,66555
6.96927,60496
6.97740,60273
6.98552,60952
6.99363,64244
7.00177,62593
7.00988,61858
7.01802,66099
7.02613,61707
7.03425,60149
7.04238,60782
7.05050,57543
7.05863,68454
7.06675,61775
7.07487,60461
7.08300,62520
7.09112,61994
7.09925,56213
7.10737,58427
7.11548,56914
7.12362,54586
7.13173,56877
7.13985,58570
7.14798,61237
7.15610,58732
7.16423,59494
7.17235,58438
7.18047,59233
7.18860,62980
7.19672,61465
7.20485,57000
7.21297,56520
7.22108,59968
7.22922,55466
7.23733,59462
7.24545,57916
7.25358,58593
7.26170,58105
7.26983,56607
7.27795,60746
7.28607,59685
7.29420,57000
7.30232,52889
7.31045,58186
7.31857,57526
7.32668,58055
7.33482,58931
7.34293,56803
7.35107,55386
7.35918,56681
7.36730,62557
7.37543,58331
7.38355,57985
7.39167,58981
7.39980,58329
7.40792,58188
7.41605,62146
7.42417,61893
7.43228,65540
7.44042,70045
7.44853,71918
7.45667,69969
7.46478,66387
7.47290,63495
7.48103,59303
7.48915,54712
7.49728,61019
7.50540,53233
7.51352,56114
7.52165,59886
7.52977,56609
7.53788,56296
7.54602,54543
7.55413,57260
7.56227,59604
7.57038,56245
7.57850,54708
7.58663,58244
7.59475,56637
7.60288,55804
7.61100,54601
7.61912,52956
7.62725,63239
7.63537,54471
7.64348,51986
7.65162,55414
7.65973,56188
7.66787,53390
7.67598,54911
7.68410,56890
7.69223,47922
7.70035,58318
7.70848,52413
7.71660,56032
7.72472,59714
7.73285,52251
7.74097,52053
7.74910,55437
7.75722,57498
7.76533,51527
7.77347,56342
7.78158,63318
7.78970,55561
7.79783,55121
7.80595,53270
7.81408,56065
7.82220,54185
7.83032,53094
7.83845,51672
7.84657,50748
7.85470,49918
7.86282,54509
7.87093,52011
7.87907,53610
7.88718,53699
7.89532,44833
7.90343,50936
7.91155,48861
7.91968,54624
7.92780,48780
7.93592,50601
7.94405,49818
7.95217,53672
7.96030,53981
7.96842,50712
7.97653,53843
7.98467,55476
7.99278,49857
8.00092,52038
8.00903,49360
8.01715,56839
8.02528,49687
8.03340,50540
8.04152,54029
8.04965,46275
8.05777,53109
8.06590,51747
8.07402,49639
8.08213,51046
8.09027,45894
8.09838,50584
8.10652,51468
8.11463,55047
8.12275,50481
8.13088,50930
8.13900,48610
8.14713,46771
8.15525,50441
8.16337,54113
8.17150,54029
8.17962,54272
8.18773,51178
8.19587,53425
8.20398,56326
8.21212,52132
8.22023,50771
8.22835,51119
8.23648,54331
8.24460,48888
8.25273,50914
8.26085,48047
8.26897,54403
8.27710,49959
8.28522,49935
8.29335,48163
8.30147,56825
8.30958,48469
8.31772,49176
8.32583,48395
8.33395,49864
8.34208,57370
8.35020,60423
8.35833,60187
8.36645,61928
8.37457,55677
8.38270,53097
8.39082,50647
8.39895,50702
8.40707,51196
8.41518,51481
8.42332,52143
8.43143,49457
8.43955,48766
8.44768,50920
8.45580,54622
8.46393,51161
8.47205,50255
8.48017,53569
8.48830,50383
8.49642,51301
8.50455,51163
8.51267,56392
8.52078,59971
8.52892,69976
8.53703,68325
8.54517,69596
8.55328,65554
8.56140,58325
8.56953,62287
8.57765,55223
8.58577,55803
8.59390,58680
8.60202,58431
8.61015,58357
8.61827,60375
8.62638,59241
8.63452,59958
8.64263,61517
8.65077,56258
8.65888,55193
8.66700,55537
8.67513,56505
8.68325,53668
8.69137,56379
8.69950,58863
8.70762,57515
8.71575,49228
8.72387,50007
8.73198,49162
8.74012,48661
8.74823,52855
8.75637,55696
8.76448,57414
8.77260,81664
8.78073,148057
8.78885,281028
8.79698,504739
8.80510,745846
8.81322,908269
8.82135,862608
8.82947,724813
8.83758,589214
8.84572,484994
8.85383,426122
8.86197,377211
8.87008,328117
8.87820,292489
8.88633,266688
8.89445,242823
8.90258,222907
8.91070,212713
8.91882,209084
8.92695,191041
8.93507,195253
8.94320,177922
8.95132,172488
8.95943,167385
8.96757,164338
8.97568,152302
8.98380,152256
8.99193,156686
9.00005,149893
9.00818,148943
9.01630,141170
9.02442,146274
9.03255,139312
9.04067,135840
9.04880,133200
9.05692,135348
9.06503,127038
9.07317,130156
9.08128,124068
9.08940,129273
9.09753,123826
9.10565,123348
9.11378,123471
9.12190,123216
9.13002,115208
9.13815,123903
9.14627,112714
9.15440,113780
9.16252,107941
9.17063,123466
9.17877,118969
9.18688,115614
9.19502,113643
9.20313,105129
9.21125,110317
9.21938,107683
9.22750,110169
9.23562,103851
9.24375,100870
9.25187,96071
9.26000,103129
9.26812,96461
9.27623,98485
9.28437,98810
9.29248,93591
9.30062,93996
9.30873,93824
9.31685,92940
9.32498,92987
9.33310,85906
9.34123,87784
9.34935,90588
9.35747,89754
9.36560,84246
9.37372,88183
9.38183,85341
9.38997,83969
9.39808,88999
9.40622,86559
9.41433,82188
9.42245,82260
9.43058,85570
9.43870,80154
9.44683,82117
9.45495,85848
9.46307,80326
9.47120,79997
9.47932,77251
9.48743,75888
9.49557,81812
9.50368,80981
9.51182,78302
9.51993,75676
9.52805,81955
9.53618,81617
9.54430,79083
9.55243,84204
9.56055,81000
9.56867,73885
9.57680,64007
9.58492,57667
9.59305,59486
9.60117,62814
9.60928,63350
9.61742,65370
9.62553,61303
9.63365,51344
9.64178,56886
9.64990,54897
9.65803,53898
9.66615,54586
9.67427,53102
9.68240,47951
9.69052,51291
9.69865,49515
9.70677,50443
9.71488,50019
9.72302,47799
9.73113,49124
9.73925,49447
9.74738,47117
9.75550,48081
9.76363,42955
9.77175,41892
9.77987,49648
9.78800,45307
9.79612,45914
9.80425,47538
9.81237,47086
9.82048,45544
9.82862,49416
9.83673,48742
9.84487,48582
9.85298,52054
9.86110,56746
9.86923,54349
9.87735,52426
9.88547,52111
9.89360,48535
9.90172,45250
9.90985,46136
9.91797,48399
9.92608,45819
9.93422,45287
9.94233,44590
9.95047,43603
9.95858,52501
9.96670,46865
9.97483,48508
9.98295,49981
9.99108,49506
9.99920,50162
10.00732,53856
10.01545,58607
10.02357,58260
10.03168,61600
10.03982,70489
10.04793,67380
10.05607,65658
10.06418,67674
10.07230,62534
10.08043,63127
10.08855,59289
10.09668,52986
10.10480,58763
10.11292,55884
10.12105,52171
10.12917,49949
10.13728,48964
10.14542,46315
10.15353,51497
10.16167,49390
10.16978,46455
10.17790,42996
10.18603,47698
10.19415,46612
10.20228,47915
10.21040,45994
10.21852,51164
10.22665,52005
10.23477,53252
10.24290,50247
10.25102,55273
10.25913,55735
10.26727,57238
10.27538,53973
10.28350,50189
10.29163,54509
10.29975,47241
10.30788,51700
10.31600,49002
10.32412,50194
10.33225,48074
10.34037,55814
10.34850,52779
10.35662,51792
10.36473,47141
10.37287,45183
10.38098,47361
10.38912,50472
10.39723,47924
10.40535,47045
10.41348,52982
10.42160,49496
10.42972,51925
10.43785,50989
10.44597,46682
10.45410,43548
10.46222,48362
10.47033,42613
10.47847,46659
10.48658,45494
10.49472,48947
10.50283,46949
10.51095,46085
10.51908,51362
10.52720,49761
10.53532,49167
10.54345,49202
10.55157,47395
10.55970,47077
10.56782,48912
10.57593,52333
10.58407,47058
10.59218,45996
10.60032,47436
10.60843,49420
10.61655,48028
10.62468,49863
10.63280,42588
10.64093,46653
10.64905,44389
10.65717,43275
10.66530,40834
10.67342,44491
10.68153,43469
10.68967,49006
10.69778,47044
10.70592,50299
10.71403,47181
10.72215,44947
10.73028,49884
10.73840,46536
10.74653,45110
10.75465,44910
10.76277,47887
10.77090,51432
10.77902,51128
10.78713,51412
10.79527,53694
10.80338,48128
10.81152,47439
10.81963,47894
10.82775,45192
10.83588,45067
10.84400,45639
10.85213,47240
10.86025,44439
10.86837,50204
10.87650,46248
10.88462,45735
10.89275,42097
10.90087,42634
10.90898,45501
10.91712,44841
10.92523,43790
10.93335,47520
10.94148,45684
10.94960,46596
10.95773,45925
10.96585,46326
10.97397,42157
10.98210,43147
10.99022,44757
10.99835,46127
11.00647,47414
11.01458,38824
11.02272,39804
11.03083,42416
11.03897,39617
11.04708,41658
11.05520,41955
11.06333,42075
11.07145,42750
11.07957,45016
11.08770,40411
11.09582,42988
11.10395,41277
11.11207,40284
11.12018,40019
11.12832,39986
11.13643,45005
11.14457,38244
11.15268,44095
11.16080,41849
11.16893,40658
11.17705,45070
11.18518,50798
11.19330,63556
11.20142,67235
11.20955,72688
11.21767,81851
11.22578,72625
11.23392,60306
11.24203,62737
11.25017,50639
11.25828,45045
11.26640,51194
11.27453,46568
11.28265,43271
11.29078,43976
11.29890,41714
11.30702,44923
11.31515,43239
11.32327,43777
11.33138,46916
11.33952,43711
11.34763,46311
11.35577,42102
11.36388,43765
11.37200,41172
11.38013,38039
11.38825,40263
11.39638,42984
11.40450,42810
11.41262,41894
11.42075,36746
11.42887,39429
11.43700,41194
11.44512,39756
11.45323,38456
11.46137,39043
11.46948,39267
11.47760,42351
11.48573,39985
11.49385,41208
11.50198,39434
11.51010,39792
11.51822,38176
11.52635,37318
11.53447,42142
11.54260,39633
11.55072,42277
11.55883,38232
11.56697,37111
11.57508,40719
11.58320,40993
11.59133,38686
11.59945,38516
11.60758,40659
11.61570,37426
11.62382,40767
11.63195,38906
11.64007,41140
11.64820,39854
11.65632,38999
11.66443,38598
11.67257,35445
11.68068,36574
11.68882,35642
11.69693,39455
11.70505,43549
11.71318,42941
11.72130,47351
11.72942,41831
11.73755,41717
11.74567,39602
11.75380,45196
11.76192,46010
11.77003,45590
11.77817,43601
11.78628,47599
11.79442,44324
11.80253,46431
11.81065,41398
11.81878,42837
11.82690,42337
11.83503,38367
11.84315,39793
11.85127,40504
11.85940,45080
11.86752,39669
11.87563,43851
11.88377,42469
11.89188,40805
11.90002,40087
11.90813,41514
11.91625,37705
11.92438,38502
11.93250,39890
11.94063,40272
11.94875,40693
11.95687,39204
11.96500,40734
11.97312,38750
11.98123,39495
11.98937,40960
11.99748,39183
12.00562,43209
12.01373,37266
12.02185,38916
12.02998,41603
12.03810,41578
12.04623,37117
12.05435,38937
12.06247,36985
12.07060,38152
12.07872,38546
12.08685,42673
12.09497,38722
12.10308,40389
12.11122,41270
12.11933,43819
12.12745,41544
12.13558,37971
12.14370,43390
12.15183,41143
12.15995,39474
12.16807,42923
12.17620,42360
12.18432,44971
12.19245,44850
12.20057,43169
12.20868,43405
12.21682,42092
12.22493,44654
12.23307,42179
12.24118,45757
12.24930,42991
12.25743,40897
12.26555,46450
12.27367,38836
12.28180,44846
12.28992,44911
12.29805,42740
12.30617,41906
12.31428,41447
12.32242,42221
12.33053,46796
12.33867,43222
12.34678,42785
12.35490,45711
12.36303,43702
12.37115,43776
12.37927,46363
12.38740,42615
12.39552,45704
12.40365,42983
12.41177,46989
12.41988,45429
12.42802,45318
12.43613,42552
12.44427,44646
12.45238,49197
12.46050,49904
12.46863,49514
12.47675,50441
12.48488,47923
12.49300,46707
12.50112,48052
12.50925,40620
12.51737,43493
12.52548,45251
12.53362,45938
12.54173,42134
12.54987,45457
12.55798,43903
12.56610,44623
12.57423,47623
12.58235,42635
12.59048,44224
12.59860,44553
12.60672,42502
12.61485,44302
12.62297,46515
12.63108,41412
12.63922,46076
12.64733,40991
12.65547,41306
12.66358,46261
12.67170,42338
12.67983,45914
12.68795,42168
12.69608,45242
12.70420,45714
12.71232,40116
12.72045,45005
12.72857,50519
12.73670,53076
12.74482,54724
12.75293,58646
12.76107,58090
12.76918,54377
12.77730,55361
12.78543,50147
12.79355,46907
12.80168,49173
12.80980,45375
12.81792,45389
12.82605,46746
12.83417,44891
12.84230,42446
12.85042,47879
12.85853,44296
12.86667,44677
12.87478,45693
12.88292,45447
12.89103,46904
12.89915,47710
12.90728,40482
12.91540,44118
12.92352,41114
12.93165,44125
12.93977,38868
12.94790,42505
12.95602,45796
12.96413,41857
12.97227,44014
12.98038,42765
12.98852,45927
12.99663,46219
13.00475,44891
13.01288,39897
13.02100,39561
13.02912,45469
13.03725,42090
13.04537,41147
13.05350,36890
13.06162,45474
13.06973,43042
13.07787,44806
13.08598,42899
13.09412,42291
13.10223,44432
13.11035,43788
13.11848,43164
13.12660,41890
13.13473,43216
13.14285,42751
13.15097,44386
13.15910,42425
13.16722,38977
13.17533,43346
13.18347,39753
13.19158,45981
13.19972,42933
13.20783,51636
13.21595,50452
13.22408,50177
13.23220,55885
13.24033,51335
13.24845,46306
13.25657,48409
13.26470,46805
13.27282,42432
13.28095,45666
13.28907,45679
13.29718,41173
13.30532,45297
13.31343,44437
13.32155,40654
13.32968,44449
13.33780,43283
13.34593,42627
13.35405,42694
13.36217,43133
13.37030,38086
13.37842,45222
13.38655,40114
13.39467,44117
13.40278,43549
13.41092,41719
13.41903,44662
13.42715,43186
13.43528,45642
13.44340,42375
13.45153,41742
13.45965,40904
13.46777,43219
13.47590,42917
13.48402,39947
13.49215,42522
13.50027,41647
13.50838,38612
13.51652,39318
13.52463,38089
13.53277,39503
13.54088,41502
13.54900,38361
13.55713,38216
13.56525,37354
13.57337,40869
13.58150,39548
13.58962,41634
13.59775,42617
13.60587,43154
13.61398,37219
13.62212,38814
13.63023,42647
13.63837,38849
13.64648,36977
13.65460,40217
13.66273,37364
13.67085,37154
13.67898,37118
13.68710,34206
13.69522,37774
13.70335,37350
13.71147,38156
13.71958,38949
13.72772,40103
13.73583,37624
13.74397,37593
13.75208,39055
13.76020,39357
13.76833,41427
13.77645,34880
13.78458,35196
13.79270,36532
13.80082,39923
13.80895,37823
13.81707,38320
13.82518,33396
13.83332,36088
13.84143,38469
13.84957,43108
13.85768,40708
13.86580,40909
13.87393,39803
13.88205,37365
13.89018,35816
13.89830,38895
13.90642,36369
13.91455,38817
13.92267,39852
13.93080,37898
13.93892,41064
13.94703,41386
13.95517,47731
13.96328,44038
13.97140,39449
13.97953,44316
13.98765,39121
13.99578,43821
14.00390,41835
14.01202,38872
14.02015,38124
14.02827,38344
14.03640,37532
14.04452,36830
14.05263,39338
14.06077,42606
14.06888,40461
14.07700,45515
14.08513,50336
14.09325,47137
14.10138,42840
14.10950,43331
14.11762,41473
14.12575,40080
14.13387,39693
14.14200,44492
14.15012,37427
14.15823,40392
14.16637,43282
14.17448,44983
14.18262,42150
14.19073,55330
14.19885,83095
14.20698,142544
14.21510,216470
14.22322,299724
14.23135,351033
14.23947,349450
14.24760,300834
14.25572,254525
14.26383,212171
14.27197,197683
14.28008,174182
14.28822,156585
14.29633,137802
14.30445,122283
14.31258,121985
14.32070,116085
14.32883,106941
14.33695,104310
14.34507,93862
14.35320,90043
14.36132,83888
14.36943,82850
14.37757,68330
14.38568,57241
14.39382,52230
14.40193,50373
14.41005,47275
14.41818,46579
14.42630,45770
14.43443,46753
14.44255,45879
14.45067,45309
14.45880,44843
14.46692,45205
14.47503,41890
14.48317,46155
14.49128,41698
14.49942,38329
14.50753,44261
14.51565,46922
14.52378,44692
14.53190,39984
14.54003,46428
14.54815,43291
14.55627,42991
14.56440,41889
14.57252,41346
14.58065,42651
14.58877,39646
14.59688,42302
14.60502,41837
14.61313,40220
14.62125,37117
14.62938,40789
14.63750,43063
14.64563,38593
14.65375,37293
14.66187,36033
14.67000,41364
14.67812,39338
14.68625,38386
14.69437,33770
14.70248,39215
14.71062,32919
14.71873,39244
14.72687,37675
14.73498,35831
14.74310,36440
14.75123,35738
14.75935,34612
14.76747,36966
14.77560,34149
14.78372,33636
14.79185,36003
14.79997,37988
14.80808,35613
14.81622,34931
14.82433,36540
14.83247,43672
14.84058,44258
14.84870,49391
14.85683,54659
14.86495,52587
14.87307,54184
14.88120,54663
14.88932,51263
14.89745,52748
14.90557,54191
14.91368,56248
14.92182,54442
14.92993,52699
14.93807,54999
14.94618,56132
14.95430,53551
14.96243,53737
14.97055,54198
14.97868,52791
14.98680,51418
14.99492,53918
15.00305,52878
15.01117,49732
15.01928,53316
15.02742,51044
15.03553,51803
15.04367,48305
15.05178,52258
15.05990,45961
15.06803,50367
15.07615,47085
15.08428,47477
15.09240,46817
15.10052,46775
15.10865,49252
15.11677,47082
15.12488,43160
15.13302,44050
15.14113,49942
15.14927,46096
15.15738,46527
15.16550,43516
15.17363,44082
15.18175,46165
15.18988,41803
15.19800,41163
15.20612,41865
15.21425,41330
15.22237,40344
15.23050,40280
15.23862,37811
15.24673,39165
15.25487,37919
15.26298,41700
15.27110,37831
15.27923,44203
15.28735,42387
15.29548,40143
15.30360,40334
15.31172,40819
15.31985,40293
15.32797,34987
15.33610,39556
15.34422,37961
15.35233,40369
15.36047,36569
15.36858,36607
15.37672,38925
15.38483,34345
15.39295,36179
15.40108,37908
15.40920,39260
15.41732,40341
15.42545,36011
15.43357,39807
15.44170,37236
15.44982,37584
15.45793,36177
15.46607,38709
15.47418,41205
15.48232,36075
15.49043,40989
15.49855,35853
15.50668,42542
15.51480,43479
15.52292,42886
15.53105,43707
15.53917,45011
15.54730,41737
15.55542,37831
15.56353,38952
15.57167,33296
15.57978,35801
15.58792,36259
15.59603,36169
15.60415,38195
15.61228,39253
15.62040,39152
15.62853,39572
15.63665,36357
15.64477,39675
15.65290,39967
15.66102,37048
15.66913,37347
15.67727,38541
15.68538,35922
15.69352,36402
15.70163,38272
15.70975,37078
15.71788,37835
15.72600,35473
15.73413,38286
15.74225,37224
15.75037,37231
15.75850,39837
15.76662,38144
15.77475,38346
15.78287,40612
15.79098,34657
15.79912,36998
15.80723,36770
15.81535,37477
15.82348,42452
15.83160,39946
15.83973,41148
15.84785,38621
15.85597,36704
15.86410,40092
15.87222,40101
15.88035,40302
15.88847,39897
15.89658,41478
15.90472,40412
15.91283,36370
15.92095,38582
15.92908,38277
15.93720,37426
15.94533,38209
15.95345,37586
15.96157,40037
15.96970,40513
15.97782,35447
15.98595,34671
15.99407,40572
16.00218,46571
16.01032,53252
16.01843,64381
16.02657,85189
16.03468,108550
16.04280,129447
16.05093,138696
16.05905,126190
16.06717,103420
16.07530,85382
16.08342,74596
16.09155,64005
16.09967,65701
16.10778,56177
16.11592,55628
16.12403,53270
16.13217,50682
16.14028,49046
16.14840,50647
16.15653,50994
16.16465,49170
16.17277,47157
16.18090,47691
16.18902,50036
16.19715,46017
16.20527,49238
16.21338,44562
16.22152,50191
16.22963,47970
16.23777,48632
16.24588,48023
16.25400,46024
16.26213,48036
16.27025,47664
16.27838,46829
16.28650,44009
16.29462,45902
16.30275,46894
16.31087,43918
16.31898,40950
16.32712,44072
16.33523,44041
16.34337,40437
16.35148,41873
16.35960,39675
16.36773,42502
16.37585,38846
16.38398,38189
16.39210,45533
16.40022,40952
16.40835,43347
16.41647,39922
16.42460,40039
16.43272,38732
16.44083,43220
16.44897,38304
16.45708,40070
16.46520,40419
16.47333,38821
16.48145,40812
16.48958,37539
16.49770,40002
16.50582,38165
16.51395,39909
16.52207,37490
16.53020,36592
16.53832,41054
16.54643,40391
16.55457,40312
16.56268,41000
16.57082,38471
16.57893,38460
16.58705,39377
16.59518,38529
16.60330,38774
16.61142,38454
16.61955,34988
16.62767,37513
16.63580,36250
16.64392,35672
16.65203,35888
16.66017,31580
16.66828,36463
16.67642,37768
16.68453,37714
16.69265,35405
16.70078,37840
16.70890,38639
16.71702,36455
16.72515,36816
16.73327,36065
16.74140,33736
16.74952,32610
16.75763,32926
16.76577,37928
16.77388,33142
16.78202,35290
16.79013,37399
16.79825,33232
16.80638,37073
16.81450,39320
16.82263,33731
16.83075,36037
16.83887,30533
16.84700,33846
16.85512,30145
16.86323,33660
16.87137,35165
16.87948,30969
16.88762,33055
16.89573,33327
16.90385,34529
16.91198,31629
16.92010,32172
16.92823,34911
16.93635,32245
16.94447,33202
16.95260,31895
16.96072,32784
16.96883,33293
16.97697,37234
16.98508,33981
16.99322,31529
17.00133,33807
17.00945,31067
17.01758,31350
17.02570,36153
17.03383,34560
17.04195,33790
17.05007,35230
17.05820,35613
17.06632,36506
17.07445,35067
17.08257,35899
17.09068,38104
17.09882,36583
17.10693,38268
17.11505,36104
17.12318,37023
17.13130,33144
17.13943,37121
17.14755,35662
17.15567,36468
17.16380,34208
17.17192,32066
17.18005,31720
17.18817,35614
17.19628,33400
17.20442,35026
17.21253,34089
17.22067,36683
17.22878,33920
17.23690,34990
17.24503,33349
17.25315,31278
17.26127,33902
17.26940,31512
17.27752,34294
17.28565,33152
17.29377,35510
17.30188,37509
17.31002,33451
17.31813,35073
17.32627,37886
17.33438,34730
17.34250,33132
17.35063,36360
17.35875,36253
17.36687,40221
17.37500,43646
17.38312,49181
17.39125,48388
17.39937,46555
17.40748,45967
17.41562,46485
17.42373,42031
17.43187,43240
17.43998,42483
17.44810,39110
17.45623,41401
17.46435,42132
17.47248,37837
17.48060,46494
17.48872,40333
17.49685,39220
17.50497,41243
17.51308,42116
17.52122,39081
17.52933,44330
17.53747,39755
17.54558,40118
17.55370,39903
17.56183,39975
17.56995,38091
17.57808,39252
17.58620,36890
17.59432,40214
17.60245,40458
17.61057,36831
17.61870,37081
17.62682,36281
17.63493,36203
17.64307,33864
17.65118,36185
17.65930,35090
17.66743,37119
17.67555,35652
17.68368,35637
17.69180,37872
17.69992,42302
17.70805,38162
17.71617,42042
17.72430,41928
17.73242,40960
17.74053,39219
17.74867,38543
17.75678,38489
17.76490,38183
17.77303,40317
17.78115,39786
17.78928,37615
17.79740,39742
17.80552,36638
17.81365,41014
17.82177,38880
17.82990,38653
17.83802,36850
17.84613,41111
17.85427,41308
17.86238,44074
17.87052,39714
17.87863,40303
17.88675,40186
17.89488,39653
17.90300,36737
17.91112,33052
17.91925,35118
17.92737,35029
17.93550,31845
17.94362,33184
17.95173,33586
17.95987,33908
17.96798,31405
17.97612,35323
17.98423,37162
17.99235,34995
18.00048,33556
18.00860,32151
18.01672,34500
18.02485,29542
18.03297,33303
18.04110,34474
18.04922,36170
18.05733,35206
18.06547,31499
18.07358,32987
18.08172,39991
18.08983,45085
18.09795,54736
18.10608,56705
18.11420,64476
18.12233,77104
18.13045,74106
18.13857,71831
18.14670,74436
18.15482,74377
18.16293,69639
18.17107,69006
18.17918,70923
18.18732,76106
18.19543,69869
18.20355,67811
18.21168,68194
18.21980,63256
18.22793,59257
18.23605,63499
18.24417,57395
18.25230,60825
18.26042,60895
18.26855,59930
18.27667,60718
18.28478,55307
18.29292,50650
18.30103,47316
18.30915,48291
18.31728,40382
18.32540,42118
18.33353,41252
18.34165,42330
18.34977,37099
18.35790,42440
18.36602,37542
18.37415,39725
18.38227,34667
18.39038,39364
18.39852,38278
18.40663,36092
18.41475,37163
18.42288,34801
18.43100,37379
18.43913,34927
18.44725,34942
18.45537,34921
18.46350,33785
18.47162,37659
18.47975,33130
18.48787,39487
18.49598,37643
18.50412,36053
18.51223,30294
18.52037,35403
18.52848,34616
18.53660,34431
18.54473,34148
18.55285,31798
18.56097,36112
18.56910,34692
18.57722,33638
18.58535,37903
18.59347,34085
18.60158,32621
18.60972,36074
18.61783,38375
18.62597,36203
18.63408,37004
18.64220,36196
18.65033,34350
18.65845,33736
18.66658,34693
18.67470,33011
18.68282,36183
18.69095,35656
18.69907,34544
18.70718,36727
18.71532,31885
18.72343,30889
18.73157,33775
18.73968,28343
18.74780,32872
18.75593,35221
18.76405,32529
18.77218,32480
18.78030,36537
18.78842,33060
18.79655,32411
18.80467,30313
18.81278,30577
18.82092,31391
18.82903,34838
18.83717,30774
18.84528,34965
18.85340,35140
18.86153,36371
18.86965,36302
18.87778,33066
18.88590,32808
18.89402,36848
18.90215,33839
18.91027,36297
18.91840,33109
18.92652,32878
18.93463,30986
18.94277,34977
18.95088,35535
18.95900,36388
18.96713,34396
18.97525,34230
18.98338,31004
18.99150,29077
18.99962,33611
19.00775,31978
19.01587,34668
19.02400,33112
19.03212,32491
19.04023,30232
19.04837,33934
19.05648,31357
19.06462,30593
19.07273,35599
19.08085,33014
19.08898,32579
19.09710,33398
19.10522,36782
19.11335,39586
19.12147,35752
19.12960,39550
19.13772,41478
19.14583,38737
19.15397,44580
19.16208,39858
19.17022,37948
19.17833,36581
19.18645,35748
19.19458,36043
19.20270,39769
19.21082,37906
19.21895,34768
19.22707,35206
19.23520,34766
19.24332,34034
19.25143,34256
19.25957,35691
19.26768,36630
19.27582,44490
19.28393,51300
19.29205,52852
19.30018,57385
19.30830,70913
19.31643,76395
19.32455,70097
19.33267,64306
19.34080,56526
19.34892,48121
19.35703,45775
19.36517,49138
19.37328,45626
19.38142,48176
19.38953,45934
19.39765,41372
19.40578,45215
19.41390,45146
19.42203,41748
19.43015,43818
19.43827,38813
19.44640,43619
19.45452,42026
19.46263,40032
19.47077,41754
19.47888,47959
19.48702,52677
19.49513,71279
19.50325,100472
19.51138,140257
19.51950,200710
19.52763,251678
19.53575,282313
19.54387,267726
19.55200,215165
19.56012,152800
19.56825,114319
19.57637,75825
19.58448,59814
19.59262,54766
19.60073,51619
19.60885,50722
19.61698,50099
19.62510,47924
19.63323,53614
19.64135,62226
19.64947,96352
19.65760,142289
19.66572,233240
19.67385,352374
19.68197,454917
19.69008,534973
19.69822,516928
19.70633,432846
19.71447,335064
19.72258,244413
19.73070,185838
19.73883,151743
19.74695,126001
19.75507,100819
19.76320,85154
19.77132,80766
19.77945,74041
19.78757,63237
19.79568,57424
19.80382,59870
19.81193,57111
19.82007,55961
19.82818,54770
19.83630,55341
19.84443,48143
19.85255,54336
19.86067,55000
19.86880,52562
19.87692,50889
19.88505,52528
19.89317,58063
19.90128,66921
19.90942,74791
19.91753,83686
19.92567,97624
19.93378,105575
19.94190,112069
19.95003,106501
19.95815,99631
19.96628,96071
19.97440,98541
19.98252,93226
19.99065,94879
19.99877,92332
20.00688,90776
20.01502,87189
20.02313,89356
20.03127,89565
20.03938,90429
20.04750,85696
20.05563,87814
20.06375,85450
20.07188,80008
20.08000,71216
20.08812,69243
20.09625,68311
20.10437,66508
20.11250,64098
20.12062,73290
20.12873,70169
20.13687,63812
20.14498,64802
20.15310,67283
20.16123,69597
20.16935,63476
20.17748,64476
20.18560,63070
20.19372,64506
20.20185,68054
20.20997,65082
20.21810,64864
20.22622,67955
20.23433,64980
20.24247,69069
20.25058,75033
20.25870,97057
20.26683,132769
20.27495,198164
20.28308,275386
20.29120,373236
20.29932,438948
20.30745,453261
20.31557,419830
20.32370,337616
20.33182,272067
20.33993,216373
20.34807,152496
20.35618,129588
20.36432,114279
20.37243,95043
20.38055,91052
20.38868,91122
20.39680,82262
20.40492,77387
20.41305,82912
20.42117,84716
20.42930,96483
20.43742,109491
20.44553,128704
20.45367,154883
20.46178,169248
20.46992,171482
20.47803,162845
20.48615,142336
20.49428,117743
20.50240,104193
20.51052,93918
20.51865,81588
20.52677,80528
20.53490,74648
20.54302,71794
20.55113,65641
20.55927,64652
20.56738,66546
20.57552,63396
20.58363,57243
20.59175,65223
20.59988,64626
20.60800,69000
20.61613,60870
20.62425,62642
20.63237,60025
20.64050,64342
20.64862,53224
20.65673,58583
20.66487,56837
20.67298,59700
20.68112,58868
20.68923,57679
20.69735,55159
20.70548,56751
20.71360,55365
20.72173,58243
20.72985,57066
20.73797,58519
20.74610,57737
20.75422,55004
20.76235,53891
20.77047,61139
20.77858,54541
20.78672,51428
20.79483,54891
20.80295,51591
20.81108,54174
20.81920,53635
20.82733,53270
20.83545,54025
20.84357,51726
20.85170,53592
20.85982,52957
20.86795,54593
20.87607,52362
20.88418,52890
20.89232,54217
20.90043,55355
20.90857,52415
20.91668,55569
20.92480,51601
20.93293,52407
20.94105,53548
20.94917,49386
20.95730,46779
20.96542,49415
20.97355,53851
20.98167,51111
20.98978,53649
20.99792,48279
21.00603,49400
21.01417,48420
21.02228,48281
21.03040,50532
21.03853,48850
21.04665,49440
21.05477,51632
21.06290,51815
21.07102,53357
21.07915,50916
21.08727,47387
21.09538,49265
21.10352,53615
21.11163,47997
21.11977,45326
21.12788,47550
21.13600,42821
21.14413,44638
21.15225,47366
21.16038,49449
21.16850,49651
21.17662,50512
21.18475,46338
21.19287,54983
21.20098,54015
21.20912,49562
21.21723,52159
21.22537,48340
21.23348,53078
21.24160,48950
21.24973,48444
21.25785,50192
21.26598,48923
21.27410,49900
21.28222,49976
21.29035,45509
21.29847,52322
21.30658,47753
21.31472,47259
21.32283,50645
21.33097,52570
21.33908,49146
21.34720,49037
21.35533,45150
21.36345,50056
21.37158,46902
21.37970,54278
21.38782,53584
21.39595,49054
21.40407,47537
21.41220,48384
21.42032,51929
21.42843,47155
21.43657,54661
21.44468,50852
21.45280,51194
21.46093,46415
21.46905,49225
21.47718,49809
21.48530,49121
21.49342,49050
21.50155,50699
21.50967,49457
21.51780,44013
21.52592,46860
21.53403,43352
21.54217,45021
21.55028,48923
21.55842,50775
21.56653,45071
21.57465,49214
21.58278,46788
21.59090,42743
21.59902,46187
21.60715,49860
21.61527,47913
21.62340,55596
21.63152,67219
21.63963,87793
21.64777,106844
21.65588,128201
21.66402,146335
21.67213,142566
21.68025,127573
21.68838,110804
21.69650,92814
21.70462,74030
21.71275,67132
21.72087,59382
21.72900,59230
21.73712,55857
21.74523,52876
21.75337,52343
21.76148,50544
21.76962,54933
21.77773,50558
21.78585,50787
21.79398,54061
21.80210,49780
21.81023,48073
21.81835,53048
21.82647,62086
21.83460,71146
21.84272,83704
21.85083,102799
21.85897,116413
21.86708,118860
21.87522,113736
21.88333,96193
21.89145,73342
21.89958,62876
21.90770,59615
21.91583,51043
21.92395,49964
21.93207,48248
21.94020,47145
21.94832,47740
21.95645,49732
21.96457,47614
21.97268,49222
21.98082,48345
21.98893,47221
21.99705,47323
22.00518,42181
22.01330,44928
22.02143,41942
22.02955,42217
22.03767,44700
22.04580,43876
22.05392,44841
22.06205,40691
22.07017,42127
22.07828,47132
22.08642,46449
22.09453,40977
22.10265,43906
22.11078,45895
22.11890,41055
22.12703,44583
22.13515,43479
22.14327,43073
22.15140,40528
22.15952,47940
22.16765,44175
22.17577,47469
22.18388,43866
22.19202,43903
22.20013,48795
22.20827,50036
22.21638,47713
22.22450,50163
22.23263,50817
22.24075,59318
22.24887,58291
22.25700,61035
22.26512,57486
22.27325,52105
22.28137,51355
22.28948,47063
22.29762,42124
22.30573,42271
22.31387,42845
22.32198,45899
22.33010,44410
22.33823,43497
22.34635,42465
22.35447,41513
22.36260,44730
22.37072,42137
22.37885,41598
22.38697,44605
22.39508,44890
22.40322,39191
22.41133,43289
22.41947,37684
22.42758,40897
22.43570,42321
22.44383,42105
22.45195,43791
22.46008,45066
22.46820,47334
22.47632,47755
22.48445,46171
22.49257,43217
22.50068,44033
22.50882,42054
22.51693,44454
22.52507,40300
22.53318,38181
22.54130,39101
22.54943,42217
22.55755,37691
22.56568,38746
22.57380,38836
22.58192,35999
22.59005,39413
22.59817,39886
22.60630,38972
22.61442,36178
22.62253,39130
22.63067,32722
22.63878,35747
22.64690,34293
22.65503,35829
22.66315,40677
22.67128,39898
22.67940,37077
22.68752,35013
22.69565,43016
22.70377,33015
22.71190,40363
22.72002,39530
22.72813,38960
22.73627,38972
22.74438,41362
22.75250,38067
22.76063,39471
22.76875,38010
22.77688,39015
22.78500,36792
22.79312,37847
22.80125,39410
22.80937,36046
22.81750,35601
22.82562,38950
22.83373,36661
22.84187,40938
22.84998,42703
22.85812,41768
22.86623,42971
22.87435,42981
22.88248,41997
22.89060,44140
22.89872,40101
22.90685,44254
22.91497,48903
22.92310,54084
22.93122,61407
22.93933,67030
22.94747,77929
22.95558,81239
22.96372,93734
22.97183,90654
22.97995,87403
22.98808,83651
22.99620,75151
23.00433,74109
23.01245,70646
23.02057,60869
23.02870,62785
23.03682,52053
23.04493,52638
23.05307,49362
23.06118,45909
23.06932,45897
23.07743,42802
23.08555,47382
23.09368,45419
23.10180,40246
23.10993,40508
23.11805,41279
23.12617,42052
23.13430,42996
23.14242,39000
23.15053,38738
23.15867,38947
23.16678,36367
23.17492,38891
23.18303,36158
23.19115,38272
23.19928,37884
23.20740,35359
23.21553,36871
23.22365,38040
23.23177,38571
23.23990,35852
23.24802,36815
23.25615,41380
23.26427,33650
23.27238,40680
23.28052,36078
23.28863,35619
23.29675,38192
23.30488,37003
23.31300,35441
23.32113,37082
23.32925,39573
23.33737,37904
23.34550,38107
23.35362,40643
23.36175,32835
23.36987,36273
23.37798,37066
23.38612,38361
23.39423,39380
23.40235,36773
23.41048,36102
23.41860,41005
23.42673,36364
23.43485,36489
23.44297,41079
23.45110,39231
23.45922,36110
23.46735,34868
23.47547,36305
23.48358,37090
23.49172,33461
23.49983,39997
23.50797,35626
23.51608,37507
23.52420,35249
23.53233,35682
23.54045,37787
23.54857,36404
23.55670,37603
23.56482,40730
23.57295,35897
23.58107,39925
23.58918,35559
23.59732,37425
23.60543,40508
23.61357,40944
23.62168,35324
23.62980,41056
23.63793,39820
23.64605,41809
23.65418,39113
23.66230,41998
23.67042,48339
23.67855,49045
23.68667,52702
23.69478,50914
23.70292,55962
23.71103,55161
23.71917,52318
23.72728,51967
23.73540,53674
23.74353,52020
23.75165,75080
23.75978,148852
23.76790,388132
23.77602,1030135
23.78415,2386899
23.79227,4162426
23.80038,5982620
23.80852,6732896
23.81663,6310500
23.82477,5151457
23.83288,3628261
23.84100,2434252
23.84913,1572840
23.85725,1086825
23.86538,831479
23.87350,627380
23.88162,518345
23.88975,446332
23.89787,378464
23.90600,338305
23.91412,304003
23.92223,276354
23.93037,259124
23.93848,244354
23.94660,215390
23.95473,202058
23.96285,196586
23.97098,190539
23.97910,177004
23.98722,176297
23.99535,158062
24.00347,148930
24.01160,148696
24.01972,144685
24.02783,141650
24.03597,134431
24.04408,135080
24.05222,126788
24.06033,130806
24.06845,119299
24.07658,113513
24.08470,114204
24.09282,111900
24.10095,110230
24.10907,109863
24.11720,103636
24.12532,101990
24.13343,102966
24.14157,106827
24.14968,112210
24.15782,122261
24.16593,116143
24.17405,115620
24.18218,110470
24.19030,104911
24.19842,100941
24.20655,97729
24.21467,95937
24.22280,98698
24.23092,103848
24.23903,103860
24.24717,106689
24.25528,100603
24.26342,105021
24.27153,95821
24.27965,89138
24.28778,80487
24.29590,86282
24.30403,76153
24.31215,75195
24.32027,75046
24.32840,77102
24.33652,77337
24.34463,75216
24.35277,76053
24.36088,70042
24.36902,70731
24.37713,73741
24.38525,75820
24.39338,93120
24.40150,114315
24.40963,160741
24.41775,188288
24.42587,222268
24.43400,218306
24.44212,188096
24.45025,137662
24.45837,102697
24.46648,84646
24.47462,74271
24.48273,72337
24.49085,67140
24.49898,69844
24.50710,76319
24.51523,88696
24.52335,96367
24.53147,102096
24.53960,113974
24.54772,101714
24.55585,97901
24.56397,87612
24.57208,84733
24.58022,75253
24.58833,74545
24.59645,71159
24.60458,68912
24.61270,71724
24.62083,71035
24.62895,67053
24.63707,67845
24.64520,70621
24.65332,70904
24.66145,70131
24.66957,71694
24.67768,78537
24.68582,80636
24.69393,71473
24.70207,61972
24.71018,64402
24.71830,63134
24.72643,58274
24.73455,59795
24.74267,59148
24.75080,60271
24.75892,58931
24.76705,55793
24.77517,56607
24.78328,51544
24.79142,57479
24.79953,52601
24.80767,56619
24.81578,50606
24.82390,52469
24.83203,53031
24.84015,53921
24.84827,56917
24.85640,52096
24.86452,52384
24.87265,53934
24.88077,57027
24.88888,56490
24.89702,53721
24.90513,56831
24.91327,52897
24.92138,54495
24.92950,53280
24.93763,55838
24.94575,54153
24.95388,50509
24.96200,52434
24.97012,47870
24.97825,50213
24.98637,50803
24.99448,55845
25.00262,52934
25.01073,52545
25.01887,53288
25.02698,47730
25.03510,52561
25.04323,51194
25.05135,50650
25.05948,49098
25.06760,43902
25.07572,51968
25.08385,48620
25.09197,51851
25.10010,49651
25.10822,49768
25.11633,47369
25.12447,55064
25.13258,53389
25.14070,58672
25.14883,61331
25.15695,71457
25.16508,78305
25.17320,84954
25.18132,80275
25.18945,82369
25.19757,80726
25.20570,70571
25.21382,63263
25.22193,59872
25.23007,56977
25.23818,57130
25.24630,61305
25.25443,52154
25.26255,59252
25.27068,54522
25.27880,50100
25.28692,55395
25.29505,56467
25.30317,55013
25.31130,55586
25.31942,55963
25.32753,56875
25.33567,57134
25.34378,59255
25.35192,57896
25.36003,61607
25.36815,59170
25.37628,50937
25.38440,49787
25.39252,49111
25.40065,48867
25.40877,49235
25.41690,47723
25.42502,49854
25.43313,47106
25.44127,49495
25.44938,45653
25.45752,46611
25.46563,48040
25.47375,46002
25.48188,52492
25.49000,59611
25.49813,60161
25.50625,62089
25.51437,64308
25.52250,59688
25.53062,59524
25.53873,53064
25.54687,49377
25.55498,46774
25.56312,48467
25.57123,47873
25.57935,47034
25.58748,45522
25.59560,46127
25.60373,48885
25.61185,46015
25.61997,42766
25.62810,48210
25.63622,44977
25.64433,43107
25.65247,43353
25.66058,44794
25.66872,44775
25.67683,45795
25.68495,46522
25.69308,43470
25.70120,47442
25.70933,43811
25.71745,40881
25.72557,44634
25.73370,43120
25.74182,47486
25.74995,45381
25.75807,42461
25.76618,42943
25.77432,46118
25.78243,48036
25.79055,45816
25.79868,45796
25.80680,46118
25.81493,46753
25.82305,48021
25.83117,49125
25.83930,49844
25.84742,49660
25.85555,44134
25.86367,47984
25.87178,44436
25.87992,47998
25.88803,47533
25.89615,45798
25.90428,45587
25.91240,47013
25.92053,42868
25.92865,45225
25.93677,41428
25.94490,44899
25.95302,43026
25.96115,42975
25.96927,46135
25.97738,44662
25.98552,44142
25.99363,45877
26.00177,46283
26.00988,48700
26.01800,43556
26.02613,46947
26.03425,44656
26.04237,43522
26.05050,48828
26.05862,44586
26.06675,41851
26.07487,44545
26.08298,46774
26.09112,47615
26.09923,47626
26.10737,49245
26.11548,46850
26.12360,46756
26.13173,46455
26.13985,53315
26.14798,54799
26.15610,59513
26.16422,54383
26.17235,54915
26.18047,56759
26.18858,55354
26.19672,55733
26.20483,53817
26.21297,52967
26.22108,52687
26.22920,50252
26.23733,49119
26.24545,49300
26.25358,49029
26.26170,48711
26.26982,51697
26.27795,49096
26.28607,49050
26.29420,49053
26.30232,51213
26.31043,47389
26.31857,44463
26.32668,46449
26.33480,44732
26.34293,43358
26.35105,49073
26.35918,43520
26.36730,45652
26.37542,46048
26.38355,47964
26.39167,46807
26.39980,48981
26.40792,51632
26.41603,55238
26.42417,51582
26.43228,54450
26.44040,51937
26.44853,51303
26.45665,48049
26.46478,46265
26.47290,46280
26.48102,50049
26.48915,44117
26.49727,45109
26.50540,45261
26.51352,41681
26.52163,46656
26.52977,43415
26.53788,40703
26.54602,41273
26.55413,41229
26.56225,42374
26.57038,43086
26.57850,44723
26.58662,42855
26.59475,41051
26.60287,42005
26.61100,43931
26.61912,42511
26.62723,43756
26.63537,42807
26.64348,42885
26.65162,46149
26.65973,43460
26.66785,44558
26.67598,47126
26.68410,50832
26.69222,51377
26.70035,48260
26.70847,46445
26.71660,47474
26.72472,49260
26.73283,46909
26.74097,42213
26.74908,44781
26.75722,47359
26.76533,46239
26.77345,42857
26.78158,49852
26.78970,48936
26.79783,44440
26.80595,45109
26.81407,48958
26.82220,45467
26.83032,52804
26.83843,51000
26.84657,56330
26.85468,54593
26.86282,54033
26.87093,56435
26.87905,53950
26.88718,54580
26.89530,58141
26.90343,53417
26.91155,56010
26.91967,50038
26.92780,53451
26.93592,51937
26.94405,54842
26.95217,59151
26.96028,63692
26.96842,74476
26.97653,123523
26.98465,250883
26.99278,534209
27.00090,1166332
27.00903,2403179
27.01715,4264428
27.02527,6073304
27.03340,6602487
27.04152,5916042
27.04965,4739510
27.05777,3454321
27.06588,2396138
27.07402,1666890
27.08213,1172739
27.09025,844172
27.09838,664245
27.10650,547654
27.11463,482648
27.12275,410755
27.13087,376103
27.13900,337861
27.14712,312258
27.15525,279772
27.16337,256825
27.17148,242154
27.17962,226039
27.18773,218134
27.19587,205389
27.20398,200250
27.21210,185996
27.22023,181018
27.22835,174306
27.23647,165049
27.24460,157312
27.25272,147631
27.26085,142833
27.26897,145639
27.27708,134842
27.28522,128985
27.29333,130810
27.30147,124918
27.30958,115495
27.31770,116247
27.32583,109777
27.33395,109807
27.34208,106869
27.35020,107332
27.35832,101545
27.36645,104289
27.37457,97908
27.38268,95660
27.39082,96185
27.39893,96593
27.40707,88989
27.41518,95080
27.42330,86818
27.43143,86589
27.43955,83849
27.44768,86523
27.45580,85229
27.46392,80399
27.47205,85716
27.48017,82141
27.48828,81935
27.49642,82442
27.50453,80399
27.51267,78756
27.52078,80590
27.52890,77482
27.53703,79172
27.54515,81341
27.55328,81864
27.56140,85776
27.56952,79532
27.57765,74494
27.58577,74167
27.59390,74896
27.60202,72835
27.61013,69855
27.61827,72062
27.62638,74655
27.63450,73413
27.64263,71712
27.65075,71324
27.65888,73768
27.66700,64782
27.67512,65174
27.68325,66380
27.69137,65871
27.69950,66132
27.70762,65621
27.71573,62792
27.72387,60830
27.73198,63218
27.74010,57565
27.74823,64752
27.75635,61102
27.76448,64620
27.77260,62703
27.78072,55337
27.78885,58621
27.79697,59132
27.80510,61909
27.81322,63652
27.82133,60984
27.82947,57495
27.83758,56053
27.84572,59407
27.85383,60439
27.86195,61135
27.87008,58591
27.87820,56919
27.88632,57282
27.89445,56338
27.90257,59784
27.91070,57766
27.91882,57432
27.92693,51748
27.93507,55861
27.94318,55860
27.95132,53780
27.95943,52691
27.96755,52647
27.97568,53679
27.98380,52574
27.99193,55788
28.00005,52297
28.00817,53744
28.01630,57300
28.02442,51474
28.03253,53142
28.04067,51982
28.04878,50708
28.05692,56092
28.06503,51147
28.07315,52602
28.08128,58589
28.08940,55011
28.09753,53690
28.10565,48793
28.11377,50063
28.12190,52454
28.13002,50353
28.13813,53743
28.14627,51699
28.15438,50510
28.16252,44922
28.17063,52438
28.17875,50874
28.18688,54121
28.19500,47339
28.20313,50513
28.21125,56537
28.21937,59020
28.22750,63417
28.23562,67195
28.24375,69143
28.25187,65083
28.25998,62436
28.26812,63290
28.27623,59067
28.28435,57751
28.29248,59863
28.30060,65831
28.30873,82210
28.31685,118424
28.32497,176106
28.33310,277844
28.34122,403179
28.34935,573283
28.35747,718460
28.36558,865111
28.37372,934003
28.38183,952864
28.38997,939299
28.39808,831420
28.40620,707980
28.41433,596331
28.42245,499942
28.43057,408509
28.43870,349974
28.44682,301794
28.45495,259272
28.46307,228310
28.47118,208387
28.47932,181971
28.48743,172254
28.49557,155003
28.50368,149831
28.51180,138647
28.51993,136697
28.52805,129981
28.53617,126742
28.54430,122223
28.55242,118743
28.56055,106915
28.56867,111575
28.57678,105354
28.58492,103178
28.59303,96896
28.60117,98540
28.60928,99258
28.61740,100324
28.62553,95696
28.63365,93428
28.64178,94265
28.64990,93291
28.65802,93509
28.66615,91043
28.67427,91122
28.68238,94878
28.69052,86621
28.69863,90461
28.70677,90472
28.71488,84284
28.72300,86212
28.73113,72685
28.73925,75643
28.74738,73688
28.75550,80195
28.76362,82690
28.77175,93613
28.77987,106834
28.78800,123004
28.79612,143621
28.80423,147639
28.81237,135085
28.82048,114999
28.82860,95220
28.83673,82238
28.84485,71646
28.85298,64713
28.86110,70862
28.86922,67874
28.87735,67113
28.88547,65317
28.89360,68587
28.90172,62537
28.90983,67529
28.91797,64153
28.92608,68954
28.93420,64497
28.94233,62164
28.95045,64341
28.95858,69410
28.96670,67622
28.97482,68799
28.98295,66136
28.99107,69628
28.99920,68967
29.00732,67211
29.01543,63431
29.02357,60918
29.03168,60693
29.03982,64092
29.04793,60459
29.05605,59641
29.06418,63656
29.07230,59624
29.08042,60861
29.08855,60344
29.09667,58363
29.10480,58433
29.11292,61179
29.12103,65466
29.12917,59349
29.13728,59319
29.14542,63222
29.15353,60759
29.16165,58918
29.16978,63762
29.17790,59038
29.18602,61362
29.19415,61344
29.20227,62662
29.21040,57704
29.21852,56631
29.22663,60280
29.23477,57739
29.24288,60949
29.25102,59901
29.25913,60298
29.26725,60660
29.27538,56840
29.28350,63893
29.29163,57581
29.29975,56331
29.30787,56504
29.31600,60065
29.32412,53762
29.33223,58804
29.34037,57145
29.34848,56094
29.35662,60122
29.36473,52463
29.37285,53769
29.38098,59099
29.38910,59330
29.39723,59395
29.40535,60418
29.41347,58322
29.42160,63923
29.42972,61176
29.43785,60542
29.44597,58452
29.45408,59836
29.46222,63266
29.47033,54565
29.47845,52080
29.48658,59201
29.49470,58158
29.50283,55444
29.51095,59118
29.51907,63679
29.52720,64915
29.53532,64846
29.54345,56526
29.55157,54310
29.55968,53914
29.56782,59891
29.57593,55377
29.58405,51328
29.59218,53505
29.60030,49937
29.60843,51882
29.61655,51702
29.62467,50229
29.63280,49294
29.64092,51576
29.64905,53921
29.65717,52624
29.66528,52259
29.67342,50206
29.68153,53503
29.68967,54439
29.69778,52806
29.70590,57539
29.71403,50405
29.72215,47991
29.73027,49731
29.73840,50685
29.74652,54072
29.75465,51251
29.76277,53273
29.77088,50112
29.77902,47438
29.78713,51190
29.79527,47826
29.80338,51023
29.81150,46560
29.81963,50585
29.82775,49106
29.83588,46259
29.84400,49075
29.85212,50372
29.86025,43793
29.86837,48763
29.87648,52967
29.88462,50725
29.89273,52354
29.90087,54953
29.90898,56771
29.91710,61380
29.92523,59420
29.93335,59014
29.94148,56829
29.94960,62722
29.95772,66211
29.96585,80585
29.97397,97605
29.98208,115728
29.99022,152549
29.99833,195923
30.00647,230816
30.01458,260243
30.02270,294280
30.03083,319291
30.03895,329753
30.04708,333913
30.05520,324756
30.06332,296110
30.07145,275993
30.07957,250633
30.08770,238566
30.09582,204882
30.10393,185290
30.11207,169024
30.12018,149733
30.12830,139792
30.13643,126641
30.14455,123323
30.15268,113441
30.16080,110996
30.16892,100376
30.17705,101308
30.18517,99966
30.19330,89758
30.20142,85730
30.20953,87673
30.21767,81548
30.22578,79856
30.23390,78414
30.24203,79762
30.25015,79646
30.25828,72907
30.26640,71414
30.27452,65317
30.28265,72648
30.29077,69870
30.29890,70584
30.30702,65354
30.31513,67392
30.32327,67909
30.33138,66757
30.33952,61734
30.34763,68012
30.35575,64578
30.36388,64567
30.37200,63479
30.38012,64915
30.38825,60355
30.39637,59379
30.40450,59729
30.41262,61186
30.42073,58558
30.42887,57325
30.43698,57092
30.44512,58442
30.45323,57432
30.46135,53977
30.46948,53730
30.47760,57145
30.48573,53916
30.49385,54814
30.50197,54795
30.51010,57418
30.51822,55585
30.52633,52935
30.53447,55676
30.54258,54549
30.55072,53542
30.55883,55232
30.56695,58761
30.57508,55445
30.58320,53692
30.59133,50395
30.59945,56437
30.60757,57266
30.61570,51054
30.62382,52978
30.63193,55397
30.64007,52056
30.64818,54065
30.65632,48957
30.66443,51839
30.67255,57181
30.68068,50049
30.68880,53831
30.69693,51248
30.70505,50374
30.71317,54750
30.72130,52487
30.72942,52998
30.73755,52112
30.74567,50494
30.75378,48762
30.76192,49424
30.77003,50240
30.77815,49610
30.78628,49942
30.79440,54794
30.80253,55152
30.81065,56023
30.81877,55880
30.82690,55609
30.83502,53027
30.84315,57882
30.85127,52287
30.85938,54448
30.86752,54417
30.87563,46812
30.88377,50402
30.89188,49569
30.90000,51531
30.90813,53183
30.91625,49145
30.92437,51881
30.93250,45712
30.94062,51349
30.94875,50121
30.95687,46011
30.96498,46760
30.97312,45499
30.98123,45943
30.98937,47263
30.99748,47833
31.00560,49085
31.01373,50037
31.02185,52087
31.02997,50592
31.03810,51432
31.04622,50965
31.05435,52973
31.06247,51529
31.07058,48854
31.07872,52542
31.08683,50142
31.09497,56187
31.10308,55074
31.11120,59037
31.11933,63524
31.12745,64855
31.13558,65203
31.14370,63383
31.15182,58584
31.15995,56989
31.16807,53847
31.17618,54405
31.18432,57141
31.19243,66953
31.20057,85212
31.20868,104403
31.21680,142493
31.22493,176372
31.23305,206328
31.24118,211067
31.24930,208391
31.25742,176569
31.26555,137678
31.27367,107568
31.28178,83534
31.28992,64572
31.29803,58506
31.30617,57729
31.31428,49679
31.32240,55995
31.33053,49913
31.33865,51495
31.34678,47970
31.35490,52138
31.36302,51288
31.37115,49156
31.37927,47291
31.38740,47768
31.39552,46576
31.40363,50232
31.41177,48619
31.41988,49879
31.42800,51765
31.43613,57170
31.44425,55737
31.45238,52324
31.46050,53543
31.46862,52005
31.47675,50094
31.48487,51063
31.49300,47114
31.50112,48596
31.50923,49218
31.51737,47667
31.52548,53092
31.53362,45043
31.54173,47510
31.54985,45178
31.55798,47343
31.56610,46105
31.57422,44794
31.58235,47938
31.59047,50224
31.59860,45762
31.60672,53094
31.61483,50910
31.62297,46851
31.63108,50429
31.63922,48372
31.64733,48935
31.65545,50488
31.66358,46272
31.67170,48528
31.67983,46789
31.68795,53340
31.69607,49211
31.70420,52223
31.71232,50667
31.72043,47012
31.72857,49657
31.73668,45412
31.74482,45034
31.75293,45434
31.76105,47230
31.76918,42157
31.77730,45027
31.78543,43557
31.79355,47526
31.80167,45523
31.80980,48298
31.81792,49262
31.82603,52608
31.83417,50189
31.84228,50440
31.85042,53069
31.85853,54684
31.86665,49673
31.87478,53038
31.88290,54802
31.89103,54534
31.89915,57168
31.90727,61499
31.91540,59035
31.92352,65539
31.93165,72182
31.93977,94747
31.94788,108647
31.95602,127381
31.96413,146167
31.97225,160080
31.98038,176845
31.98850,174679
31.99663,176743
32.00475,168918
32.01287,157301
32.02100,153201
32.02912,135958
32.03725,124532
32.04537,118122
32.05348,108430
32.06162,102556
32.06973,95656
32.07785,90293
32.08598,88289
32.09410,90792
32.10223,94802
32.11035,89780
32.11847,86186
32.12660,81052
32.13472,72892
32.14285,71472
32.15097,76180
32.15908,66360
32.16722,64493
32.17533,66008
32.18347,64206
32.19158,58152
32.19970,58306
32.20783,60523
32.21595,66942
32.22407,64321
32.23220,57968
32.24032,58917
32.24845,56118
32.25657,61350
32.26468,60028
32.27282,54880
32.28093,55226
32.28907,49856
32.29718,56555
32.30530,54855
32.31343,56234
32.32155,54311
32.32968,55883
32.33780,55124
32.34592,52917
32.35405,55003
32.36217,55889
32.37028,54035
32.37842,51805
32.38653,54748
32.39467,53264
32.40278,54644
32.41090,51045
32.41903,51189
32.42715,51585
32.43528,52614
32.44340,52707
32.45152,51489
32.45965,51153
32.46777,51694
32.47588,49820
32.48402,49233
32.49213,52701
32.50027,50730
32.50838,54971
32.51650,50914
32.52463,50502
32.53275,50398
32.54088,52584
32.54900,52615
32.55712,53624
32.56525,50249
32.57337,50624
32.58150,52392
32.58962,56975
32.59773,47604
32.60587,48822
32.61398,50540
32.62210,50733
32.63023,51916
32.63835,54030
32.64648,48548
32.65460,52704
32.66272,62101
32.67085,67582
32.67897,74096
32.68710,92355
32.69522,94269
32.70333,92461
32.71147,81116
32.71958,75702
32.72772,65324
32.73583,61755
32.74395,57806
32.75208,55536
32.76020,52595
32.76832,51907
32.77645,47660
32.78457,52439
32.79270,44916
32.80082,50155
32.80893,51054
32.81707,52573
32.82518,51484
32.83332,50952
32.84143,50481
32.84955,46349
32.85768,48219
32.86580,47278
32.87392,45178
32.88205,48823
32.89017,49754
32.89830,45934
32.90642,47340
32.91453,51823
32.92267,47419
32.93078,49389
32.93892,50637
32.94703,51037
32.95515,52722
32.96328,46650
32.97140,50678
32.97953,46946
32.98765,46499
32.99577,51627
33.00390,47396
33.01202,48262
33.02013,51442
33.02827,47439
33.03638,48054
33.04452,52516
33.05263,49354
33.06075,52977
33.06888,45841
33.07700,48227
33.08513,48825
33.09325,47894
33.10137,49694
33.10950,56322
33.11762,57715
33.12573,66937
33.13387,73706
33.14198,76693
33.15012,70754
33.15823,66625
33.16635,58732
33.17448,55392
33.18260,48986
33.19073,48303
33.19885,50758
33.20697,51239
33.21510,55431
33.22322,53751
33.23135,55672
33.23947,52884
33.24758,56465
33.25572,52089
33.26383,53152
33.27195,50528
33.28008,51728
33.28820,52839
33.29633,53871
33.30445,50846
33.31257,49039
33.32070,50992
33.32882,48717
33.33695,42819
33.34507,47555
33.35318,46875
33.36132,48664
33.36943,45850
33.37757,48621
33.38568,48765
33.39380,48532
33.40193,50942
33.41005,49459
33.41817,46719
33.42630,44057
33.43442,47477
33.44255,47746
33.45067,46449
33.45878,47971
33.46692,50442
33.47503,49976
33.48317,48098
33.49128,46194
33.49940,46126
33.50753,49925
33.51565,49612
33.52377,48086
33.53190,49501
33.54002,49210
33.54815,47352
33.55627,47412
33.56438,51754
33.57252,48137
33.58063,49793
33.58877,46036
33.59688,49952
33.60500,48700
33.61313,50666
33.62125,48657
33.62938,48904
33.63750,48079
33.64562,45140
33.65375,44297
33.66187,49882
33.66998,44767
33.67812,46587
33.68623,52948
33.69437,49832
33.70248,46371
33.71060,46366
33.71873,47367
33.72685,48341
33.73498,49406
33.74310,48774
33.75122,49647
33.75935,46376
33.76747,48984
33.77560,45902
33.78372,48387
33.79183,50659
33.79997,52162
33.80808,51726
33.81620,49407
33.82433,54771
33.83245,51005
33.84058,47735
33.84870,54030
33.85682,49851
33.86495,53057
33.87307,52897
33.88120,52548
33.88932,52223
33.89743,52974
33.90557,52002
33.91368,56623
33.92180,51060
33.92993,53121
33.93805,45216
33.94618,54119
33.95430,51204
33.96242,54296
33.97055,52336
33.97867,52993
33.98680,52425
33.99492,47401
34.00303,52322
34.01117,53347
34.01928,49626
34.02742,50758
34.03553,50755
34.04365,46499
34.05178,49026
34.05990,46204
34.06802,48113
34.07615,47885
34.08427,48585
34.09240,49128
34.10052,52069
34.10863,53043
34.11677,47825
34.12488,49920
34.13302,46577
34.14113,52388
34.14925,45632
34.15738,51936
34.16550,52767
34.17363,47040
34.18175,48210
34.18987,47278
34.19800,52560
34.20612,47192
34.21423,45575
34.22237,48925
34.23048,48061
34.23862,50837
34.24673,51113
34.25485,49622
34.26298,53485
34.27110,53801
34.27923,49960
34.28735,53573
34.29547,51665
34.30360,52191
34.31172,50903
34.31983,49152
34.32797,49375
34.33608,48098
34.34422,47821
34.35233,50147
34.36045,52112
34.36858,49949
34.37670,51493
34.38483,50310
34.39295,50705
34.40107,54234
34.40920,50429
34.41732,49512
34.42545,48332
34.43357,45331
34.44168,51384
34.44982,47764
34.45793,49652
34.46605,49634
34.47418,53667
34.48230,48334
34.49043,46902
34.49855,52481
34.50667,51077
34.51480,49626
34.52292,57261
34.53105,57669
34.53917,70407
34.54728,80223
34.55542,98649
34.56353,113133
34.57165,126172
34.57978,116896
34.58790,120810
34.59603,114680
34.60415,105044
34.61227,96857
34.62040,87241
34.62852,84858
34.63665,77375
34.64477,78452
34.65288,72596
34.66102,67723
34.66913,70782
34.67727,71162
34.68538,70582
34.69350,68220
34.70163,63137
34.70975,65867
34.71787,63818
34.72600,64074
34.73412,64434
34.74225,62288
34.75037,65627
34.75848,64573
34.76662,62931
34.77473,59441
34.78287,59380
34.79098,61367
34.79910,57685
34.80723,58178
34.81535,57124
34.82348,55323
34.83160,60190
34.83972,60555
34.84785,57891
34.85597,56562
34.86408,52851
34.87222,54060
34.88033,58403
34.88847,57103
34.89658,57697
34.90470,55044
34.91283,56166
34.92095,55240
34.92908,58078
34.93720,61401
34.94532,63593
34.95345,60603
34.96157,63027
34.96968,64836
34.97782,66855
34.98593,65115
34.99407,69203
35.00218,65433
35.01030,66087
35.01843,66247
35.02655,61833
35.03468,63157
35.04280,66387
35.05092,62791
35.05905,62929
35.06717,63388
35.07530,58824
35.08342,55158
35.09153,54972
35.09967,62096
35.10778,58212
35.11590,58018
35.12403,59648
35.13215,59645
35.14028,61820
35.14840,60457
35.15652,61071
35.16465,67952
35.17277,67102
35.18090,74194
35.18902,64251
35.19713,69185
35.20527,60561
35.21338,62628
35.22152,58935
35.22963,55465
35.23775,57876
35.24588,57353
35.25400,52812
35.26212,55883
35.27025,58180
35.27837,57744
35.28650,54551
35.29462,53520
35.30273,56692
35.31087,56619
35.31898,55347
35.32712,55852
35.33523,55172
35.34335,55842
35.35148,57839
35.35960,51209
35.36772,51192
35.37585,53271
35.38397,52105
35.39210,55477
35.40022,53036
35.40833,55765
35.41647,58593
35.42458,53186
35.43272,55631
35.44083,49325
35.44895,55725
35.45708,59853
35.46520,58636
35.47333,58182
35.48145,57015
35.48957,59562
35.49770,56894
35.50582,58295
35.51393,57600
35.52207,55041
35.53018,56986
35.53832,57139
35.54643,53228
35.55455,56074
35.56268,59363
35.57080,53489
35.57893,57445
35.58705,55669
35.59517,59805
35.60330,56235
35.61142,52737
35.61953,56234
35.62767,56207
35.63578,56229
35.64392,54074
35.65203,53037
35.66015,50006
35.66828,55953
35.67640,57558
35.68453,61216
35.69265,64050
35.70077,67752
35.70890,67872
35.71702,65194
35.72515,68537
35.73327,63838
35.74138,60653
35.74952,61198
35.75763,58925
35.76575,61579
35.77388,61405
35.78200,58856
35.79013,59750
35.79825,57923
35.80637,56926
35.81450,55021
35.82262,54087
35.83075,58741
35.83887,57796
35.84698,58463
35.85512,59739
35.86323,56257
35.87137,59930
35.87948,60068
35.88760,54698
35.89573,57140
35.90385,61447
35.91197,52191
35.92010,54682
35.92822,59476
35.93635,51404
35.94447,54439
35.95258,55534
35.96072,50491
35.96883,51713
35.97697,55981
35.98508,55711
35.99320,54784
36.00133,58228
36.00945,57176
36.01758,56035
36.02570,64986
36.03382,60525
36.04195,59115
36.05007,60029
36.05818,61990
36.06632,62331
36.07443,60917
36.08257,59334
36.09068,63773
36.09880,61866
36.10693,60759
36.11505,56668
36.12318,58080
36.13130,57450
36.13942,56576
36.14755,58493
36.15567,55966
36.16378,62423
36.17192,54859
36.18003,57234
36.18817,60469
36.19628,57014
36.20440,61093
36.21253,62432
36.22065,60917
36.22878,61414
36.23690,59755
36.24502,58877
36.25315,56264
36.26127,58565
36.26940,57920
36.27752,55168
36.28563,57966
36.29377,60780
36.30188,62204
36.31000,67112
36.31813,72838
36.32625,84299
36.33438,96212
36.34250,98570
36.35062,101612
36.35875,91141
36.36687,86588
36.37500,77949
36.38312,77102
36.39123,77711
36.39937,77402
36.40748,80072
36.41560,81423
36.42373,81336
36.43185,86070
36.43998,79817
36.44810,79225
36.45622,83116
36.46435,86484
36.47247,88283
36.48060,87616
36.48872,96468
36.49683,97073
36.50497,92939
36.51308,98673
36.52122,101909
36.52933,99030
36.53745,105375
36.54558,99902
36.55370,94037
36.56182,95403
36.56995,91725
36.57807,87234
36.58620,80422
36.59432,76779
36.60243,80887
36.61057,72315
36.61868,79267
36.62682,79546
36.63493,73599
36.64305,73459
36.65118,62682
36.65930,65700
36.66743,68301
36.67555,67298
36.68367,63778
36.69180,66846
36.69992,62343
36.70803,67260
36.71617,61295
36.72428,65577
36.73242,64923
36.74053,64731
36.74865,59484
36.75678,63183
36.76490,59270
36.77303,62157
36.78115,64259
36.78927,64787
36.79740,58444
36.80552,62412
36.81363,59910
36.82177,60341
36.82988,54782
36.83802,60494
36.84613,62377
36.85425,62277
36.86238,62693
36.87050,57868
36.87863,60911
36.88675,58734
36.89487,58772
36.90300,57196
36.91112,60463
36.91925,60860
36.92737,62039
36.93548,59953
36.94362,58414
36.95173,58573
36.95985,59355
36.96798,65821
36.97610,55883
36.98423,63389
36.99235,62775
37.00047,62026
37.00860,60748
37.01672,61986
37.02485,56658
37.03297,56964
37.04108,60746
37.04922,58517
37.05733,60238
37.06547,63523
37.07358,58325
37.08170,64714
37.08983,63861
37.09795,56162
37.10607,62637
37.11420,65070
37.12232,64536
37.13045,61806
37.13857,63296
37.14668,65906
37.15482,66023
37.16293,64883
37.17107,67841
37.17918,61843
37.18730,59085
37.19543,62248
37.20355,65167
37.21167,62628
37.21980,62848
37.22792,63649
37.23605,68755
37.24417,67722
37.25228,65695
37.26042,70690
37.26853,67005
37.27667,66559
37.28478,68167
37.29290,70734
37.30103,68219
37.30915,68666
37.31728,67921
37.32540,67825
37.33352,73992
37.34165,75130
37.34977,78564
37.35788,83671
37.36602,92457
37.37413,98602
37.38227,96982
37.39038,104056
37.39850,104161
37.40663,97953
37.41475,94065
37.42288,86845
37.43100,88855
37.43912,86090
37.44725,84617
37.45537,82278
37.46348,80000
37.47162,78778
37.47973,79295
37.48787,76362
