Z:\data\JTB-E02\CS_Samples\JTB-E18-003-10.D Wed Apr 03 13:52:39 2019
Start of data points
2.09528	33109
2.10340	29971
2.11153	31268
2.11965	33710
2.12778	30929
2.13590	41308
2.14402	35803
2.15215	34409
2.16027	33335
2.16840	34230
2.17652	34297
2.18463	33595
2.19277	30048
2.20088	29901
2.20900	29354
2.21713	28814
2.22525	31978
2.23338	30522
2.24150	30073
2.24962	26670
2.25775	51098
2.26587	249511
2.27400	511885
2.28212	366051
2.29023	604477
2.29837	377288
2.30648	258548
2.31462	200767
2.32273	168413
2.33085	147490
2.33898	149485
2.34710	158352
2.35522	159116
2.36335	165045
2.37147	286745
2.37960	235187
2.38772	233900
2.39583	648771
2.40397	2479151
2.41208	2968909
2.42022	1810981
2.42833	5020805
2.43645	6690277
2.44458	4794951
2.45270	3917869
2.46082	3721355
2.46895	3498073
2.47707	3474010
2.48520	3365035
2.49332	3162168
2.50143	2958283
2.50957	2715495
2.51768	2514029
2.52582	2432481
2.53393	2425853
2.54205	2309615
2.55018	2182766
2.55830	1945941
2.56643	1710635
2.57455	1535933
2.58267	1258120
2.59080	964948
2.59892	735211
2.60703	551585
2.61517	421225
2.62328	323998
2.63142	277154
2.63953	240418
2.64765	222313
2.65578	194933
2.66390	168622
2.67203	156773
2.68015	141533
2.68827	176420
2.69640	564890
2.70452	1197930
2.71265	947418
2.72077	1253238
2.72888	2245971
2.73702	2231081
2.74513	1750732
2.75325	1579526
2.76138	1485847
2.76950	1450462
2.77763	1444614
2.78575	1380126
2.79387	1368538
2.80200	1298203
2.81012	1205629
2.81825	1132240
2.82637	1107057
2.83448	1067238
2.84262	1034869
2.85073	1014388
2.85885	950864
2.86698	866417
2.87510	786158
2.88323	668067
2.89135	533748
2.89947	414758
2.90760	327726
2.91572	253646
2.92385	194191
2.93197	160971
2.94008	144670
2.94822	129336
2.95633	120492
2.96447	114399
2.97258	109444
2.98070	102827
2.98883	104200
2.99695	100080
3.00507	101658
3.01320	96074
3.02132	93159
3.02945	90547
3.03757	97021
3.04568	93974
3.05382	85570
3.06193	85365
3.07007	86210
3.07818	98381
3.08630	163157
3.09443	220039
3.10255	152734
3.11067	109010
3.11880	120992
3.12692	111922
3.13505	87490
3.14317	78475
3.15128	77735
3.15942	77078
3.16753	76907
3.17567	80582
3.18378	81583
3.19190	73812
3.20003	71874
3.20815	73095
3.21628	68270
3.22440	70887
3.23252	68126
3.24065	69677
3.24877	67520
3.25688	65827
3.26502	68346
3.27313	69537
3.28127	80622
3.28938	82335
3.29750	81290
3.30563	71841
3.31375	70030
3.32188	75929
3.33000	77516
3.33812	75738
3.34625	80515
3.35437	73972
3.36250	71379
3.37062	64532
3.37873	62569
3.38687	64864
3.39498	112522
3.40310	423660
3.41123	1136402
3.41935	1628408
3.42748	1719470
3.43560	1689536
3.44372	1677796
3.45185	1616427
3.45997	1597462
3.46810	1664627
3.47622	1717932
3.48433	1766412
3.49247	1854328
3.50058	1851239
3.50872	1908603
3.51683	1946246
3.52495	2027373
3.53308	2043078
3.54120	2111239
3.54932	2181188
3.55745	2219233
3.56557	2265832
3.57370	2359968
3.58182	2422855
3.58993	2545369
3.59807	2617931
3.60618	2749938
3.61432	2862620
3.62243	3033500
3.63055	3183206
3.63868	3384849
3.64680	3511932
3.65492	3276454
3.66305	2226091
3.67117	1007610
3.67930	412410
3.68742	311819
3.69553	290094
3.70367	1.694003E+07
3.71178	5.37118E+07
3.71992	4.699721E+07
3.72803	4.897962E+07
3.73615	5.075026E+07
3.74428	5.262528E+07
3.75240	5.436084E+07
3.76053	5.593652E+07
3.76865	5.750039E+07
3.77677	5.916554E+07
3.78490	6.092654E+07
3.79302	6.263512E+07
3.80113	6.410632E+07
3.80927	6.569092E+07
3.81738	6.730636E+07
3.82552	6.883662E+07
3.83363	7.038118E+07
3.84175	7.186084E+07
3.84988	7.342897E+07
3.85800	7.50515E+07
3.86613	7.665904E+07
3.87425	7.82241E+07
3.88237	7.979655E+07
3.89050	8.132836E+07
3.89862	8.292661E+07
3.90673	8.462E+07
3.91487	8.605146E+07
3.92298	8.78647E+07
3.93112	8.955272E+07
3.93923	9.128214E+07
3.94735	9.30279E+07
3.95548	9.443342E+07
3.96360	9.644479E+07
3.97173	9.816358E+07
3.97985	9.973596E+07
3.98797	1.016815E+08
3.99610	1.033558E+08
4.00422	1.051511E+08
4.01235	1.06962E+08
4.02047	1.08574E+08
4.02858	1.105777E+08
4.03672	1.124456E+08
4.04483	1.141612E+08
4.05295	1.158594E+08
4.06108	1.176135E+08
4.06920	1.194934E+08
4.07733	1.213312E+08
4.08545	1.228645E+08
4.09357	1.248773E+08
4.10170	1.264296E+08
4.10982	1.281836E+08
4.11795	1.297368E+08
4.12607	1.310952E+08
4.13418	1.324761E+08
4.14232	1.338578E+08
4.15043	1.352795E+08
4.15857	1.362026E+08
4.16668	1.371302E+08
4.17480	1.38142E+08
4.18293	1.389011E+08
4.19105	1.394549E+08
4.19917	1.398712E+08
4.20730	1.400482E+08
4.21542	1.400908E+08
4.22355	1.397465E+08
4.23167	1.390077E+08
4.23978	1.379972E+08
4.24792	1.370208E+08
4.25603	1.355985E+08
4.26417	1.337518E+08
4.27228	1.318216E+08
4.28040	1.2985E+08
4.28853	1.277554E+08
4.29665	1.259042E+08
4.30477	1.240184E+08
4.31290	1.221573E+08
4.32102	1.205294E+08
4.32915	1.192907E+08
4.33727	1.183387E+08
4.34538	1.173164E+08
4.35352	1.16082E+08
4.36163	1.149132E+08
4.36977	1.135087E+08
4.37788	1.120802E+08
4.38600	1.113931E+08
4.39413	1.108922E+08
4.40225	1.1044E+08
4.41038	1.095789E+08
4.41850	1.084358E+08
4.42662	1.075035E+08
4.43475	1.065598E+08
4.44287	1.05852E+08
4.45098	1.05218E+08
4.45912	1.044619E+08
4.46723	1.04149E+08
4.47537	1.035676E+08
4.48348	1.031468E+08
4.49160	1.025028E+08
4.49973	1.021215E+08
4.50785	1.015609E+08
4.51598	1.013036E+08
4.52410	1.006227E+08
4.53222	1.003156E+08
4.54035	9.982798E+07
4.54847	9.934369E+07
4.55660	9.929617E+07
4.56472	9.885174E+07
4.57283	9.849941E+07
4.58097	9.826413E+07
4.58908	9.790569E+07
4.59720	9.75205E+07
4.60533	9.720484E+07
4.61345	9.697941E+07
4.62158	9.676073E+07
4.62970	9.630651E+07
4.63782	9.611255E+07
4.64595	9.59545E+07
4.65407	9.559025E+07
4.66220	9.543106E+07
4.67032	9.518384E+07
4.67843	9.488106E+07
4.68657	9.466532E+07
4.69468	9.451251E+07
4.70280	9.446838E+07
4.71093	9.424091E+07
4.71905	9.404582E+07
4.72718	9.394386E+07
4.73530	9.369934E+07
4.74342	9.359933E+07
4.75155	9.330922E+07
4.75967	9.32205E+07
4.76780	9.308561E+07
4.77592	9.292638E+07
4.78403	9.263111E+07
4.79217	9.260756E+07
4.80028	9.261139E+07
4.80842	9.246331E+07
4.81653	9.229669E+07
4.82465	9.227142E+07
4.83278	9.213222E+07
4.84090	9.19647E+07
4.84902	9.190473E+07
4.85715	9.187513E+07
4.86527	9.189839E+07
4.87340	9.176386E+07
4.88152	9.146555E+07
4.88963	9.157602E+07
4.89777	9.142502E+07
4.90588	9.130218E+07
4.91402	9.13274E+07
4.92213	9.123946E+07
4.93025	9.137569E+07
4.93838	9.126497E+07
4.94650	9.129494E+07
4.95462	9.130478E+07
4.96275	9.12939E+07
4.97087	9.107965E+07
4.97900	9.109794E+07
4.98712	9.109032E+07
4.99523	9.098301E+07
5.00337	9.091834E+07
5.01148	9.081106E+07
5.01962	9.097762E+07
5.02773	9.08055E+07
5.03585	9.090102E+07
5.04398	9.088145E+07
5.05210	9.089554E+07
5.06023	9.075913E+07
5.06835	9.077498E+07
5.07647	9.077717E+07
5.08460	9.077776E+07
5.09272	9.067918E+07
5.10083	9.073843E+07
5.10897	9.063707E+07
5.11708	9.048542E+07
5.12522	9.054522E+07
5.13333	9.0548E+07
5.14145	9.045562E+07
5.14958	9.037082E+07
5.15770	9.023333E+07
5.16583	9.022142E+07
5.17395	8.996565E+07
5.18207	8.991833E+07
5.19020	8.995875E+07
5.19832	8.980038E+07
5.20645	8.965324E+07
5.21457	8.963234E+07
5.22268	8.936078E+07
5.23082	8.941266E+07
5.23893	8.936146E+07
5.24705	8.915703E+07
5.25518	8.921635E+07
5.26330	8.916997E+07
5.27143	8.905362E+07
5.27955	8.881361E+07
5.28767	8.862571E+07
5.29580	8.872228E+07
5.30392	8.844326E+07
5.31205	8.844536E+07
5.32017	8.830194E+07
5.32828	8.800958E+07
5.33642	8.817921E+07
5.34453	8.79373E+07
5.35265	8.785533E+07
5.36078	8.768665E+07
5.36890	8.771876E+07
5.37703	8.764222E+07
5.38515	8.737608E+07
5.39327	8.738299E+07
5.40140	8.743709E+07
5.40952	8.706972E+07
5.41765	8.693877E+07
5.42577	8.698098E+07
5.43388	8.662554E+07
5.44202	8.658017E+07
5.45013	8.643016E+07
5.45827	8.64202E+07
5.46638	8.616927E+07
5.47450	8.613638E+07
5.48263	8.616302E+07
5.49075	8.599826E+07
5.49887	8.59381E+07
5.50700	8.578295E+07
5.51512	8.57499E+07
5.52325	8.538922E+07
5.53137	8.52947E+07
5.53948	8.520722E+07
5.54762	8.498336E+07
5.55573	8.501912E+07
5.56387	8.52619E+07
5.57198	8.624974E+07
5.58010	8.752086E+07
5.58823	8.82779E+07
5.59635	8.729264E+07
5.60448	8.586481E+07
5.61260	8.45509E+07
5.62072	8.390549E+07
5.62885	8.367364E+07
5.63697	8.331481E+07
5.64508	8.332273E+07
5.65322	8.336254E+07
5.66133	8.345628E+07
5.66947	8.395313E+07
5.67758	8.443849E+07
5.68570	8.456473E+07
5.69383	8.360394E+07
5.70195	8.290099E+07
5.71008	8.204466E+07
5.71820	8.169157E+07
5.72632	8.128513E+07
5.73445	8.122121E+07
5.74257	8.127946E+07
5.75068	8.090838E+07
5.75882	8.055735E+07
5.76693	8.031199E+07
5.77507	8.025478E+07
5.78318	7.994518E+07
5.79130	7.982222E+07
5.79943	7.983648E+07
5.80755	7.963133E+07
5.81568	7.955338E+07
5.82380	7.921947E+07
5.83192	7.906783E+07
5.84005	7.891699E+07
5.84817	7.849262E+07
5.85630	7.862554E+07
5.86442	7.838441E+07
5.87253	7.827881E+07
5.88067	7.798569E+07
5.88878	7.772815E+07
5.89690	7.759334E+07
5.90503	7.746901E+07
5.91315	7.714626E+07
5.92128	7.696627E+07
5.92940	7.696308E+07
5.93752	7.671594E+07
5.94565	7.642914E+07
5.95377	7.63817E+07
5.96190	7.624666E+07
5.97002	7.590226E+07
5.97813	7.566768E+07
5.98627	7.544904E+07
5.99438	7.511045E+07
6.00250	7.528998E+07
6.01063	7.514602E+07
6.01875	7.484022E+07
6.02688	7.474456E+07
6.03500	7.487471E+07
6.04312	7.478433E+07
6.05125	7.470698E+07
6.05937	7.456328E+07
6.06750	7.795696E+07
6.07562	7.789138E+07
6.08373	7.742434E+07
6.09187	7.77042E+07
6.09998	7.760654E+07
6.10812	7.740034E+07
6.11623	7.751205E+07
6.12435	7.733037E+07
6.13248	7.707445E+07
6.14060	7.675814E+07
6.14872	7.670861E+07
6.15685	7.649326E+07
6.16497	7.625445E+07
6.17310	7.612254E+07
6.18122	7.609706E+07
6.18933	7.604517E+07
6.19747	7.602789E+07
6.20558	7.573278E+07
6.21372	7.559344E+07
6.22183	7.555446E+07
6.22995	7.531869E+07
6.23808	7.506978E+07
6.24620	7.509598E+07
6.25433	7.515547E+07
6.26245	7.507662E+07
6.27057	7.486557E+07
6.27870	7.482762E+07
6.28682	7.474118E+07
6.29493	7.460045E+07
6.30307	7.454834E+07
6.31118	7.430313E+07
6.31932	7.418126E+07
6.32743	7.394942E+07
6.33555	7.39713E+07
6.34368	7.397565E+07
6.35180	7.380895E+07
6.35993	7.355711E+07
6.36805	7.342655E+07
6.37617	7.336797E+07
6.38430	7.338617E+07
6.39242	7.337038E+07
6.40053	7.329976E+07
6.40867	7.308627E+07
6.41678	7.291404E+07
6.42492	7.289949E+07
6.43303	7.302129E+07
6.44115	7.257586E+07
6.44928	7.231495E+07
6.45740	7.210113E+07
6.46553	7.196943E+07
6.47365	7.165762E+07
6.48177	7.17279E+07
6.48990	7.136205E+07
6.49802	6.643875E+07
6.50615	4.934512E+07
6.51427	1.612875E+07
6.52238	1990575
6.53052	628380
6.53863	549113
6.54675	526250
6.55488	509336
6.56300	507831
6.57113	501531
6.57925	487745
6.58737	488947
6.59550	471848
6.60362	468799
6.61175	465017
6.61987	455816
6.62798	459916
6.63612	448741
6.64423	443970
6.65237	452949
6.66048	450405
6.66860	449338
6.67673	458519
6.68485	445950
6.69297	464433
6.70110	438380
6.70922	447941
6.71735	417543
6.72547	425337
6.73358	407070
6.74172	421336
6.74983	451661
6.75797	524725
6.76608	596211
6.77420	631559
6.78233	616474
6.79045	639829
6.79857	935930
6.80670	1478652
6.81482	1974956
6.82295	2018561
6.83107	1497845
6.83918	911534
6.84732	578286
6.85543	442209
6.86357	405315
6.87168	389930
6.87980	391780
6.88793	400928
6.89605	400857
6.90418	401418
6.91230	414279
6.92042	405920
6.92855	436599
6.93667	430925
6.94478	431981
6.95292	418419
6.96103	446414
6.96917	481790
6.97728	503883
6.98540	494741
6.99353	526801
7.00165	650046
7.00978	849056
7.01790	1069095
7.02602	1204236
7.03415	1229222
7.04227	1151209
7.05040	976024
7.05852	747917
7.06663	558667
7.07477	431442
7.08288	374848
7.09100	344110
7.09913	350530
7.10725	343491
7.11538	343465
7.12350	337783
7.13162	326934
7.13975	332349
7.14787	326643
7.15600	319519
7.16412	325860
7.17223	336705
7.18037	365787
7.18848	426244
7.19660	467035
7.20473	480926
7.21285	458310
7.22098	458461
7.22910	502470
7.23722	570946
7.24535	561841
7.25347	515807
7.26160	428974
7.26972	359894
7.27783	322373
7.28597	309621
7.29408	301275
7.30222	301378
7.31033	289333
7.31845	301498
7.32658	292929
7.33470	294873
7.34282	301874
7.35095	287210
7.35907	292143
7.36720	288009
7.37532	283736
7.38343	282216
7.39157	284222
7.39968	275803
7.40782	280781
7.41593	287601
7.42405	298952
7.43218	301567
7.44030	303861
7.44842	309142
7.45655	289751
7.46467	284965
7.47280	276626
7.48092	276409
7.48903	281229
7.49717	282813
7.50528	289880
7.51342	282547
7.52153	281154
7.52965	268021
7.53778	259269
7.54590	261562
7.55403	265843
7.56215	267242
7.57027	268103
7.57840	265974
7.58652	267936
7.59463	266259
7.60277	266357
7.61088	273318
7.61902	274710
7.62713	288284
7.63525	293314
7.64338	299815
7.65150	281152
7.65963	267301
7.66775	263724
7.67587	253248
7.68400	249429
7.69212	247500
7.70025	250134
7.70837	238497
7.71648	248077
7.72462	247829
7.73273	259167
7.74085	258762
7.74898	259525
7.75710	253362
7.76523	249971
7.77335	248041
7.78147	244668
7.78960	242034
7.79772	240655
7.80585	240235
7.81397	242560
7.82208	233425
7.83022	236930
7.83833	230180
7.84645	224430
7.85458	230514
7.86270	234187
7.87083	232318
7.87895	225227
7.88707	229872
7.89520	224350
7.90332	233848
7.91145	241174
7.91957	239602
7.92768	240191
7.93582	233051
7.94393	233170
7.95207	246460
7.96018	254769
7.96830	282766
7.97643	309706
7.98455	364853
7.99267	406275
8.00080	473097
8.00892	536543
8.01705	560550
8.02517	493516
8.03328	395522
8.04142	306783
8.04953	257626
8.05767	240147
8.06578	250395
8.07390	267534
8.08203	288217
8.09015	317448
8.09828	327784
8.10640	315232
8.11452	274319
8.12265	239684
8.13077	219598
8.13888	206731
8.14702	212772
8.15513	215665
8.16327	219183
8.17138	208037
8.17950	218077
8.18763	214699
8.19575	213091
8.20388	212100
8.21200	218509
8.22012	218719
8.22825	227998
8.23637	222825
8.24448	219604
8.25262	216210
8.26073	219724
8.26887	224884
8.27698	225512
8.28510	251581
8.29323	248598
8.30135	231348
8.30948	222454
8.31760	211674
8.32572	202672
8.33385	200265
8.34197	205019
8.35010	202041
8.35822	205445
8.36633	195506
8.37447	198653
8.38258	193807
8.39070	197194
8.39883	193039
8.40695	190930
8.41508	190104
8.42320	196992
8.43132	210921
8.43945	254340
8.44757	286346
8.45570	314511
8.46382	314965
8.47193	283214
8.48007	248365
8.48818	221861
8.49630	208880
8.50443	202886
8.51255	192151
8.52068	199018
8.52880	210130
8.53692	233488
8.54505	277515
8.55317	282951
8.56130	273938
8.56942	236500
8.57753	216460
8.58567	195597
8.59378	191867
8.60192	180946
8.61003	177527
8.61815	182929
8.62628	180872
8.63440	188507
8.64252	193808
8.65065	184951
8.65877	187233
8.66690	192902
8.67502	184333
8.68313	183669
8.69127	179745
8.69938	179324
8.70752	179781
8.71563	178497
8.72375	180375
8.73188	173053
8.74000	174628
8.74813	173058
8.75625	175534
8.76437	174310
8.77250	174182
8.78062	182621
8.78873	209826
8.79687	242621
8.80498	303444
8.81312	416191
8.82123	585885
8.82935	744055
8.83748	774348
8.84560	649371
8.85373	462731
8.86185	295477
8.86997	230774
8.87810	198098
8.88622	193479
8.89435	187205
8.90247	179639
8.91058	178906
8.91872	178139
8.92683	171531
8.93495	173991
8.94308	169850
8.95120	177093
8.95933	170200
8.96745	171948
8.97557	170314
8.98370	173769
8.99182	167645
8.99995	169531
9.00807	163531
9.01618	159273
9.02432	168762
9.03243	162539
9.04055	171789
9.04868	161651
9.05680	168189
9.06493	161731
9.07305	169575
9.08117	163401
9.08930	158626
9.09742	161175
9.10555	159011
9.11367	154540
9.12178	156935
9.12992	161399
9.13803	156375
9.14617	162521
9.15428	157178
9.16240	159167
9.17053	164974
9.17865	160956
9.18677	164725
9.19490	168426
9.20302	163417
9.21115	160802
9.21927	176252
9.22738	226355
9.23552	343033
9.24363	551801
9.25177	745206
9.25988	814237
9.26800	673770
9.27613	490842
9.28425	307173
9.29237	222637
9.30050	176614
9.30862	161206
9.31675	161084
9.32487	160480
9.33298	166720
9.34112	175013
9.34923	177811
9.35737	175153
9.36548	182442
9.37360	173813
9.38173	167635
9.38985	161374
9.39798	156743
9.40610	159064
9.41422	162847
9.42235	163924
9.43047	159871
9.43858	160380
9.44672	152627
9.45483	156642
9.46297	145996
9.47108	146101
9.47920	149859
9.48733	152354
9.49545	148694
9.50358	150648
9.51170	155795
9.51982	150430
9.52795	155581
9.53607	165487
9.54420	165276
9.55232	174558
9.56043	180951
9.56857	183621
9.57668	192475
9.58480	207878
9.59293	225141
9.60105	220251
9.60918	222883
9.61730	230063
9.62542	234027
9.63355	251219
9.64167	246687
9.64980	232680
9.65792	226505
9.66603	215210
9.67417	211198
9.68228	199508
9.69040	180671
9.69853	165244
9.70665	163310
9.71478	152347
9.72290	157736
9.73102	163495
9.73915	160101
9.74727	163637
9.75540	170429
9.76352	166252
9.77163	165471
9.77977	156576
9.78788	143635
9.79602	139250
9.80413	138473
9.81225	135591
9.82038	138034
9.82850	138360
9.83662	147898
9.84475	146144
9.85287	149525
9.86100	152801
9.86912	153407
9.87723	146901
9.88537	152438
9.89348	147511
9.90162	153935
9.90973	144629
9.91785	145225
9.92598	140305
9.93410	135241
9.94223	132471
9.95035	132310
9.95847	134992
9.96660	138263
9.97472	143547
9.98283	144786
9.99097	156303
9.99908	153096
10.00722	152620
10.01533	138248
10.02345	139826
10.03158	135476
10.03970	134507
10.04783	142913
10.05595	144405
10.06407	143990
10.07220	152151
10.08032	163393
10.08843	169026
10.09657	191635
10.10468	215454
10.11282	232721
10.12093	228173
10.12905	208767
10.13718	170247
10.14530	151983
10.15343	138614
10.16155	134796
10.16967	127977
10.17780	129808
10.18592	127550
10.19405	130523
10.20217	127383
10.21028	131732
10.21842	130274
10.22653	120278
10.23465	123654
10.24278	129083
10.25090	132249
10.25903	137880
10.26715	162950
10.27527	234130
10.28340	467695
10.29152	942484
10.29965	1639133
10.30777	2437608
10.31588	3124824
10.32402	3925208
10.33213	5129346
10.34025	6602058
10.34838	7329139
10.35650	6683010
10.36463	4637200
10.37275	2629365
10.38087	1372006
10.38900	756783
10.39712	506377
10.40525	400043
10.41337	318982
10.42148	290362
10.42962	257149
10.43773	228366
10.44587	223247
10.45398	207917
10.46210	199069
10.47023	192689
10.47835	186525
10.48647	182700
10.49460	171819
10.50272	170717
10.51085	167646
10.51897	160007
10.52708	163647
10.53522	163960
10.54333	154507
10.55147	157716
10.55958	156131
10.56770	159191
10.57583	149171
10.58395	146463
10.59208	150992
10.60020	142091
10.60832	145910
10.61645	145929
10.62457	144996
10.63268	141773
10.64082	142856
10.64893	134664
10.65707	140837
10.66518	145386
10.67330	142634
10.68143	154575
10.68955	149800
10.69768	146255
10.70580	145955
10.71392	137874
10.72205	133292
10.73017	136916
10.73828	139083
10.74642	149882
10.75453	153804
10.76267	156221
10.77078	152761
10.77890	152693
10.78703	141945
10.79515	134419
10.80328	139577
10.81140	141138
10.81952	153201
10.82765	163171
10.83577	173421
10.84390	165670
10.85202	155205
10.86013	141190
10.86827	132805
10.87638	127763
10.88450	120760
10.89263	118962
10.90075	118309
10.90888	123535
10.91700	126746
10.92512	121882
10.93325	117232
10.94137	119240
10.94950	120777
10.95762	119337
10.96573	136023
10.97387	136752
10.98198	146867
10.99012	150801
10.99823	153998
11.00635	140071
11.01448	134757
11.02260	130357
11.03072	120971
11.03885	126900
11.04697	113734
11.05510	117745
11.06322	114279
11.07133	115022
11.07947	116946
11.08758	122052
11.09572	133415
11.10383	184213
11.11195	310090
11.12008	573656
11.12820	992840
11.13632	1513076
11.14445	1866178
11.15257	1814141
11.16070	1414174
11.16882	914171
11.17693	506998
11.18507	279316
11.19318	172172
11.20132	139467
11.20943	126235
11.21755	121315
11.22568	126620
11.23380	124105
11.24193	120178
11.25005	122125
11.25817	120956
11.26630	141918
11.27442	154695
11.28253	174182
11.29067	190623
11.29878	190573
11.30692	171936
11.31503	150934
11.32315	139039
11.33128	125756
11.33940	129941
11.34753	138980
11.35565	146514
11.36377	155563
11.37190	163300
11.38002	168091
11.38815	168400
11.39627	154312
11.40438	146340
11.41252	131055
11.42063	124584
11.42875	123449
11.43688	117260
11.44500	116814
11.45313	115442
11.46125	116982
11.46937	116255
11.47750	110169
11.48562	113426
11.49375	111606
11.50187	109519
11.50998	108311
11.51812	111634
11.52623	107782
11.53435	113357
11.54248	119927
11.55060	123195
11.55873	132818
11.56685	130075
11.57497	130233
11.58310	127105
11.59122	129889
11.59935	126522
11.60747	127330
11.61558	144965
11.62372	157248
11.63183	154749
11.63997	148007
11.64808	136587
11.65620	126368
11.66433	116296
11.67245	114457
11.68057	114378
11.68870	114984
11.69682	118972
11.70495	118719
11.71307	130255
11.72118	163646
11.72932	227974
11.73743	303341
11.74557	360887
11.75368	396957
11.76180	355289
11.76993	273680
11.77805	196357
11.78617	148487
11.79430	127738
11.80242	124268
11.81055	120296
11.81867	120816
11.82678	129736
11.83492	119183
11.84303	112326
11.85117	116224
11.85928	111995
11.86740	111901
11.87553	111092
11.88365	112723
11.89178	113788
11.89990	123621
11.90802	120952
11.91615	127541
11.92427	115756
11.93238	110939
11.94052	109172
11.94863	113500
11.95677	111866
11.96488	106462
11.97300	108808
11.98113	104719
11.98925	104932
11.99738	108627
12.00550	106699
12.01362	117549
12.02175	114642
12.02987	110446
12.03800	115556
12.04612	112977
12.05423	107328
12.06237	101706
12.07048	99489
12.07860	98280
12.08673	104928
12.09485	102494
12.10298	102447
12.11110	105368
12.11922	108463
12.12735	105335
12.13547	107341
12.14360	109755
12.15172	114370
12.15983	131378
12.16797	174455
12.17608	259659
12.18420	362757
12.19233	458933
12.20045	521292
12.20858	490686
12.21670	391962
12.22482	283853
12.23295	194182
12.24107	144633
12.24920	120450
12.25732	107102
12.26543	117989
12.27357	149900
12.28168	241115
12.28982	465384
12.29793	813001
12.30605	1202205
12.31418	1524024
12.32230	1500794
12.33042	1205099
12.33855	802176
12.34667	465096
12.35480	259970
12.36292	163768
12.37103	136773
12.37917	121898
12.38728	112039
12.39542	106491
12.40353	112604
12.41165	107699
12.41978	109519
12.42790	100957
12.43603	103895
12.44415	108599
12.45227	102382
12.46040	102289
12.46852	105733
12.47663	111395
12.48477	130319
12.49288	142302
12.50102	161712
12.50913	162469
12.51725	158974
12.52538	135681
12.53350	122829
12.54163	111301
12.54975	110741
12.55787	115015
12.56600	118871
12.57412	113384
12.58223	106084
12.59037	107313
12.59848	102559
12.60662	98843
12.61473	98692
12.62285	100454
12.63098	99515
12.63910	98531
12.64723	97602
12.65535	105542
12.66347	113667
12.67160	121948
12.67972	137611
12.68785	166508
12.69597	183100
12.70408	183143
12.71222	170548
12.72033	158963
12.72845	143972
12.73658	142223
12.74470	146765
12.75283	154709
12.76095	158755
12.76907	173642
12.77720	184665
12.78532	193730
12.79345	172703
12.80157	151955
12.80968	129415
12.81782	120451
12.82593	110559
12.83405	102691
12.84218	100654
12.85030	99645
12.85843	96795
12.86655	101434
12.87467	101345
12.88280	102820
12.89092	98271
12.89905	99857
12.90717	94416
12.91528	93742
12.92342	93751
12.93153	94595
12.93967	96045
12.94778	89224
12.95590	89497
12.96403	98183
12.97215	94184
12.98027	97012
12.98840	95895
12.99652	100639
13.00465	103111
13.01277	98455
13.02088	101550
13.02902	103837
13.03713	100852
13.04527	98702
13.05338	97069
13.06150	94993
13.06963	93638
13.07775	95720
13.08588	98069
13.09400	93284
13.10212	95280
13.11025	95778
13.11837	103975
13.12648	110162
13.13462	115118
13.14273	124497
13.15087	123620
13.15898	126299
13.16710	120228
13.17523	107718
13.18335	108637
13.19148	104088
13.19960	98736
13.20772	98777
13.21585	99569
13.22397	98869
13.23208	99715
13.24022	105262
13.24833	97548
13.25647	94847
13.26458	99989
13.27270	95254
13.28083	97948
13.28895	90349
13.29708	96116
13.30520	97782
13.31332	100995
13.32145	98020
13.32957	108576
13.33770	142722
13.34582	211355
13.35393	337374
13.36207	439115
13.37018	521689
13.37830	523985
13.38643	420242
13.39455	297877
13.40268	204841
13.41080	137759
13.41892	112014
13.42705	97125
13.43517	91735
13.44330	93783
13.45142	93128
13.45953	91273
13.46767	90597
13.47578	91151
13.48392	89869
13.49203	95129
13.50015	100616
13.50828	105922
13.51640	108522
13.52452	102072
13.53265	104749
13.54077	98801
13.54890	94402
13.55702	97336
13.56513	90192
13.57327	86607
13.58138	91720
13.58952	83826
13.59763	84719
13.60575	88732
13.61388	87735
13.62200	90845
13.63012	91974
13.63825	84524
13.64637	96207
13.65450	86266
13.66262	89313
13.67073	88763
13.67887	90445
13.68698	81542
13.69512	87094
13.70323	80988
13.71135	85860
13.71948	84608
13.72760	85113
13.73573	82722
13.74385	91038
13.75197	94168
13.76010	110353
13.76822	124726
13.77633	139284
13.78447	148110
13.79258	141415
13.80072	129011
13.80883	113490
13.81695	98481
13.82508	96105
13.83320	95223
13.84133	94663
13.84945	94773
13.85757	93693
13.86570	99737
13.87382	101051
13.88193	99020
13.89007	98366
13.89818	100253
13.90632	100326
13.91443	101649
13.92255	105561
13.93068	107920
13.93880	102751
13.94693	105754
13.95505	100749
13.96317	96203
13.97130	95354
13.97942	88135
13.98755	90309
13.99567	87897
14.00378	91307
14.01192	88253
14.02003	84332
14.02815	84293
14.03628	80924
14.04440	82320
14.05253	83602
14.06065	83176
14.06877	94205
14.07690	88388
14.08502	91386
14.09315	85425
14.10127	86552
14.10938	84904
14.11752	85234
14.12563	86646
14.13377	82153
14.14188	79670
14.15000	79152
14.15813	83174
14.16625	85363
14.17437	86017
14.18250	97397
14.19062	101135
14.19875	112586
14.20687	121868
14.21498	129081
14.22312	136955
14.23123	127817
14.23937	107812
14.24748	100639
14.25560	91769
14.26373	86781
14.27185	86632
14.27998	91847
14.28810	84917
14.29622	84724
14.30435	84255
14.31247	81686
14.32058	82972
14.32872	85680
14.33683	79198
14.34497	85402
14.35308	82129
14.36120	84021
14.36933	88787
14.37745	88092
14.38558	87087
14.39370	89351
14.40182	99459
14.40995	99140
14.41807	106759
14.42618	103784
14.43432	97890
14.44243	98742
14.45057	93735
14.45868	87446
14.46680	80793
14.47493	80965
14.48305	81698
14.49118	84833
14.49930	84575
14.50742	83404
14.51555	88139
14.52367	89877
14.53180	93727
14.53992	95877
14.54803	96525
14.55617	86995
14.56428	87757
14.57240	85309
14.58053	82518
14.58865	89083
14.59678	88815
14.60490	92267
14.61302	95886
14.62115	87631
14.62927	85455
14.63740	78602
14.64552	75058
14.65363	79782
14.66177	79877
14.66988	82651
14.67800	86104
14.68613	80984
14.69425	78949
14.70238	79222
14.71050	76148
14.71862	74217
14.72675	82065
14.73487	80424
14.74300	79806
14.75112	80881
14.75923	82528
14.76737	85559
14.77548	79466
14.78362	81826
14.79173	84497
14.79985	91773
14.80798	98211
14.81610	99631
14.82422	120796
14.83235	142821
14.84047	148017
14.84860	147987
14.85672	137088
14.86483	115163
14.87297	105176
14.88108	88604
14.88922	94610
14.89733	91546
14.90545	86015
14.91358	84860
14.92170	88297
14.92983	82331
14.93795	78292
14.94607	82802
14.95420	86048
14.96232	86991
14.97043	83543
14.97857	81829
14.98668	87627
14.99482	89417
15.00293	88255
15.01105	88207
15.01918	87486
15.02730	83200
15.03543	86522
15.04355	73261
15.05167	74368
15.05980	74850
15.06792	74936
15.07603	74255
15.08417	75297
15.09228	74562
15.10042	75851
15.10853	78191
15.11665	77965
15.12478	76247
15.13290	76925
15.14103	78901
15.14915	76313
15.15727	81254
15.16540	75272
15.17352	78750
15.18165	75687
15.18977	78576
15.19788	77135
15.20602	88822
15.21413	88453
15.22225	84894
15.23038	86358
15.23850	81887
15.24663	83503
15.25475	81688
15.26287	82680
15.27100	79909
15.27912	84391
15.28725	82555
15.29537	82966
15.30348	82132
15.31162	81792
15.31973	73771
15.32787	79989
15.33598	78958
15.34410	76300
15.35223	73261
15.36035	74952
15.36847	69032
15.37660	71933
15.38472	75360
15.39285	76255
15.40097	76963
15.40908	75486
15.41722	75939
15.42533	80816
15.43347	84842
15.44158	85668
15.44970	87900
15.45783	81710
15.46595	82216
15.47407	74459
15.48220	74480
15.49032	74345
15.49845	77161
15.50657	74973
15.51468	84006
15.52282	79432
15.53093	82181
15.53907	76100
15.54718	76542
15.55530	72405
15.56343	79943
15.57155	75183
15.57968	74661
15.58780	77112
15.59592	74828
15.60405	75595
15.61217	75044
15.62028	71115
15.62842	74144
15.63653	74770
15.64467	78150
15.65278	72825
15.66090	73107
15.66903	74916
15.67715	74882
15.68528	72874
15.69340	77438
15.70152	71871
15.70965	74422
15.71777	72452
15.72588	71554
15.73402	68608
15.74213	71377
15.75027	74435
15.75838	83745
15.76650	95457
15.77463	118453
15.78275	138068
15.79088	168840
15.79900	169252
15.80712	175487
15.81525	152967
15.82337	125737
15.83150	100993
15.83962	91208
15.84773	81627
15.85587	77607
15.86398	78360
15.87210	78459
15.88023	77221
15.88835	77849
15.89648	73294
15.90460	77462
15.91272	79643
15.92085	78022
15.92897	77684
15.93710	80613
15.94522	79302
15.95333	76327
15.96147	78609
15.96958	77220
15.97772	77908
15.98583	83597
15.99395	73592
16.00208	76496
16.01020	83456
16.01832	94359
16.02645	118400
16.03457	173481
16.04270	232759
16.05082	268303
16.05893	289705
16.06707	259186
16.07518	216146
16.08332	156696
16.09143	119383
16.09955	96009
16.10768	89134
16.11580	84854
16.12392	84607
16.13205	80468
16.14017	82284
16.14830	76339
16.15642	76511
16.16453	76907
16.17267	76621
16.18078	74317
16.18892	70502
16.19703	76012
16.20515	78773
16.21328	77411
16.22140	77835
16.22953	74276
16.23765	77709
16.24577	76065
16.25390	79573
16.26202	78626
16.27013	82041
16.27827	81439
16.28638	82674
16.29452	83866
16.30263	80579
16.31075	78095
16.31888	74517
16.32700	80411
16.33513	83038
16.34325	84163
16.35137	86627
16.35950	86502
16.36762	83702
16.37575	82224
16.38387	81618
16.39198	84270
16.40012	78354
16.40823	78556
16.41635	78846
16.42448	73649
16.43260	71445
16.44073	70114
16.44885	79602
16.45697	81012
16.46510	72682
16.47322	77307
16.48135	76100
16.48947	76527
16.49758	75487
16.50572	79517
16.51383	74668
16.52195	76187
16.53008	73094
16.53820	74367
16.54633	76312
16.55445	73522
16.56257	69751
16.57070	75311
16.57882	71135
16.58695	67584
16.59507	69926
16.60318	70894
16.61132	75070
16.61943	69695
16.62757	72298
16.63568	68250
16.64380	73041
16.65193	72553
16.66005	69881
16.66817	68675
16.67630	75756
16.68442	89468
16.69255	97505
16.70067	127562
16.70878	153738
16.71692	193773
16.72503	204901
16.73317	189069
16.74128	173014
16.74940	143182
16.75753	114934
16.76565	96996
16.77378	86006
16.78190	85824
16.79002	81139
16.79815	82360
16.80627	86037
16.81438	81085
16.82252	83681
16.83063	75848
16.83877	75129
16.84688	70200
16.85500	70336
16.86313	72134
16.87125	73060
16.87938	72582
16.88750	69077
16.89562	68658
16.90375	72657
16.91187	71354
16.91998	71148
16.92812	77783
16.93623	77523
16.94437	77222
16.95248	73901
16.96060	82272
16.96873	79209
16.97685	80839
16.98498	76158
16.99310	71254
17.00122	72752
17.00935	70582
17.01747	74171
17.02560	72659
17.03372	74928
17.04183	78950
17.04997	71073
17.05808	71796
17.06620	71606
17.07433	70895
17.08245	71698
17.09058	75448
17.09870	76990
17.10682	76165
17.11495	80081
17.12307	86416
17.13120	94276
17.13932	99190
17.14743	109502
17.15557	113333
17.16368	123364
17.17180	114142
17.17993	108503
17.18805	95297
17.19618	86709
17.20430	75773
17.21242	74557
17.22055	71358
17.22867	68036
17.23680	67143
17.24492	71446
17.25303	70466
17.26117	63702
17.26928	71169
17.27742	71779
17.28553	71333
17.29365	77954
17.30178	73464
17.30990	73262
17.31802	76734
17.32615	73143
17.33427	82908
17.34240	91230
17.35052	102498
17.35863	126049
17.36677	157383
17.37488	168577
17.38302	187272
17.39113	194705
17.39925	172649
17.40738	152020
17.41550	121578
17.42363	103651
17.43175	82104
17.43987	73275
17.44800	70173
17.45612	72399
17.46423	70800
17.47237	69237
17.48048	70600
17.48862	73689
17.49673	70470
17.50485	71387
17.51298	77725
17.52110	75375
17.52923	84454
17.53735	79347
17.54547	85034
17.55360	83339
17.56172	76805
17.56983	73684
17.57797	76791
17.58608	72093
17.59422	69018
17.60233	71318
17.61045	72075
17.61858	69187
17.62670	72665
17.63483	68560
17.64295	74515
17.65107	76377
17.65920	89122
17.66732	92664
17.67545	105820
17.68357	102934
17.69168	113920
17.69982	110096
17.70793	103373
17.71605	93208
17.72418	85963
17.73230	78277
17.74043	78587
17.74855	74514
17.75667	75835
17.76480	78517
17.77292	79730
17.78105	85603
17.78917	88989
17.79728	87853
17.80542	85948
17.81353	76373
17.82167	78040
17.82978	75346
17.83790	67177
17.84603	73519
17.85415	81340
17.86227	91078
17.87040	96256
17.87852	97841
17.88665	94118
17.89477	85872
17.90288	80412
17.91102	73843
17.91913	77968
17.92727	69735
17.93538	72268
17.94350	72498
17.95163	64082
17.95975	65391
17.96787	61229
17.97600	67890
17.98412	68804
17.99225	67870
18.00037	71091
18.00848	73863
18.01662	76679
18.02473	81192
18.03287	90598
18.04098	99356
18.04910	106788
18.05723	104552
18.06535	99764
18.07348	91775
18.08160	88527
18.08972	85767
18.09785	83237
18.10597	78253
18.11408	80909
18.12222	76885
18.13033	72678
18.13847	71922
18.14658	79479
18.15470	71892
18.16283	72512
18.17095	71658
18.17908	74007
18.18720	71142
18.19532	74923
18.20345	69493
18.21157	70895
18.21968	73297
18.22782	74166
18.23593	78644
18.24407	82289
18.25218	80592
18.26030	86102
18.26843	82401
18.27655	79917
18.28468	77525
18.29280	76138
18.30092	72589
18.30905	73536
18.31717	71009
18.32530	71302
18.33342	67145
18.34153	72838
18.34967	69266
18.35778	70418
18.36590	68533
18.37403	67373
18.38215	64810
18.39028	63119
18.39840	67470
18.40652	64666
18.41465	70411
18.42277	70699
18.43090	70407
18.43902	76680
18.44713	77175
18.45527	70745
18.46338	67931
18.47152	71759
18.47963	75350
18.48775	75714
18.49588	78093
18.50400	77859
18.51212	67878
18.52025	70472
18.52837	69454
18.53650	67713
18.54462	68364
18.55273	69000
18.56087	66483
18.56898	67613
18.57712	63657
18.58523	71951
18.59335	72671
18.60148	77091
18.60960	80634
18.61773	75568
18.62585	73867
18.63397	73540
18.64210	69596
18.65022	66795
18.65833	70399
18.66647	68895
18.67458	70067
18.68272	63508
18.69083	69115
18.69895	69056
18.70708	71426
18.71520	65206
18.72333	69326
18.73145	74254
18.73957	65420
18.74770	70967
18.75582	70189
18.76393	67036
18.77207	65586
18.78018	68093
18.78832	67201
18.79643	64282
18.80455	64802
18.81268	67119
18.82080	63885
18.82893	65912
18.83705	64488
18.84517	63116
18.85330	63616
18.86142	68223
18.86955	64337
18.87767	63889
18.88578	69584
18.89392	69078
18.90203	67926
18.91015	69411
18.91828	69237
18.92640	71304
18.93453	67638
18.94265	70300
18.95077	69524
18.95890	73693
18.96702	78629
18.97515	77145
18.98327	80691
18.99138	82138
18.99952	78988
19.00763	74699
19.01575	70997
19.02388	68749
19.03200	69808
19.04013	64294
19.04825	66449
19.05637	71810
19.06450	77643
19.07262	88956
19.08075	124612
19.08887	189042
19.09698	274791
19.10512	347334
19.11323	377056
19.12137	360755
19.12948	304953
19.13760	225556
19.14573	170110
19.15385	122960
19.16197	102195
19.17010	90806
19.17822	81069
19.18635	79606
19.19447	79621
19.20258	75832
19.21072	80129
19.21883	73184
19.22697	77629
19.23508	69150
19.24320	74317
19.25133	78518
19.25945	75730
19.26758	76815
19.27570	85484
19.28382	97510
19.29195	119375
19.30007	142243
19.30818	158765
19.31632	168920
19.32443	164741
19.33257	140872
19.34068	119152
19.34880	100743
19.35693	91818
19.36505	84308
19.37318	77672
19.38130	79187
19.38942	76207
19.39755	77831
19.40567	77116
19.41378	71478
19.42192	74511
19.43003	78402
19.43817	70784
19.44628	77006
19.45440	71840
19.46253	74465
19.47065	68727
19.47878	68195
19.48690	67848
19.49502	72902
19.50315	74394
19.51127	77056
19.51940	77686
19.52752	81701
19.53563	77144
19.54377	76443
19.55188	72971
19.56000	69438
19.56813	71289
19.57625	65466
19.58438	67087
19.59250	63715
19.60062	64272
19.60875	66648
19.61687	64148
19.62500	67818
19.63312	69903
19.64123	66156
19.64937	69803
19.65748	78483
19.66562	84410
19.67373	88280
19.68185	95677
19.68998	93777
19.69810	89960
19.70622	82322
19.71435	82303
19.72247	78936
19.73060	74678
19.73872	76775
19.74683	81065
19.75497	83855
19.76308	88862
19.77122	94083
19.77933	96796
19.78745	115101
19.79558	141282
19.80370	215162
19.81182	294320
19.81995	380157
19.82807	422234
19.83620	422553
19.84432	357794
19.85243	273648
19.86057	212562
19.86868	186152
19.87682	180683
19.88493	198472
19.89305	253543
19.90118	294930
19.90930	312852
19.91743	293977
19.92555	259741
19.93367	206233
19.94180	170283
19.94992	151603
19.95803	127858
19.96617	123279
19.97428	115272
19.98242	117494
19.99053	113311
19.99865	110808
20.00678	110967
20.01490	108053
20.02303	103247
20.03115	100747
20.03927	100117
20.04740	103540
20.05552	103815
20.06363	99913
20.07177	99029
20.07988	101855
20.08802	105169
20.09613	102845
20.10425	103151
20.11238	103567
20.12050	94625
20.12863	99427
20.13675	100660
20.14487	101256
20.15300	95578
20.16112	98460
20.16925	97176
20.17737	93194
20.18548	95170
20.19362	98007
20.20173	96282
20.20985	96132
20.21798	93313
20.22610	93841
20.23423	95577
20.24235	95716
20.25047	94838
20.25860	91175
20.26672	92934
20.27485	98756
20.28297	98212
20.29108	105981
20.29922	104929
20.30733	102354
20.31547	104316
20.32358	101050
20.33170	102923
20.33983	100011
20.34795	98186
20.35607	102979
20.36420	99161
20.37232	99521
20.38045	98341
20.38857	93361
20.39668	91236
20.40482	93531
20.41293	92169
20.42107	92637
20.42918	95156
20.43730	89242
20.44543	88029
20.45355	98030
20.46167	96184
20.46980	98766
20.47792	93324
20.48605	89288
20.49417	97871
20.50228	96045
20.51042	92992
20.51853	90913
20.52667	88281
20.53478	94921
20.54290	85666
20.55103	89850
20.55915	86029
20.56728	87435
20.57540	91562
20.58352	91667
20.59165	92146
20.59977	87079
20.60788	87049
20.61602	89264
20.62413	85879
20.63227	86698
20.64038	87915
20.64850	88412
20.65663	93657
20.66475	90168
20.67288	87640
20.68100	90277
20.68912	86870
20.69725	95759
20.70537	85056
20.71350	91831
20.72162	88411
20.72973	87795
20.73787	87393
20.74598	85853
20.75410	86685
20.76223	86157
20.77035	86011
20.77848	87991
20.78660	88859
20.79472	83479
20.80285	93158
20.81097	91089
20.81910	91853
20.82722	88958
20.83533	85398
20.84347	89350
20.85158	85960
20.85970	83934
20.86783	86177
20.87595	80210
20.88408	81620
20.89220	87731
20.90032	81044
20.90845	87387
20.91657	88595
20.92470	87367
20.93282	80716
20.94093	81321
20.94907	88106
20.95718	89222
20.96532	90407
20.97343	83770
20.98155	83231
20.98968	88150
20.99780	83121
21.00592	83394
21.01405	83530
21.02217	81044
21.03030	84985
21.03842	87532
21.04653	88950
21.05467	90530
21.06278	81190
21.07092	82338
21.07903	80004
21.08715	82543
21.09528	86399
21.10340	80291
21.11153	82480
21.11965	79783
21.12777	87190
21.13590	92091
21.14402	99541
21.15213	105173
21.16027	115838
21.16838	120980
21.17652	124015
21.18463	108613
21.19275	95321
21.20088	91296
21.20900	87672
21.21713	84893
21.22525	82280
21.23337	88918
21.24150	90211
21.24962	90743
21.25773	90863
21.26587	87315
21.27398	87649
21.28212	83478
21.29023	84730
21.29835	80371
21.30648	79225
21.31460	83200
21.32273	88029
21.33085	95087
21.33897	100725
21.34710	100943
21.35522	102230
21.36335	103039
21.37147	95764
21.37958	91708
21.38772	85920
21.39583	88918
21.40395	91180
21.41208	93902
21.42020	98337
21.42833	91450
21.43645	89574
21.44457	81792
21.45270	82485
21.46082	78636
21.46895	81154
21.47707	75860
21.48518	76501
21.49332	76579
21.50143	77832
21.50955	78064
21.51768	72943
21.52580	80354
21.53393	78496
21.54205	78272
21.55017	78269
21.55830	78946
21.56642	83003
21.57455	76999
21.58267	81780
21.59078	80843
21.59892	84016
21.60703	84895
21.61517	90497
21.62328	96102
21.63140	100913
21.63953	100790
21.64765	104109
21.65577	96497
21.66390	95237
21.67202	85114
21.68015	82093
21.68827	77788
21.69638	77189
21.70452	88215
21.71263	92559
21.72077	97781
21.72888	95418
21.73700	102102
21.74513	100168
21.75325	105854
21.76138	108494
21.76950	119004
21.77762	127700
21.78575	129399
21.79387	123164
21.80198	113185
21.81012	100546
21.81823	89548
21.82637	80658
21.83448	81101
21.84260	80750
21.85073	81425
21.85885	82395
21.86698	86802
21.87510	85729
21.88322	80430
21.89135	79523
21.89947	80815
21.90758	77350
21.91572	74959
21.92383	74157
21.93197	74320
21.94008	72296
21.94820	74941
21.95633	72345
21.96445	64918
21.97258	67104
21.98070	69418
21.98882	71208
21.99695	72340
22.00507	68886
22.01320	78194
22.02132	75058
22.02943	69332
22.03757	78851
22.04568	77412
22.05380	78057
22.06193	80177
22.07005	76773
22.07818	77760
22.08630	83151
22.09442	82915
22.10255	81798
22.11067	79570
22.11880	81214
22.12692	78958
22.13503	74825
22.14317	78579
22.15128	76862
22.15942	75579
22.16753	80822
22.17565	77671
22.18378	75129
22.19190	72269
22.20002	71997
22.20815	69838
22.21627	68604
22.22440	71964
22.23252	73031
22.24063	76205
22.24877	68528
22.25688	72331
22.26502	66092
22.27313	74421
22.28125	68364
22.28938	69950
22.29750	74611
22.30562	72811
22.31375	74993
22.32187	77580
22.33000	76324
22.33812	79452
22.34623	75461
22.35437	70173
22.36248	71237
22.37062	71807
22.37873	66788
22.38685	71949
22.39498	74267
22.40310	75055
22.41123	79260
22.41935	78849
22.42747	76418
22.43560	74922
22.44372	73688
22.45183	73773
22.45997	80776
22.46808	75162
22.47622	77343
22.48433	75849
22.49245	78861
22.50058	76308
22.50870	71727
22.51683	73364
22.52495	76260
22.53307	82081
22.54120	81797
22.54932	80924
22.55743	80124
22.56557	78782
22.57368	74814
22.58182	71858
22.58993	72963
22.59805	67639
22.60618	67154
22.61430	70105
22.62243	65551
22.63055	64803
22.63867	67419
22.64680	69070
22.65492	71810
22.66305	75271
22.67117	78602
22.67928	84748
22.68742	91133
22.69553	90705
22.70365	91795
22.71178	88125
22.71990	87962
22.72803	83959
22.73615	80867
22.74427	73021
22.75240	70484
22.76052	68354
22.76865	70098
22.77677	69396
22.78488	69518
22.79302	72211
22.80113	67465
22.80927	73669
22.81738	73561
22.82550	74679
22.83363	72289
22.84175	73344
22.84987	71097
22.85800	72140
22.86612	69885
22.87425	75583
22.88237	73421
22.89048	78617
22.89862	74221
22.90673	70683
22.91487	69316
22.92298	76540
22.93110	73316
22.93923	73933
22.94735	75728
22.95547	72333
22.96360	70727
22.97172	68123
22.97985	65340
22.98797	67315
22.99608	68358
23.00422	71470
23.01233	65546
23.02047	70255
23.02858	73141
23.03670	69600
23.04483	68162
23.05295	75067
23.06108	77345
23.06920	79301
23.07732	78659
23.08545	85179
23.09357	86552
23.10168	88320
23.10982	84709
23.11793	82694
23.12607	75269
23.13418	75598
23.14230	71699
23.15043	70148
23.15855	72025
23.16668	78020
23.17480	78693
23.18292	80792
23.19105	83489
23.19917	78557
23.20730	75911
23.21542	73903
23.22353	73382
23.23167	71642
23.23978	67808
23.24790	67131
23.25603	68084
23.26415	66853
23.27228	67956
23.28040	67002
23.28852	69837
23.29665	68880
23.30477	68048
23.31290	72689
23.32102	71299
23.32913	79362
23.33727	77566
23.34538	78845
23.35350	78964
23.36163	75610
23.36975	74877
23.37788	72428
23.38600	68594
23.39412	74469
23.40225	82586
23.41037	79059
23.41850	84438
23.42662	85794
23.43473	81247
23.44287	70976
23.45098	70113
23.45912	68468
23.46723	68155
23.47535	71108
23.48348	65939
23.49160	70508
23.49972	69668
23.50785	75191
23.51597	65168
23.52410	66079
23.53222	68093
23.54033	66215
23.54847	71537
23.55658	67073
23.56472	73043
23.57283	75232
23.58095	68885
23.58908	68079
23.59720	63668
23.60532	67109
23.61345	65205
23.62157	64806
23.62970	71051
23.63782	76484
23.64593	92877
23.65407	110909
23.66218	129315
23.67032	140175
23.67843	142329
23.68655	124876
23.69468	103811
23.70280	88060
23.71093	81755
23.71905	71222
23.72717	66653
23.73530	62474
23.74342	63987
23.75153	66951
23.75967	70397
23.76778	71539
23.77592	78188
23.78403	83383
23.79215	88935
23.80028	97154
23.80840	95729
23.81653	100017
23.82465	90688
23.83277	84439
23.84090	87227
23.84902	80854
23.85715	75110
23.86527	72026
23.87338	72367
23.88152	72823
23.88963	71320
23.89775	71097
23.90588	72447
23.91400	71165
23.92213	76712
23.93025	73082
23.93837	84040
23.94650	87109
23.95462	94183
23.96275	96239
23.97087	91302
23.97898	88024
23.98712	77865
23.99523	74935
24.00337	78190
24.01148	75478
24.01960	72972
24.02773	66627
24.03585	73280
24.04397	69453
24.05210	66079
24.06022	68034
24.06835	63240
24.07647	70239
24.08458	72625
24.09272	66619
24.10083	67301
24.10897	71338
24.11708	73612
24.12520	69515
24.13333	73228
24.14145	80909
24.14957	84846
24.15770	86095
24.16582	86514
24.17395	86993
24.18207	85657
24.19018	86167
24.19832	83530
24.20643	81393
24.21457	74656
24.22268	70846
24.23080	67280
24.23893	70054
24.24705	68915
24.25518	74712
24.26330	69140
24.27142	74140
24.27955	74446
24.28767	74039
24.29578	74008
24.30392	74737
24.31203	69829
24.32017	71786
24.32828	67503
24.33640	61575
24.34453	68088
24.35265	62634
24.36078	63525
24.36890	70673
24.37702	67086
24.38515	71016
24.39327	86148
24.40138	109953
24.40952	139894
24.41763	207995
24.42577	286693
24.43388	344409
24.44200	404479
24.45013	399338
24.45825	352762
24.46638	280040
24.47450	199814
24.48262	148069
24.49075	116577
24.49887	101940
24.50700	97464
24.51512	80694
24.52323	79241
24.53137	77869
24.53948	75253
24.54760	75053
24.55573	75123
24.56385	74711
24.57198	73762
24.58010	73369
24.58822	73283
24.59635	73199
24.60447	79613
24.61260	79633
24.62072	74551
24.62883	78439
24.63697	78405
24.64508	74236
24.65322	77641
24.66133	76072
24.66945	73672
24.67758	70418
24.68570	71124
24.69382	65687
24.70195	63166
24.71007	65868
24.71820	62859
24.72632	63344
24.73443	65931
24.74257	66543
24.75068	67388
24.75882	68813
24.76693	70436
24.77505	72986
24.78318	73202
24.79130	67896
24.79942	67853
24.80755	67439
24.81567	64524
24.82380	66498
24.83192	61062
24.84003	64995
24.84817	60043
24.85628	68090
24.86442	59177
24.87253	64907
24.88065	63913
24.88878	65414
24.89690	64076
24.90503	64860
24.91315	65217
24.92127	58709
24.92940	61080
24.93752	57709
24.94563	60405
24.95377	54453
24.96188	59719
24.97002	55746
24.97813	58189
24.98625	54416
24.99438	62630
25.00250	55425
25.01063	55569
25.01875	63846
25.02687	59151
25.03500	57196
25.04312	60012
25.05125	62985
25.05937	62076
25.06748	65483
25.07562	65349
25.08373	63207
25.09185	63040
25.09998	58961
25.10810	60746
25.11623	60389
25.12435	56300
25.13247	59400
25.14060	57106
25.14872	61100
25.15685	66519
25.16497	61220
25.17308	60629
25.18122	61302
25.18933	57578
25.19745	56161
25.20558	54174
25.21370	59260
25.22183	54792
25.22995	55658
25.23807	60756
25.24620	65306
25.25432	70156
25.26245	76102
25.27057	97644
25.27868	147361
25.28682	226192
25.29493	373355
25.30307	528503
25.31118	652755
25.31930	701507
25.32743	644189
25.33555	514237
25.34367	362986
25.35180	226872
25.35992	152621
25.36805	103018
25.37617	81403
25.38428	73770
25.39242	70727
25.40053	67107
25.40867	62925
25.41678	66626
25.42490	67898
25.43303	65074
25.44115	60740
25.44927	60075
25.45740	56838
25.46552	60353
25.47365	64991
25.48177	63088
25.48988	72389
25.49802	67718
25.50613	70627
25.51427	68969
25.52238	63102
25.53050	64476
25.53863	60586
25.54675	58081
25.55488	57507
25.56300	56879
25.57112	58931
25.57925	55800
25.58737	56774
25.59548	56832
25.60362	62275
25.61173	54470
25.61987	57268
25.62798	60155
25.63610	59880
25.64423	53657
25.65235	51793
25.66048	54624
25.66860	57292
25.67672	55782
25.68485	53514
25.69297	58688
25.70110	59327
25.70922	55141
25.71733	57803
25.72547	59317
25.73358	57060
25.74170	62452
25.74983	58971
25.75795	59427
25.76608	58781
25.77420	62837
25.78232	56080
25.79045	60303
25.79857	60792
25.80670	57066
25.81482	54711
25.82293	51684
25.83107	58170
25.83918	58371
25.84730	60732
25.85543	53225
25.86355	49491
25.87168	54371
25.87980	54557
25.88792	62153
25.89605	59575
25.90417	61836
25.91230	63525
25.92042	62351
25.92853	58302
25.93667	57650
25.94478	63615
25.95292	60381
25.96103	60220
25.96915	54147
25.97728	52962
25.98540	56161
25.99352	55058
26.00165	52650
26.00977	54204
26.01790	54815
26.02602	53325
26.03413	51487
26.04227	55154
26.05038	55234
26.05852	49446
26.06663	56238
26.07475	56643
26.08288	56749
26.09100	76956
26.09913	92171
26.10725	133038
26.11537	177530
26.12350	266563
26.13162	332418
26.13973	371300
26.14787	374367
26.15598	313085
26.16412	242354
26.17223	189738
26.18035	135851
26.18848	104533
26.19660	91648
26.20473	69731
26.21285	62600
26.22097	61861
26.22910	61431
26.23722	57477
26.24533	57551
26.25347	58495
26.26158	59532
26.26972	59249
26.27783	57492
26.28595	63248
26.29408	65354
26.30220	65010
26.31033	63425
26.31845	63041
26.32657	61813
26.33470	65532
26.34282	58450
26.35095	56330
26.35907	52240
26.36718	56161
26.37532	52908
26.38343	53835
26.39155	53338
26.39968	56925
26.40780	55341
26.41593	55076
26.42405	52812
26.43217	55136
26.44030	58980
26.44842	55341
26.45655	57961
26.46467	59281
26.47278	57347
26.48092	59194
26.48903	59229
26.49717	64729
26.50528	70211
26.51340	72761
26.52153	70650
26.52965	68414
26.53777	67879
26.54590	62109
26.55402	63767
26.56215	60328
26.57027	64260
26.57838	57525
26.58652	56636
26.59463	57863
26.60277	56519
26.61088	60657
26.61900	56798
26.62713	52138
26.63525	55606
26.64337	59457
26.65150	56964
26.65962	55907
26.66775	57501
26.67587	61639
26.68398	64486
26.69212	67880
26.70023	64048
26.70837	69451
26.71648	63159
26.72460	64670
26.73273	60818
26.74085	62396
26.74898	60252
26.75710	60427
26.76522	56883
26.77335	60919
26.78147	61815
26.78958	62391
26.79772	75846
26.80583	86717
26.81397	99723
26.82208	106729
26.83020	105451
26.83833	89118
26.84645	81749
26.85458	72577
26.86270	67657
26.87082	60218
26.87895	59910
26.88707	62287
26.89518	58995
26.90332	57499
26.91143	57127
26.91957	58485
26.92768	54346
26.93580	54908
26.94393	56971
26.95205	56591
26.96018	56952
26.96830	54943
26.97642	60486
26.98455	59638
26.99267	56981
27.00080	60515
27.00892	64634
27.01703	60253
27.02517	60934
27.03328	60732
27.04140	60111
27.04953	57412
27.05765	61776
27.06578	58714
27.07390	59197
27.08202	63413
27.09015	61277
27.09827	66646
27.10640	74290
27.11452	72888
27.12263	82127
27.13077	82723
27.13888	83444
27.14702	72273
27.15513	65878
27.16325	65900
27.17138	65111
27.17950	54157
27.18762	58378
27.19575	60233
27.20387	58784
27.21200	58490
27.22012	56656
27.22823	56399
27.23637	58707
27.24448	54134
27.25262	54471
27.26073	56413
27.26885	57393
27.27698	53100
27.28510	55063
27.29322	57256
27.30135	55294
27.30947	58443
27.31760	59506
27.32572	64283
27.33383	64978
27.34197	71181
27.35008	72056
27.35822	80033
27.36633	92283
27.37445	107373
27.38258	127516
27.39070	131930
27.39883	125126
27.40695	110185
27.41507	85672
27.42320	71134
27.43132	63643
27.43943	60685
27.44757	58703
27.45568	58929
27.46382	56655
27.47193	55421
27.48005	56370
27.48818	55271
27.49630	58953
27.50443	50218
27.51255	59765
27.52067	56330
27.52880	57352
27.53692	56713
27.54505	58997
27.55317	58324
27.56128	56150
27.56942	57308
27.57753	58008
27.58565	57210
27.59378	59021
27.60190	56006
27.61003	53007
27.61815	50197
27.62627	56888
27.63440	53810
27.64252	56144
27.65065	52736
27.65877	54760
27.66688	49026
27.67502	50099
27.68313	51938
27.69125	50600
27.69938	55911
27.70750	50984
27.71563	59415
27.72375	63245
27.73187	53493
27.74000	65518
27.74812	58775
27.75625	56979
27.76437	59039
27.77248	56542
27.78062	57687
27.78873	65007
27.79687	60259
27.80498	59495
27.81310	53175
27.82123	57940
27.82935	55993
27.83747	55353
27.84560	60539
27.85372	61326
27.86185	58429
27.86997	62895
27.87808	58800
27.88622	57188
27.89433	58672
27.90247	52730
27.91058	58135
27.91870	55976
27.92683	48628
27.93495	55128
27.94307	57707
27.95120	52671
27.95932	51579
27.96745	53842
27.97557	52159
27.98368	53787
27.99182	54605
27.99993	56655
28.00807	55695
28.01618	55834
28.02430	55287
28.03243	51597
28.04055	60937
28.04868	59607
28.05680	63437
28.06492	63812
28.07305	60400
28.08117	59925
28.08928	56654
28.09742	54362
28.10553	59691
28.11367	57107
28.12178	55474
28.12990	54750
28.13803	55342
28.14615	50658
28.15428	52015
28.16240	54318
28.17052	50118
28.17865	53638
28.18677	53430
28.19490	50129
28.20302	51049
28.21113	52379
28.21927	53121
28.22738	52597
28.23550	56409
28.24363	55304
28.25175	61434
28.25988	56120
28.26800	63830
28.27612	61635
28.28425	56355
28.29237	60211
28.30050	56714
28.30862	55443
28.31673	60480
28.32487	59136
28.33298	58515
28.34110	56377
28.34923	54567
28.35735	49533
28.36548	52573
28.37360	52537
28.38172	52653
28.38985	53953
28.39797	52672
28.40610	53289
28.41422	57457
28.42233	54737
28.43047	50718
28.43858	55333
28.44672	54212
28.45483	52626
28.46295	51563
28.47108	50836
28.47920	52744
28.48732	55331
28.49545	48617
28.50357	55779
28.51170	51507
28.51982	57735
28.52793	56999
28.53607	54787
28.54418	60661
28.55232	59178
28.56043	60312
28.56855	54257
28.57668	59212
28.58480	58427
28.59293	57498
28.60105	56225
28.60917	60185
28.61730	64104
28.62542	86336
28.63353	134724
28.64167	219444
28.64978	357974
28.65792	535982
28.66603	707595
28.67415	835052
28.68228	789189
28.69040	678572
28.69853	517807
28.70665	350045
28.71477	219696
28.72290	134832
28.73102	95242
28.73913	78112
28.74727	76158
28.75538	77490
28.76352	82910
28.77163	83623
28.77975	90691
28.78788	94471
28.79600	92148
28.80413	87416
28.81225	80115
28.82037	74615
28.82850	72628
28.83662	71713
28.84475	65741
28.85287	69076
28.86098	64487
28.86912	67863
28.87723	71791
28.88535	71876
28.89348	72415
28.90160	75637
28.90973	77722
28.91785	78112
28.92597	80407
28.93410	72145
28.94222	66238
28.95035	63638
28.95847	60362
28.96658	56231
28.97472	57681
28.98283	58438
28.99095	57340
28.99908	60064
29.00720	54520
29.01533	57686
29.02345	56056
29.03157	62556
29.03970	62501
29.04782	67474
29.05595	68242
29.06407	71180
29.07218	72851
29.08032	69120
29.08843	67405
29.09657	63936
29.10468	67430
29.11280	59253
29.12093	58545
29.12905	59599
29.13717	58141
29.14530	62376
29.15342	59510
29.16155	67188
29.16967	67333
29.17778	69256
29.18592	75087
29.19403	77860
29.20217	91360
29.21028	97755
29.21840	102243
29.22653	106233
29.23465	96752
29.24278	81118
29.25090	72144
29.25902	64027
29.26715	61997
29.27527	53044
29.28338	56508
29.29152	58080
29.29963	54407
29.30777	55624
29.31588	55267
29.32400	53718
29.33213	53243
29.34025	53148
29.34838	54923
29.35650	58367
29.36462	52637
29.37275	58947
29.38087	55296
29.38900	62159
29.39712	55174
29.40523	58471
29.41337	59782
29.42148	56535
29.42960	57244
29.43773	56428
29.44585	54840
29.45398	62074
29.46210	58222
29.47022	66705
29.47835	74263
29.48647	89227
29.49460	115197
29.50272	122832
29.51083	132717
29.51897	126989
29.52708	118560
29.53520	98941
29.54333	88001
29.55145	71063
29.55958	67060
29.56770	55463
29.57582	63006
29.58395	68976
29.59207	94503
29.60020	142609
29.60832	205019
29.61643	313755
29.62457	381458
29.63268	415497
29.64082	406693
29.64893	344566
29.65705	257693
29.66518	180584
29.67330	118879
29.68142	78913
29.68955	66651
29.69767	65675
29.70580	59047
29.71392	60828
29.72203	55833
29.73017	60576
29.73828	62657
29.74642	61580
29.75453	63129
29.76265	61563
29.77078	61477
29.77890	61214
29.78702	64461
29.79515	58658
29.80327	54543
29.81140	55335
29.81952	56119
29.82763	58861
29.83577	55513
29.84388	52024
29.85202	60234
29.86013	57092
29.86825	59153
29.87638	61477
29.88450	75773
29.89263	76528
29.90075	82279
29.90887	82775
29.91700	84011
29.92512	72435
29.93323	68900
29.94137	65038
29.94948	59254
29.95762	57801
29.96573	59562
29.97385	58550
29.98198	57198
29.99010	56702
29.99823	61276
30.00635	58102
30.01447	60924
30.02260	60729
30.03072	59404
30.03885	55655
30.04697	58434
30.05508	65016
30.06322	61885
30.07133	64102
30.07945	67247
30.08758	62273
30.09570	63520
30.10383	59167
30.11195	61555
30.12007	55751
30.12820	57823
30.13632	56852
30.14445	57266
30.15257	55048
30.16068	56512
30.16882	52594
30.17693	54882
30.18505	57894
30.19318	54425
30.20130	58029
30.20943	54978
30.21755	56808
30.22567	55348
30.23380	54908
30.24192	52343
30.25005	51572
30.25817	53076
30.26628	55390
30.27442	54507
30.28253	52259
30.29067	55983
30.29878	59888
30.30690	66109
30.31503	84379
30.32315	113095
30.33127	151738
30.33940	181755
30.34752	191907
30.35565	178558
30.36377	148930
30.37188	109961
30.38002	84803
30.38813	66567
30.39627	61073
30.40438	54823
30.41250	55331
30.42063	53373
30.42875	52485
30.43688	55137
30.44500	52324
30.45312	51530
30.46125	56678
30.46937	62315
30.47748	67090
30.48562	64843
30.49373	69122
30.50187	70374
30.50998	64268
30.51810	60188
30.52623	58407
30.53435	64328
30.54248	59767
30.55060	59272
30.55872	63825
30.56685	62425
30.57497	60083
30.58308	58352
30.59122	60960
30.59933	57718
30.60747	55145
30.61558	57964
30.62370	51562
30.63183	54633
30.63995	53642
30.64808	52329
30.65620	51916
30.66432	57745
30.67245	54810
30.68057	53943
30.68870	56814
30.69682	50167
30.70493	50456
30.71307	50748
30.72118	48637
30.72930	54316
30.73743	48088
30.74555	54512
30.75368	55337
30.76180	59025
30.76992	57529
30.77805	74949
30.78617	87301
30.79430	115266
30.80242	138203
30.81053	164874
30.81867	159991
30.82678	150351
30.83490	121883
30.84303	106919
30.85115	79597
30.85928	71553
30.86740	65273
30.87552	59370
30.88365	58475
30.89177	55090
30.89990	56434
30.90802	52848
30.91613	55584
30.92427	56134
30.93238	57172
30.94052	55603
30.94863	56774
30.95675	55312
30.96488	62088
30.97300	58015
30.98112	56575
30.98925	54127
30.99737	56715
31.00550	54399
31.01362	56306
31.02173	54161
31.02987	54461
31.03798	54956
31.04612	53283
31.05423	57578
31.06235	53230
31.07048	55436
31.07860	53383
31.08673	49972
31.09485	51465
31.10297	56120
31.11110	53021
31.11922	57306
31.12733	52522
31.13547	51126
31.14358	53131
31.15172	53844
31.15983	51246
31.16795	50999
31.17608	50641
31.18420	50088
31.19233	55305
31.20045	56783
31.20857	60280
31.21670	54525
31.22482	55378
31.23293	53759
31.24107	56566
31.24918	54260
31.25732	51679
31.26543	52956
31.27355	50663
31.28168	57745
31.28980	52334
31.29793	53251
31.30605	54863
31.31417	52184
31.32230	54097
31.33042	54944
31.33855	53770
31.34667	54619
31.35478	56216
31.36292	59018
31.37103	59128
31.37915	57863
31.38728	55296
31.39540	52996
31.40353	52674
31.41165	49036
31.41977	51731
31.42790	51392
31.43602	54618
31.44415	56800
31.45227	57865
31.46038	56322
31.46852	55247
31.47663	59845
31.48477	59150
31.49288	59217
31.50100	60077
31.50913	57841
31.51725	58958
31.52537	55569
31.53350	57059
31.54162	52974
31.54975	55176
31.55787	59493
31.56598	60718
31.57412	61875
31.58223	57002
31.59037	58782
31.59848	59472
31.60660	54754
31.61473	58377
31.62285	57153
31.63097	55565
31.63910	53704
31.64722	53638
31.65535	59121
31.66347	55356
31.67158	58946
31.67972	59291
31.68783	61580
31.69597	55781
31.70408	59781
31.71220	58072
31.72033	56992
31.72845	61610
31.73658	59909
31.74470	57468
31.75282	60222
31.76095	66368
31.76907	65474
31.77718	67822
31.78532	76901
31.79343	89807
31.80157	94151
31.80968	100160
31.81780	97385
31.82593	88053
31.83405	78501
31.84218	68317
31.85030	76756
31.85842	70974
31.86655	69026
31.87467	65706
31.88280	67334
31.89092	62660
31.89903	61033
31.90717	57576
31.91528	62913
31.92340	58796
31.93153	57474
31.93965	52962
31.94778	60586
31.95590	58514
31.96402	57552
31.97215	57061
31.98027	56264
31.98840	63052
31.99652	56881
32.00463	55818
32.01277	61461
32.02088	57163
32.02900	60414
32.03713	66617
32.04525	64711
32.05338	63435
32.06150	62680
32.06962	62195
32.07775	65661
32.08587	58050
32.09400	55794
32.10212	58213
32.11023	58674
32.11837	53312
32.12648	54938
32.13462	52787
32.14273	57683
32.15085	53813
32.15898	57109
32.16710	55484
32.17522	51291
32.18335	57851
32.19147	53134
32.19960	55870
32.20772	57734
32.21583	61121
32.22397	55474
32.23208	57315
32.24022	61003
32.24833	55034
32.25645	61414
32.26458	56049
32.27270	54915
32.28082	56908
32.28895	56540
32.29707	57043
32.30520	59497
32.31332	62003
32.32143	57436
32.32957	59098
32.33768	53531
32.34582	54696
32.35393	55102
32.36205	59170
32.37018	57295
32.37830	56029
32.38643	63615
32.39455	52228
32.40267	57429
32.41080	60314
32.41892	67277
32.42703	64684
32.43517	71086
32.44328	80326
32.45142	80302
32.45953	87605
32.46765	77802
32.47578	73786
32.48390	67740
32.49203	64981
32.50015	61861
32.50827	58804
32.51640	54226
32.52452	55233
32.53265	56129
32.54077	56172
32.54888	50105
32.55702	56830
32.56513	54441
32.57325	52536
32.58138	54401
32.58950	51331
32.59763	50926
32.60575	54465
32.61387	53926
32.62200	50678
32.63012	52532
32.63825	56068
32.64637	57534
32.65448	57416
32.66262	62870
32.67073	55487
32.67885	60015
32.68698	62884
32.69510	60622
32.70323	66189
32.71135	73641
32.71947	77312
32.72760	80442
32.73572	82611
32.74385	76912
32.75197	76306
32.76008	70082
32.76822	64560
32.77633	60575
32.78447	63230
32.79258	64177
32.80070	59707
32.80883	62011
32.81695	66943
32.82507	68625
32.83320	74638
32.84132	78849
32.84945	71025
32.85757	69906
32.86568	66700
32.87382	64083
32.88193	60458
32.89007	58927
32.89818	58738
32.90630	61415
32.91443	61398
32.92255	59461
32.93068	62803
32.93880	64396
32.94692	61323
32.95505	67383
32.96317	59337
32.97128	58639
32.97942	64266
32.98753	65398
32.99567	59185
33.00378	57847
33.01190	54437
33.02003	55661
33.02815	54203
33.03628	56247
33.04440	56129
33.05252	53673
33.06065	53983
33.06877	56133
33.07688	53746
33.08502	57892
33.09313	62849
33.10127	75226
33.10938	76837
33.11750	83937
33.12563	89553
33.13375	88037
33.14188	81279
33.15000	71472
33.15812	62900
33.16625	63949
33.17437	59262
33.18250	53496
33.19062	56318
33.19873	60126
33.20687	58523
33.21498	55875
33.22310	58538
33.23123	56174
33.23935	53874
33.24748	54586
33.25560	55793
33.26372	55592
33.27185	54898
33.27997	55957
33.28810	54446
33.29622	54326
33.30433	56932
33.31247	53610
33.32058	56166
33.32870	57440
33.33683	58446
33.34495	64711
33.35308	64492
33.36120	61678
33.36932	60854
33.37745	60060
33.38557	56901
33.39370	58902
33.40182	63389
33.40993	57441
33.41807	54462
33.42618	53977
33.43432	60007
33.44243	57156
33.45055	54647
33.45868	53110
33.46680	56880
33.47492	52395
33.48305	56931
33.49117	53728
33.49930	51505
33.50742	57893
33.51553	53583
33.52367	57642
33.53178	54627
33.53992	54681
33.54803	54756
33.55615	55227
33.56428	56344
33.57240	53507
33.58053	58036
33.58865	55697
33.59677	53411
33.60490	53442
33.61302	58199
33.62113	54937
33.62927	55098
33.63738	53319
33.64552	54738
33.65363	57459
33.66175	56494
33.66988	55837
33.67800	57273
33.68613	59258
33.69425	55680
33.70237	58658
33.71050	53562
33.71862	50755
33.72673	53509
33.73487	53739
33.74298	53280
33.75112	54831
33.75923	50346
33.76735	52586
33.77548	55189
33.78360	52907
33.79173	56473
33.79985	58383
33.80797	53710
33.81610	54303
33.82422	58650
33.83235	55406
33.84047	54617
33.84858	61912
33.85672	58871
33.86483	58279
33.87295	57802
33.88108	64670
33.88920	65112
33.89733	62709
33.90545	59810
33.91357	57213
33.92170	61197
33.92982	56529
33.93795	53720
33.94607	55831
33.95418	57701
33.96232	58377
33.97043	59697
33.97857	59986
33.98668	59019
33.99480	58632
34.00293	58772
34.01105	58058
34.01917	59373
34.02730	61817
34.03542	57143
34.04355	55623
34.05167	53410
34.05978	58062
34.06792	55451
34.07603	58271
34.08417	53069
34.09228	57211
34.10040	51849
34.10853	56972
34.11665	54139
34.12477	54260
34.13290	57939
34.14102	57757
34.14915	58846
34.15727	59138
34.16538	55064
34.17352	55130
34.18163	58480
34.18977	55599
34.19788	55588
34.20600	55620
34.21413	57454
34.22225	55388
34.23038	55258
34.23850	52507
34.24662	48982
34.25475	52857
34.26287	52434
34.27098	58419
34.27912	51288
34.28723	52732
34.29537	53311
34.30348	53629
34.31160	50729
34.31973	56150
34.32785	57320
34.33598	54105
34.34410	56100
34.35222	59428
34.36035	61182
34.36847	62210
34.37658	65536
34.38472	68493
34.39283	68919
34.40097	70617
34.40908	67816
34.41720	61960
34.42533	63700
34.43345	59760
34.44158	59730
34.44970	57147
34.45782	57596
34.46595	53471
34.47407	57447
34.48220	56865
34.49032	57200
34.49843	54782
34.50657	59530
34.51468	56661
34.52280	56102
34.53093	52104
34.53905	57325
34.54718	58683
34.55530	58375
34.56342	59307
34.57155	61801
34.57967	58443
34.58780	59831
34.59592	57420
34.60403	55345
34.61217	61864
34.62028	59448
34.62842	60533
34.63653	58267
34.64465	58178
34.65278	55260
34.66090	58243
34.66902	52611
34.67715	55654
34.68527	56790
34.69340	66024
34.70152	58168
34.70963	60787
34.71777	59015
34.72588	58763
34.73402	58243
34.74213	61068
34.75025	65029
34.75838	62827
34.76650	68504
34.77463	66811
34.78275	63005
34.79087	65893
34.79900	58154
34.80712	62127
34.81523	60426
34.82337	61641
34.83148	61941
34.83962	60229
34.84773	51453
34.85585	55014
34.86398	57209
34.87210	51588
34.88023	54834
34.88835	56391
34.89647	56841
34.90460	56608
34.91272	57189
34.92083	57708
34.92897	58899
34.93708	63315
34.94522	66011
34.95333	66588
34.96145	66433
34.96958	64320
34.97770	61213
34.98583	61319
34.99395	63688
35.00207	56834
35.01020	57685
35.01832	56263
35.02645	58578
35.03457	55852
35.04268	55949
35.05082	58526
35.05893	60248
35.06705	58205
35.07518	59182
35.08330	56450
35.09143	58110
35.09955	56006
35.10767	58617
35.11580	56389
35.12392	56579
35.13205	60565
35.14017	61472
35.14828	62624
35.15642	64053
35.16453	64969
35.17265	57849
35.18078	58541
35.18890	58310
35.19703	60848
35.20515	60362
35.21327	60733
35.22140	55622
35.22952	57700
35.23765	59348
35.24577	57416
35.25388	58026
35.26202	59979
35.27013	55372
35.27827	58316
35.28638	58096
35.29450	61554
35.30263	57051
35.31075	55269
35.31887	59312
35.32700	59241
35.33512	58862
35.34325	61589
35.35137	57583
35.35948	57363
35.36762	55459
35.37573	58604
35.38387	54947
35.39198	58498
35.40010	56910
35.40823	60120
35.41635	60114
35.42448	60339
35.43260	62055
35.44072	66283
35.44885	67383
35.45697	74448
35.46508	80796
35.47322	82772
35.48133	88527
35.48947	87676
35.49758	88053
35.50570	89359
35.51383	85811
35.52195	74182
35.53008	71632
35.53820	69286
35.54632	70193
35.55445	73975
35.56257	71958
35.57068	70621
35.57882	67700
35.58693	72646
35.59507	65429
35.60318	63333
35.61130	62919
35.61943	62092
35.62755	63957
35.63568	60753
35.64380	68003
35.65192	69195
35.66005	63217
35.66817	58852
35.67630	57196
35.68442	59110
35.69253	60877
35.70067	57978
35.70878	58296
35.71690	60101
35.72503	58013
35.73315	59016
35.74128	58178
35.74940	53599
35.75752	61115
35.76565	59466
35.77377	59935
35.78190	58630
35.79002	58435
35.79813	57404
35.80627	61823
35.81438	57663
35.82252	54688
35.83063	51436
35.83875	56123
35.84688	58332
35.85500	54870
35.86312	55966
35.87125	58825
35.87937	60315
35.88750	60371
35.89562	61133
35.90373	56279
35.91187	59223
35.91998	56820
35.92812	56274
35.93623	58082
35.94435	59904
35.95248	64872
35.96060	61881
35.96872	61176
35.97685	62109
35.98497	60360
35.99310	69892
36.00122	74927
36.00933	89357
36.01747	94891
36.02558	96498
36.03372	93578
36.04183	96123
36.04995	82513
36.05808	71849
36.06620	73417
36.07433	74081
36.08245	62733
36.09057	59881
36.09870	61597
36.10682	63372
36.11493	66444
36.12307	64490
36.13118	61387
36.13932	64911
36.14743	64403
36.15555	65151
36.16368	59350
36.17180	59270
36.17993	62072
36.18805	62936
36.19617	64465
36.20430	58638
36.21242	58807
36.22053	59290
36.22867	60465
36.23678	64591
36.24492	60902
36.25303	58415
36.26115	57669
36.26928	59435
36.27740	60846
36.28553	60802
36.29365	60647
36.30177	58836
36.30990	65865
36.31802	61446
36.32615	62872
36.33427	62779
36.34238	65003
36.35052	59724
36.35863	59950
36.36675	66158
36.37488	57509
36.38300	59118
36.39113	61290
36.39925	60212
36.40737	56893
36.41550	58894
36.42362	62560
36.43175	59345
36.43987	58324
36.44798	56266
36.45612	62032
36.46423	62898
36.47237	60415
36.48048	59617
36.48860	61420
36.49673	58341
36.50485	61456
36.51297	60479
36.52110	56413
36.52922	59450
36.53735	58322
36.54547	61934
36.55358	65618
36.56172	60490
36.56983	60225
36.57797	62173
36.58608	60174
36.59420	58072
36.60233	56021
36.61045	57422
36.61857	60926
36.62670	60431
36.63482	59675
36.64295	61067
36.65107	60103
36.65918	62817
36.66732	58876
36.67543	61503
36.68357	61266
36.69168	59936
36.69980	60365
36.70793	60422
36.71605	61766
36.72418	59760
36.73230	60053
36.74042	57333
36.74855	59793
36.75667	56496
36.76478	58785
36.77292	60465
36.78103	61176
36.78917	64581
36.79728	62812
36.80540	63249
36.81353	61277
36.82165	60725
36.82978	57500
36.83790	57873
36.84602	60800
36.85415	54980
36.86227	63567
36.87040	62501
36.87852	67239
36.88663	62883
36.89477	64735
36.90288	62002
36.91100	64761
36.91913	61373
36.92725	61298
36.93538	65202
36.94350	60332
36.95162	61030
36.95975	61935
36.96787	58478
36.97600	58957
36.98412	63066
36.99223	64234
37.00037	60962
37.00848	61725
37.01660	61565
37.02473	61240
37.03285	64857
37.04098	65628
37.04910	59948
37.05722	62825
37.06535	64650
37.07347	62827
37.08160	64215
37.08972	59508
37.09783	63967
37.10597	65049
37.11408	65892
37.12222	72058
37.13033	73477
37.13845	87379
37.14658	97388
37.15470	111472
37.16282	120598
37.17095	124088
37.17907	109604
37.18720	95013
37.19532	79916
37.20343	71539
37.21157	68615
37.21968	66534
37.22782	68147
37.23593	64140
37.24405	60057
37.25218	62328
37.26030	64082
37.26843	63103
37.27655	60304
37.28467	65752
37.29280	71094
37.30092	79808
37.30903	92457
37.31717	106014
37.32528	132992
37.33342	142717
37.34153	135463
37.34965	112488
37.35778	97959
37.36590	87615
37.37403	77532
37.38215	72723
37.39027	66311
37.39840	68160
37.40652	66597
37.41463	61974
37.42277	66085
37.43088	63019
37.43902	62482
37.44713	65441
37.45525	65156
37.46338	68513
37.47150	63088
37.47963	66889
37.48775	63673
