C:\MassHunter\GCMS\1\data\JTB-E02\BACandBLUE\JTB-E18-009-08.D Thu May 16 10:36:32 2019
Start of data points
2.09528,88436
2.10340,90816
2.11153,87393
2.11965,91225
2.12777,84607
2.13590,84946
2.14402,88647
2.15215,88161
2.16027,89392
2.16838,87339
2.17652,87992
2.18463,83882
2.19277,87062
2.20088,81261
2.20900,79831
2.21713,84835
2.22525,81762
2.23337,76286
2.24150,78688
2.24962,79804
2.25775,77515
2.26587,84244
2.27398,330573
2.28212,1292568
2.29023,1036865
2.29837,435411
2.30648,299382
2.31460,242718
2.32273,220228
2.33085,193474
2.33898,190377
2.34710,179730
2.35522,160643
2.36335,162217
2.37147,147429
2.37958,148311
2.38772,143354
2.39583,134851
2.40397,135266
2.41208,131664
2.42020,130404
2.42833,132392
2.43645,130415
2.44458,133838
2.45270,132148
2.46082,131993
2.46895,121131
2.47707,121343
2.48520,123102
2.49332,138778
2.50143,142096
2.50957,132086
2.51768,125786
2.52580,120791
2.53393,120688
2.54205,119255
2.55018,121977
2.55830,147047
2.56642,217635
2.57455,198742
2.58267,156428
2.59080,143521
2.59892,145941
2.60703,292306
2.61517,936357
2.62328,1053485
2.63140,566282
2.63953,349401
2.64765,269450
2.65578,221132
2.66390,190746
2.67202,172643
2.68015,156210
2.68827,153291
2.69640,137928
2.70452,141823
2.71263,130895
2.72077,138719
2.72888,129574
2.73702,130440
2.74513,121948
2.75325,125384
2.76138,120184
2.76950,119011
2.77762,174662
2.78575,616107
2.79387,1231298
2.80200,908150
2.81012,489500
2.81823,390767
2.82637,360536
2.83448,297168
2.84262,253038
2.85073,214521
2.85885,198123
2.86698,196661
2.87510,176777
2.88322,163860
2.89135,152813
2.89947,150417
2.90760,146445
2.91572,145091
2.92383,140586
2.93197,136634
2.94008,134795
2.94822,131477
2.95633,135951
2.96445,155114
2.97258,170021
2.98070,156345
2.98883,138239
2.99695,136764
3.00507,129316
3.01320,132084
3.02132,130970
3.02943,133633
3.03757,126649
3.04568,123399
3.05382,117350
3.06193,124653
3.07005,124223
3.07818,147488
3.08630,565124
3.09443,2192141
3.10255,3806454
3.11067,4617826
3.11880,4675163
3.12692,3032769
3.13505,1861573
3.14317,1366737
3.15128,1078489
3.15942,878102
3.16753,738700
3.17565,708996
3.18378,741502
3.19190,1247314
3.20003,2086759
3.20815,1924172
3.21627,1300100
3.22440,978168
3.23252,821087
3.24065,704793
3.24877,605772
3.25688,533330
3.26502,475492
3.27313,441827
3.28125,402578
3.28938,490150
3.29750,1152290
3.30563,3120838
3.31375,5429871
3.32187,5628413
3.33000,3979974
3.33812,2355259
3.34625,1567347
3.35437,1160225
3.36248,921924
3.37062,767546
3.37873,683793
3.38687,619347
3.39498,573589
3.40310,529426
3.41123,495812
3.41935,463095
3.42747,461748
3.43560,449763
3.44372,442692
3.45185,436793
3.45997,404282
3.46808,405705
3.47622,396567
3.48433,401190
3.49247,384620
3.50058,373784
3.50870,365677
3.51683,346138
3.52495,345342
3.53308,353008
3.54120,374364
3.54932,384099
3.55745,372291
3.56557,404085
3.57368,592161
3.58182,826494
3.58993,800028
3.59807,603619
3.60618,489184
3.61430,449863
3.62243,437916
3.63055,427812
3.63868,410753
3.64680,382675
3.65492,387098
3.66305,703408
3.67117,3554614
3.67928,1.184721E+07
3.68742,1.841531E+07
3.69553,1.538364E+07
3.70367,9138148
3.71178,5869267
3.71990,4527670
3.72803,3772996
3.73615,3183077
3.74428,2809629
3.75240,2479036
3.76052,2182462
3.76865,1993315
3.77677,1841121
3.78490,1721939
3.79302,1567180
3.80113,1540438
3.80927,1812105
3.81738,2484692
3.82550,2859267
3.83363,2407153
3.84175,1812394
3.84988,1533036
3.85800,1396580
3.86612,1277320
3.87425,1198754
3.88237,1123369
3.89050,1058492
3.89862,1003970
3.90673,941099
3.91487,925727
3.92298,1000374
3.93112,1172602
3.93923,1215765
3.94735,1239524
3.95548,1986497
3.96360,4382836
3.97172,6919793
3.97985,6625249
3.98797,4310724
3.99610,3204896
4.00422,6687207
4.01233,1.71725E+07
4.02047,2.732812E+07
4.02858,2.670598E+07
4.03672,1.637062E+07
4.04483,7798911
4.05295,4198774
4.06108,2831830
4.06920,2166792
4.07732,1788631
4.08545,1527808
4.09357,1343239
4.10170,1209650
4.10982,1107196
4.11793,1028330
4.12607,957964
4.13418,912617
4.14232,860830
4.15043,838899
4.15855,826219
4.16668,807708
4.17480,779856
4.18293,776701
4.19105,738502
4.19917,718217
4.20730,768261
4.21542,1657039
4.22353,5286147
4.23167,1.183628E+07
4.23978,1.690481E+07
4.24792,1.6788E+07
4.25603,1.178134E+07
4.26415,6884636
4.27228,4524544
4.28040,3285886
4.28853,2544343
4.29665,2048216
4.30477,1691839
4.31290,1485100
4.32102,1306060
4.32913,1182819
4.33727,1088641
4.34538,1025494
4.35352,983547
4.36163,999867
4.36975,1035376
4.37788,1005551
4.38600,923780
4.39413,833798
4.40225,760463
4.41037,717717
4.41850,681250
4.42662,668791
4.43475,637752
4.44287,613926
4.45098,613811
4.45912,589395
4.46723,560153
4.47535,556927
4.48348,549092
4.49160,545193
4.49973,524240
4.50785,519366
4.51597,511271
4.52410,481912
4.53222,486468
4.54035,483275
4.54847,489579
4.55658,496221
4.56472,478690
4.57283,471087
4.58097,445097
4.58908,435444
4.59720,435928
4.60533,421694
4.61345,427734
4.62157,444821
4.62970,543171
4.63782,744226
4.64595,968800
4.65407,1009448
4.66218,848803
4.67032,671790
4.67843,562274
4.68657,529843
4.69468,486905
4.70280,460947
4.71093,424410
4.71905,405599
4.72717,383881
4.73530,372986
4.74342,375009
4.75155,358437
4.75967,350524
4.76778,354964
4.77592,355400
4.78403,347326
4.79217,373071
4.80028,437315
4.80840,516666
4.81653,544536
4.82465,489429
4.83278,441098
4.84090,434990
4.84902,465295
4.85715,488728
4.86527,487211
4.87338,463103
4.88152,438256
4.88963,397612
4.89777,359002
4.90588,353958
4.91400,334970
4.92213,341111
4.93025,344550
4.93838,434302
4.94650,751882
4.95462,1456720
4.96275,2376406
4.97087,2870754
4.97900,2689990
4.98712,2001606
4.99523,1373979
5.00337,972557
5.01148,746296
5.01960,645910
5.02773,624582
5.03585,699834
5.04398,818766
5.05210,845936
5.06022,758857
5.06835,650200
5.07647,596006
5.08460,553520
5.09272,517182
5.10083,495534
5.10897,470227
5.11708,472523
5.12520,450066
5.13333,443782
5.14145,435778
5.14958,447550
5.15770,494584
5.16582,580563
5.17395,647044
5.18207,634290
5.19020,587108
5.19832,531444
5.20643,555460
5.21457,579784
5.22268,577877
5.23082,535462
5.23893,500281
5.24705,456054
5.25518,421200
5.26330,401788
5.27142,364190
5.27955,348363
5.28767,343964
5.29580,341292
5.30392,347534
5.31203,338051
5.32017,329824
5.32828,330209
5.33642,349966
5.34453,354402
5.35265,353872
5.36078,342230
5.36890,341415
5.37702,321105
5.38515,338102
5.39327,328501
5.40140,350162
5.40952,354145
5.41763,349321
5.42577,334505
5.43388,315396
5.44202,314169
5.45013,321747
5.45825,339898
5.46638,354912
5.47450,342268
5.48263,324519
5.49075,300824
5.49887,280913
5.50700,280153
5.51512,279076
5.52323,291844
5.53137,284704
5.53948,278294
5.54762,283073
5.55573,320187
5.56385,401496
5.57198,542578
5.58010,655447
5.58823,656945
5.59635,543684
5.60447,422503
5.61260,342011
5.62072,322861
5.62885,300216
5.63697,295433
5.64508,299210
5.65322,291901
5.66133,279816
5.66945,272253
5.67758,281819
5.68570,302202
5.69383,327110
5.70195,331944
5.71007,325903
5.71820,307003
5.72632,287296
5.73445,275686
5.74257,267809
5.75068,249133
5.75882,254512
5.76693,249959
5.77507,255235
5.78318,247652
5.79130,244267
5.79943,242255
5.80755,251073
5.81567,234196
5.82380,250580
5.83192,243160
5.84005,238177
5.84817,240635
5.85628,241513
5.86442,244217
5.87253,234665
5.88067,237323
5.88878,224697
5.89690,226278
5.90503,224511
5.91315,207862
5.92127,194493
5.92940,199812
5.93752,191405
5.94565,199028
5.95377,204927
5.96188,233702
5.97002,261638
5.97813,309411
5.98627,380924
5.99438,417289
6.00250,391022
6.01063,334359
6.01875,286275
6.02688,239865
6.03500,204255
6.04312,195558
6.05125,190450
6.05937,180496
6.06748,181121
6.07562,168458
6.08373,167960
6.09187,164280
6.09998,168033
6.10810,167013
6.11623,169126
6.12435,192516
6.13248,255829
6.14060,411540
6.14872,580053
6.15685,644097
6.16497,548402
6.17308,414235
6.18122,323436
6.18933,271755
6.19747,251202
6.20558,228186
6.21370,223501
6.22183,208189
6.22995,210243
6.23808,211172
6.24620,205978
6.25432,215903
6.26245,230369
6.27057,232366
6.27870,231461
6.28682,213450
6.29493,204534
6.30307,194328
6.31118,194798
6.31930,201396
6.32743,206026
6.33555,231414
6.34368,249683
6.35180,257113
6.35992,244473
6.36805,216837
6.37617,212335
6.38430,202908
6.39242,200029
6.40053,196560
6.40867,198830
6.41678,191426
6.42492,187210
6.43303,186802
6.44115,191633
6.44928,190982
6.45740,183050
6.46552,186827
6.47365,188140
6.48177,182531
6.48990,189549
6.49802,189028
6.50613,187381
6.51427,191286
6.52238,196435
6.53052,196639
6.53863,195950
6.54675,196329
6.55488,196359
6.56300,214923
6.57112,263015
6.57925,357474
6.58737,426264
6.59550,419173
6.60362,357328
6.61173,291439
6.61987,238860
6.62798,228443
6.63612,210448
6.64423,210932
6.65235,235419
6.66048,300877
6.66860,434748
6.67673,547152
6.68485,551683
6.69297,444166
6.70110,331183
6.70922,267846
6.71733,235370
6.72547,212230
6.73358,196612
6.74172,183519
6.74983,178973
6.75795,171339
6.76608,173811
6.77420,171806
6.78233,177778
6.79045,182331
6.79857,175208
6.80670,163211
6.81482,155282
6.82295,148492
6.83107,149546
6.83918,146784
6.84732,167571
6.85543,207162
6.86355,267062
6.87168,326840
6.87980,329878
6.88793,281072
6.89605,212853
6.90417,156628
6.91230,126508
6.92042,115906
6.92855,111140
6.93667,112388
6.94478,102472
6.95292,102838
6.96103,104248
6.96915,117902
6.97728,137996
6.98540,143701
6.99353,150723
7.00165,135131
7.00977,119223
7.01790,110639
7.02602,105198
7.03415,101345
7.04227,101385
7.05038,107069
7.05852,116615
7.06663,120873
7.07477,131478
7.08288,138228
7.09100,125144
7.09913,115767
7.10725,111516
7.11537,98287
7.12350,92682
7.13162,93947
7.13975,104109
7.14787,129358
7.15598,178477
7.16412,237534
7.17223,279556
7.18037,251788
7.18848,212430
7.19660,219167
7.20473,397361
7.21285,932605
7.22097,1783285
7.22910,2436237
7.23722,2426168
7.24535,1705212
7.25347,996937
7.26158,558534
7.26972,349804
7.27783,233611
7.28597,169753
7.29408,130780
7.30220,128551
7.31033,120549
7.31845,123992
7.32658,126487
7.33470,132973
7.34282,131242
7.35095,132509
7.35907,123958
7.36718,114611
7.37532,108522
7.38343,113769
7.39157,97863
7.39968,106586
7.40780,107400
7.41593,104439
7.42405,103650
7.43218,100572
7.44030,99831
7.44842,96962
7.45655,97492
7.46467,95653
7.47280,98195
7.48092,98376
7.48903,98129
7.49717,93066
7.50528,90787
7.51340,94745
7.52153,109523
7.52965,156164
7.53778,279686
7.54590,498041
7.55402,811915
7.56215,1172055
7.57027,1411592
7.57840,1403320
7.58652,1192131
7.59463,854547
7.60277,543042
7.61088,347083
7.61900,226882
7.62713,163770
7.63525,134200
7.64338,115196
7.65150,105502
7.65962,102229
7.66775,94339
7.67587,94014
7.68400,88265
7.69212,90872
7.70023,101043
7.70837,93428
7.71648,90898
7.72462,95391
7.73273,94522
7.74085,95612
7.74898,99051
7.75710,92054
7.76522,99043
7.77335,98152
7.78147,97287
7.78960,96144
7.79772,110989
7.80583,114812
7.81397,124613
7.82208,128271
7.83022,118722
7.83833,110106
7.84645,103625
7.85458,97950
7.86270,101344
7.87083,111898
7.87895,125449
7.88707,141995
7.89520,149307
7.90332,147186
7.91143,130948
7.91957,120848
7.92768,120122
7.93582,118976
7.94393,141759
7.95205,156348
7.96018,153769
7.96830,138315
7.97643,127008
7.98455,107327
7.99267,97974
8.00080,87484
8.00892,84753
8.01703,84214
8.02517,86482
8.03328,87062
8.04142,91310
8.04953,88479
8.05765,84012
8.06578,83173
8.07390,77052
8.08203,79566
8.09015,71048
8.09827,76584
8.10640,78396
8.11452,72607
8.12265,75121
8.13077,77404
8.13888,92088
8.14702,104110
8.15513,118151
8.16325,123303
8.17138,114801
8.17950,101522
8.18763,90576
8.19575,82491
8.20387,79591
8.21200,76134
8.22012,76459
8.22825,72312
8.23637,72856
8.24448,78169
8.25262,73489
8.26073,71637
8.26887,71131
8.27698,72766
8.28510,72605
8.29323,67367
8.30135,69513
8.30947,71429
8.31760,74722
8.32572,81257
8.33385,80007
8.34197,78223
8.35008,75411
8.35822,70617
8.36633,70090
8.37447,74408
8.38258,69501
8.39070,67079
8.39883,75818
8.40695,67398
8.41507,67540
8.42320,66454
8.43132,68073
8.43945,64967
8.44757,63364
8.45568,64366
8.46382,63932
8.47193,61745
8.48007,64968
8.48818,65378
8.49630,65223
8.50443,63395
8.51255,68906
8.52068,87905
8.52880,137119
8.53692,215598
8.54505,318391
8.55317,343850
8.56128,296363
8.56942,220791
8.57753,142788
8.58567,104255
8.59378,89478
8.60190,95965
8.61003,89700
8.61815,92830
8.62628,87807
8.63440,88854
8.64252,82045
8.65065,73963
8.65877,74452
8.66688,73519
8.67502,71131
8.68313,70877
8.69127,67453
8.69938,71732
8.70750,76212
8.71563,64542
8.72375,70216
8.73188,69398
8.74000,67079
8.74812,67112
8.75625,88326
8.76437,155434
8.77250,313059
8.78062,577564
8.78873,884713
8.79687,1014583
8.80498,922054
8.81310,673275
8.82123,428562
8.82935,281265
8.83748,203913
8.84560,180020
8.85372,170668
8.86185,171242
8.86997,157693
8.87810,164620
8.88622,149332
8.89433,145167
8.90247,135125
8.91058,134576
8.91872,131496
8.92683,147316
8.93495,161954
8.94308,184586
8.95120,186896
8.95932,185016
8.96745,167143
8.97557,156405
8.98370,158980
8.99182,167068
8.99993,160084
9.00807,153117
9.01618,137182
9.02432,123259
9.03243,118805
9.04055,110796
9.04868,107289
9.05680,106517
9.06492,106391
9.07305,99515
9.08117,104855
9.08930,105770
9.09742,126893
9.10553,133702
9.11367,159954
9.12178,184299
9.12992,184958
9.13803,174061
9.14615,151597
9.15428,128351
9.16240,124078
9.17053,109897
9.17865,102862
9.18677,107356
9.19490,101733
9.20302,95441
9.21113,98218
9.21927,94018
9.22738,94973
9.23552,94572
9.24363,99239
9.25175,97303
9.25988,98684
9.26800,96426
9.27613,86447
9.28425,90593
9.29237,83624
9.30050,87704
9.30862,88719
9.31675,82637
9.32487,86817
9.33298,91719
9.34112,87581
9.34923,84273
9.35735,78929
9.36548,85394
9.37360,82374
9.38173,75750
9.38985,84791
9.39797,83286
9.40610,90738
9.41422,96011
9.42235,112676
9.43047,137073
9.43858,162510
9.44672,178011
9.45483,179548
9.46295,158943
9.47108,130052
9.47920,115479
9.48733,96205
9.49545,89171
9.50357,89481
9.51170,93398
9.51982,98026
9.52795,111198
9.53607,115349
9.54418,107646
9.55232,106602
9.56043,91184
9.56857,83963
9.57668,82243
9.58480,86368
9.59293,95454
9.60105,106706
9.60917,96399
9.61730,93778
9.62542,70651
9.63355,65193
9.64167,57512
9.64978,51531
9.65792,52499
9.66603,57326
9.67417,55879
9.68228,52819
9.69040,52830
9.69853,48369
9.70665,50431
9.71477,46177
9.72290,51103
9.73102,52964
9.73915,49981
9.74727,50910
9.75538,49611
9.76352,48562
9.77163,47234
9.77977,47732
9.78788,44947
9.79600,48534
9.80413,46872
9.81225,47738
9.82038,45640
9.82850,45030
9.83662,46894
9.84475,45089
9.85287,46261
9.86098,45252
9.86912,49504
9.87723,51131
9.88537,53211
9.89348,48598
9.90160,48677
9.90973,48088
9.91785,52386
9.92598,67387
9.93410,89315
9.94222,157581
9.95035,254868
9.95847,347024
9.96660,370147
9.97472,352655
9.98283,266985
9.99097,199810
9.99908,152186
10.00720,117884
10.01533,100756
10.02345,93580
10.03158,87440
10.03970,78281
10.04782,77331
10.05595,74096
10.06407,74080
10.07220,75407
10.08032,78687
10.08843,73713
10.09657,72313
10.10468,70580
10.11282,68333
10.12093,66406
10.12905,60575
10.13718,65672
10.14530,57804
10.15342,62523
10.16155,60153
10.16967,57872
10.17780,58031
10.18592,58811
10.19403,54417
10.20217,58731
10.21028,53755
10.21842,59030
10.22653,59229
10.23465,61281
10.24278,67265
10.25090,72487
10.25902,104472
10.26715,229710
10.27527,547832
10.28340,1191740
10.29152,2140370
10.29963,3225791
10.30777,4452499
10.31588,6358044
10.32402,9127400
10.33213,1.234764E+07
10.34025,1.412414E+07
10.34838,1.277585E+07
10.35650,9207535
10.36463,5565384
10.37275,3308108
10.38087,2215195
10.38900,1664402
10.39712,1241037
10.40523,875215
10.41337,616982
10.42148,456222
10.42962,383578
10.43773,341233
10.44585,324102
10.45398,309314
10.46210,287252
10.47023,262679
10.47835,242388
10.48647,222957
10.49460,209762
10.50272,193504
10.51083,182868
10.51897,176643
10.52708,166142
10.53522,164118
10.54333,154581
10.55145,159250
10.55958,156176
10.56770,146238
10.57583,148267
10.58395,147651
10.59207,141223
10.60020,129741
10.60832,123849
10.61645,118969
10.62457,119588
10.63268,120928
10.64082,112868
10.64893,106869
10.65705,109270
10.66518,106306
10.67330,98267
10.68143,98193
10.68955,105497
10.69767,108659
10.70580,111813
10.71392,110169
10.72205,110566
10.73017,104574
10.73828,102884
10.74642,96971
10.75453,95490
10.76267,91500
10.77078,94153
10.77890,93953
10.78703,86404
10.79515,87538
10.80327,87011
10.81140,97692
10.81952,95374
10.82765,97704
10.83577,90906
10.84388,82682
10.85202,87354
10.86013,71179
10.86827,76576
10.87638,75851
10.88450,80545
10.89263,73386
10.90075,66369
10.90887,70140
10.91700,65610
10.92512,67212
10.93325,65921
10.94137,66711
10.94948,62589
10.95762,62147
10.96573,60159
10.97387,65507
10.98198,65514
10.99010,69946
10.99823,69710
11.00635,65459
11.01448,70437
11.02260,69499
11.03072,70181
11.03885,65257
11.04697,64988
11.05508,65535
11.06322,61412
11.07133,61157
11.07947,63196
11.08758,68068
11.09570,71858
11.10383,73685
11.11195,68986
11.12008,66157
11.12820,64920
11.13632,60383
11.14445,59322
11.15257,55370
11.16070,55323
11.16882,55786
11.17693,56056
11.18507,66875
11.19318,56442
11.20130,61213
11.20943,57835
11.21755,57025
11.22568,52051
11.23380,50234
11.24192,47346
11.25005,46813
11.25817,44163
11.26630,44796
11.27442,42888
11.28253,47272
11.29067,46683
11.29878,49850
11.30690,83478
11.31503,150983
11.32315,276830
11.33128,492619
11.33940,750118
11.34752,989443
11.35565,1053264
11.36377,929692
11.37190,707868
11.38002,483305
11.38813,329833
11.39627,242784
11.40438,194526
11.41252,173144
11.42063,147749
11.42875,126532
11.43688,114475
11.44500,94511
11.45312,79921
11.46125,77178
11.46937,80984
11.47750,88690
11.48562,102223
11.49373,138684
11.50187,155282
11.50998,169598
11.51812,166845
11.52623,144708
11.53435,123150
11.54248,105588
11.55060,93041
11.55872,89667
11.56685,87025
11.57497,82123
11.58310,83567
11.59122,91679
11.59933,105716
11.60747,137497
11.61558,172337
11.62372,190831
11.63183,194829
11.63995,164637
11.64808,123166
11.65620,105653
11.66433,78187
11.67245,70935
11.68057,68868
11.68870,63621
11.69682,67233
11.70493,65982
11.71307,69178
11.72118,61405
11.72932,60081
11.73743,60327
11.74555,56789
11.75368,55121
11.76180,53902
11.76993,51026
11.77805,54076
11.78617,51932
11.79430,56364
11.80242,59027
11.81055,53136
11.81867,51774
11.82678,55924
11.83492,51792
11.84303,54612
11.85115,49616
11.85928,47286
11.86740,52685
11.87553,47430
11.88365,44839
11.89177,47408
11.89990,47531
11.90802,46086
11.91615,48000
11.92427,56847
11.93238,62418
11.94052,59714
11.94863,62356
11.95675,52443
11.96488,48659
11.97300,47253
11.98113,50347
11.98925,60161
11.99737,73049
12.00550,95331
12.01362,111388
12.02175,117751
12.02987,110928
12.03798,96247
12.04612,72115
12.05423,74163
12.06237,57388
12.07048,54912
12.07860,60097
12.08673,57257
12.09485,57670
12.10297,64080
12.11110,73344
12.11922,91393
12.12735,123711
12.13547,155674
12.14358,171782
12.15172,167442
12.15983,148333
12.16797,117185
12.17608,89718
12.18420,74255
12.19233,68514
12.20045,63541
12.20858,63984
12.21670,64439
12.22482,63276
12.23295,62983
12.24107,61424
12.24918,61248
12.25732,60228
12.26543,59516
12.27357,57294
12.28168,55631
12.28980,52418
12.29793,53093
12.30605,49105
12.31418,50048
12.32230,49459
12.33042,50275
12.33855,45910
12.34667,44711
12.35478,47888
12.36292,52452
12.37103,47555
12.37917,43096
12.38728,49367
12.39540,50334
12.40353,60383
12.41165,68370
12.41978,86195
12.42790,94942
12.43602,94677
12.44415,94053
12.45227,82031
12.46040,75119
12.46852,68886
12.47663,64829
12.48477,63044
12.49288,60649
12.50100,56437
12.50913,55522
12.51725,55038
12.52538,52990
12.53350,60933
12.54162,64840
12.54975,81716
12.55787,84892
12.56600,89539
12.57412,88579
12.58223,83746
12.59037,77591
12.59848,67489
12.60660,64721
12.61473,58154
12.62285,56489
12.63098,57353
12.63910,56376
12.64722,54383
12.65535,50828
12.66347,48900
12.67160,50094
12.67972,52446
12.68783,48562
12.69597,45096
12.70408,43912
12.71222,45727
12.72033,47464
12.72845,54555
12.73658,61984
12.74470,63973
12.75282,62599
12.76095,59343
12.76907,54356
12.77720,51508
12.78532,45094
12.79343,43632
12.80157,42627
12.80968,42217
12.81782,41455
12.82593,40230
12.83405,36682
12.84218,35582
12.85030,39754
12.85843,38172
12.86655,37002
12.87467,34785
12.88280,36381
12.89092,34655
12.89903,41980
12.90717,38394
12.91528,37423
12.92342,38462
12.93153,36606
12.93965,37466
12.94778,36349
12.95590,45325
12.96403,57901
12.97215,69524
12.98027,85902
12.98840,101306
12.99652,100143
13.00463,89824
13.01277,70771
13.02088,59783
13.02902,50221
13.03713,48364
13.04525,46203
13.05338,40762
13.06150,37702
13.06963,42156
13.07775,43259
13.08587,43310
13.09400,43541
13.10212,44605
13.11025,40843
13.11837,42932
13.12648,37836
13.13462,41627
13.14273,40337
13.15085,41710
13.15898,42953
13.16710,41363
13.17523,43225
13.18335,44743
13.19147,42085
13.19960,43629
13.20772,46676
13.21585,52231
13.22397,47597
13.23208,47033
13.24022,46689
13.24833,38940
13.25647,44412
13.26458,48176
13.27270,43423
13.28083,43024
13.28895,41076
13.29707,40410
13.30520,41160
13.31332,35848
13.32145,34769
13.32957,33004
13.33768,36975
13.34582,38300
13.35393,37424
13.36207,37732
13.37018,36220
13.37830,38994
13.38643,35752
13.39455,35189
13.40267,34973
13.41080,36513
13.41892,37169
13.42705,35400
13.43517,38708
13.44328,33808
13.45142,34767
13.45953,37460
13.46767,36077
13.47578,38148
13.48390,36938
13.49203,36594
13.50015,36304
13.50828,38714
13.51640,37597
13.52452,40609
13.53265,36357
13.54077,39625
13.54888,43447
13.55702,37192
13.56513,39132
13.57327,39017
13.58138,39942
13.58950,43262
13.59763,43368
13.60575,47275
13.61388,49071
13.62200,54779
13.63012,56371
13.63825,48715
13.64637,46256
13.65450,40047
13.66262,37760
13.67073,35478
13.67887,37558
13.68698,39099
13.69510,32471
13.70323,35875
13.71135,44304
13.71948,37801
13.72760,40187
13.73572,49645
13.74385,59269
13.75197,88192
13.76010,141684
13.76822,236225
13.77633,346654
13.78447,416424
13.79258,440902
13.80070,416638
13.80883,372537
13.81695,329116
13.82508,328663
13.83320,363607
13.84132,383145
13.84945,376445
13.85757,329355
13.86570,267785
13.87382,207108
13.88193,165539
13.89007,127906
13.89818,113679
13.90632,98067
13.91443,91697
13.92255,84064
13.93068,83264
13.93880,79233
13.94692,75736
13.95505,80653
13.96317,78074
13.97130,87044
13.97942,87519
13.98753,89516
13.99567,88415
14.00378,89728
14.01192,86014
14.02003,78034
14.02815,82010
14.03628,80186
14.04440,79012
14.05252,73380
14.06065,72878
14.06877,75526
14.07690,75319
14.08502,71861
14.09313,71405
14.10127,73129
14.10938,69915
14.11752,67385
14.12563,65172
14.13375,69460
14.14188,70177
14.15000,73588
14.15813,73731
14.16625,76553
14.17437,77677
14.18250,91569
14.19062,111077
14.19873,140144
14.20687,186325
14.21498,203017
14.22312,227379
14.23123,219149
14.23935,191744
14.24748,188015
14.25560,185688
14.26373,189748
14.27185,161030
14.27997,147351
14.28810,134488
14.29622,113208
14.30435,110614
14.31247,98395
14.32058,96347
14.32872,91686
14.33683,88789
14.34495,90393
14.35308,82384
14.36120,75084
14.36933,71453
14.37745,63380
14.38557,58584
14.39370,58306
14.40182,54630
14.40995,57656
14.41807,65711
14.42618,72086
14.43432,66025
14.44243,71680
14.45055,62994
14.45868,56596
14.46680,57055
14.47493,52840
14.48305,60775
14.49117,54798
14.49930,57746
14.50742,57175
14.51555,56817
14.52367,55817
14.53178,52016
14.53992,49828
14.54803,53665
14.55617,48859
14.56428,52441
14.57240,46156
14.58053,45565
14.58865,42992
14.59677,44125
14.60490,39192
14.61302,41829
14.62115,41049
14.62927,41796
14.63738,39781
14.64552,39461
14.65363,35864
14.66177,38792
14.66988,37992
14.67800,40093
14.68613,37216
14.69425,36168
14.70238,34415
14.71050,38352
14.71862,37434
14.72675,40004
14.73487,41954
14.74298,41087
14.75112,41979
14.75923,42717
14.76737,41255
14.77548,44605
14.78360,57543
14.79173,99880
14.79985,268445
14.80798,723345
14.81610,1748052
14.82422,3240340
14.83235,4848416
14.84047,5687354
14.84858,5380019
14.85672,4245279
14.86483,2857685
14.87297,1678492
14.88108,1029378
14.88920,688235
14.89733,498837
14.90545,418164
14.91358,356744
14.92170,305003
14.92982,272338
14.93795,254199
14.94607,228442
14.95420,215887
14.96232,193698
14.97043,186208
14.97857,171720
14.98668,161277
14.99480,152126
15.00293,146159
15.01105,140500
15.01918,130455
15.02730,129612
15.03542,121453
15.04355,111707
15.05167,113306
15.05980,107201
15.06792,103593
15.07603,100864
15.08417,96265
15.09228,92573
15.10040,93221
15.10853,91636
15.11665,91771
15.12478,93216
15.13290,98575
15.14102,111141
15.14915,116045
15.15727,114617
15.16540,111606
15.17352,89823
15.18163,72634
15.18977,67257
15.19788,61331
15.20602,56518
15.21413,54555
15.22225,52924
15.23038,54602
15.23850,50354
15.24662,54561
15.25475,46361
15.26287,47089
15.27100,45225
15.27912,45653
15.28723,43522
15.29537,46398
15.30348,47696
15.31162,47151
15.31973,41698
15.32785,40150
15.33598,39715
15.34410,42673
15.35223,40548
15.36035,40497
15.36847,43753
15.37660,43718
15.38472,39338
15.39283,42094
15.40097,41711
15.40908,41476
15.41722,44486
15.42533,38073
15.43345,41853
15.44158,42089
15.44970,42581
15.45783,42821
15.46595,41214
15.47407,55511
15.48220,73625
15.49032,98003
15.49845,125369
15.50657,152266
15.51468,160274
15.52282,164557
15.53093,141712
15.53905,135175
15.54718,111959
15.55530,97909
15.56343,85519
15.57155,71142
15.57967,64542
15.58780,60783
15.59592,45583
15.60405,44478
15.61217,42049
15.62028,42087
15.62842,41105
15.63653,41982
15.64465,45623
15.65278,44175
15.66090,44982
15.66903,39119
15.67715,38959
15.68527,40548
15.69340,37422
15.70152,36241
15.70965,38333
15.71777,39984
15.72588,37305
15.73402,36656
15.74213,40374
15.75027,47034
15.75838,63277
15.76650,98566
15.77463,169535
15.78275,254623
15.79087,341605
15.79900,381370
15.80712,339932
15.81525,270082
15.82337,192292
15.83148,130122
15.83962,97739
15.84773,83984
15.85587,75131
15.86398,70901
15.87210,69860
15.88023,61130
15.88835,61587
15.89647,55260
15.90460,55606
15.91272,59291
15.92085,54518
15.92897,54503
15.93708,57425
15.94522,53316
15.95333,54537
15.96147,53794
15.96958,55211
15.97770,57908
15.98583,61380
15.99395,64260
16.00208,62810
16.01020,70025
16.01832,69498
16.02645,76955
16.03457,77018
16.04268,77992
16.05082,73900
16.05893,64706
16.06707,56106
16.07518,56216
16.08330,53550
16.09143,48895
16.09955,44675
16.10768,45786
16.11580,48829
16.12392,47958
16.13205,50150
16.14017,54992
16.14828,59459
16.15642,58313
16.16453,54193
16.17267,53309
16.18078,56434
16.18890,49053
16.19703,43049
16.20515,44445
16.21328,45203
16.22140,45484
16.22952,46934
16.23765,41537
16.24577,40709
16.25390,41445
16.26202,39837
16.27013,42007
16.27827,46697
16.28638,48245
16.29450,50843
16.30263,56014
16.31075,56840
16.31888,57811
16.32700,52624
16.33512,52942
16.34325,48584
16.35137,50951
16.35950,59674
16.36762,68008
16.37573,78186
16.38387,83186
16.39198,80743
16.40012,72972
16.40823,67238
16.41635,56181
16.42448,55797
16.43260,59408
16.44072,62362
16.44885,96775
16.45697,173575
16.46510,356927
16.47322,647017
16.48133,983989
16.48947,1217765
16.49758,1215821
16.50572,921085
16.51383,634097
16.52195,405258
16.53008,260162
16.53820,183740
16.54633,144432
16.55445,126111
16.56257,111448
16.57070,104415
16.57882,92887
16.58693,96703
16.59507,85778
16.60318,86439
16.61132,85812
16.61943,83727
16.62755,80390
16.63568,78510
16.64380,70402
16.65193,69662
16.66005,61895
16.66817,65141
16.67630,56965
16.68442,58568
16.69253,58701
16.70067,58926
16.70878,57079
16.71692,55690
16.72503,54025
16.73315,50903
16.74128,49398
16.74940,56571
16.75753,60917
16.76565,60460
16.77377,65967
16.78190,66395
16.79002,59695
16.79815,55970
16.80627,50112
16.81438,48002
16.82252,42733
16.83063,44696
16.83875,43066
16.84688,42292
16.85500,40223
16.86313,41244
16.87125,43640
16.87937,41771
16.88750,38544
16.89562,40116
16.90375,41064
16.91187,41683
16.91998,40536
16.92812,41960
16.93623,42118
16.94435,44122
16.95248,41844
16.96060,39815
16.96873,39543
16.97685,40151
16.98497,41892
16.99310,40847
17.00122,42212
17.00935,42997
17.01747,44763
17.02558,43963
17.03372,45824
17.04183,43561
17.04997,47396
17.05808,47446
17.06620,50809
17.07433,49834
17.08245,45655
17.09057,45603
17.09870,41732
17.10682,42263
17.11495,41960
17.12307,41390
17.13118,42977
17.13932,49617
17.14743,46716
17.15557,47319
17.16368,44780
17.17180,42976
17.17993,44488
17.18805,44678
17.19618,42767
17.20430,37362
17.21242,40113
17.22055,35661
17.22867,39047
17.23678,39073
17.24492,35774
17.25303,40319
17.26117,42702
17.26928,39976
17.27740,36841
17.28553,37998
17.29365,37505
17.30178,42970
17.30990,37904
17.31802,38076
17.32615,46505
17.33427,55531
17.34238,58320
17.35052,68034
17.35863,71665
17.36677,71691
17.37488,70953
17.38300,62953
17.39113,63262
17.39925,62168
17.40738,54832
17.41550,56076
17.42362,60511
17.43175,54150
17.43987,56097
17.44800,55891
17.45612,54634
17.46423,51349
17.47237,49245
17.48048,45154
17.48860,46305
17.49673,39577
17.50485,45851
17.51298,43814
17.52110,43805
17.52922,47915
17.53735,43242
17.54547,44168
17.55360,48917
17.56172,58771
17.56983,80544
17.57797,132296
17.58608,209411
17.59422,339677
17.60233,497788
17.61045,634925
17.61858,665514
17.62670,587156
17.63482,450536
17.64295,320721
17.65107,222623
17.65920,163506
17.66732,133710
17.67543,114810
17.68357,103798
17.69168,100362
17.69982,88192
17.70793,87146
17.71605,84359
17.72418,78189
17.73230,71548
17.74042,73965
17.74855,67151
17.75667,61620
17.76480,66664
17.77292,61259
17.78103,57702
17.78917,61302
17.79728,74970
17.80542,106047
17.81353,167495
17.82165,252509
17.82978,327409
17.83790,356572
17.84603,334226
17.85415,301875
17.86227,241912
17.87040,195833
17.87852,163492
17.88663,135971
17.89477,117466
17.90288,100414
17.91102,84052
17.91913,78117
17.92725,69251
17.93538,69068
17.94350,66725
17.95163,67896
17.95975,61425
17.96787,66674
17.97600,61455
17.98412,59724
17.99223,58016
18.00037,58648
18.00848,61237
18.01662,69831
18.02473,78021
18.03285,90998
18.04098,106293
18.04910,127931
18.05723,161419
18.06535,281898
18.07347,535382
18.08160,984001
18.08972,1555163
18.09785,1996732
18.10597,2099405
18.11408,1867636
18.12222,1456858
18.13033,1034834
18.13845,753102
18.14658,571005
18.15470,465077
18.16283,403363
18.17095,348070
18.17907,305651
18.18720,263027
18.19532,251480
18.20345,226794
18.21157,209192
18.21968,205253
18.22782,176861
18.23593,168714
18.24407,153436
18.25218,151372
18.26030,136793
18.26843,129085
18.27655,122429
18.28467,103594
18.29280,88052
18.30092,75532
18.30905,63123
18.31717,58950
18.32528,55294
18.33342,58079
18.34153,56858
18.34967,53241
18.35778,50615
18.36590,51927
18.37403,49446
18.38215,57466
18.39027,52861
18.39840,45988
18.40652,52833
18.41465,51032
18.42277,60180
18.43088,63232
18.43902,69347
18.44713,75865
18.45527,96313
18.46338,126440
18.47150,160083
18.47963,196857
18.48775,214944
18.49588,225221
18.50400,198210
18.51212,157462
18.52025,125083
18.52837,99614
18.53648,84100
18.54462,68625
18.55273,70637
18.56087,62072
18.56898,55368
18.57710,60333
18.58523,60727
18.59335,55577
18.60148,61474
18.60960,62613
18.61772,62749
18.62585,64328
18.63397,63602
18.64210,62686
18.65022,59539
18.65833,58355
18.66647,56517
18.67458,50579
18.68270,49595
18.69083,47790
18.69895,47573
18.70708,46183
18.71520,44006
18.72332,46718
18.73145,44484
18.73957,43258
18.74770,42543
18.75582,42298
18.76393,42337
18.77207,47450
18.78018,42521
18.78830,40895
18.79643,43561
18.80455,42293
18.81268,48255
18.82080,53185
18.82892,65767
18.83705,86325
18.84517,101414
18.85330,104267
18.86142,121450
18.86953,123414
18.87767,121638
18.88578,133624
18.89392,131957
18.90203,137632
18.91015,142002
18.91828,143336
18.92640,143375
18.93452,145185
18.94265,150661
18.95077,154498
18.95890,153069
18.96702,153787
18.97513,161083
18.98327,151645
18.99138,148524
18.99952,148023
19.00763,140392
19.01575,139516
19.02388,135444
19.03200,142290
19.04013,131819
19.04825,143262
19.05637,138463
19.06450,148227
19.07262,173787
19.08073,219677
19.08887,312871
19.09698,459223
19.10512,575554
19.11323,632436
19.12135,615866
19.12948,537583
19.13760,406658
19.14573,309056
19.15385,246645
19.16197,197959
19.17010,168994
19.17822,162471
19.18633,155895
19.19447,151009
19.20258,145360
19.21072,148833
19.21883,136267
19.22695,133875
19.23508,135895
19.24320,130747
19.25133,129769
19.25945,126838
19.26757,126116
19.27570,130949
19.28382,137678
19.29195,139173
19.30007,147691
19.30818,151287
19.31632,151823
19.32443,143433
19.33255,131170
19.34068,136644
19.34880,130199
19.35693,146935
19.36505,166642
19.37317,181416
19.38130,194815
19.38942,201819
19.39755,180921
19.40567,169254
19.41378,151882
19.42192,142977
19.43003,132279
19.43815,129349
19.44628,141946
19.45440,139413
19.46253,139900
19.47065,145002
19.47877,154510
19.48690,161212
19.49502,184476
19.50315,200794
19.51127,230387
19.51938,250298
19.52752,258055
19.53563,239479
19.54377,215030
19.55188,184502
19.56000,155961
19.56813,134669
19.57625,123927
19.58437,124468
19.59250,118157
19.60062,109680
19.60875,111821
19.61687,107298
19.62498,104263
19.63312,114114
19.64123,124209
19.64937,148630
19.65748,199084
19.66560,257299
19.67373,305211
19.68185,334833
19.68998,339093
19.69810,328455
19.70622,305021
19.71435,272134
19.72247,234938
19.73058,205945
19.73872,180441
19.74683,167751
19.75497,150077
19.76308,136005
19.77120,138421
19.77933,129795
19.78745,138273
19.79558,139056
19.80370,149599
19.81182,148757
19.81995,141821
19.82807,142237
19.83618,123411
19.84432,113475
19.85243,130153
19.86057,191251
19.86868,362330
19.87680,734678
19.88493,1427353
19.89305,2290813
19.90118,3123432
19.90930,3525160
19.91742,3426637
19.92555,2785575
19.93367,2077709
19.94180,1429588
19.94992,995278
19.95803,758493
19.96617,623641
19.97428,546303
19.98240,480741
19.99053,456751
19.99865,417239
20.00678,394433
20.01490,366916
20.02302,351030
20.03115,328966
20.03927,293656
20.04740,281671
20.05552,248460
20.06363,222964
20.07177,198472
20.07988,181213
20.08802,161931
20.09613,163779
20.10425,159337
20.11238,151085
20.12050,142704
20.12862,128992
20.13675,126706
20.14487,119460
20.15300,130906
20.16112,143428
20.16923,166661
20.17737,197940
20.18548,234947
20.19362,267567
20.20173,293380
20.20985,287530
20.21798,269054
20.22610,229322
20.23422,207522
20.24235,192519
20.25047,202734
20.25860,265274
20.26672,335890
20.27483,451335
20.28297,547922
20.29108,577345
20.29922,556743
20.30733,483729
20.31545,404422
20.32358,320216
20.33170,253640
20.33983,185808
20.34795,159361
20.35607,143033
20.36420,125718
20.37232,116135
20.38043,110959
20.38857,105164
20.39668,97319
20.40482,92981
20.41293,91061
20.42105,97105
20.42918,96800
20.43730,106613
20.44543,116337
20.45355,116701
20.46167,123202
20.46980,118668
20.47792,103107
20.48603,98257
20.49417,93782
20.50228,89085
20.51042,85402
20.51853,84101
20.52665,80802
20.53478,78761
20.54290,81462
20.55103,77270
20.55915,73341
20.56727,76703
20.57540,77786
20.58352,67610
20.59165,68351
20.59977,71059
20.60788,68254
20.61602,71010
20.62413,64237
20.63225,65199
20.64038,74161
20.64850,71469
20.65663,70849
20.66475,66785
20.67287,64276
20.68100,64046
20.68912,67911
20.69725,62509
20.70537,60087
20.71348,55403
20.72162,61732
20.72973,59765
20.73787,62278
20.74598,64278
20.75410,62928
20.76223,60901
20.77035,64765
20.77847,72684
20.78660,93910
20.79472,122244
20.80285,177331
20.81097,246759
20.81908,319922
20.82722,342627
20.83533,337465
20.84347,277598
20.85158,206831
20.85970,142128
20.86783,106100
20.87595,89070
20.88407,76133
20.89220,73910
20.90032,73899
20.90845,71113
20.91657,67563
20.92468,71917
20.93282,72941
20.94093,72958
20.94907,76525
20.95718,74417
20.96530,69468
20.97343,69976
20.98155,65109
20.98968,62118
20.99780,65127
21.00592,64680
21.01405,66833
21.02217,65981
21.03028,71466
21.03842,66018
21.04653,67273
21.05467,70744
21.06278,69656
21.07090,73414
21.07903,70943
21.08715,73382
21.09528,72339
21.10340,70692
21.11152,65812
21.11965,62626
21.12777,69349
21.13590,71161
21.14402,79546
21.15213,98518
21.16027,119533
21.16838,126405
21.17650,125573
21.18463,120169
21.19275,106529
21.20088,92345
21.20900,78337
21.21712,76754
21.22525,75106
21.23337,68793
21.24150,71550
21.24962,64167
21.25773,63657
21.26587,64786
21.27398,60354
21.28210,59284
21.29023,60694
21.29835,56948
21.30648,57448
21.31460,56227
21.32272,55788
21.33085,60994
21.33897,55694
21.34710,53826
21.35522,52772
21.36333,53833
21.37147,52596
21.37958,56196
21.38772,62135
21.39583,69019
21.40395,85887
21.41208,99767
21.42020,100618
21.42832,103393
21.43645,94144
21.44457,80190
21.45270,73653
21.46082,61864
21.46893,62739
21.47707,57627
21.48518,58960
21.49332,56326
21.50143,57898
21.50955,55081
21.51768,52556
21.52580,54288
21.53392,50805
21.54205,49902
21.55017,51506
21.55830,52180
21.56642,47005
21.57453,57040
21.58267,62549
21.59078,63865
21.59892,74178
21.60703,73190
21.61515,74972
21.62328,80112
21.63140,84920
21.63953,90866
21.64765,100028
21.65577,103759
21.66390,97448
21.67202,95298
21.68013,97857
21.68827,98506
21.69638,92196
21.70452,81329
21.71263,73284
21.72075,71451
21.72888,62735
21.73700,62961
21.74513,60613
21.75325,56527
21.76137,53930
21.76950,55348
21.77762,55245
21.78575,54271
21.79387,57123
21.80198,57520
21.81012,67252
21.81823,64553
21.82635,71022
21.83448,84258
21.84260,86025
21.85073,86318
21.85885,85514
21.86697,75573
21.87510,77727
21.88322,75168
21.89135,65798
21.89947,59237
21.90758,65802
21.91572,58370
21.92383,56610
21.93197,53966
21.94008,52835
21.94820,46250
21.95633,47097
21.96445,49835
21.97257,47068
21.98070,49009
21.98882,41985
21.99695,44017
22.00507,44549
22.01318,44016
22.02132,50349
22.02943,48867
22.03757,51539
22.04568,52889
22.05380,49179
22.06193,51049
22.07005,52200
22.07817,58722
22.08630,59732
22.09442,64552
22.10255,68647
22.11067,74415
22.11878,77252
22.12692,84729
22.13503,79663
22.14317,78376
22.15128,80333
22.15940,83667
22.16753,84612
22.17565,88026
22.18378,83412
22.19190,86285
22.20002,83715
22.20815,89215
22.21627,87846
22.22438,88847
22.23252,89488
22.24063,98685
22.24877,93151
22.25688,95380
22.26500,92433
22.27313,89057
22.28125,96167
22.28938,94889
22.29750,93552
22.30562,93479
22.31375,86506
22.32187,83796
22.32998,79598
22.33812,73087
22.34623,68106
22.35437,63670
22.36248,61503
22.37060,60495
22.37873,63719
22.38685,71442
22.39498,82521
22.40310,95235
22.41122,126552
22.41935,154127
22.42747,159046
22.43560,153669
22.44372,141906
22.45183,117259
22.45997,94319
22.46808,84286
22.47620,70217
22.48433,79162
22.49245,79301
22.50058,84092
22.50870,92780
22.51682,92812
22.52495,85338
22.53307,88366
22.54120,79592
22.54932,70423
22.55743,68669
22.56557,64865
22.57368,55865
22.58182,58060
22.58993,57147
22.59805,52101
22.60618,51174
22.61430,63184
22.62242,77030
22.63055,92434
22.63867,100730
22.64680,114214
22.65492,119375
22.66303,117930
22.67117,132085
22.67928,137369
22.68742,134101
22.69553,148553
22.70365,150400
22.71178,158554
22.71990,166930
22.72802,166868
22.73615,172445
22.74427,163804
22.75240,158741
22.76052,153090
22.76863,158739
22.77677,156807
22.78488,165156
22.79302,171890
22.80113,185561
22.80925,193066
22.81738,210124
22.82550,201617
22.83363,201709
22.84175,183734
22.84987,189105
22.85800,169104
22.86612,166381
22.87423,168490
22.88237,173355
22.89048,179450
22.89862,188563
22.90673,187807
22.91485,211887
22.92298,227800
22.93110,235432
22.93923,243811
22.94735,227361
22.95547,213156
22.96360,198471
22.97172,184941
22.97985,175795
22.98797,163998
22.99608,153024
23.00422,142214
23.01233,139200
23.02045,137780
23.02858,133392
23.03670,126997
23.04483,126143
23.05295,128148
23.06107,129227
23.06920,132832
23.07732,126285
23.08545,115687
23.09357,121450
23.10168,121390
23.10982,120650
23.11793,114515
23.12605,110374
23.13418,115610
23.14230,112206
23.15043,108742
23.15855,113244
23.16667,110906
23.17480,105457
23.18292,102782
23.19105,107060
23.19917,104022
23.20728,107864
23.21542,100957
23.22353,98211
23.23167,102862
23.23978,102524
23.24790,98378
23.25603,106721
23.26415,110263
23.27227,110546
23.28040,114409
23.28852,117626
23.29665,109664
23.30477,106430
23.31288,97597
23.32102,100859
23.32913,104735
23.33727,111161
23.34538,134146
23.35350,166536
23.36163,215999
23.36975,294640
23.37787,398580
23.38600,501476
23.39412,614287
23.40225,710880
23.41037,779625
23.41848,839393
23.42662,876692
23.43473,908914
23.44287,856223
23.45098,832968
23.45910,789242
23.46723,738631
23.47535,677028
23.48348,650346
23.49160,599018
23.49972,546653
23.50785,508774
23.51597,464434
23.52408,438472
23.53222,405079
23.54033,386636
23.54847,356927
23.55658,352508
23.56470,344249
23.57283,342448
23.58095,336164
23.58908,364358
23.59720,394401
23.60532,419878
23.61345,421747
23.62157,394533
23.62970,358679
23.63782,305490
23.64593,271047
23.65407,244981
23.66218,232616
23.67030,227206
23.67843,224054
23.68655,212956
23.69468,197765
23.70280,190023
23.71092,171988
23.71905,168244
23.72717,158558
23.73530,147063
23.74342,152600
23.75153,172643
23.75967,226421
23.76778,394233
23.77590,714171
23.78403,1228110
23.79215,1702273
23.80028,2061115
23.80840,2152715
23.81652,1970361
23.82465,1676959
23.83277,1283619
23.84090,972496
23.84902,765813
23.85713,626479
23.86527,513186
23.87338,442014
23.88152,373901
23.88963,343844
23.89775,321705
23.90588,302281
23.91400,279134
23.92212,278058
23.93025,263035
23.93837,244498
23.94650,222517
23.95462,209121
23.96273,200359
23.97087,182001
23.97898,168987
23.98712,171551
23.99523,161134
24.00335,157522
24.01148,155414
24.01960,162608
24.02773,168975
24.03585,183259
24.04397,179046
24.05210,174985
24.06022,163219
24.06833,146369
24.07647,139792
24.08458,126111
24.09272,120383
24.10083,119723
24.10895,116704
24.11708,107455
24.12520,115241
24.13333,117060
24.14145,115998
24.14957,122724
24.15770,122028
24.16582,124732
24.17393,126314
24.18207,124939
24.19018,120496
24.19832,119763
24.20643,117197
24.21455,115708
24.22268,120825
24.23080,109667
24.23893,115531
24.24705,99361
24.25517,101987
24.26330,93178
24.27142,92621
24.27955,86177
24.28767,85404
24.29578,90825
24.30392,103778
24.31203,128637
24.32015,160097
24.32828,175496
24.33640,190973
24.34453,203943
24.35265,205659
24.36077,216756
24.36890,219240
24.37702,227302
24.38515,239120
24.39327,260966
24.40138,283115
24.40952,303257
24.41763,301797
24.42577,290831
24.43388,275561
24.44200,242570
24.45013,236707
24.45825,244370
24.46637,250878
24.47450,258685
24.48262,275444
24.49075,277930
24.49887,300132
24.50698,284068
24.51512,274455
24.52323,281792
24.53137,274958
24.53948,265071
24.54760,262976
24.55573,257790
24.56385,253451
24.57197,256423
24.58010,241782
24.58822,230429
24.59635,226100
24.60447,212831
24.61258,209790
24.62072,198660
24.62883,205008
24.63697,196487
24.64508,196236
24.65320,191914
24.66133,191614
24.66945,190692
24.67758,187949
24.68570,188578
24.69382,185398
24.70195,179768
24.71007,183169
24.71818,166595
24.72632,170372
24.73443,175563
24.74257,178313
24.75068,167004
24.75880,173537
24.76693,169924
24.77505,177624
24.78318,173998
24.79130,183975
24.79942,182413
24.80755,180510
24.81567,175927
24.82378,194017
24.83192,190529
24.84003,213612
24.84817,238063
24.85628,277648
24.86440,359001
24.87253,459686
24.88065,578962
24.88878,699042
24.89690,756051
24.90502,744843
24.91315,651748
24.92127,534340
24.92940,408695
24.93752,309064
24.94563,261668
24.95377,223267
24.96188,206640
24.97000,185181
24.97813,186103
24.98625,181012
24.99438,185119
25.00250,179757
25.01062,173588
25.01875,168642
25.02687,167113
25.03500,168424
25.04312,166821
25.05123,165396
25.05937,165484
25.06748,155339
25.07562,156518
25.08373,158748
25.09185,171786
25.09998,202723
25.10810,296272
25.11622,533734
25.12435,1000163
25.13247,1743059
25.14060,2564890
25.14872,3193632
25.15683,3302165
25.16497,2911868
25.17308,2195782
25.18122,1441981
25.18933,850871
25.19745,530339
25.20558,330143
25.21370,238854
25.22182,195238
25.22995,188405
25.23807,183566
25.24620,190898
25.25432,206420
25.26243,242245
25.27057,259359
25.27868,260292
25.28682,234801
25.29493,207568
25.30305,179804
25.31118,149979
25.31930,126786
25.32743,119202
25.33555,109068
25.34367,103509
25.35180,97013
25.35992,89675
25.36803,90923
25.37617,84086
25.38428,81817
25.39242,76530
25.40053,76049
25.40865,75647
25.41678,69696
25.42490,71036
25.43303,72749
25.44115,71484
25.44927,66318
25.45740,70923
25.46552,73009
25.47365,72889
25.48177,72918
25.48988,69970
25.49802,75043
25.50613,72638
25.51425,71808
25.52238,66669
25.53050,64816
25.53863,63236
25.54675,61900
25.55487,67176
25.56300,62897
25.57112,68534
25.57925,60930
25.58737,62953
25.59548,64932
25.60362,62135
25.61173,65539
25.61985,61250
25.62798,55848
25.63610,59347
25.64423,63269
25.65235,56028
25.66047,57446
25.66860,59184
25.67672,70861
25.68485,82203
25.69297,101176
25.70108,123649
25.70922,146715
25.71733,150837
25.72547,159526
25.73358,166142
25.74170,165084
25.74983,164391
25.75795,175944
25.76607,179558
25.77420,178772
25.78232,178821
25.79045,188147
25.79857,187273
25.80668,183706
25.81482,184191
25.82293,187303
25.83107,190250
25.83918,193696
25.84730,187736
25.85543,199538
25.86355,192693
25.87167,193858
25.87980,190326
25.88792,183596
25.89605,186630
25.90417,175349
25.91228,172021
25.92042,177736
25.92853,172292
25.93667,176888
25.94478,169037
25.95290,168867
25.96103,169206
25.96915,165629
25.97728,166986
25.98540,159281
25.99352,158860
26.00165,159150
26.00977,155909
26.01788,157306
26.02602,152798
26.03413,153574
26.04227,149667
26.05038,144672
26.05850,153371
26.06663,150594
26.07475,146694
26.08288,146226
26.09100,146872
26.09912,144768
26.10725,140390
26.11537,144187
26.12350,147378
26.13162,148232
26.13973,145942
26.14787,145148
26.15598,147023
26.16410,150836
26.17223,146322
26.18035,142860
26.18848,134032
26.19660,136314
26.20472,135420
26.21285,129604
26.22097,124093
26.22910,123836
26.23722,122082
26.24533,122921
26.25347,121889
26.26158,116322
26.26970,119258
26.27783,116248
26.28595,118728
26.29408,116119
26.30220,114158
26.31032,114293
26.31845,114035
26.32657,106179
26.33470,105705
26.34282,107488
26.35093,108037
26.35907,107421
26.36718,111874
26.37532,117754
26.38343,124251
26.39155,133830
26.39968,144416
26.40780,146594
26.41592,145773
26.42405,137753
26.43217,121487
26.44030,113227
26.44842,112881
26.45653,101308
26.46467,99212
26.47278,95850
26.48092,94474
26.48903,98337
26.49715,94003
26.50528,90297
26.51340,95345
26.52153,87541
26.52965,90371
26.53777,86510
26.54590,83599
26.55402,80649
26.56213,75044
26.57027,84105
26.57838,76674
26.58652,81793
26.59463,76034
26.60275,79183
26.61088,76974
26.61900,81491
26.62713,77865
26.63525,71194
26.64337,76518
26.65150,80340
26.65962,74625
26.66773,75054
26.67587,81728
26.68398,77066
26.69212,80214
26.70023,71891
26.70835,74504
26.71648,70787
26.72460,67082
26.73273,69729
26.74085,67412
26.74897,62936
26.75710,65369
26.76522,66627
26.77335,69979
26.78147,65425
26.78958,67278
26.79772,65843
26.80583,68530
26.81395,73530
26.82208,70299
26.83020,69139
26.83833,65200
26.84645,66551
26.85457,60852
26.86270,62675
26.87082,60667
26.87895,64330
26.88707,62322
26.89518,63572
26.90332,66886
26.91143,62039
26.91955,57432
26.92768,58554
26.93580,59354
26.94393,60887
26.95205,66056
26.96017,64031
26.96830,66451
26.97642,71105
26.98455,87081
26.99267,113163
27.00078,153611
27.00892,214461
27.01703,281783
27.02517,342653
27.03328,392761
27.04140,396116
27.04953,361932
27.05765,333620
27.06577,282079
27.07390,245521
27.08202,193446
27.09015,171744
27.09827,161850
27.10638,151067
27.11452,141250
27.12263,132739
27.13077,124559
27.13888,119352
27.14700,118274
27.15513,106849
27.16325,113020
27.17138,107040
27.17950,109617
27.18762,106931
27.19575,109794
27.20387,111390
27.21198,108943
27.22012,100612
27.22823,95665
27.23637,94922
27.24448,91637
27.25260,85568
27.26073,82388
27.26885,87803
27.27698,78540
27.28510,75183
27.29322,78739
27.30135,66023
27.30947,76254
27.31760,71823
27.32572,73460
27.33383,76404
27.34197,68122
27.35008,67862
27.35820,72253
27.36633,65908
27.37445,70212
27.38258,70644
27.39070,69449
27.39882,65961
27.40695,66811
27.41507,63003
27.42320,65491
27.43132,59935
27.43943,59786
27.44757,59550
27.45568,62197
27.46380,58673
27.47193,59172
27.48005,58993
27.48818,56174
27.49630,59766
27.50442,61591
27.51255,56045
27.52067,58066
27.52880,57991
27.53692,61764
27.54503,60678
27.55317,63120
27.56128,58134
27.56942,60044
27.57753,66830
27.58565,72862
27.59378,85703
27.60190,82019
27.61002,86955
27.61815,80186
27.62627,77907
27.63440,74992
27.64252,67380
27.65063,62119
27.65877,60454
27.66688,61251
27.67502,59959
27.68313,58535
27.69125,57464
27.69938,58566
27.70750,55082
27.71562,55789
27.72375,55582
27.73187,53564
27.74000,50832
27.74812,49888
27.75623,50800
27.76437,54591
27.77248,55480
27.78062,56966
27.78873,57766
27.79685,55792
27.80498,59192
27.81310,57068
27.82123,56886
27.82935,52708
27.83747,52582
27.84560,55772
27.85372,55372
27.86183,53845
27.86997,53374
27.87808,54176
27.88622,48746
27.89433,49014
27.90245,54339
27.91058,50256
27.91870,53464
27.92683,49448
27.93495,48876
27.94307,49878
27.95120,49002
27.95932,46389
27.96745,48477
27.97557,49745
27.98368,50061
27.99182,46480
27.99993,49341
28.00805,49018
28.01618,49879
28.02430,54871
28.03243,56020
28.04055,58665
28.04867,66453
28.05680,59585
28.06492,63645
28.07305,65695
28.08117,62458
28.08928,58603
28.09742,64656
28.10553,57628
28.11365,56976
28.12178,53013
28.12990,53583
28.13803,49653
28.14615,47988
28.15427,50440
28.16240,43319
28.17052,48541
28.17865,49291
28.18677,50540
28.19488,57062
28.20302,68855
28.21113,76887
28.21927,79271
28.22738,88777
28.23550,93806
28.24363,81325
28.25175,73680
28.25987,68671
28.26800,58785
28.27612,56919
28.28425,53710
28.29237,53795
28.30048,52780
28.30862,60525
28.31673,63585
28.32487,71789
28.33298,73706
28.34110,79750
28.34923,85176
28.35735,95137
28.36548,99788
28.37360,110290
28.38172,112237
28.38985,122639
28.39797,123938
28.40608,127803
28.41422,119916
28.42233,113864
28.43047,111888
28.43858,113329
28.44670,98870
28.45483,97340
28.46295,94002
28.47108,89209
28.47920,82423
28.48732,80267
28.49545,79942
28.50357,77067
28.51168,81912
28.51982,76232
28.52793,77095
28.53607,71938
28.54418,72473
28.55230,60222
28.56043,64081
28.56855,60686
28.57668,62125
28.58480,65539
28.59292,61254
28.60105,62332
28.60917,62609
28.61730,60826
28.62542,61232
28.63353,66269
28.64167,66941
28.64978,64451
28.65790,67882
28.66603,72113
28.67415,71696
28.68228,71828
28.69040,66625
28.69852,60285
28.70665,59811
28.71477,58041
28.72290,54661
28.73102,52883
28.73913,54298
28.74727,52845
28.75538,62550
28.76350,66228
28.77163,79248
28.77975,80137
28.78788,79570
28.79600,81239
28.80412,80198
28.81225,69754
28.82037,68228
28.82850,66547
28.83662,62487
28.84473,61701
28.85287,52349
28.86098,52256
28.86912,55327
28.87723,61114
28.88535,61565
28.89348,67302
28.90160,69149
28.90972,69041
28.91785,66480
28.92597,60367
28.93410,57885
28.94222,59058
28.95033,60422
28.95847,57843
28.96658,64548
28.97472,59007
28.98283,59981
28.99095,53884
28.99908,53702
29.00720,53821
29.01533,53871
29.02345,46976
29.03157,53508
29.03970,46390
29.04782,51356
29.05593,51383
29.06407,50582
29.07218,47223
29.08032,51614
29.08843,54149
29.09655,52965
29.10468,56986
29.11280,55929
29.12093,50257
29.12905,53559
29.13717,55555
29.14530,48183
29.15342,51150
29.16153,50435
29.16967,53040
29.17778,52013
29.18592,52718
29.19403,64941
29.20215,72144
29.21028,82986
29.21840,92003
29.22653,93986
29.23465,90735
29.24277,88672
29.25090,82128
29.25902,84593
29.26715,84136
29.27527,88936
29.28338,84803
29.29152,87077
29.29963,75516
29.30775,65251
29.31588,57066
29.32400,55451
29.33213,47576
29.34025,48369
29.34837,46570
29.35650,51689
29.36462,46413
29.37275,44675
29.38087,47291
29.38898,48561
29.39712,48341
29.40523,47429
29.41337,51388
29.42148,49785
29.42960,46362
29.43773,47355
29.44585,46412
29.45397,46661
29.46210,47713
29.47022,48447
29.47835,49917
29.48647,49502
29.49458,50993
29.50272,52655
29.51083,57581
29.51897,53208
29.52708,53172
29.53520,55517
29.54333,48348
29.55145,50303
29.55957,50546
29.56770,51154
29.57582,44549
29.58395,43746
29.59207,44482
29.60018,44852
29.60832,45064
29.61643,44834
29.62457,44918
29.63268,46244
29.64080,52143
29.64893,46136
29.65705,44066
29.66518,45042
29.67330,46482
29.68142,42322
29.68955,51947
29.69767,55592
29.70578,53262
29.71392,57111
29.72203,50973
29.73017,46758
29.73828,44142
29.74640,42397
29.75453,45509
29.76265,41435
29.77078,39781
29.77890,39209
29.78702,42392
29.79515,42916
29.80327,36800
29.81140,42679
29.81952,42540
29.82763,41669
29.83577,41543
29.84388,40036
29.85200,42056
29.86013,41967
29.86825,41698
29.87638,48087
29.88450,55054
29.89262,63825
29.90075,74875
29.90887,76854
29.91700,75227
29.92512,77628
29.93323,58664
29.94137,54367
29.94948,55631
29.95760,54023
29.96573,51207
29.97385,54931
29.98198,55392
29.99010,60279
29.99822,63716
30.00635,64806
30.01447,71991
30.02260,70786
30.03072,80276
30.03883,74420
30.04697,79717
30.05508,80444
30.06322,75362
30.07133,81481
30.07945,84642
30.08758,80965
30.09570,78856
30.10382,76963
30.11195,72937
30.12007,75543
30.12820,73213
30.13632,67017
30.14443,67515
30.15257,66288
30.16068,66082
30.16882,64246
30.17693,62425
30.18505,61469
30.19318,62658
30.20130,60868
30.20942,63430
30.21755,58056
30.22567,55445
30.23380,58717
30.24192,55176
30.25003,51519
30.25817,55778
30.26628,48900
30.27442,52209
30.28253,51096
30.29065,51926
30.29878,49974
30.30690,46934
30.31503,48166
30.32315,46076
30.33127,48306
30.33940,51836
30.34752,51352
30.35563,48134
30.36377,48115
30.37188,48640
30.38002,53391
30.38813,47923
30.39625,45325
30.40438,47289
30.41250,42682
30.42063,44224
30.42875,46209
30.43687,44789
30.44500,43696
30.45312,47167
30.46125,46317
30.46937,48903
30.47748,45160
30.48562,45743
30.49373,42154
30.50185,45300
30.50998,44961
30.51810,46623
30.52623,46987
30.53435,42799
30.54247,43438
30.55060,39939
30.55872,44107
30.56685,42535
30.57497,49976
30.58308,44779
30.59122,47003
30.59933,47654
30.60745,41242
30.61558,43760
30.62370,42747
30.63183,42811
30.63995,43991
30.64807,43809
30.65620,42469
30.66432,45062
30.67245,41908
30.68057,43251
30.68868,42952
30.69682,42400
30.70493,42140
30.71307,42928
30.72118,43153
30.72930,41262
30.73743,43264
30.74555,43599
30.75367,40771
30.76180,44273
30.76992,46703
30.77805,49122
30.78617,53352
30.79428,66225
30.80242,74333
30.81053,87017
30.81867,86867
30.82678,91667
30.83490,80287
30.84303,66144
30.85115,57883
30.85928,55919
30.86740,48972
30.87552,48308
30.88365,44683
30.89177,44870
30.89988,46080
30.90802,42041
30.91613,47368
30.92427,43036
30.93238,40905
30.94050,42018
30.94863,43039
30.95675,40242
30.96488,43209
30.97300,45618
30.98112,39925
30.98925,41203
30.99737,42949
31.00548,43965
31.01362,46138
31.02173,46269
31.02987,50635
31.03798,58240
31.04610,56726
31.05423,57237
31.06235,60396
31.07048,63286
31.07860,67950
31.08672,66139
31.09485,74276
31.10297,85620
31.11110,87395
31.11922,87297
31.12733,88976
31.13547,83984
31.14358,75653
31.15170,71821
31.15983,75428
31.16795,74481
31.17608,76629
31.18420,77482
31.19232,83090
31.20045,92462
31.20857,103699
31.21670,119681
31.22482,124553
31.23293,139811
31.24107,130454
31.24918,106552
31.25730,92659
31.26543,85379
31.27355,80611
31.28168,73333
31.28980,65318
31.29792,65205
31.30605,65710
31.31417,65746
31.32230,65625
31.33042,65925
31.33853,65964
31.34667,71525
31.35478,67586
31.36292,65988
31.37103,64945
31.37915,68288
31.38728,68687
31.39540,65321
31.40352,64426
31.41165,64211
31.41977,66186
31.42790,64214
31.43602,62388
31.44413,61810
31.45227,62010
31.46038,62237
31.46852,57227
31.47663,57994
31.48475,59351
31.49288,60194
31.50100,59291
31.50913,65373
31.51725,63226
31.52537,64166
31.53350,62561
31.54162,57082
31.54973,57322
31.55787,62621
31.56598,59251
31.57412,59781
31.58223,59143
31.59035,56219
31.59848,55905
31.60660,55387
31.61473,56571
31.62285,61337
31.63097,55969
31.63910,53677
31.64722,54940
31.65533,54593
31.66347,60844
31.67158,57577
31.67972,61685
31.68783,60066
31.69595,57345
31.70408,56386
31.71220,54396
31.72033,56956
31.72845,54765
31.73657,50335
31.74470,53585
31.75282,52273
31.76095,50433
31.76907,55452
31.77718,50886
31.78532,55784
31.79343,53309
31.80155,51190
31.80968,52032
31.81780,56301
31.82593,53079
31.83405,49910
31.84217,55052
31.85030,53980
31.85842,55728
31.86655,61057
31.87467,55841
31.88278,55124
31.89092,62208
31.89903,56823
31.90717,58153
31.91528,58535
31.92340,68287
31.93153,68145
31.93965,68584
31.94777,72960
31.95590,77052
31.96402,79434
31.97215,81207
31.98027,82682
31.98838,89169
31.99652,91305
32.00463,87569
32.01277,91983
32.02088,83658
32.02900,84817
32.03713,85807
32.04525,86711
32.05337,77366
32.06150,78779
32.06962,71616
32.07775,75370
32.08587,71227
32.09398,72010
32.10212,69720
32.11023,68965
32.11837,61657
32.12648,65559
32.13460,58600
32.14273,57994
32.15085,57702
32.15898,54176
32.16710,57000
32.17522,57179
32.18335,59389
32.19147,53355
32.19958,55494
32.20772,60411
32.21583,58452
32.22397,57418
32.23208,53497
32.24020,49271
32.24833,54700
32.25645,59732
32.26458,57597
32.27270,54468
32.28082,59104
32.28895,61758
32.29707,53059
32.30518,56545
32.31332,55077
32.32143,59670
32.32957,52834
32.33768,48668
32.34580,53196
32.35393,52130
32.36205,53817
32.37018,54786
32.37830,55957
32.38642,51776
32.39455,52923
32.40267,54698
32.41080,50735
32.41892,48267
32.42703,48801
32.43517,52909
32.44328,45685
32.45140,49603
32.45953,50443
32.46765,54024
32.47578,53675
32.48390,48912
32.49202,51385
32.50015,46534
32.50827,50826
32.51640,48899
32.52452,48200
32.53263,53739
32.54077,50464
32.54888,52715
32.55702,53516
32.56513,54079
32.57325,51998
32.58138,53692
32.58950,49436
32.59762,48882
32.60575,49719
32.61387,46219
32.62200,44389
32.63012,51269
32.63823,49047
32.64637,50689
32.65448,53958
32.66262,57241
32.67073,60851
32.67885,67311
32.68698,61896
32.69510,61604
32.70323,63419
32.71135,61723
32.71947,57030
32.72760,54989
32.73572,52745
32.74383,56065
32.75197,53984
32.76008,53002
32.76822,49576
32.77633,49248
32.78445,45611
32.79258,44555
32.80070,45314
32.80883,45695
32.81695,49329
32.82507,48451
32.83320,44426
32.84132,49084
32.84943,44023
32.85757,48554
32.86568,45380
32.87382,49982
32.88193,51422
32.89005,46893
32.89818,50821
32.90630,53427
32.91443,49739
32.92255,48480
32.93067,48486
32.93880,51562
32.94692,47978
32.95505,49496
32.96317,49130
32.97128,52620
32.97942,56445
32.98753,60700
32.99565,66856
33.00378,68549
33.01190,73651
33.02003,74683
33.02815,64678
33.03627,65189
33.04440,59607
33.05252,60468
33.06065,61443
33.06877,61421
33.07688,64995
33.08502,67598
33.09313,72331
33.10125,78409
33.10938,86232
33.11750,84062
33.12563,84367
33.13375,80543
33.14187,75541
33.15000,70662
33.15812,62081
33.16625,56138
33.17437,53541
33.18248,55105
33.19062,60084
33.19873,53131
33.20687,51851
33.21498,53950
33.22310,51343
33.23123,51580
33.23935,51334
33.24747,51965
33.25560,53116
33.26372,49574
33.27185,48353
33.27997,52229
33.28808,48536
33.29622,49917
33.30433,49635
33.31247,49131
33.32058,47402
33.32870,58140
33.33683,46874
33.34495,51536
33.35308,54045
33.36120,53334
33.36932,51623
33.37745,55752
33.38557,59109
33.39368,52338
33.40182,49453
33.40993,50833
33.41807,47962
33.42618,49910
33.43430,48953
33.44243,47512
33.45055,45268
33.45868,48862
33.46680,48541
33.47492,46016
33.48305,45344
33.49117,46915
33.49928,52349
33.50742,47855
33.51553,51523
33.52367,49604
33.53178,50746
33.53990,51027
33.54803,54914
33.55615,59160
33.56428,58043
33.57240,58195
33.58052,54436
33.58865,54006
33.59677,56317
33.60490,51240
33.61302,51409
33.62113,51328
33.62927,50385
33.63738,50076
33.64550,51112
33.65363,52551
33.66175,52241
33.66988,53138
33.67800,48371
33.68612,52646
33.69425,50212
33.70237,53211
33.71050,44527
33.71862,48825
33.72673,49964
33.73487,51389
33.74298,49796
33.75112,45914
33.75923,46406
33.76735,48711
33.77548,47448
33.78360,47745
33.79172,48805
33.79985,48457
33.80797,50472
33.81610,47251
33.82422,48310
33.83233,50025
33.84047,52574
33.84858,51960
33.85672,53116
33.86483,54422
33.87295,51770
33.88108,52476
33.88920,55231
33.89732,53695
33.90545,54281
33.91357,50876
33.92170,55745
33.92982,53728
33.93793,53384
33.94607,48617
33.95418,47334
33.96232,52706
33.97043,50347
33.97855,52429
33.98668,49965
33.99480,51251
34.00293,48188
34.01105,49610
34.01917,47737
34.02730,52770
34.03542,49259
34.04353,48441
34.05167,47637
34.05978,46921
34.06792,51809
34.07603,50903
34.08415,49471
34.09228,50510
34.10040,51323
34.10853,48822
34.11665,50647
34.12477,50307
34.13290,49195
34.14102,50180
34.14913,52808
34.15727,50712
34.16538,55242
34.17352,48862
34.18163,54014
34.18975,49512
34.19788,51454
34.20600,50326
34.21413,46625
34.22225,51336
34.23037,47929
34.23850,50926
34.24662,50877
34.25475,53395
34.26287,53030
34.27098,51700
34.27912,48273
34.28723,53846
34.29535,51181
34.30348,54921
34.31160,52470
34.31973,48182
34.32785,52923
34.33597,50279
34.34410,50955
34.35222,55626
34.36035,51650
34.36847,53021
34.37658,52780
34.38472,52051
34.39283,51335
34.40097,49394
34.40908,55814
34.41720,49779
34.42533,50754
34.43345,51463
34.44157,52476
34.44970,46268
34.45782,50956
34.46595,52283
34.47407,50423
34.48218,53520
34.49032,52345
34.49843,54624
34.50657,52685
34.51468,56336
34.52280,58678
34.53093,63663
34.53905,71493
34.54717,71989
34.55530,83342
34.56342,86195
34.57155,81884
34.57967,83797
34.58778,84389
34.59592,80255
34.60403,79876
34.61217,73044
34.62028,74145
34.62840,71572
34.63653,67985
34.64465,66727
34.65278,65382
34.66090,62973
34.66902,62706
34.67715,65351
34.68527,60529
34.69338,60997
34.70152,61242
34.70963,59477
34.71777,57547
34.72588,57676
34.73400,54742
34.74213,57327
34.75025,59228
34.75838,57774
34.76650,62808
34.77462,56709
34.78275,63332
34.79087,60213
34.79900,61762
34.80712,58476
34.81523,61165
34.82337,54096
34.83148,57400
34.83960,56421
34.84773,56953
34.85585,55620
34.86398,57604
34.87210,60332
34.88022,58668
34.88835,53914
34.89647,58525
34.90460,59014
34.91272,57724
34.92083,55651
34.92897,59444
34.93708,63259
34.94520,63976
34.95333,61580
34.96145,60005
34.96958,60912
34.97770,66358
34.98582,67523
34.99395,66639
35.00207,64636
35.01020,61962
35.01832,58241
35.02643,61089
35.03457,58028
35.04268,59688
35.05082,63597
35.05893,55976
35.06705,58361
35.07518,67093
35.08330,56035
35.09142,58670
35.09955,57123
35.10767,57521
35.11580,54401
35.12392,52637
35.13203,53979
35.14017,58733
35.14828,58433
35.15642,57728
35.16453,61448
35.17265,57473
35.18078,58781
35.18890,58557
35.19703,61871
35.20515,57504
35.21327,56564
35.22140,56641
35.22952,55782
35.23763,57093
35.24577,57772
35.25388,61643
35.26202,60406
35.27013,62371
35.27825,60868
35.28638,62311
35.29450,59047
35.30263,60508
35.31075,60796
35.31887,60069
35.32700,55108
35.33512,59049
35.34323,53464
35.35137,56522
35.35948,50452
35.36762,54714
35.37573,53269
35.38385,56347
35.39198,56639
35.40010,56157
35.40823,56142
35.41635,53895
35.42447,58730
35.43260,57240
35.44072,57596
35.44885,66071
35.45697,62078
35.46508,63055
35.47322,61813
35.48133,66590
35.48945,68965
35.49758,65434
35.50570,63350
35.51383,59418
35.52195,62304
35.53007,59973
35.53820,59333
35.54632,60264
35.55445,61514
35.56257,59172
35.57068,57522
35.57882,57908
35.58693,61716
35.59505,59717
35.60318,59523
35.61130,58638
35.61943,63705
35.62755,59072
35.63567,59917
35.64380,56436
35.65192,57101
35.66005,54938
35.66817,55607
35.67628,60577
35.68442,60736
35.69253,58879
35.70067,61853
35.70878,61195
35.71690,63461
35.72503,61426
35.73315,63516
35.74127,71194
35.74940,67781
35.75752,68407
35.76565,70360
35.77377,76815
35.78188,74396
35.79002,70271
35.79813,66658
35.80627,65163
35.81438,65161
35.82250,60352
35.83063,63419
35.83875,61153
35.84688,61446
35.85500,61865
35.86312,61445
35.87125,58104
35.87937,60988
35.88748,59828
35.89562,59192
35.90373,61835
35.91187,60946
35.91998,58825
35.92810,59564
35.93623,60683
35.94435,56302
35.95248,56319
35.96060,60341
35.96872,57486
35.97685,58059
35.98497,60885
35.99308,59065
36.00122,60757
36.00933,60258
36.01747,66421
36.02558,64623
36.03370,67268
36.04183,65625
36.04995,65442
36.05808,68686
36.06620,67213
36.07432,62293
36.08245,64831
36.09057,62054
36.09870,56956
36.10682,60413
36.11493,64579
36.12307,67293
36.13118,66530
36.13930,67314
36.14743,67278
36.15555,69256
36.16368,69083
36.17180,67095
36.17992,60706
36.18805,63399
36.19617,64254
36.20430,60572
36.21242,57901
36.22053,59574
36.22867,62432
36.23678,59218
36.24492,57039
36.25303,59006
36.26115,57700
36.26928,60701
36.27740,58208
36.28552,63705
36.29365,65570
36.30177,63742
36.30990,72680
36.31802,71137
36.32613,75092
36.33427,73945
36.34238,71990
36.35052,66693
36.35863,69777
36.36675,64448
36.37488,67060
36.38300,60056
36.39112,58995
36.39925,67988
36.40737,73335
36.41550,66163
36.42362,64134
36.43173,64910
36.43987,62721
36.44798,59868
36.45612,63491
36.46423,60699
36.47235,63015
36.48048,59278
36.48860,65007
36.49673,57926
36.50485,63941
36.51297,60555
36.52110,60436
36.52922,59858
36.53733,62587
36.54547,61279
36.55358,62865
36.56172,63452
36.56983,61160
36.57795,59802
36.58608,63546
36.59420,60324
36.60233,62785
36.61045,60794
36.61857,63460
36.62670,64868
36.63482,65341
36.64293,65134
36.65107,74417
36.65918,68282
36.66732,67227
36.67543,69244
36.68355,68352
36.69168,66478
36.69980,69705
36.70793,66681
36.71605,70285
36.72417,70625
36.73230,69714
36.74042,71780
36.74855,69614
36.75667,65262
36.76478,72203
36.77292,68207
36.78103,75207
36.78915,68360
36.79728,65173
36.80540,72086
36.81353,66341
36.82165,68163
36.82977,67259
36.83790,65954
36.84602,64845
36.85415,66278
36.86227,65295
36.87038,68723
36.87852,69149
36.88663,67844
36.89477,68442
36.90288,69120
36.91100,67449
36.91913,67981
36.92725,69800
36.93537,65558
36.94350,70318
36.95162,70273
36.95975,77451
36.96787,82314
36.97598,81957
36.98412,92626
36.99223,79552
37.00037,76033
37.00848,71967
37.01660,71120
37.02473,68547
37.03285,75098
37.04097,77735
37.04910,77709
37.05722,68863
37.06535,71444
37.07347,70150
37.08158,76367
37.08972,74593
37.09783,75304
37.10597,70509
37.11408,70131
37.12220,73472
37.13033,65320
37.13845,75554
37.14658,69270
37.15470,74467
37.16282,73178
37.17095,70142
37.17907,75548
37.18718,75358
37.19532,74287
37.20343,73343
37.21157,71309
37.21968,73088
37.22780,71646
37.23593,74116
37.24405,70469
37.25218,70661
37.26030,69821
37.26842,74833
37.27655,78254
37.28467,67704
37.29280,69036
37.30092,75713
37.30903,78078
37.31717,75343
37.32528,74627
37.33340,80877
37.34153,85933
37.34965,86840
37.35778,94246
37.36590,94161
37.37402,95289
37.38215,94534
37.39027,92392
37.39840,87524
37.40652,88366
37.41463,92313
37.42277,90258
37.43088,91702
37.43900,85269
37.44713,85098
37.45525,82496
37.46338,78555
37.47150,92109
37.47962,83996
37.48775,89114
