C:\MassHunter\GCMS\1\data\JTB-E18\JTB-E18-033-10.D Mon Oct 14 14:47:16 2019
Start of data points
2.09522,160649
2.10333,151391
2.11145,149906
2.11958,150576
2.12770,143999
2.13583,142145
2.14395,139051
2.15207,132581
2.16020,130832
2.16832,123426
2.17645,120948
2.18457,119529
2.19268,128238
2.20082,113513
2.20893,111727
2.21705,111669
2.22518,112948
2.23330,113753
2.24143,113395
2.24955,104013
2.25767,111581
2.26580,152659
2.27392,785591
2.28205,1981720
2.29017,1582098
2.29828,769350
2.30642,451745
2.31453,355714
2.32265,305269
2.33078,264247
2.33890,263679
2.34703,255293
2.35515,210341
2.36327,196658
2.37140,179628
2.37952,170039
2.38765,189169
2.39577,170979
2.40388,154184
2.41202,156149
2.42013,155316
2.42827,149663
2.43638,153687
2.44450,157747
2.45263,158344
2.46075,147442
2.46887,139441
2.47700,135495
2.48512,134822
2.49325,137212
2.50137,138552
2.50948,131850
2.51762,123321
2.52573,129066
2.53387,118251
2.54198,127376
2.55010,128100
2.55823,134746
2.56635,123034
2.57447,123108
2.58260,121289
2.59072,114918
2.59885,111830
2.60697,119988
2.61508,131540
2.62322,124728
2.63133,121281
2.63947,117185
2.64758,117196
2.65570,115490
2.66383,114054
2.67195,115016
2.68008,120142
2.68820,117097
2.69632,103737
2.70445,109320
2.71257,106266
2.72068,103601
2.72882,106587
2.73693,104500
2.74507,106359
2.75318,100961
2.76130,104679
2.76943,99777
2.77755,102402
2.78568,101429
2.79380,96287
2.80192,107669
2.81005,124625
2.81817,135797
2.82630,144414
2.83442,180835
2.84253,171960
2.85067,135078
2.85878,111564
2.86690,120998
2.87503,111272
2.88315,104136
2.89128,106151
2.89940,104985
2.90752,104522
2.91565,98258
2.92377,94230
2.93190,98199
2.94002,94668
2.94813,100025
2.95627,91379
2.96438,94056
2.97252,93054
2.98063,98583
2.98875,99613
2.99688,96369
3.00500,100564
3.01312,104093
3.02125,110500
3.02937,130961
3.03750,181055
3.04562,232047
3.05373,509789
3.06187,1121785
3.06998,1277933
3.07812,752378
3.08623,410344
3.09435,270418
3.10248,228979
3.11060,189750
3.11872,183919
3.12685,170662
3.13497,156182
3.14310,165908
3.15122,155947
3.15933,147338
3.16747,135775
3.17558,135111
3.18372,125250
3.19183,119378
3.19995,120268
3.20808,114908
3.21620,106661
3.22433,111689
3.23245,103155
3.24057,110613
3.24870,99704
3.25682,98050
3.26493,99912
3.27307,103421
3.28118,131324
3.28932,272255
3.29743,632408
3.30555,1150594
3.31368,1485026
3.32180,1378862
3.32993,1075104
3.33805,866821
3.34617,698561
3.35430,596032
3.36242,522366
3.37053,479920
3.37867,466324
3.38678,459046
3.39492,421869
3.40303,424633
3.41115,591856
3.41928,755158
3.42740,705381
3.43553,535135
3.44365,395860
3.45177,348692
3.45990,304502
3.46802,288073
3.47615,271625
3.48427,254907
3.49238,240058
3.50052,224322
3.50863,218745
3.51675,212564
3.52488,215623
3.53300,202136
3.54113,201689
3.54925,196231
3.55737,189859
3.56550,182136
3.57362,183625
3.58175,175312
3.58987,177460
3.59798,170773
3.60612,170745
3.61423,187050
3.62237,227038
3.63048,335729
3.63860,397277
3.64673,384660
3.65485,303654
3.66297,245663
3.67110,220598
3.67922,198488
3.68735,191216
3.69547,192901
3.70358,174612
3.71172,174607
3.71983,171615
3.72797,165825
3.73608,164873
3.74420,167104
3.75233,160939
3.76045,165179
3.76857,162175
3.77670,156274
3.78482,150685
3.79295,150779
3.80107,152565
3.80918,150146
3.81732,154469
3.82543,149838
3.83357,150566
3.84168,150322
3.84980,152186
3.85793,143313
3.86605,145895
3.87418,135245
3.88230,139962
3.89042,141034
3.89855,133238
3.90667,134720
3.91478,133823
3.92292,123788
3.93103,131466
3.93917,125573
3.94728,130575
3.95540,118814
3.96353,119673
3.97165,123208
3.97978,121312
3.98790,118261
3.99602,116050
4.00415,117796
4.01227,122306
4.02040,123054
4.02852,118850
4.03663,117456
4.04477,119601
4.05288,120668
4.06100,121114
4.06913,119465
4.07725,111087
4.08538,117010
4.09350,110561
4.10162,121594
4.10975,118666
4.11787,116751
4.12600,111204
4.13412,113657
4.14223,112584
4.15037,116114
4.15848,121093
4.16660,122890
4.17473,115180
4.18285,119654
4.19098,112501
4.19910,103966
4.20722,109075
4.21535,103787
4.22347,116369
4.23160,127678
4.23972,136285
4.24783,132356
4.25597,122579
4.26408,123433
4.27222,121260
4.28033,121097
4.28845,120505
4.29658,112826
4.30470,112102
4.31282,115366
4.32095,113596
4.32907,108945
4.33720,111704
4.34532,114927
4.35343,114772
4.36157,108875
4.36968,109737
4.37782,109420
4.38593,106763
4.39405,104537
4.40218,105603
4.41030,112590
4.41842,122876
4.42655,116549
4.43467,115364
4.44280,111405
4.45092,119048
4.45903,121933
4.46717,120547
4.47528,120968
4.48342,114815
4.49153,115008
4.49965,108138
4.50778,111792
4.51590,115888
4.52403,110363
4.53215,104950
4.54027,101155
4.54840,107052
4.55652,103750
4.56463,104097
4.57277,98879
4.58088,102658
4.58902,95109
4.59713,100703
4.60525,99967
4.61338,95792
4.62150,101997
4.62963,98950
4.63775,97060
4.64587,103309
4.65400,97667
4.66212,97336
4.67025,98713
4.67837,97593
4.68648,98261
4.69462,96107
4.70273,101258
4.71085,97244
4.71898,97674
4.72710,99123
4.73523,89376
4.74335,95763
4.75147,95508
4.75960,92233
4.76772,91296
4.77585,95451
4.78397,97388
4.79208,90787
4.80022,91091
4.80833,94176
4.81645,91055
4.82458,94812
4.83270,94766
4.84083,93446
4.84895,94679
4.85707,98245
4.86520,99210
4.87332,101933
4.88145,98343
4.88957,93899
4.89768,95211
4.90582,98781
4.91393,103965
4.92207,140754
4.93018,221586
4.93830,366005
4.94643,486033
4.95455,517379
4.96267,463059
4.97080,380373
4.97892,310448
4.98705,268033
4.99517,228137
5.00328,210918
5.01142,185907
5.01953,180065
5.02767,173893
5.03578,170307
5.04390,163481
5.05203,154858
5.06015,155283
5.06828,149931
5.07640,146139
5.08452,144639
5.09265,145121
5.10077,147820
5.10888,148649
5.11702,159964
5.12513,169802
5.13327,163115
5.14138,160199
5.14950,151897
5.15763,151078
5.16575,149833
5.17388,154311
5.18200,154523
5.19012,165140
5.19825,156327
5.20637,146742
5.21448,137371
5.22262,127759
5.23073,133291
5.23887,135484
5.24698,131327
5.25510,132739
5.26323,127563
5.27135,118386
5.27948,116401
5.28760,109358
5.29572,107599
5.30385,111959
5.31197,107360
5.32010,101180
5.32822,103884
5.33633,109509
5.34447,101890
5.35258,109279
5.36070,101592
5.36883,102822
5.37695,98556
5.38508,101028
5.39320,93386
5.40132,102318
5.40945,97532
5.41757,94667
5.42570,95821
5.43382,98808
5.44193,100942
5.45007,92517
5.45818,90974
5.46632,99344
5.47443,97881
5.48255,91498
5.49068,93737
5.49880,89898
5.50692,90160
5.51505,94133
5.52317,98526
5.53130,91757
5.53942,94110
5.54753,93704
5.55567,91133
5.56378,94811
5.57192,93959
5.58003,97643
5.58815,101575
5.59628,108312
5.60440,106549
5.61252,99651
5.62065,108786
5.62877,105258
5.63690,114795
5.64502,111832
5.65313,113234
5.66127,107307
5.66938,105693
5.67752,99097
5.68563,101855
5.69375,107997
5.70188,108951
5.71000,117741
5.71813,102962
5.72625,112501
5.73437,111950
5.74250,102932
5.75062,100267
5.75873,104658
5.76687,104062
5.77498,109272
5.78312,108146
5.79123,105976
5.79935,111300
5.80748,131693
5.81560,167328
5.82373,221243
5.83185,273642
5.83997,283265
5.84810,242519
5.85622,193076
5.86433,155372
5.87247,141641
5.88058,127843
5.88872,123290
5.89683,120669
5.90495,115415
5.91308,117072
5.92120,134583
5.92933,149867
5.93745,157867
5.94557,141011
5.95370,125252
5.96182,108323
5.96995,105498
5.97807,107117
5.98618,111980
5.99432,103507
6.00243,94952
6.01055,88422
6.01868,82288
6.02680,82545
6.03493,76800
6.04305,79399
6.05117,78702
6.05930,72217
6.06742,77450
6.07555,76159
6.08367,74211
6.09178,72791
6.09992,70406
6.10803,66884
6.11617,68841
6.12428,69785
6.13240,68804
6.14053,68262
6.14865,74840
6.15677,73014
6.16490,75224
6.17302,75225
6.18115,84496
6.18927,89277
6.19738,92578
6.20552,94521
6.21363,94449
6.22177,99727
6.22988,95678
6.23800,98586
6.24613,99066
6.25425,103525
6.26237,107506
6.27050,109645
6.27862,107032
6.28675,113008
6.29487,116473
6.30298,114751
6.31112,117811
6.31923,121578
6.32737,118231
6.33548,127781
6.34360,128986
6.35173,131657
6.35985,133975
6.36798,134566
6.37610,135340
6.38422,132272
6.39235,142166
6.40047,140116
6.40858,140626
6.41672,149319
6.42483,148289
6.43297,146719
6.44108,145601
6.44920,151294
6.45733,156161
6.46545,154617
6.47358,158044
6.48170,153062
6.48982,156187
6.49795,160740
6.50607,170892
6.51420,165238
6.52232,170845
6.53043,169521
6.53857,175354
6.54668,183980
6.55480,178299
6.56293,177137
6.57105,179196
6.57918,177016
6.58730,155306
6.59542,121074
6.60355,104621
6.61167,92121
6.61980,91937
6.62792,88002
6.63603,87327
6.64417,84968
6.65228,77452
6.66040,79243
6.66853,75728
6.67665,73633
6.68478,76665
6.69290,76867
6.70102,81399
6.70915,83868
6.71727,87734
6.72540,96314
6.73352,90186
6.74163,86640
6.74977,79248
6.75788,75756
6.76602,69259
6.77413,66724
6.78225,70199
6.79038,68976
6.79850,68653
6.80662,62258
6.81475,66294
6.82287,70860
6.83100,75594
6.83912,92123
6.84723,121874
6.85537,159400
6.86348,194158
6.87162,200770
6.87973,197189
6.88785,162641
6.89598,128015
6.90410,100812
6.91222,74868
6.92035,69107
6.92847,66150
6.93660,62407
6.94472,58153
6.95283,52927
6.96097,54306
6.96908,53890
6.97722,53745
6.98533,63935
6.99345,65993
7.00158,74807
7.00970,88299
7.01783,98049
7.02595,98736
7.03407,89413
7.04220,74682
7.05032,69441
7.05843,62522
7.06657,57014
7.07468,58932
7.08282,59860
7.09093,54136
7.09905,54422
7.10718,58649
7.11530,56616
7.12343,54624
7.13155,53833
7.13967,50606
7.14780,52071
7.15592,51945
7.16405,49555
7.17217,48099
7.18028,49288
7.18842,49783
7.19653,50651
7.20465,50280
7.21278,50627
7.22090,46085
7.22903,56980
7.23715,54217
7.24527,54868
7.25340,58879
7.26152,58670
7.26965,59924
7.27777,57563
7.28588,56077
7.29402,53992
7.30213,56405
7.31025,55281
7.31838,54973
7.32650,56732
7.33463,52531
7.34275,54462
7.35087,49914
7.35900,54465
7.36712,62996
7.37525,69272
7.38337,70562
7.39148,73176
7.39962,72508
7.40773,66731
7.41587,59873
7.42398,59121
7.43210,60679
7.44023,55163
7.44835,56228
7.45647,52565
7.46460,52138
7.47272,56038
7.48085,62226
7.48897,59372
7.49708,66719
7.50522,65129
7.51333,60948
7.52147,57242
7.52958,52511
7.53770,49392
7.54583,49021
7.55395,51285
7.56208,47980
7.57020,46863
7.57832,44113
7.58645,46121
7.59457,45538
7.60268,47593
7.61082,46428
7.61893,45668
7.62707,48589
7.63518,42116
7.64330,44583
7.65143,47428
7.65955,47889
7.66768,46071
7.67580,44039
7.68392,46702
7.69205,49312
7.70017,41803
7.70828,46323
7.71642,40925
7.72453,43662
7.73267,41898
7.74078,46426
7.74890,43141
7.75703,43491
7.76515,42728
7.77328,42138
7.78140,43415
7.78952,43070
7.79765,44172
7.80577,44850
7.81390,41990
7.82202,43107
7.83013,42776
7.83827,42176
7.84638,40682
7.85450,39805
7.86263,41383
7.87075,42342
7.87888,40915
7.88700,40171
7.89512,39444
7.90325,41168
7.91137,43985
7.91950,41228
7.92762,41508
7.93573,36356
7.94387,38296
7.95198,42765
7.96010,41537
7.96823,46316
7.97635,45474
7.98448,46386
7.99260,43457
8.00072,43849
8.00885,42451
8.01697,42022
8.02510,40969
8.03322,37981
8.04133,37008
8.04947,41233
8.05758,37100
8.06572,38676
8.07383,38216
8.08195,40096
8.09008,39788
8.09820,38775
8.10632,38419
8.11445,39066
8.12257,36956
8.13070,38349
8.13882,40009
8.14693,42820
8.15507,39723
8.16318,41963
8.17132,40997
8.17943,41525
8.18755,41549
8.19568,38645
8.20380,41089
8.21193,37534
8.22005,39932
8.22817,36673
8.23630,38937
8.24442,35835
8.25253,36714
8.26067,35860
8.26878,36895
8.27692,37859
8.28503,39258
8.29315,41172
8.30128,38607
8.30940,38367
8.31753,40934
8.32565,42802
8.33377,44572
8.34190,43576
8.35002,51399
8.35815,41909
8.36627,41645
8.37438,41977
8.38252,40116
8.39063,41672
8.39875,41086
8.40688,38744
8.41500,37369
8.42313,35396
8.43125,39173
8.43937,40188
8.44750,36083
8.45562,37193
8.46375,34704
8.47187,39212
8.47998,35302
8.48812,36783
8.49623,38565
8.50435,37991
8.51248,49461
8.52060,52688
8.52873,48865
8.53685,48797
8.54497,50239
8.55310,46171
8.56122,41732
8.56935,44604
8.57747,40737
8.58558,39968
8.59372,36085
8.60183,39791
8.60997,35227
8.61808,36087
8.62620,37297
8.63433,36105
8.64245,34443
8.65057,36212
8.65870,34456
8.66682,34612
8.67495,36080
8.68307,37988
8.69118,39158
8.69932,42387
8.70743,45877
8.71557,51030
8.72368,54961
8.73180,68407
8.73993,88346
8.74805,113884
8.75617,130713
8.76430,124501
8.77242,107780
8.78055,82754
8.78867,72783
8.79678,71866
8.80492,66726
8.81303,64180
8.82117,61392
8.82928,57595
8.83740,53816
8.84553,56689
8.85365,57705
8.86178,54375
8.86990,51893
8.87802,45290
8.88615,52636
8.89427,50374
8.90238,46661
8.91052,48594
8.91863,48851
8.92677,48990
8.93488,47930
8.94300,48795
8.95113,44894
8.95925,41920
8.96738,40336
8.97550,44728
8.98362,44297
8.99175,40294
8.99987,44148
9.00800,38287
9.01612,38926
9.02423,43008
9.03237,39439
9.04048,38829
9.04860,41450
9.05673,41347
9.06485,43089
9.07298,42961
9.08110,44490
9.08922,44728
9.09735,42476
9.10547,42385
9.11360,40068
9.12172,41201
9.12983,39511
9.13797,40782
9.14608,43081
9.15420,40772
9.16233,37415
9.17045,39000
9.17858,40095
9.18670,40687
9.19482,38409
9.20295,38960
9.21107,38821
9.21920,37568
9.22732,37685
9.23543,38925
9.24357,35556
9.25168,37205
9.25982,42780
9.26793,38747
9.27605,43053
9.28418,47459
9.29230,49596
9.30042,45951
9.30855,48121
9.31667,43860
9.32480,44863
9.33292,40404
9.34103,42755
9.34917,42448
9.35728,41559
9.36542,39394
9.37353,42838
9.38165,37423
9.38978,35939
9.39790,34827
9.40603,34140
9.41415,33510
9.42227,37686
9.43040,35888
9.43852,34830
9.44663,33937
9.45477,33651
9.46288,35508
9.47102,35484
9.47913,35500
9.48725,33458
9.49538,36131
9.50350,33156
9.51163,37264
9.51975,32662
9.52787,35621
9.53600,35013
9.54412,33970
9.55223,34931
9.56037,32167
9.56848,31601
9.57662,31453
9.58473,35680
9.59285,39675
9.60098,40174
9.60910,40093
9.61723,35242
9.62535,33652
9.63347,38297
9.64160,37557
9.64972,38968
9.65785,40310
9.66597,38783
9.67408,37015
9.68222,34161
9.69033,31537
9.69845,32128
9.70658,32543
9.71470,27890
9.72283,33041
9.73095,27385
9.73907,27591
9.74720,28187
9.75532,29851
9.76345,26405
9.77157,27821
9.77968,28403
9.78782,24479
9.79593,26450
9.80405,28461
9.81218,28009
9.82030,27283
9.82843,27175
9.83655,29020
9.84467,27358
9.85280,29307
9.86092,29776
9.86905,29946
9.87717,28534
9.88528,26525
9.89342,26244
9.90153,28863
9.90967,28126
9.91778,28838
9.92590,27180
9.93403,25480
9.94215,26199
9.95027,28503
9.95840,28763
9.96652,28276
9.97465,33085
9.98277,32421
9.99088,30783
9.99902,31633
10.00713,31167
10.01527,30981
10.02338,29408
10.03150,30926
10.03963,28298
10.04775,28428
10.05588,27439
10.06400,28642
10.07212,25387
10.08025,26575
10.08837,25590
10.09648,25969
10.10462,29242
10.11273,24718
10.12087,27094
10.12898,25975
10.13710,28523
10.14523,27131
10.15335,25330
10.16148,30473
10.16960,25356
10.17772,28584
10.18585,26102
10.19397,24706
10.20208,26303
10.21022,24103
10.21833,26859
10.22647,27704
10.23458,32689
10.24270,29168
10.25083,28237
10.25895,29354
10.26708,28134
10.27520,27309
10.28332,30225
10.29145,27057
10.29957,27892
10.30770,26261
10.31582,23779
10.32393,27151
10.33207,26702
10.34018,26381
10.34830,28359
10.35643,23343
10.36455,26180
10.37268,27087
10.38080,28048
10.38892,26666
10.39705,27351
10.40517,27017
10.41330,27273
10.42142,27454
10.42953,30850
10.43767,26027
10.44578,25233
10.45392,22731
10.46203,26261
10.47015,25317
10.47828,23816
10.48640,26201
10.49452,24486
10.50265,25993
10.51077,28403
10.51890,26284
10.52702,24043
10.53513,24225
10.54327,29063
10.55138,26677
10.55952,25072
10.56763,25672
10.57575,25535
10.58388,28493
10.59200,21772
10.60012,24427
10.60825,24541
10.61637,23093
10.62450,21632
10.63262,21932
10.64073,23668
10.64887,24706
10.65698,25212
10.66512,27174
10.67323,24330
10.68135,27054
10.68948,26464
10.69760,24881
10.70573,25387
10.71385,26783
10.72197,25446
10.73010,24653
10.73822,27546
10.74633,25378
10.75447,25551
10.76258,27385
10.77072,27943
10.77883,24806
10.78695,24968
10.79508,25828
10.80320,24556
10.81133,24486
10.81945,25211
10.82757,24162
10.83570,23627
10.84382,23797
10.85195,27096
10.86007,23188
10.86818,26991
10.87632,23816
10.88443,24984
10.89255,23556
10.90068,23936
10.90880,23458
10.91693,21684
10.92505,21748
10.93317,24375
10.94130,22425
10.94942,24391
10.95755,22930
10.96567,22874
10.97378,21783
10.98192,27371
10.99003,24293
10.99815,26847
11.00628,24708
11.01440,23268
11.02253,24030
11.03065,22002
11.03877,23333
11.04690,21174
11.05502,22037
11.06315,21788
11.07127,23372
11.07938,21483
11.08752,23457
11.09563,23790
11.10377,22867
11.11188,29057
11.12000,26056
11.12813,26328
11.13625,24076
11.14437,28374
11.15250,28165
11.16062,26258
11.16875,28939
11.17687,25218
11.18498,26681
11.19312,26939
11.20123,26124
11.20937,27283
11.21748,28110
11.22560,29499
11.23373,26527
11.24185,25592
11.24997,25609
11.25810,29320
11.26622,30201
11.27435,28089
11.28247,34006
11.29058,33834
11.29872,35394
11.30683,41744
11.31497,38636
11.32308,35230
11.33120,36199
11.33933,33651
11.34745,36874
11.35558,33986
11.36370,33477
11.37182,33842
11.37995,29513
11.38807,27420
11.39618,31916
11.40432,29211
11.41243,27505
11.42057,28885
11.42868,27911
11.43680,27105
11.44493,25826
11.45305,26389
11.46118,27586
11.46930,28834
11.47742,27579
11.48555,23391
11.49367,26548
11.50180,26472
11.50992,27914
11.51803,28967
11.52617,29184
11.53428,26497
11.54240,28464
11.55053,28803
11.55865,25500
11.56678,26083
11.57490,26453
11.58302,28118
11.59115,30637
11.59927,32618
11.60740,30042
11.61552,30185
11.62363,29401
11.63177,26504
11.63988,22995
11.64800,26097
11.65613,28074
11.66425,25336
11.67238,27831
11.68050,28646
11.68862,26576
11.69675,28872
11.70487,31059
11.71300,32806
11.72112,34600
11.72923,33553
11.73737,34597
11.74548,33243
11.75362,32556
11.76173,30011
11.76985,29120
11.77798,28066
11.78610,29353
11.79422,28608
11.80235,26726
11.81047,26645
11.81860,26915
11.82672,29050
11.83483,27894
11.84297,27038
11.85108,27322
11.85922,26560
11.86733,27816
11.87545,27385
11.88358,25954
11.89170,27091
11.89983,24852
11.90795,24769
11.91607,23046
11.92420,28868
11.93232,30540
11.94043,28665
11.94857,29605
11.95668,30993
11.96482,28469
11.97293,25230
11.98105,26338
11.98918,25965
11.99730,25991
12.00543,26561
12.01355,25758
12.02167,27993
12.02980,26885
12.03792,22269
12.04603,25433
12.05417,21356
12.06228,24321
12.07042,23717
12.07853,26193
12.08665,22862
12.09478,24855
12.10290,22597
12.11103,22728
12.11915,23819
12.12727,23502
12.13540,23525
12.14352,22021
12.15165,22279
12.15977,23248
12.16788,25356
12.17602,23754
12.18413,22960
12.19225,24176
12.20038,22682
12.20850,21970
12.21663,21385
12.22475,23657
12.23287,28606
12.24100,22390
12.24912,23978
12.25725,24359
12.26537,26554
12.27348,22571
12.28162,20510
12.28973,21642
12.29785,21295
12.30598,26498
12.31410,23657
12.32223,23385
12.33035,23525
12.33847,24589
12.34660,26235
12.35472,23302
12.36285,20810
12.37097,22621
12.37908,23850
12.38722,20728
12.39533,22858
12.40347,21302
12.41158,23333
12.41970,22516
12.42783,24561
12.43595,23941
12.44407,24372
12.45220,26488
12.46032,25175
12.46845,24215
12.47657,25728
12.48468,24606
12.49282,23798
12.50093,22051
12.50907,23080
12.51718,22672
12.52530,21615
12.53343,19701
12.54155,21127
12.54968,23295
12.55780,24308
12.56592,22286
12.57405,24280
12.58217,23362
12.59028,23163
12.59842,22099
12.60653,22413
12.61467,22817
12.62278,23552
12.63090,21903
12.63903,22090
12.64715,20946
12.65528,24178
12.66340,21908
12.67152,20354
12.67965,23658
12.68777,23886
12.69588,21290
12.70402,24247
12.71213,24326
12.72027,25232
12.72838,27270
12.73650,31467
12.74463,32696
12.75275,29882
12.76088,27761
12.76900,29322
12.77712,24918
12.78525,23893
12.79337,24089
12.80150,27716
12.80962,26438
12.81773,25065
12.82587,24070
12.83398,25179
12.84210,23023
12.85023,20573
12.85835,24167
12.86648,22362
12.87460,23414
12.88272,23440
12.89085,22379
12.89897,23842
12.90710,19988
12.91522,22824
12.92333,23174
12.93147,24133
12.93958,25440
12.94772,25558
12.95583,28153
12.96395,29200
12.97208,30349
12.98020,35928
12.98832,32749
12.99645,33139
13.00457,30326
13.01270,32636
13.02082,29045
13.02893,29214
13.03707,27807
13.04518,23020
13.05332,24772
13.06143,23831
13.06955,24337
13.07768,23329
13.08580,20845
13.09392,23388
13.10205,23490
13.11017,21465
13.11830,22314
13.12642,24709
13.13453,22465
13.14267,23051
13.15078,23468
13.15892,26651
13.16703,21719
13.17515,20989
13.18328,21475
13.19140,22898
13.19953,24386
13.20765,21930
13.21577,22458
13.22390,20545
13.23202,22395
13.24013,22666
13.24827,25280
13.25638,24873
13.26452,25469
13.27263,26302
13.28075,23222
13.28888,23339
13.29700,23075
13.30513,23263
13.31325,24108
13.32137,24662
13.32950,23106
13.33762,26874
13.34573,25160
13.35387,22455
13.36198,23077
13.37012,22105
13.37823,22551
13.38635,22269
13.39448,22242
13.40260,24479
13.41073,22904
13.41885,20669
13.42697,20141
13.43510,18368
13.44322,23079
13.45135,22247
13.45947,22227
13.46758,20105
13.47572,22846
13.48383,20325
13.49195,20157
13.50008,22005
13.50820,22931
13.51633,20842
13.52445,20040
13.53257,20267
13.54070,25671
13.54882,20241
13.55695,20970
13.56507,21189
13.57318,23454
13.58132,25737
13.58943,26557
13.59757,23297
13.60568,24676
13.61380,21731
13.62193,28836
13.63005,24788
13.63817,23927
13.64630,24316
13.65442,25839
13.66255,29211
13.67067,24068
13.67878,26076
13.68692,25777
13.69503,24018
13.70317,24717
13.71128,23039
13.71940,26363
13.72753,23165
13.73565,22360
13.74378,22385
13.75190,18944
13.76002,23351
13.76815,21170
13.77627,22022
13.78438,27380
13.79252,22143
13.80063,23410
13.80877,25216
13.81688,23330
13.82500,22137
13.83313,25932
13.84125,21682
13.84938,21392
13.85750,20630
13.86562,24342
13.87375,23634
13.88187,19770
13.88998,21993
13.89812,22769
13.90623,22937
13.91437,25153
13.92248,24400
13.93060,24069
13.93873,28245
13.94685,23400
13.95498,26417
13.96310,23907
13.97122,24162
13.97935,22000
13.98747,26898
13.99560,25377
14.00372,31685
14.01183,25871
14.01997,23630
14.02808,24448
14.03620,28052
14.04433,26855
14.05245,25478
14.06058,25032
14.06870,24703
14.07682,24663
14.08495,22328
14.09307,24231
14.10120,23983
14.10932,26826
14.11743,24948
14.12557,28390
14.13368,31849
14.14180,40464
14.14993,49519
14.15805,55588
14.16618,52892
14.17430,47354
14.18242,46024
14.19055,43549
14.19867,38272
14.20680,38733
14.21492,32662
14.22303,34574
14.23117,31923
14.23928,31742
14.24742,33077
14.25553,32629
14.26365,26675
14.27178,29328
14.27990,29287
14.28802,27211
14.29615,26373
14.30427,27000
14.31240,24294
14.32052,20690
14.32863,24136
14.33677,21842
14.34488,19545
14.35302,20229
14.36113,22323
14.36925,22258
14.37738,20187
14.38550,22143
14.39363,23324
14.40175,21291
14.40987,24700
14.41800,21728
14.42612,21306
14.43423,18211
14.44237,20644
14.45048,19421
14.45862,21236
14.46673,25328
14.47485,22558
14.48298,19981
14.49110,20607
14.49923,23584
14.50735,26589
14.51547,20255
14.52360,19578
14.53172,21143
14.53983,22087
14.54797,19649
14.55608,20236
14.56422,23265
14.57233,19950
14.58045,22663
14.58858,21154
14.59670,17932
14.60483,22178
14.61295,19536
14.62107,19569
14.62920,19200
14.63732,23705
14.64545,19548
14.65357,19934
14.66168,21235
14.66982,19562
14.67793,22178
14.68605,18485
14.69418,20861
14.70230,18535
14.71043,22231
14.71855,19116
14.72667,20394
14.73480,20867
14.74292,18961
14.75105,18842
14.75917,21485
14.76728,20759
14.77542,20739
14.78353,19253
14.79167,17736
14.79978,18322
14.80790,19858
14.81603,18729
14.82415,22661
14.83227,22178
14.84040,25940
14.84852,22330
14.85665,25406
14.86477,22623
14.87288,18538
14.88102,21999
14.88913,21948
14.89727,19625
14.90538,21312
14.91350,19914
14.92163,20600
14.92975,21947
14.93787,19904
14.94600,19324
14.95412,18662
14.96225,21817
14.97037,20868
14.97848,23209
14.98662,22887
14.99473,19667
15.00287,18795
15.01098,19383
15.01910,18535
15.02723,20517
15.03535,18750
15.04348,20120
15.05160,20829
15.05972,19739
15.06785,18055
15.07597,19166
15.08408,20116
15.09222,19941
15.10033,20799
15.10847,20445
15.11658,20530
15.12470,20918
15.13283,21910
15.14095,20383
15.14908,19334
15.15720,20096
15.16532,21762
15.17345,18505
15.18157,22990
15.18968,22229
15.19782,21725
15.20593,20306
15.21407,21680
15.22218,21922
15.23030,19553
15.23843,19119
15.24655,21028
15.25468,19645
15.26280,19661
15.27092,20832
15.27905,21387
15.28717,19956
15.29530,21809
15.30342,20275
15.31153,19673
15.31967,20267
15.32778,19294
15.33590,18835
15.34403,20331
15.35215,17417
15.36028,19434
15.36840,18798
15.37652,19675
15.38465,18910
15.39277,19533
15.40090,18530
15.40902,18703
15.41713,17740
15.42527,19863
15.43338,22339
15.44152,19301
15.44963,19346
15.45775,20719
15.46588,19207
15.47400,19311
15.48212,22012
15.49025,19028
15.49837,16531
15.50650,20584
15.51462,17786
15.52273,19884
15.53087,17552
15.53898,16856
15.54712,19988
15.55523,18439
15.56335,20516
15.57148,18972
15.57960,22577
15.58772,19994
15.59585,19243
15.60397,18910
15.61210,19384
15.62022,19609
15.62833,21843
15.63647,20563
15.64458,18171
15.65272,16901
15.66083,17849
15.66895,18662
15.67708,20801
15.68520,19041
15.69333,19776
15.70145,22791
15.70957,19609
15.71770,18503
15.72582,16080
15.73393,21494
15.74207,20797
15.75018,21484
15.75832,24563
15.76643,24455
15.77455,25240
15.78268,23250
15.79080,22337
15.79893,20680
15.80705,21491
15.81517,21893
15.82330,20308
15.83142,21226
15.83955,20139
15.84767,16672
15.85578,19803
15.86392,20732
15.87203,18158
15.88015,20919
15.88828,21208
15.89640,20267
15.90453,24580
15.91265,21456
15.92077,21264
15.92890,21769
15.93702,20023
15.94515,21269
15.95327,18309
15.96138,19747
15.96952,18610
15.97763,19361
15.98575,19616
15.99388,23853
16.00200,25545
16.01013,27188
16.01825,31148
16.02637,34525
16.03450,30400
16.04262,34940
16.05075,29588
16.05887,28858
16.06698,25503
16.07512,23522
16.08323,21659
16.09137,24580
16.09948,22265
16.10760,22877
16.11573,20363
16.12385,20936
16.13197,22214
16.14010,25584
16.14822,21757
16.15635,21435
16.16447,21511
16.17258,21352
16.18072,21371
16.18883,20934
16.19697,20680
16.20508,21852
16.21320,23064
16.22133,19360
16.22945,22440
16.23758,20340
16.24570,20468
16.25382,21409
16.26195,20076
16.27007,22432
16.27818,24644
16.28632,19154
16.29443,21816
16.30257,20821
16.31068,21681
16.31880,22590
16.32693,20958
16.33505,18912
16.34318,20147
16.35130,18602
16.35942,17787
16.36755,19343
16.37567,22535
16.38378,23115
16.39192,21240
16.40003,19476
16.40817,19967
16.41628,18458
16.42440,19527
16.43253,19197
16.44065,19360
16.44878,18751
16.45690,19303
16.46502,19671
16.47315,20614
16.48127,19956
16.48940,21169
16.49752,19960
16.50563,18696
16.51377,19817
16.52188,19723
16.53000,20546
16.53813,22400
16.54625,20223
16.55438,18836
16.56250,19529
16.57062,19018
16.57875,19614
16.58687,18135
16.59500,20853
16.60312,21895
16.61123,20004
16.61937,19609
16.62748,19945
16.63560,19751
16.64373,21732
16.65185,20594
16.65998,21995
16.66810,21157
16.67622,18293
16.68435,19435
16.69247,20031
16.70060,20301
16.70872,19977
16.71683,19067
16.72497,20787
16.73308,19047
16.74122,19178
16.74933,20544
16.75745,20901
16.76558,20182
16.77370,20093
16.78182,21392
16.78995,18465
16.79807,22052
16.80620,21232
16.81432,21619
16.82243,19611
16.83057,21287
16.83868,21508
16.84682,19866
16.85493,21198
16.86305,19586
16.87118,21243
16.87930,21257
16.88743,20059
16.89555,19260
16.90367,20975
16.91180,19450
16.91992,19382
16.92803,18193
16.93617,20317
16.94428,17393
16.95242,21292
16.96053,19751
16.96865,21164
16.97678,21260
16.98490,22059
16.99303,19754
17.00115,21063
17.00927,18888
17.01740,19264
17.02552,20610
17.03363,19372
17.04177,19577
17.04988,18935
17.05802,19879
17.06613,19082
17.07425,19791
17.08238,20706
17.09050,18047
17.09863,23853
17.10675,21983
17.11487,20176
17.12300,21404
17.13112,20615
17.13925,22237
17.14737,22094
17.15548,19496
17.16362,23931
17.17173,20372
17.17985,19692
17.18798,19101
17.19610,21034
17.20423,20676
17.21235,22618
17.22047,19039
17.22860,17422
17.23672,20109
17.24485,19119
17.25297,19374
17.26108,22848
17.26922,21303
17.27733,21326
17.28547,21405
17.29358,19529
17.30170,21867
17.30983,18584
17.31795,17571
17.32607,20214
17.33420,19232
17.34232,16768
17.35045,20679
17.35857,24312
17.36668,21985
17.37482,22037
17.38293,22751
17.39107,21357
17.39918,22463
17.40730,20411
17.41543,23785
17.42355,24695
17.43167,21812
17.43980,22754
17.44792,21739
17.45605,22046
17.46417,21000
17.47228,23602
17.48042,20454
17.48853,22731
17.49667,19909
17.50478,21510
17.51290,24515
17.52103,23868
17.52915,22098
17.53728,26996
17.54540,24587
17.55352,25308
17.56165,27354
17.56977,25093
17.57788,25096
17.58602,22126
17.59413,21998
17.60227,21798
17.61038,21448
17.61850,20510
17.62663,23120
17.63475,21276
17.64288,20285
17.65100,19873
17.65912,20258
17.66725,21595
17.67537,22000
17.68348,20204
17.69162,23738
17.69973,21148
17.70787,23027
17.71598,20700
17.72410,22081
17.73223,18360
17.74035,22847
17.74848,22992
17.75660,20292
17.76472,20379
17.77285,21238
17.78097,23150
17.78910,21784
17.79722,20980
17.80533,21146
17.81347,22344
17.82158,22281
17.82970,26608
17.83783,22395
17.84595,21487
17.85408,25594
17.86220,24865
17.87032,22674
17.87845,22092
17.88657,23420
17.89470,24968
17.90282,20910
17.91093,18800
17.91907,20317
17.92718,19504
17.93532,19808
17.94343,20874
17.95155,22292
17.95968,21593
17.96780,20279
17.97592,21160
17.98405,19251
17.99217,19970
18.00030,22807
18.00842,21335
18.01653,20510
18.02467,22237
18.03278,19438
18.04092,24872
18.04903,20981
18.05715,24297
18.06528,22686
18.07340,27386
18.08152,23991
18.08965,22262
18.09777,19980
18.10590,22847
18.11402,21772
18.12213,24106
18.13027,20711
18.13838,20602
18.14652,19848
18.15463,24895
18.16275,21838
18.17088,20410
18.17900,20097
18.18713,23875
18.19525,19438
18.20337,21130
18.21150,20802
18.21962,18888
18.22773,22138
18.23587,22609
18.24398,23322
18.25212,22384
18.26023,21451
18.26835,24371
18.27648,19905
18.28460,22355
18.29273,20997
18.30085,20454
18.30897,22369
18.31710,19789
18.32522,19429
18.33335,22258
18.34147,18995
18.34958,22423
18.35772,22973
18.36583,21452
18.37395,20678
18.38208,21780
18.39020,19759
18.39833,18336
18.40645,21205
18.41457,21081
18.42270,21286
18.43082,21447
18.43895,18316
18.44707,18143
18.45518,20883
18.46332,21111
18.47143,20007
18.47955,22653
18.48768,22911
18.49580,21044
18.50393,20726
18.51205,23079
18.52017,21313
18.52830,21482
18.53642,20882
18.54455,20274
18.55267,17326
18.56078,21739
18.56892,20875
18.57703,18361
18.58517,19276
18.59328,21107
18.60140,22742
18.60953,21972
18.61765,22187
18.62577,19225
18.63390,21290
18.64202,20199
18.65015,21095
18.65827,20561
18.66638,18637
18.67452,19540
18.68263,20314
18.69077,22643
18.69888,17532
18.70700,20349
18.71513,19474
18.72325,20599
18.73137,18958
18.73950,21554
18.74762,21789
18.75575,21045
18.76387,20328
18.77198,21090
18.78012,26045
18.78823,23063
18.79637,23780
18.80448,26354
18.81260,25009
18.82073,22700
18.82885,25210
18.83698,23615
18.84510,24870
18.85322,25417
18.86135,23362
18.86947,25603
18.87758,23627
18.88572,22155
18.89383,26658
18.90197,26774
18.91008,25428
18.91820,25858
18.92633,29667
18.93445,25950
18.94258,27607
18.95070,22764
18.95882,26530
18.96695,23540
18.97507,25413
18.98320,24711
18.99132,23514
18.99943,25151
19.00757,24443
19.01568,26643
19.02380,22861
19.03193,25212
19.04005,24784
19.04818,25143
19.05630,27600
19.06442,31960
19.07255,33468
19.08067,39337
19.08880,51335
19.09692,55134
19.10503,57783
19.11317,55639
19.12128,50672
19.12942,45003
19.13753,40171
19.14565,40223
19.15378,36147
19.16190,36128
19.17002,36034
19.17815,38685
19.18627,32012
19.19440,27252
19.20252,27342
19.21063,29001
19.21877,28568
19.22688,28363
19.23502,25105
19.24313,23701
19.25125,26358
19.25938,24195
19.26750,23842
19.27562,25752
19.28375,27845
19.29187,29412
19.30000,25351
19.30812,29944
19.31623,27894
19.32437,26085
19.33248,29859
19.34062,26677
19.34873,23981
19.35685,25954
19.36498,25695
19.37310,24252
19.38123,24844
19.38935,23225
19.39747,26092
19.40560,25128
19.41372,29307
19.42183,32192
19.42997,35612
19.43808,48719
19.44622,55689
19.45433,53417
19.46245,46578
19.47058,41440
19.47870,37458
19.48683,27632
19.49495,25754
19.50307,26659
19.51120,24637
19.51932,25496
19.52743,27249
19.53557,25724
19.54368,27591
19.55182,24957
19.55993,23803
19.56805,24068
19.57618,24638
19.58430,23961
19.59243,23663
19.60055,26931
19.60867,26119
19.61680,24968
19.62492,27199
19.63305,29442
19.64117,39899
19.64928,46181
19.65742,51565
19.66553,52001
19.67365,51835
19.68178,50060
19.68990,39564
19.69803,37932
19.70615,32200
19.71427,32840
19.72240,32153
19.73052,26864
19.73865,24621
19.74677,22580
19.75488,23108
19.76302,27287
19.77113,23658
19.77927,24854
19.78738,26078
19.79550,26714
19.80363,24791
19.81175,24846
19.81987,23496
19.82800,23933
19.83612,27798
19.84425,25547
19.85237,26616
19.86048,24359
19.86862,24562
19.87673,25001
19.88487,29398
19.89298,31978
19.90110,32461
19.90923,34522
19.91735,36547
19.92547,35235
19.93360,29947
19.94172,29947
19.94985,35052
19.95797,32613
19.96608,29487
19.97422,27611
19.98233,26541
19.99047,29634
19.99858,31920
20.00670,26329
20.01483,28296
20.02295,27996
20.03108,27184
20.03920,25809
20.04732,28448
20.05545,21228
20.06357,24136
20.07168,25809
20.07982,25494
20.08793,23683
20.09607,26736
20.10418,23145
20.11230,21804
20.12043,23294
20.12855,22730
20.13668,25015
20.14480,23345
20.15292,24956
20.16105,23842
20.16917,24173
20.17730,27228
20.18542,26998
20.19353,24231
20.20167,25257
20.20978,28924
20.21790,26095
20.22603,28997
20.23415,34345
20.24228,35155
20.25040,43514
20.25852,42870
20.26665,43958
20.27477,42103
20.28290,38467
20.29102,36670
20.29913,34811
20.30727,31722
20.31538,28376
20.32350,25935
20.33163,25237
20.33975,27059
20.34788,22318
20.35600,23669
20.36412,25273
20.37225,20491
20.38037,24160
20.38850,21936
20.39662,26610
20.40473,24407
20.41287,29894
20.42098,30994
20.42912,28989
20.43723,27442
20.44535,25425
20.45348,24447
20.46160,25616
20.46972,24533
20.47785,23390
20.48597,23026
20.49410,20908
20.50222,24140
20.51033,23362
20.51847,23654
20.52658,20730
20.53472,23848
20.54283,21037
20.55095,21473
20.55908,20501
20.56720,21440
20.57532,21129
20.58345,22416
20.59157,20335
20.59970,20820
20.60782,20914
20.61593,21251
20.62407,21674
20.63218,23111
20.64032,20589
20.64843,21460
20.65655,21339
20.66468,23260
20.67280,19441
20.68093,18802
20.68905,20715
20.69717,20094
20.70530,21095
20.71342,21127
20.72153,19438
20.72967,21894
20.73778,24330
20.74592,19347
20.75403,19619
20.76215,22711
20.77028,22107
20.77840,23336
20.78653,20442
20.79465,21391
20.80277,19825
20.81090,24268
20.81902,20768
20.82715,22571
20.83527,24990
20.84338,22830
20.85152,22771
20.85963,20373
20.86775,17759
20.87588,18885
20.88400,21658
20.89213,20934
20.90025,19174
20.90837,22201
20.91650,21219
20.92462,20024
20.93275,18868
20.94087,21122
20.94898,21925
20.95712,21615
20.96523,21499
20.97335,23034
20.98148,22913
20.98960,19373
20.99773,21209
21.00585,21004
21.01397,21279
21.02210,18764
21.03022,22629
21.03835,22596
21.04647,22102
21.05458,19440
21.06272,21222
21.07083,22351
21.07897,25554
21.08708,20818
21.09520,23297
21.10333,19177
21.11145,19434
21.11957,20376
21.12770,18252
21.13582,18004
21.14395,20708
21.15207,21140
21.16018,23298
21.16832,19866
21.17643,20827
21.18457,21099
21.19268,21350
21.20080,18816
21.20893,22048
21.21705,21477
21.22518,21031
21.23330,22138
21.24142,20525
21.24955,19960
21.25767,20651
21.26578,21646
21.27392,22289
21.28203,23268
21.29017,23049
21.29828,20569
21.30640,20762
21.31453,21720
21.32265,24405
21.33078,20395
21.33890,21930
21.34702,19908
21.35515,18977
21.36327,21183
21.37138,22176
21.37952,22432
21.38763,21870
21.39577,19118
21.40388,19856
21.41200,21301
21.42013,19433
21.42825,20613
21.43638,22100
21.44450,22929
21.45262,21905
21.46075,21657
21.46887,20418
21.47700,19604
21.48512,22620
21.49323,21517
21.50137,23547
21.50948,23553
21.51760,21731
21.52573,20946
21.53385,20062
21.54198,21082
21.55010,21004
21.55822,21948
21.56635,18908
21.57447,24587
21.58260,25539
21.59072,27633
21.59883,28850
21.60697,27085
21.61508,24654
21.62322,23642
21.63133,27937
21.63945,25666
21.64758,22385
21.65570,19727
21.66382,22907
21.67195,21797
21.68007,21677
21.68820,23223
21.69632,22444
21.70443,21821
21.71257,28477
21.72068,23152
21.72882,21006
21.73693,20300
21.74505,20555
21.75318,21600
21.76130,23581
21.76942,23253
21.77755,25589
21.78567,26381
21.79380,26120
21.80192,30597
21.81003,23834
21.81817,26192
21.82628,24965
21.83442,22297
21.84253,21623
21.85065,21888
21.85878,22705
21.86690,21918
21.87503,20624
21.88315,20821
21.89127,23064
21.89940,22750
21.90752,20069
21.91563,23057
21.92377,23474
21.93188,22859
21.94002,22550
21.94813,22816
21.95625,22469
21.96438,19915
21.97250,23637
21.98063,19928
21.98875,20762
21.99687,21592
22.00500,18097
22.01312,20715
22.02123,21659
22.02937,22149
22.03748,24774
22.04562,23274
22.05373,21734
22.06185,23240
22.06998,22940
22.07810,19660
22.08623,22463
22.09435,23024
22.10247,23981
22.11060,22761
22.11872,23965
22.12685,21529
22.13497,20874
22.14308,21781
22.15122,22334
22.15933,28678
22.16745,25242
22.17558,25025
22.18370,24014
22.19183,20688
22.19995,22458
22.20807,22392
22.21620,21363
22.22432,22290
22.23245,21554
22.24057,23509
22.24868,21102
22.25682,20714
22.26493,19105
22.27307,21727
22.28118,23698
22.28930,25805
22.29743,20711
22.30555,21763
22.31367,21170
22.32180,24691
22.32992,21120
22.33805,23644
22.34617,22175
22.35428,20246
22.36242,21208
22.37053,22052
22.37867,23387
22.38678,21810
22.39490,20084
22.40303,22982
22.41115,21655
22.41927,22148
22.42740,21172
22.43552,23140
22.44365,19810
22.45177,20490
22.45988,20725
22.46802,18201
22.47613,18624
22.48427,20391
22.49238,21433
22.50050,24990
22.50863,23612
22.51675,20890
22.52488,21012
22.53300,18200
22.54112,20396
22.54925,20112
22.55737,20975
22.56548,18439
22.57362,20022
22.58173,21136
22.58987,19427
22.59798,19471
22.60610,21574
22.61423,20012
22.62235,22515
22.63048,21314
22.63860,18291
22.64672,18941
22.65485,17351
22.66297,20262
22.67110,21616
22.67922,19900
22.68733,18253
22.69547,20883
22.70358,21789
22.71170,20056
22.71983,21693
22.72795,19837
22.73608,20225
22.74420,21301
22.75232,20053
22.76045,21354
22.76857,18780
22.77670,18274
22.78482,20344
22.79293,22876
22.80107,20567
22.80918,21235
22.81730,20235
22.82543,19994
22.83355,22210
22.84168,23303
22.84980,21588
22.85792,17811
22.86605,20453
22.87417,25497
22.88230,21793
22.89042,23042
22.89853,23453
22.90667,26503
22.91478,27005
22.92292,29894
22.93103,30263
22.93915,31640
22.94728,30589
22.95540,38378
22.96352,29945
22.97165,30069
22.97977,30194
22.98790,29464
22.99602,30161
23.00413,29690
23.01227,27711
23.02038,21975
23.02852,25076
23.03663,23684
23.04475,26084
23.05288,22886
23.06100,24478
23.06912,25485
23.07725,21931
23.08537,21881
23.09350,22784
23.10162,21697
23.10973,23905
23.11787,19821
23.12598,20077
23.13412,24749
23.14223,22154
23.15035,23858
23.15848,25252
23.16660,21833
23.17473,21276
23.18285,22030
23.19097,23092
23.19910,23326
23.20722,23473
23.21533,22457
23.22347,22520
23.23158,22457
23.23972,23122
23.24783,20946
23.25595,23362
23.26408,24448
23.27220,26027
23.28033,22052
23.28845,25209
23.29657,21962
23.30470,21805
23.31282,22146
23.32095,21470
23.32907,23344
23.33718,21006
23.34532,29187
23.35343,20887
23.36155,23954
23.36968,24596
23.37780,22728
23.38593,23600
23.39405,24349
23.40217,21025
23.41030,23194
23.41842,22887
23.42655,22196
23.43467,23069
23.44278,23674
23.45092,21650
23.45903,22026
23.46717,21650
23.47528,22600
23.48340,22866
23.49153,21168
23.49965,19981
23.50777,21008
23.51590,23179
23.52402,22105
23.53215,22721
23.54027,19221
23.54838,19977
23.55652,22301
23.56463,20639
23.57277,24711
23.58088,24151
23.58900,26305
23.59713,21141
23.60525,25313
23.61337,22933
23.62150,21310
23.62962,20936
23.63775,24965
23.64587,24456
23.65398,26072
23.66212,25046
23.67023,25391
23.67837,26700
23.68648,27518
23.69460,27227
23.70273,24575
23.71085,26176
23.71898,24512
23.72710,29139
23.73522,46910
23.74335,84191
23.75147,182942
23.75958,359277
23.76772,677746
23.77583,1165212
23.78397,1651510
23.79208,1846274
23.80020,1755993
23.80833,1441928
23.81645,1103419
23.82458,822046
23.83270,635594
23.84082,481226
23.84895,374685
23.85707,303825
23.86518,254262
23.87332,212702
23.88143,185623
23.88957,169519
23.89768,148831
23.90580,133114
23.91393,127786
23.92205,118001
23.93018,108112
23.93830,101340
23.94642,98220
23.95455,90222
23.96267,87281
23.97080,80555
23.97892,78300
23.98703,72562
23.99517,67586
24.00328,61949
24.01140,62270
24.01953,63839
24.02765,62567
24.03578,59430
24.04390,61595
24.05202,57475
24.06015,61968
24.06827,59624
24.07640,53929
24.08452,55273
24.09263,51594
24.10077,52402
24.10888,51067
24.11702,50248
24.12513,47032
24.13325,52220
24.14138,51372
24.14950,48596
24.15762,46218
24.16575,48090
24.17387,44629
24.18200,47104
24.19012,44083
24.19823,40180
24.20637,42834
24.21448,44774
24.22262,45076
24.23073,42885
24.23885,43133
24.24698,43488
24.25510,36910
24.26322,41200
24.27135,38312
24.27947,38566
24.28760,37803
24.29572,39401
24.30383,39103
24.31197,44762
24.32008,50838
24.32822,56528
24.33633,59561
24.34445,53703
24.35258,51079
24.36070,43982
24.36883,44145
24.37695,37385
24.38507,38529
24.39320,33499
24.40132,34331
24.40943,34490
24.41757,32634
24.42568,33961
24.43382,39958
24.44193,35822
24.45005,34966
24.45818,37737
24.46630,37333
24.47443,34589
24.48255,31908
24.49067,33366
24.49880,34820
24.50692,31704
24.51505,31127
24.52317,30429
24.53128,30953
24.53942,30308
24.54753,29239
24.55565,31907
24.56378,28916
24.57190,28349
24.58003,28719
24.58815,29230
24.59627,31258
24.60440,28905
24.61252,32970
24.62065,31488
24.62877,28813
24.63688,28076
24.64502,29014
24.65313,27867
24.66125,28345
24.66938,32342
24.67750,27844
24.68563,29552
24.69375,28514
24.70187,31303
24.71000,31033
24.71812,30136
24.72625,26661
24.73437,27299
24.74248,29661
24.75062,28288
24.75873,24123
24.76687,29650
24.77498,30296
24.78310,29192
24.79123,30614
24.79935,29126
24.80747,29068
24.81560,25818
24.82372,26238
24.83185,25127
24.83997,28872
24.84808,27677
24.85622,26971
24.86433,26807
24.87247,26710
24.88058,25484
24.88870,24900
24.89683,23325
24.90495,29494
24.91307,27087
24.92120,27198
24.92932,24611
24.93745,28981
24.94557,25447
24.95368,26696
24.96182,22005
24.96993,25110
24.97807,24762
24.98618,25712
24.99430,25613
25.00243,27390
25.01055,23111
25.01868,26447
25.02680,24876
25.03492,25777
25.04305,26655
25.05117,27481
25.05928,26005
25.06742,25292
25.07553,25577
25.08367,24993
25.09178,26780
25.09990,24528
25.10803,24987
25.11615,24914
25.12428,24581
25.13240,29132
25.14052,23692
25.14865,25485
25.15677,27502
25.16490,25528
25.17302,30769
25.18113,26683
25.18927,27482
25.19738,24068
25.20550,22677
25.21363,27040
25.22175,28882
25.22988,22125
25.23800,25207
25.24612,23060
25.25425,25475
25.26237,22892
25.27050,24362
25.27862,27683
25.28673,25471
25.29487,30059
25.30298,29637
25.31110,26515
25.31923,26000
25.32735,28135
25.33548,27401
25.34360,26137
25.35172,25342
25.35985,25474
25.36797,24653
25.37610,23058
25.38422,22679
25.39233,26389
25.40047,26922
25.40858,26028
25.41672,26056
25.42483,24266
25.43295,23400
25.44108,21449
25.44920,21117
25.45732,22431
25.46545,22912
25.47357,25741
25.48170,25732
25.48982,24841
25.49793,23454
25.50607,26203
25.51418,24643
25.52232,25142
25.53043,25779
25.53855,23493
25.54668,23086
25.55480,24956
25.56293,24705
25.57105,23487
25.57917,23662
25.58730,24091
25.59542,23851
25.60353,23788
25.61167,23755
25.61978,22213
25.62792,23577
25.63603,20590
25.64415,22081
25.65228,22363
25.66040,22737
25.66853,20506
25.67665,22683
25.68477,20780
25.69290,23460
25.70102,21040
25.70913,20467
25.71727,19879
25.72538,21655
25.73352,23977
25.74163,22266
25.74975,21483
25.75788,20293
25.76600,24094
25.77413,21696
25.78225,21620
25.79037,21299
25.79850,24029
25.80662,20729
25.81475,23918
25.82287,23012
25.83098,22637
25.83912,20267
25.84723,20940
25.85535,20992
25.86348,25139
25.87160,23411
25.87973,21300
25.88785,24448
25.89597,22685
25.90410,21036
25.91222,23339
25.92035,19601
25.92847,19585
25.93658,23387
25.94472,19519
25.95283,20711
25.96095,22837
25.96908,22337
25.97720,18702
25.98533,21257
25.99345,20156
26.00157,20540
26.00970,22798
26.01782,20454
26.02595,21962
26.03407,21373
26.04218,20710
26.05032,20529
26.05843,19389
26.06657,20045
26.07468,25636
26.08280,21956
26.09093,20497
26.09905,20958
26.10717,24654
26.11530,23277
26.12342,23950
26.13155,24759
26.13967,24535
26.14778,25557
26.15592,25278
26.16403,26069
26.17217,24560
26.18028,26206
26.18840,25051
26.19653,24830
26.20465,22231
26.21278,24559
26.22090,24381
26.22902,21939
26.23715,21785
26.24527,25200
26.25338,21860
26.26152,18705
26.26963,24470
26.27777,21897
26.28588,22102
26.29400,20292
26.30213,22068
26.31025,22753
26.31838,21894
26.32650,23084
26.33462,19720
26.34275,22924
26.35087,22491
26.35898,22870
26.36712,19523
26.37523,22448
26.38337,22024
26.39148,20907
26.39960,23004
26.40773,20261
26.41585,21613
26.42398,21093
26.43210,18441
26.44022,22487
26.44835,22622
26.45647,22363
26.46460,21549
26.47272,24774
26.48083,20657
26.48897,19732
26.49708,22607
26.50520,20380
26.51333,20753
26.52145,20452
26.52958,22005
26.53770,20448
26.54582,19776
26.55395,20404
26.56207,22149
26.57020,23456
26.57832,22108
26.58643,20353
26.59457,20612
26.60268,20655
26.61082,20788
26.61893,22385
26.62705,20739
26.63518,20885
26.64330,22248
26.65142,22306
26.65955,22420
26.66767,22309
26.67580,20101
26.68392,23115
26.69203,22544
26.70017,20779
26.70828,23041
26.71642,22992
26.72453,22296
26.73265,23097
26.74078,20399
26.74890,21512
26.75702,23375
26.76515,22362
26.77327,19377
26.78140,24117
26.78952,19530
26.79763,21090
26.80577,21776
26.81388,18886
26.82202,23545
26.83013,23500
26.83825,21784
26.84638,21015
26.85450,20273
26.86263,22081
26.87075,22289
26.87887,24122
26.88700,22020
26.89512,22721
26.90323,20046
26.91137,21696
26.91948,22927
26.92762,21745
26.93573,25448
26.94385,29328
26.95198,39847
26.96010,61618
26.96823,92071
26.97635,139615
26.98447,185566
26.99260,229996
27.00072,259847
27.00885,259778
27.01697,251765
27.02508,209547
27.03322,174948
27.04133,138416
27.04945,107976
27.05758,96618
27.06570,78006
27.07383,72243
27.08195,65191
27.09007,55086
27.09820,49786
27.10632,45858
27.11445,47367
27.12257,43125
27.13068,39897
27.13882,37128
27.14693,38041
27.15505,37676
27.16318,34862
27.17130,34555
27.17943,34179
27.18755,32025
27.19567,34039
27.20380,32644
27.21192,32031
27.22005,31925
27.22817,32877
27.23628,30475
27.24442,29488
27.25253,26287
27.26067,28492
27.26878,29492
27.27690,27624
27.28503,30459
27.29315,27567
27.30127,28932
27.30940,26034
27.31752,30971
27.32565,28758
27.33377,25998
27.34188,28672
27.35002,26767
27.35813,27411
27.36627,24048
27.37438,27822
27.38250,25702
27.39063,28570
27.39875,26918
27.40687,25571
27.41500,27008
27.42312,27792
27.43125,26131
27.43937,23502
27.44748,23693
27.45562,24630
27.46373,25525
27.47187,25859
27.47998,24891
27.48810,24098
27.49623,26037
27.50435,25312
27.51248,28542
27.52060,26066
27.52872,28346
27.53685,24965
27.54497,24800
27.55308,26900
27.56122,25210
27.56933,28515
27.57747,24490
27.58558,25716
27.59370,24663
27.60183,24051
27.60995,23128
27.61808,24156
27.62620,23906
27.63432,23433
27.64245,22829
27.65057,22736
27.65870,22820
27.66682,24981
27.67493,22094
27.68307,22329
27.69118,24607
27.69930,21751
27.70743,19701
27.71555,23250
27.72368,22896
27.73180,24552
27.73992,23421
27.74805,23784
27.75617,24581
27.76430,21368
27.77242,21426
27.78053,26396
27.78867,24253
27.79678,31154
27.80490,22583
27.81303,23735
27.82115,26031
27.82928,23639
27.83740,21449
27.84552,20101
27.85365,21634
27.86177,23173
27.86990,21247
27.87802,21205
27.88613,20677
27.89427,21485
27.90238,20895
27.91052,22641
27.91863,23541
27.92675,21412
27.93488,22897
27.94300,24819
27.95112,18892
27.95925,18632
27.96737,19991
27.97550,21096
27.98362,22129
27.99173,23414
27.99987,22228
28.00798,22437
28.01612,22636
28.02423,22320
28.03235,20978
28.04048,22218
28.04860,22050
28.05673,24318
28.06485,19374
28.07297,24975
28.08110,24560
28.08922,24874
28.09733,25003
28.10547,21914
28.11358,28739
28.12172,26796
28.12983,24298
28.13795,23966
28.14608,26024
28.15420,24237
28.16233,21783
28.17045,22144
28.17857,21416
28.18670,19413
28.19482,22471
28.20293,22499
28.21107,23223
28.21918,19919
28.22732,21811
28.23543,21881
28.24355,21222
28.25168,27227
28.25980,29920
28.26793,34562
28.27605,48882
28.28417,58544
28.29230,69799
28.30042,77864
28.30855,83055
28.31667,94149
28.32478,86413
28.33292,82978
28.34103,83141
28.34915,80614
28.35728,71252
28.36540,67992
28.37353,61361
28.38165,57068
28.38977,52336
28.39790,50658
28.40602,44367
28.41415,42444
28.42227,40776
28.43038,36694
28.43852,40316
28.44663,34564
28.45475,32781
28.46288,32375
28.47100,32809
28.47913,32711
28.48725,31496
28.49537,27319
28.50350,32898
28.51162,29084
28.51975,26348
28.52787,27841
28.53598,25839
28.54412,28940
28.55223,29607
28.56037,28257
28.56848,26005
28.57660,28556
28.58473,29101
28.59285,24332
28.60097,26118
28.60910,27416
28.61722,27010
28.62535,25079
28.63347,25198
28.64158,27209
28.64972,28973
28.65783,27754
28.66597,27869
28.67408,30276
28.68220,37437
28.69033,36047
28.69845,36303
28.70658,40406
28.71470,34481
28.72282,30150
28.73095,28022
28.73907,25971
28.74718,24035
28.75532,27798
28.76343,25923
28.77157,22278
28.77968,25399
28.78780,22176
28.79593,22790
28.80405,23172
28.81218,25588
28.82030,23770
28.82842,25958
28.83655,23847
28.84467,25627
28.85280,24949
28.86092,25509
28.86903,27080
28.87717,25593
28.88528,26061
28.89340,25439
28.90153,28781
28.90965,26126
28.91778,29335
28.92590,26885
28.93402,25179
28.94215,23703
28.95027,21921
28.95840,24858
28.96652,28011
28.97463,24604
28.98277,24685
28.99088,25189
28.99900,23993
29.00713,24946
29.01525,25059
29.02338,19299
29.03150,24662
29.03962,25729
29.04775,22074
29.05587,22858
29.06400,25247
29.07212,20388
29.08023,23887
29.08837,28691
29.09648,22550
29.10462,23712
29.11273,22407
29.12085,24699
29.12898,25252
29.13710,23152
29.14522,22724
29.15335,20524
29.16147,21251
29.16960,26560
29.17772,22786
29.18583,21828
29.19397,24953
29.20208,21640
29.21022,24474
29.21833,22416
29.22645,20999
29.23458,24057
29.24270,22907
29.25082,25965
29.25895,21248
29.26707,22204
29.27520,22792
29.28332,20938
29.29143,22185
29.29957,25000
29.30768,21609
29.31582,20161
29.32393,23389
29.33205,22541
29.34018,22817
29.34830,22683
29.35643,20829
29.36455,23359
29.37267,22195
29.38080,22448
29.38892,21342
29.39703,23285
29.40517,22399
29.41328,20805
29.42142,22806
29.42953,21393
29.43765,23674
29.44578,25762
29.45390,25399
29.46203,28551
29.47015,22295
29.47827,23199
29.48640,25893
29.49452,25433
29.50265,24148
29.51077,23533
29.51888,23918
29.52702,21723
29.53513,23389
29.54325,20984
29.55138,24178
29.55950,22943
29.56763,23527
29.57575,21977
29.58387,20686
29.59200,24215
29.60012,26140
29.60825,21696
29.61637,22881
29.62448,22656
29.63262,25662
29.64073,23652
29.64885,22640
29.65698,22633
29.66510,20808
29.67323,20725
29.68135,19973
29.68947,23517
29.69760,22811
29.70572,23469
29.71385,27913
29.72197,22460
29.73008,22360
29.73822,25050
29.74633,23893
29.75447,23022
29.76258,22286
29.77070,22595
29.77883,21231
29.78695,22833
29.79507,21182
29.80320,20980
29.81132,23243
29.81945,21522
29.82757,22691
29.83568,21952
29.84382,24306
29.85193,24979
29.86007,22280
29.86818,23341
29.87630,26252
29.88443,27330
29.89255,32397
29.90068,33220
29.90880,37494
29.91692,40737
29.92505,45413
29.93317,46032
29.94128,48410
29.94942,50524
29.95753,51111
29.96567,50922
29.97378,52753
29.98190,49358
29.99003,46006
29.99815,42942
30.00628,43268
30.01440,38266
30.02252,37231
30.03065,33467
30.03877,36443
30.04688,32769
30.05502,32374
30.06313,32030
30.07127,32203
30.07938,29325
30.08750,31334
30.09563,33388
30.10375,34062
30.11188,29248
30.12000,27868
30.12812,26563
30.13625,27395
30.14437,28755
30.15250,27127
30.16062,26216
30.16873,25549
30.17687,27325
30.18498,27707
30.19310,26230
30.20123,28930
30.20935,26521
30.21748,24498
30.22560,22977
30.23372,24890
30.24185,25285
30.24997,25345
30.25810,26219
30.26622,21666
30.27433,28102
30.28247,23555
30.29058,26256
30.29870,22256
30.30683,25766
30.31495,25595
30.32308,23410
30.33120,24923
30.33932,25404
30.34745,23988
30.35557,22999
30.36370,25653
30.37182,25087
30.37993,25488
30.38807,24685
30.39618,24891
30.40432,24589
30.41243,22156
30.42055,24953
30.42868,24488
30.43680,23898
30.44492,24494
30.45305,22148
30.46117,26072
30.46930,22657
30.47742,22141
30.48553,23757
30.49367,22817
30.50178,24580
30.50992,21214
30.51803,22735
30.52615,24497
30.53428,26319
30.54240,22722
30.55053,24179
30.55865,25483
30.56677,22026
30.57490,22724
30.58302,22602
30.59113,24561
30.59927,23459
30.60738,21411
30.61552,25574
30.62363,25897
30.63175,22472
30.63988,24024
30.64800,22354
30.65613,24120
30.66425,22611
30.67237,22460
30.68050,20000
30.68862,23669
30.69673,22711
30.70487,23112
30.71298,21698
30.72112,21634
30.72923,20687
30.73735,22054
30.74548,23832
30.75360,24338
30.76173,23396
30.76985,20998
30.77797,23239
30.78610,23736
30.79422,20675
30.80235,23497
30.81047,22537
30.81858,24845
30.82672,27149
30.83483,23022
30.84295,24706
30.85108,22050
30.85920,21684
30.86733,23179
30.87545,20986
30.88357,21700
30.89170,27065
30.89982,22330
30.90795,23828
30.91607,22017
30.92418,21770
30.93232,22314
30.94043,21926
30.94857,23166
30.95668,22431
30.96480,21861
30.97293,22272
30.98105,20091
30.98917,19508
30.99730,24734
31.00542,23782
31.01355,20592
31.02167,25524
31.02978,24317
31.03792,23118
31.04603,20372
31.05417,25138
31.06228,22686
31.07040,23630
31.07853,24641
31.08665,23956
31.09477,25454
31.10290,26911
31.11102,24267
31.11915,25210
31.12727,25141
31.13538,26287
31.14352,23386
31.15163,23532
31.15977,27858
31.16788,31175
31.17600,38599
31.18413,54392
31.19225,63460
31.20038,82376
31.20850,92032
31.21662,91188
31.22475,80158
31.23287,75059
31.24098,52541
31.24912,43639
31.25723,35436
31.26537,29628
31.27348,28832
31.28160,26381
31.28973,24290
31.29785,25235
31.30598,27283
31.31410,26723
31.32222,27127
31.33035,27030
31.33847,25768
31.34660,23162
31.35472,23773
31.36283,20645
31.37097,27129
31.37908,26307
31.38720,24762
31.39533,26945
31.40345,27178
31.41158,25006
31.41970,25775
31.42782,26994
31.43595,24167
31.44407,23987
31.45220,21866
31.46032,23637
31.46843,23658
31.47657,24982
31.48468,23363
31.49280,21251
31.50093,23710
31.50905,22216
31.51718,21973
31.52530,23244
31.53342,20770
31.54155,23661
31.54967,22863
31.55780,20399
31.56592,22241
31.57403,24807
31.58217,23648
31.59028,25423
31.59842,24283
31.60653,23895
31.61465,22684
31.62278,24012
31.63090,24567
31.63902,24773
31.64715,24963
31.65527,26261
31.66340,24510
31.67152,23932
31.67963,22900
31.68777,26347
31.69588,25691
31.70402,25140
31.71213,24909
31.72025,26715
31.72838,23334
31.73650,24565
31.74462,21505
31.75275,21050
31.76087,25327
31.76900,24281
31.77712,27069
31.78523,22208
31.79337,23527
31.80148,22369
31.80962,24388
31.81773,25858
31.82585,28025
31.83398,30638
31.84210,31251
31.85023,35405
31.85835,37076
31.86647,39503
31.87460,42504
31.88272,41285
31.89083,44711
31.89897,39177
31.90708,38820
31.91522,36891
31.92333,38824
31.93145,34921
31.93958,39304
31.94770,36294
31.95583,29709
31.96395,32710
31.97207,34764
31.98020,33351
31.98832,31621
31.99645,30261
32.00457,32179
32.01268,30306
32.02082,26591
32.02893,29293
32.03705,30047
32.04518,30153
32.05330,29574
32.06143,27879
32.06955,28591
32.07767,25293
32.08580,26788
32.09392,26200
32.10205,25423
32.11017,26007
32.11828,27953
32.12642,24332
32.13453,25790
32.14265,22774
32.15078,25251
32.15890,27043
32.16703,25785
32.17515,25518
32.18327,25269
32.19140,24833
32.19952,25475
32.20765,25275
32.21577,26390
32.22388,25532
32.23202,26891
32.24013,25591
32.24827,25316
32.25638,23027
32.26450,21518
32.27263,24448
32.28075,25870
32.28887,24483
32.29700,27246
32.30512,27253
32.31325,27340
32.32137,28648
32.32948,29744
32.33762,24472
32.34573,27052
32.35387,28714
32.36198,28568
32.37010,28854
32.37823,25425
32.38635,24814
32.39448,23774
32.40260,21605
32.41072,25284
32.41885,24365
32.42697,25837
32.43508,24204
32.44322,21605
32.45133,22189
32.45947,22525
32.46758,25397
32.47570,25794
32.48383,25122
32.49195,25876
32.50008,27168
32.50820,25048
32.51632,25951
32.52445,24318
32.53257,25456
32.54068,25709
32.54882,25001
32.55693,26165
32.56507,28773
32.57318,33414
32.58130,32932
32.58943,35442
32.59755,32817
32.60568,34202
32.61380,29333
32.62192,27740
32.63005,26502
32.63817,26324
32.64630,25143
32.65442,22924
32.66253,24647
32.67067,23845
32.67878,23960
32.68690,26543
32.69503,23332
32.70315,26256
32.71128,26564
32.71940,29015
32.72752,27076
32.73565,25380
32.74377,22469
32.75190,28925
32.76002,25570
32.76813,24961
32.77627,25397
32.78438,25723
32.79250,27328
32.80063,26054
32.80875,23244
32.81688,24899
32.82500,24769
32.83312,24005
32.84125,26017
32.84937,26144
32.85750,24881
32.86562,23332
32.87373,23280
32.88187,23909
32.88998,22486
32.89812,24159
32.90623,24729
32.91435,23144
32.92248,25314
32.93060,25588
32.93872,27686
32.94685,24865
32.95497,24463
32.96310,27287
32.97122,23411
32.97933,26482
32.98747,25417
32.99558,25341
33.00372,27933
33.01183,25930
33.01995,25475
33.02808,23078
33.03620,25130
33.04433,24862
33.05245,25606
33.06057,27518
33.06870,24200
33.07682,27952
33.08493,28660
33.09307,32018
33.10118,33261
33.10932,34448
33.11743,38126
33.12555,34975
33.13368,35472
33.14180,28808
33.14993,30053
33.15805,25188
33.16617,23808
33.17430,29124
33.18242,27356
33.19053,26546
33.19867,23556
33.20678,28676
33.21492,25622
33.22303,26248
33.23115,26856
33.23928,24659
33.24740,29557
33.25553,25716
33.26365,25089
33.27177,23011
33.27990,23925
33.28802,25131
33.29615,26308
33.30427,26549
33.31238,31190
33.32052,25676
33.32863,28568
33.33675,25615
33.34488,25991
33.35300,24321
33.36113,25086
33.36925,23822
33.37737,28437
33.38550,23977
33.39362,26791
33.40175,25697
33.40987,26794
33.41798,25793
33.42612,25438
33.43423,28294
33.44237,23323
33.45048,26924
33.45860,26569
33.46673,29331
33.47485,25885
33.48297,27452
33.49110,24750
33.49922,27486
33.50735,25170
33.51547,23715
33.52358,23850
33.53172,24934
33.53983,27487
33.54797,27200
33.55608,29408
33.56420,27355
33.57233,26012
33.58045,27240
33.58857,26803
33.59670,25334
33.60482,25732
33.61295,24398
33.62107,27217
33.62918,30587
33.63732,28067
33.64543,26916
33.65357,27479
33.66168,28773
33.66980,29321
33.67793,28969
33.68605,27732
33.69418,27533
33.70230,29029
33.71042,28059
33.71855,32726
33.72667,26986
33.73478,32349
33.74292,28133
33.75103,30440
33.75917,29260
33.76728,28451
33.77540,29792
33.78353,29340
33.79165,30467
33.79978,28192
33.80790,29846
33.81602,28241
33.82415,29855
33.83227,31520
33.84038,30036
33.84852,29978
33.85663,28381
33.86477,25782
33.87288,31612
33.88100,28725
33.88913,29156
33.89725,31328
33.90538,28741
33.91350,28178
33.92162,24723
33.92975,29384
33.93787,28651
33.94600,28039
33.95412,26011
33.96223,30214
33.97037,29273
33.97848,28617
33.98660,28591
33.99473,25690
34.00285,27885
34.01098,27483
34.01910,27690
34.02722,26475
34.03535,28566
34.04347,27475
34.05160,30632
34.05972,28403
34.06783,28294
34.07597,28623
34.08408,27935
34.09222,27964
34.10033,30042
34.10845,27061
34.11658,27484
34.12470,26461
34.13282,27454
34.14095,29004
34.14907,27256
34.15720,30121
34.16532,27945
34.17343,30569
34.18157,29157
34.18968,29617
34.19782,26024
34.20593,32148
34.21405,30300
34.22218,27544
34.23030,28689
34.23843,30160
34.24655,28175
34.25467,26606
34.26280,28007
34.27092,30109
34.27903,25275
34.28717,28538
34.29528,30128
34.30342,29118
34.31153,27636
34.31965,28147
34.32778,28553
34.33590,27376
34.34403,27891
34.35215,26358
34.36027,30691
34.36840,33039
34.37652,30261
34.38463,29559
34.39277,28519
34.40088,27139
34.40902,29465
34.41713,28980
34.42525,29947
34.43338,30172
34.44150,34403
34.44963,35479
34.45775,42819
34.46587,47454
34.47400,47775
34.48212,53209
34.49025,49492
34.49837,50420
34.50648,46549
34.51462,46179
34.52273,41982
34.53085,36145
34.53898,38796
34.54710,37969
34.55523,38165
34.56335,37573
34.57147,38248
34.57960,32947
34.58772,35929
34.59585,36152
34.60397,32185
34.61208,35002
34.62022,31942
34.62833,32464
34.63645,34967
34.64458,29560
34.65270,32132
34.66083,33752
34.66895,29164
34.67707,33716
34.68520,32211
34.69332,28046
34.70145,28291
34.70957,27156
34.71768,29632
34.72582,28788
34.73393,29873
34.74207,28775
34.75018,30236
34.75830,29946
34.76643,29129
34.77455,28953
34.78267,24825
34.79080,28502
34.79892,29129
34.80705,30843
34.81517,30612
34.82328,30995
34.83142,29911
34.83953,31314
34.84767,32115
34.85578,30266
34.86390,33903
34.87203,29197
34.88015,27933
34.88828,28025
34.89640,31613
34.90452,34404
34.91265,29515
34.92077,30366
34.92888,28402
34.93702,32598
34.94513,33499
34.95327,29092
34.96138,29378
34.96950,31342
34.97763,29867
34.98575,32078
34.99388,29468
35.00200,30673
35.01012,29241
35.01825,30572
35.02637,29996
35.03448,30577
35.04262,36324
35.05073,31341
35.05887,31374
35.06698,31198
35.07510,35411
35.08323,31566
35.09135,28921
35.09948,28317
35.10760,30285
35.11572,29334
35.12385,31499
35.13197,29665
35.14010,32842
35.14822,31390
35.15633,31814
35.16447,33478
35.17258,30592
35.18070,29768
35.18883,28960
35.19695,29765
35.20508,27681
35.21320,31292
35.22132,30230
35.22945,31474
35.23757,31411
35.24570,29257
35.25382,31115
35.26193,31607
35.27007,29928
35.27818,30870
35.28632,30067
35.29443,32961
35.30255,31963
35.31068,31849
35.31880,36850
35.32692,32275
35.33505,30212
35.34317,32581
35.35130,31380
35.35942,30949
35.36753,29546
35.37567,32909
35.38378,30865
35.39192,29268
35.40003,33505
35.40815,31217
35.41628,30175
35.42440,32308
35.43252,30830
35.44065,32378
35.44877,33141
35.45690,37480
35.46502,34389
35.47313,33628
35.48127,32704
35.48938,30919
35.49752,32151
35.50563,30294
35.51375,32616
35.52188,32019
35.53000,32455
35.53813,32663
35.54625,32710
35.55437,33315
35.56250,34365
35.57062,36250
35.57873,33372
35.58687,36368
35.59498,37758
35.60312,35418
35.61123,34348
35.61935,35957
35.62748,36804
35.63560,36210
35.64373,33344
35.65185,35004
35.65997,35784
35.66810,36141
35.67622,31606
35.68433,35451
35.69247,33626
35.70058,34150
35.70872,34359
35.71683,32244
35.72495,30886
35.73308,27781
35.74120,32761
35.74933,33812
35.75745,30832
35.76557,31832
35.77370,31535
35.78182,33979
35.78995,34500
35.79807,32104
35.80618,33054
35.81432,30782
35.82243,34730
35.83055,31922
35.83868,30541
35.84680,32354
35.85493,34020
35.86305,35819
35.87117,31958
35.87930,31150
35.88742,32061
35.89555,31017
35.90367,33813
35.91178,33138
35.91992,33278
35.92803,35302
35.93617,36643
35.94428,31915
35.95240,31853
35.96053,36049
35.96865,32976
35.97677,33893
35.98490,36796
35.99302,35654
36.00115,34979
36.00927,37333
36.01738,35106
36.02552,38333
36.03363,34408
36.04177,38035
36.04988,35774
36.05800,37106
36.06613,32374
36.07425,32682
36.08237,36449
36.09050,36779
36.09862,37381
36.10675,35455
36.11487,35641
36.12298,30415
36.13112,32386
36.13923,35840
36.14737,33798
36.15548,37863
36.16360,38090
36.17173,35204
36.17985,34550
36.18798,34561
36.19610,36799
36.20422,38109
36.21235,42659
36.22047,46980
36.22858,44336
36.23672,45924
36.24483,45756
36.25297,39787
36.26108,40105
36.26920,37753
36.27733,34412
36.28545,34594
36.29358,38906
36.30170,37063
36.30982,35937
36.31795,39336
36.32607,36990
36.33420,36485
36.34232,37232
36.35043,39246
36.35857,36581
36.36668,34754
36.37480,37604
36.38293,33734
36.39105,38495
36.39918,34866
36.40730,38352
36.41542,35079
36.42355,38284
36.43167,34120
36.43980,38988
36.44792,36145
36.45603,36472
36.46417,37460
36.47228,37998
36.48040,35288
36.48853,35781
36.49665,38812
36.50478,35708
36.51290,36422
36.52102,36255
36.52915,39559
36.53727,36608
36.54540,35716
36.55352,37278
36.56163,38026
36.56977,38603
36.57788,34305
36.58602,40499
36.59413,33956
36.60225,36285
36.61038,33652
36.61850,36293
36.62662,38975
36.63475,41955
36.64287,36838
36.65100,38237
36.65912,34534
36.66723,41040
36.67537,35610
36.68348,36005
36.69162,35239
36.69973,36497
36.70785,36328
36.71598,38854
36.72410,37992
36.73222,39189
36.74035,35740
36.74847,35998
36.75660,37898
36.76472,38141
36.77283,39128
36.78097,41394
36.78908,36672
36.79722,35567
36.80533,36022
36.81345,35489
36.82158,38208
36.82970,35343
36.83783,39219
36.84595,40436
36.85407,41578
36.86220,38395
36.87032,40414
36.87843,40429
36.88657,40242
36.89468,36400
36.90282,40135
36.91093,38737
36.91905,39885
36.92718,37460
36.93530,36285
36.94343,38377
36.95155,39024
36.95967,41367
36.96780,41668
36.97592,39332
36.98405,39700
36.99217,40582
37.00028,40191
37.00842,45197
37.01653,48451
37.02465,46650
37.03278,53043
37.04090,51607
37.04903,45440
37.05715,46439
37.06527,43171
37.07340,47306
37.08152,41215
37.08965,43250
37.09777,44590
37.10588,38589
37.11402,38513
37.12213,41415
37.13025,40464
37.13838,37536
37.14650,41485
37.15463,43015
37.16275,44424
37.17087,40400
37.17900,40231
37.18712,45884
37.19525,41435
37.20337,42044
37.21148,41410
37.21962,40717
37.22773,45303
37.23587,44765
37.24398,43637
37.25210,52420
37.26023,56611
37.26835,56856
37.27647,55443
37.28460,57054
37.29272,55121
37.30085,55420
37.30897,54098
37.31708,48702
37.32522,50698
37.33333,46892
37.34147,47534
37.34958,47615
37.35770,46753
37.36583,46559
37.37395,47080
37.38208,42757
37.39020,45063
37.39832,42904
37.40645,44375
37.41457,43812
37.42268,41476
37.43082,43845
37.43893,44799
37.44707,48222
37.45518,44258
37.46330,44943
37.47143,44015
37.47955,42780
37.48768,42073
