Z:\data\JTB-E02\BACandBLUE\JTB-E02-197-11.D Thu Feb 21 12:17:10 2019
Start of data points
2.09538,74730
2.10350,76916
2.11163,71312
2.11975,71066
2.12788,72625
2.13600,69321
2.14412,65394
2.15225,64966
2.16037,62269
2.16850,66110
2.17662,63246
2.18473,62842
2.19287,63346
2.20098,62100
2.20910,57117
2.21723,63788
2.22535,63237
2.23348,106366
2.24160,571694
2.24972,1481243
2.25785,1511936
2.26597,945638
2.27410,531961
2.28222,394423
2.29033,336199
2.29847,302895
2.30658,274190
2.31472,244100
2.32283,217728
2.33095,200098
2.33908,181983
2.34720,171364
2.35532,160616
2.36345,167864
2.37157,150467
2.37970,141520
2.38782,149377
2.39593,164014
2.40407,152738
2.41218,149683
2.42032,142625
2.42843,135928
2.43655,125396
2.44468,129834
2.45280,116899
2.46092,121524
2.46905,132878
2.47717,124666
2.48530,123598
2.49342,108491
2.50153,110257
2.50967,112644
2.51778,112990
2.52592,112580
2.53403,111536
2.54215,108137
2.55028,105100
2.55840,105144
2.56653,97534
2.57465,99743
2.58277,105224
2.59090,111659
2.59902,116899
2.60713,107314
2.61527,101402
2.62338,100170
2.63152,102912
2.63963,91913
2.64775,95141
2.65588,94701
2.66400,92809
2.67213,95115
2.68025,90483
2.68837,90493
2.69650,89226
2.70462,91709
2.71273,85617
2.72087,92509
2.72898,82433
2.73712,82358
2.74523,84380
2.75335,87803
2.76148,85861
2.76960,90638
2.77773,87887
2.78585,94156
2.79397,89267
2.80210,89511
2.81022,82078
2.81835,83238
2.82647,81817
2.83458,83311
2.84272,85838
2.85083,84371
2.85895,87578
2.86708,83723
2.87520,85658
2.88333,81700
2.89145,83388
2.89957,83590
2.90770,84153
2.91582,85531
2.92395,72438
2.93207,78476
2.94018,75663
2.94832,83829
2.95643,79190
2.96457,83304
2.97268,79659
2.98080,89522
2.98893,83382
2.99705,83154
3.00517,79427
3.01330,77363
3.02142,80670
3.02955,76100
3.03767,79212
3.04578,81280
3.05392,75498
3.06203,79223
3.07017,81283
3.07828,88868
3.08640,107921
3.09453,121692
3.10265,104705
3.11077,92433
3.11890,86854
3.12702,86250
3.13515,80664
3.14327,77673
3.15138,81222
3.15952,78734
3.16763,78296
3.17577,75479
3.18388,78392
3.19200,73252
3.20013,72306
3.20825,73405
3.21638,80009
3.22450,76239
3.23262,71125
3.24075,69853
3.24887,75652
3.25698,82411
3.26512,165782
3.27323,540404
3.28137,1467252
3.28948,2579892
3.29760,2992205
3.30573,2572449
3.31385,1851642
3.32198,1303753
3.33010,980842
3.33822,789228
3.34635,675481
3.35447,565692
3.36260,498601
3.37072,444212
3.37883,395677
3.38697,374638
3.39508,331149
3.40320,321687
3.41133,297331
3.41945,279339
3.42758,262559
3.43570,251872
3.44382,237604
3.45195,235739
3.46007,232217
3.46820,224271
3.47632,224177
3.48443,203680
3.49257,204982
3.50068,208065
3.50880,198216
3.51693,187479
3.52505,188301
3.53318,185805
3.54130,178068
3.54942,181641
3.55755,184333
3.56567,185692
3.57380,175266
3.58192,175159
3.59003,165361
3.59817,168819
3.60628,173519
3.61442,163640
3.62253,162682
3.63065,160835
3.63878,156816
3.64690,159650
3.65502,151324
3.66315,153346
3.67127,160609
3.67940,151345
3.68752,147801
3.69563,148654
3.70377,150966
3.71188,146438
3.72002,139874
3.72813,149016
3.73625,150358
3.74438,147139
3.75250,138299
3.76063,147027
3.76875,136067
3.77687,133782
3.78500,144946
3.79312,141722
3.80123,138942
3.80937,136210
3.81748,133964
3.82562,135596
3.83373,129026
3.84185,130382
3.84998,134035
3.85810,133122
3.86623,135713
3.87435,130093
3.88247,129308
3.89060,128111
3.89872,117376
3.90683,127684
3.91497,127731
3.92308,123802
3.93122,121486
3.93933,128636
3.94745,125755
3.95558,125958
3.96370,127100
3.97183,121619
3.97995,120591
3.98807,123898
3.99620,126890
4.00432,120237
4.01245,120150
4.02057,122411
4.02868,122069
4.03682,110936
4.04493,118512
4.05305,118785
4.06118,118656
4.06930,119808
4.07743,118926
4.08555,117247
4.09367,119317
4.10180,109309
4.10992,126019
4.11805,153833
4.12617,272200
4.13428,420162
4.14242,466810
4.15053,409915
4.15865,316652
4.16678,247591
4.17490,206830
4.18303,189990
4.19115,189725
4.19927,286156
4.20740,547389
4.21552,847728
4.22365,966210
4.23177,804099
4.23988,569800
4.24802,409060
4.25613,321832
4.26427,264031
4.27238,235797
4.28050,194942
4.28863,183859
4.29675,167224
4.30487,173171
4.31300,162352
4.32112,155832
4.32925,147456
4.33737,138141
4.34548,137210
4.35362,142614
4.36173,132069
4.36987,132968
4.37798,129986
4.38610,124674
4.39423,120670
4.40235,129221
4.41048,123694
4.41860,122735
4.42672,118295
4.43485,120565
4.44297,120896
4.45108,129929
4.45922,119105
4.46733,114410
4.47547,121015
4.48358,115405
4.49170,112276
4.49983,113656
4.50795,117773
4.51608,114493
4.52420,115305
4.53232,110652
4.54045,112926
4.54857,114204
4.55668,111053
4.56482,112128
4.57293,106924
4.58107,111287
4.58918,101255
4.59730,107333
4.60543,107501
4.61355,112101
4.62168,104704
4.62980,107625
4.63792,109386
4.64605,116314
4.65417,104254
4.66230,111965
4.67042,110209
4.67853,108273
4.68667,108277
4.69478,109422
4.70290,106484
4.71103,100886
4.71915,107813
4.72728,104826
4.73540,106195
4.74352,103253
4.75165,102735
4.75977,109695
4.76790,104127
4.77602,100245
4.78413,98216
4.79227,102503
4.80038,100222
4.80852,103814
4.81663,103613
4.82475,102666
4.83288,99415
4.84100,103909
4.84912,105036
4.85725,104531
4.86537,112334
4.87350,112142
4.88162,105058
4.88973,99265
4.89787,110934
4.90598,99218
4.91412,101860
4.92223,143239
4.93035,242697
4.93848,541359
4.94660,1042466
4.95472,1500117
4.96285,1621374
4.97097,1385241
4.97910,995257
4.98722,706204
4.99533,515636
5.00347,419051
5.01158,355113
5.01972,320750
5.02783,284394
5.03595,263795
5.04408,251294
5.05220,228895
5.06033,223264
5.06845,228829
5.07657,206943
5.08470,198407
5.09282,197165
5.10093,197016
5.10907,201639
5.11718,189967
5.12532,189762
5.13343,178445
5.14155,172472
5.14968,171871
5.15780,180685
5.16593,182545
5.17405,170812
5.18217,178286
5.19030,170146
5.19842,172793
5.20653,169695
5.21467,171833
5.22278,172627
5.23092,182374
5.23903,192234
5.24715,178577
5.25528,168807
5.26340,171909
5.27153,161632
5.27965,153235
5.28777,147091
5.29590,144097
5.30402,149148
5.31215,141095
5.32027,138907
5.32838,140988
5.33652,148728
5.34463,138159
5.35275,135852
5.36088,137866
5.36900,144059
5.37713,146790
5.38525,127965
5.39337,129908
5.40150,137733
5.40962,131957
5.41775,134569
5.42587,131912
5.43398,128657
5.44212,123924
5.45023,135956
5.45837,132936
5.46648,125401
5.47460,129187
5.48273,138117
5.49085,126071
5.49897,136105
5.50710,123716
5.51522,127986
5.52335,126622
5.53147,128089
5.53958,127818
5.54772,135861
5.55583,145330
5.56397,179603
5.57208,246005
5.58020,309739
5.58833,307982
5.59645,263818
5.60458,215597
5.61270,189314
5.62082,185061
5.62895,189566
5.63707,170057
5.64518,171167
5.65332,151983
5.66143,146868
5.66957,150341
5.67768,150411
5.68580,150027
5.69393,146463
5.70205,135613
5.71018,128538
5.71830,129666
5.72642,130872
5.73455,130002
5.74267,130292
5.75078,127684
5.75892,127339
5.76703,127505
5.77517,125194
5.78328,119637
5.79140,118554
5.79953,119162
5.80765,124758
5.81578,111837
5.82390,119180
5.83202,117025
5.84015,124850
5.84827,111193
5.85640,111402
5.86452,115414
5.87263,120494
5.88077,121840
5.88888,119785
5.89700,109276
5.90513,114364
5.91325,110508
5.92138,95141
5.92950,85611
5.93762,84477
5.94575,85840
5.95387,97820
5.96200,98953
5.97012,101628
5.97823,110963
5.98637,102884
5.99448,97481
6.00260,88187
6.01073,86396
6.01885,91618
6.02698,86563
6.03510,88782
6.04322,90093
6.05135,90069
6.05947,90366
6.06760,91052
6.07572,88771
6.08383,88554
6.09197,88739
6.10008,87185
6.10822,90858
6.11633,89709
6.12445,93114
6.13258,90819
6.14070,91711
6.14882,89594
6.15695,96873
6.16507,89872
6.17320,99281
6.18132,103934
6.18943,104118
6.19757,108888
6.20568,106308
6.21382,106839
6.22193,116991
6.23005,115887
6.23818,114646
6.24630,125134
6.25442,124102
6.26255,123599
6.27067,123511
6.27880,128351
6.28692,129003
6.29503,124588
6.30317,135467
6.31128,137803
6.31942,139119
6.32753,139926
6.33565,145661
6.34378,144559
6.35190,141464
6.36003,147157
6.36815,152607
6.37627,153987
6.38440,160926
6.39252,156888
6.40063,124317
6.40877,108697
6.41688,112180
6.42502,104942
6.43313,101323
6.44125,102107
6.44938,99033
6.45750,100809
6.46563,98389
6.47375,98795
6.48187,103466
6.49000,99664
6.49812,99149
6.50625,100336
6.51437,97772
6.52248,97543
6.53062,92698
6.53873,96144
6.54685,93354
6.55498,98006
6.56310,89266
6.57123,84968
6.57935,88801
6.58747,83170
6.59560,87818
6.60372,87571
6.61185,84168
6.61997,92511
6.62808,86186
6.63622,89652
6.64433,87580
6.65247,92182
6.66058,91384
6.66870,95949
6.67683,90403
6.68495,89191
6.69307,90793
6.70120,90033
6.70932,82608
6.71745,80719
6.72557,84209
6.73368,81841
6.74182,78384
6.74993,84347
6.75807,79756
6.76618,81226
6.77430,80652
6.78243,77864
6.79055,82514
6.79867,80444
6.80680,80145
6.81492,84774
6.82305,81426
6.83117,75747
6.83928,81564
6.84742,80956
6.85553,84651
6.86367,77430
6.87178,71062
6.87990,70716
6.88803,72670
6.89615,69877
6.90428,58007
6.91240,56775
6.92052,57984
6.92865,56823
6.93677,59268
6.94488,52826
6.95302,52674
6.96113,53665
6.96927,52008
6.97738,50275
6.98550,55144
6.99363,48572
7.00175,49892
7.00988,54452
7.01800,51884
7.02612,51934
7.03425,54321
7.04237,47334
7.05048,48760
7.05862,55005
7.06673,49588
7.07487,48447
7.08298,53190
7.09110,49327
7.09923,47427
7.10735,52903
7.11548,48284
7.12360,49841
7.13172,49177
7.13985,52272
7.14797,50020
7.15610,50827
7.16422,44087
7.17233,49218
7.18047,49799
7.18858,48244
7.19670,52323
7.20483,55991
7.21295,48259
7.22108,45918
7.22920,49414
7.23732,52236
7.24545,49053
7.25357,50052
7.26170,50181
7.26982,48971
7.27793,48793
7.28607,49522
7.29418,48952
7.30232,47018
7.31043,46482
7.31855,46916
7.32668,50186
7.33480,47899
7.34292,48836
7.35105,48581
7.35917,47751
7.36730,49485
7.37542,47643
7.38353,45760
7.39167,43017
7.39978,45687
7.40792,46740
7.41603,47119
7.42415,46712
7.43228,49364
7.44040,47654
7.44852,46440
7.45665,49224
7.46477,50841
7.47290,55340
7.48102,62246
7.48913,55867
7.49727,57842
7.50538,58917
7.51352,53508
7.52163,47005
7.52975,51244
7.53788,48149
7.54600,45788
7.55413,46488
7.56225,49871
7.57037,50579
7.57850,49014
7.58662,49853
7.59473,47377
7.60287,43583
7.61098,45723
7.61912,45727
7.62723,47208
7.63535,48242
7.64348,47464
7.65160,47858
7.65973,47268
7.66785,44401
7.67597,45858
7.68410,44594
7.69222,43142
7.70035,46779
7.70847,44949
7.71658,49020
7.72472,47175
7.73283,41819
7.74095,42461
7.74908,40030
7.75720,46671
7.76533,46903
7.77345,45352
7.78157,44702
7.78970,43122
7.79782,45281
7.80595,44596
7.81407,40065
7.82218,45768
7.83032,48055
7.83843,43257
7.84655,39437
7.85468,43467
7.86280,44563
7.87093,44494
7.87905,42374
7.88717,44835
7.89530,44494
7.90342,41599
7.91155,44639
7.91967,44862
7.92778,43631
7.93592,39361
7.94403,40177
7.95217,43194
7.96028,37111
7.96840,40166
7.97653,45664
7.98465,46337
7.99277,52646
8.00090,46647
8.00902,51353
8.01715,43733
8.02527,47255
8.03338,43625
8.04152,42914
8.04963,42353
8.05777,41411
8.06588,42163
8.07400,41026
8.08213,39613
8.09025,39919
8.09837,42995
8.10650,39032
8.11462,42489
8.12275,38964
8.13087,41091
8.13898,41922
8.14712,47051
8.15523,42569
8.16337,43533
8.17148,48761
8.17960,41781
8.18773,51611
8.19585,46913
8.20398,46494
8.21210,42904
8.22022,40824
8.22835,41366
8.23647,41848
8.24458,45328
8.25272,42582
8.26083,41779
8.26897,39439
8.27708,42169
8.28520,39828
8.29333,39699
8.30145,40908
8.30958,42655
8.31770,38139
8.32582,41079
8.33395,42896
8.34207,45145
8.35020,53976
8.35832,56159
8.36643,55622
8.37457,50818
8.38268,53493
8.39080,46733
8.39893,44043
8.40705,40339
8.41518,39464
8.42330,42506
8.43142,38784
8.43955,42946
8.44767,41143
8.45580,44077
8.46392,42351
8.47203,40574
8.48017,44328
8.48828,43854
8.49640,45472
8.50453,51444
8.51265,52480
8.52078,53121
8.52890,44187
8.53702,43954
8.54515,43669
8.55327,40798
8.56140,41724
8.56952,42596
8.57763,43693
8.58577,43103
8.59388,42514
8.60202,40449
8.61013,43087
8.61825,40774
8.62638,45129
8.63450,41315
8.64262,39303
8.65075,38562
8.65887,40479
8.66700,42556
8.67512,42711
8.68323,44308
8.69137,40028
8.69948,37955
8.70762,43206
8.71573,43561
8.72385,42782
8.73198,39986
8.74010,41666
8.74823,39489
8.75635,41646
8.76447,49943
8.77260,75918
8.78072,162824
8.78883,328220
8.79697,595762
8.80508,854258
8.81322,955559
8.82133,833369
8.82945,626319
8.83758,415587
8.84570,281536
8.85383,202107
8.86195,164287
8.87007,131197
8.87820,130943
8.88632,121331
8.89443,115644
8.90257,103280
8.91068,98862
8.91882,92965
8.92693,88327
8.93505,91288
8.94318,94571
8.95130,86012
8.95943,85280
8.96755,83283
8.97567,88763
8.98380,84706
8.99192,89638
9.00005,82015
9.00817,78195
9.01628,85014
9.02442,76387
9.03253,78351
9.04065,78986
9.04878,84532
9.05690,78517
9.06503,79429
9.07315,74732
9.08127,79476
9.08940,73131
9.09752,73634
9.10565,74146
9.11377,73415
9.12188,75290
9.13002,73482
9.13813,71302
9.14627,77635
9.15438,76214
9.16250,76215
9.17063,72259
9.17875,68953
9.18687,67401
9.19500,67673
9.20312,67716
9.21125,65867
9.21937,67307
9.22748,61466
9.23562,70565
9.24373,65716
9.25187,60502
9.25998,63177
9.26810,63903
9.27623,62167
9.28435,62660
9.29247,58719
9.30060,61643
9.30872,67137
9.31685,60462
9.32497,66616
9.33308,61975
9.34122,61764
9.34933,59770
9.35747,56303
9.36558,60805
9.37370,54438
9.38183,59825
9.38995,53939
9.39808,57331
9.40620,53195
9.41432,58766
9.42245,59068
9.43057,54516
9.43868,56614
9.44682,56852
9.45493,52764
9.46307,56311
9.47118,53602
9.47930,54555
9.48743,54557
9.49555,53445
9.50368,53400
9.51180,52793
9.51992,51267
9.52805,57027
9.53617,55750
9.54428,55165
9.55242,60046
9.56053,56132
9.56867,58932
9.57678,54440
9.58490,48425
9.59303,54385
9.60115,56324
9.60928,53702
9.61740,54124
9.62552,55729
9.63365,49714
9.64177,48330
9.64990,44136
9.65802,37466
9.66613,37386
9.67427,36330
9.68238,35751
9.69050,37559
9.69863,34627
9.70675,34822
9.71488,38331
9.72300,36884
9.73112,36135
9.73925,32385
9.74737,35708
9.75550,34571
9.76362,35699
9.77173,35451
9.77987,29741
9.78798,34047
9.79612,36564
9.80423,33810
9.81235,32787
9.82048,34904
9.82860,34021
9.83672,33135
9.84485,36723
9.85297,34348
9.86110,33155
9.86922,32308
9.87733,35324
9.88547,32840
9.89358,30906
9.90172,34373
9.90983,31454
9.91795,31608
9.92608,32560
9.93420,32937
9.94232,32581
9.95045,33713
9.95857,32714
9.96670,36424
9.97482,39389
9.98293,40053
9.99107,40855
9.99918,43102
10.00732,48885
10.01543,47745
10.02355,52092
10.03168,46202
10.03980,53108
10.04793,47244
10.05605,46095
10.06417,44692
10.07230,43372
10.08042,43664
10.08853,41013
10.09667,37564
10.10478,41021
10.11292,38301
10.12103,34147
10.12915,35694
10.13728,35134
10.14540,32104
10.15353,32402
10.16165,36254
10.16977,37176
10.17790,33667
10.18602,34265
10.19415,35806
10.20227,32184
10.21038,30049
10.21852,35357
10.22663,35193
10.23475,37212
10.24288,38492
10.25100,40183
10.25913,36075
10.26725,38303
10.27537,37893
10.28350,39362
10.29162,37346
10.29975,36985
10.30787,39330
10.31598,39881
10.32412,39502
10.33223,37863
10.34035,36346
10.34848,33508
10.35660,37179
10.36473,37360
10.37285,33622
10.38097,34678
10.38910,32808
10.39722,32891
10.40535,33148
10.41347,33294
10.42158,33615
10.42972,32654
10.43783,33515
10.44597,35170
10.45408,32966
10.46220,31142
10.47033,33474
10.47845,33161
10.48657,29657
10.49470,29752
10.50282,30251
10.51095,30196
10.51907,30683
10.52718,32196
10.53532,34358
10.54343,30019
10.55157,30844
10.55968,32580
10.56780,33021
10.57593,30896
10.58405,36273
10.59217,34463
10.60030,30831
10.60842,34285
10.61655,30854
10.62467,28604
10.63278,34090
10.64092,34243
10.64903,29508
10.65717,27844
10.66528,33873
10.67340,30920
10.68153,33737
10.68965,32115
10.69778,35211
10.70590,33421
10.71402,33869
10.72215,34246
10.73027,33753
10.73838,31960
10.74652,33098
10.75463,34113
10.76277,34497
10.77088,41520
10.77900,38983
10.78713,35344
10.79525,40610
10.80338,39987
10.81150,37066
10.81962,33086
10.82775,30325
10.83587,32699
10.84400,32040
10.85212,33713
10.86023,33511
10.86837,30122
10.87648,31060
10.88460,31057
10.89273,31935
10.90085,31021
10.90898,32958
10.91710,30608
10.92522,30535
10.93335,29306
10.94147,27655
10.94960,28263
10.95772,27591
10.96583,28200
10.97397,30643
10.98208,29680
10.99022,29792
10.99833,31383
11.00645,28991
11.01458,27527
11.02270,28178
11.03082,30629
11.03895,28997
11.04707,31057
11.05520,27866
11.06332,29404
11.07143,25506
11.07957,27854
11.08768,27462
11.09582,28333
11.10393,29710
11.11205,29942
11.12018,28633
11.12830,29094
11.13642,25055
11.14455,25749
11.15267,28327
11.16080,29969
11.16892,27984
11.17703,28781
11.18517,28784
11.19328,27532
11.20142,26903
11.20953,31723
11.21765,32258
11.22578,31154
11.23390,33536
11.24203,27220
11.25015,27670
11.25827,31784
11.26640,31191
11.27452,26067
11.28263,26085
11.29077,29775
11.29888,30489
11.30702,27385
11.31513,28302
11.32325,31397
11.33138,29943
11.33950,30226
11.34763,31232
11.35575,31232
11.36387,32447
11.37200,32053
11.38012,29353
11.38823,28355
11.39637,27589
11.40448,29884
11.41262,27562
11.42073,31420
11.42885,30384
11.43698,32367
11.44510,29884
11.45323,28820
11.46135,27554
11.46947,28052
11.47760,27652
11.48572,24263
11.49385,26083
11.50197,28113
11.51008,28646
11.51822,28314
11.52633,30678
11.53445,28286
11.54258,23162
11.55070,27764
11.55883,28499
11.56695,28096
11.57507,25067
11.58320,27660
11.59132,29953
11.59945,28234
11.60757,25292
11.61568,27364
11.62382,28555
11.63193,27021
11.64007,29223
11.64818,29051
11.65630,27196
11.66443,30138
11.67255,27288
11.68067,29114
11.68880,25648
11.69692,27629
11.70505,28965
11.71317,28997
11.72128,33040
11.72942,32166
11.73753,30866
11.74567,30303
11.75378,27324
11.76190,29207
11.77003,27635
11.77815,27671
11.78627,32826
11.79440,33410
11.80252,28246
11.81065,31698
11.81877,29513
11.82688,28814
11.83502,28608
11.84313,26658
11.85127,28280
11.85938,27993
11.86750,31489
11.87563,29361
11.88375,30465
11.89188,33283
11.90000,28788
11.90812,32889
11.91625,27858
11.92437,29169
11.93248,33860
11.94062,27127
11.94873,28544
11.95687,26945
11.96498,26927
11.97310,24855
11.98123,24271
11.98935,26251
11.99748,30837
12.00560,30772
12.01372,29327
12.02185,32186
12.02997,25680
12.03810,27680
12.04622,30269
12.05433,32278
12.06247,30548
12.07058,29121
12.07870,33683
12.08683,30242
12.09495,29681
12.10308,28457
12.11120,29091
12.11932,27585
12.12745,26744
12.13557,25293
12.14370,27128
12.15182,28143
12.15993,31555
12.16807,31948
12.17618,30556
12.18430,31994
12.19243,30718
12.20055,31763
12.20868,26605
12.21680,25636
12.22492,22969
12.23305,28409
12.24117,30991
12.24930,30346
12.25742,27577
12.26553,28732
12.27367,28500
12.28178,28476
12.28992,26885
12.29803,27281
12.30615,30697
12.31428,28939
12.32240,27269
12.33052,27853
12.33865,25344
12.34677,27985
12.35490,28857
12.36302,33293
12.37113,28602
12.37927,31475
12.38738,29058
12.39552,29942
12.40363,31985
12.41175,35240
12.41988,34386
12.42800,37342
12.43612,39387
12.44425,37324
12.45237,36422
12.46050,39476
12.46862,38395
12.47673,38474
12.48487,36419
12.49298,37041
12.50112,35795
12.50923,33203
12.51735,29297
12.52548,31929
12.53360,29011
12.54173,29273
12.54985,27049
12.55797,31376
12.56610,29623
12.57422,26658
12.58233,31146
12.59047,30210
12.59858,28082
12.60672,28414
12.61483,25673
12.62295,27790
12.63108,31012
12.63920,28758
12.64733,30947
12.65545,30165
12.66357,29775
12.67170,27161
12.67982,29060
12.68795,29851
12.69607,29261
12.70418,29919
12.71232,26171
12.72043,28052
12.72855,28572
12.73668,30506
12.74480,36861
12.75293,37841
12.76105,43490
12.76917,43869
12.77730,38704
12.78542,36405
12.79355,34764
12.80167,31439
12.80978,30113
12.81792,27167
12.82603,33657
12.83415,31902
12.84228,29244
12.85040,29480
12.85853,30177
12.86665,26325
12.87477,29300
12.88290,26317
12.89102,28564
12.89915,27974
12.90727,28476
12.91538,28401
12.92352,27225
12.93163,25858
12.93977,29489
12.94788,28135
12.95600,30633
12.96413,29413
12.97225,27955
12.98037,28366
12.98850,30599
12.99662,29696
13.00475,29166
13.01287,26057
13.02098,27514
13.02912,26669
13.03723,27166
13.04537,25631
13.05348,29237
13.06160,27211
13.06973,26719
13.07785,30069
13.08598,27564
13.09410,28511
13.10222,27962
13.11035,26904
13.11847,25370
13.12658,27850
13.13472,26648
13.14283,27825
13.15097,25591
13.15908,28997
13.16720,30894
13.17533,29355
13.18345,27512
13.19158,31433
13.19970,27875
13.20782,33665
13.21595,31052
13.22407,30615
13.23218,28573
13.24032,28351
13.24843,26351
13.25657,27191
13.26468,26019
13.27280,26863
13.28093,29990
13.28905,26223
13.29718,27726
13.30530,26045
13.31342,25637
13.32155,21985
13.32967,28126
13.33780,26270
13.34592,28705
13.35403,27597
13.36217,25872
13.37028,26427
13.37840,27481
13.38653,30463
13.39465,24589
13.40278,26571
13.41090,26118
13.41902,25482
13.42715,28012
13.43527,28156
13.44340,27893
13.45152,28830
13.45963,26628
13.46777,25102
13.47588,28126
13.48400,27142
13.49213,28075
13.50025,24823
13.50838,26735
13.51650,24522
13.52462,27112
13.53275,26945
13.54087,26722
13.54900,24295
13.55712,26593
13.56523,22955
13.57337,27420
13.58148,27642
13.58962,24987
13.59773,25788
13.60585,23671
13.61398,24970
13.62210,25511
13.63022,24378
13.63835,25966
13.64647,28610
13.65460,24021
13.66272,26344
13.67083,27491
13.67897,27872
13.68708,26951
13.69522,25124
13.70333,25729
13.71145,26260
13.71958,24974
13.72770,22397
13.73583,24316
13.74395,25193
13.75207,24627
13.76020,25539
13.76832,25903
13.77643,23453
13.78457,25461
13.79268,27849
13.80082,27974
13.80893,27603
13.81705,24179
13.82518,26504
13.83330,29468
13.84143,27755
13.84955,29301
13.85767,24617
13.86580,26690
13.87392,26084
13.88203,28010
13.89017,28882
13.89828,27378
13.90642,26110
13.91453,25659
13.92265,24979
13.93078,25925
13.93890,28406
13.94703,26879
13.95515,23922
13.96327,31161
13.97140,23959
13.97952,26885
13.98765,22875
13.99577,28895
14.00388,25798
14.01202,25592
14.02013,23880
14.02825,24226
14.03638,26470
14.04450,27442
14.05263,27680
14.06075,27388
14.06887,27588
14.07700,29621
14.08512,28115
14.09325,26970
14.10137,28548
14.10948,28159
14.11762,28473
14.12573,30199
14.13387,24210
14.14198,30344
14.15010,26186
14.15823,26311
14.16635,27206
14.17447,27515
14.18260,29953
14.19072,33919
14.19885,46939
14.20697,64755
14.21508,89899
14.22322,123616
14.23133,136309
14.23947,127272
14.24758,122803
14.25570,108151
14.26383,111339
14.27195,103068
14.28007,104300
14.28820,90749
14.29632,80445
14.30445,71453
14.31257,69515
14.32068,61289
14.32882,59448
14.33693,57124
14.34507,58112
14.35318,53905
14.36130,47853
14.36943,52073
14.37755,44499
14.38568,41695
14.39380,36526
14.40192,32196
14.41005,33197
14.41817,31801
14.42628,35003
14.43442,33152
14.44253,30993
14.45067,31603
14.45878,32415
14.46690,29574
14.47503,28272
14.48315,29617
14.49128,28152
14.49940,30334
14.50752,29596
14.51565,28139
14.52377,30965
14.53190,26436
14.54002,26872
14.54813,27439
14.55627,26609
14.56438,29628
14.57250,29252
14.58063,28716
14.58875,25991
14.59688,28721
14.60500,29430
14.61312,30674
14.62125,30454
14.62937,30756
14.63750,25835
14.64562,30658
14.65373,25805
14.66187,28608
14.66998,26562
14.67810,26602
14.68623,26620
14.69435,30036
14.70248,29624
14.71060,26233
14.71872,29909
14.72685,32175
14.73497,29582
14.74310,31395
14.75122,29512
14.75933,26697
14.76747,28699
14.77558,28116
14.78372,26276
14.79183,27713
14.79995,28119
14.80808,30174
14.81620,26438
14.82432,29701
14.83245,29151
14.84057,32062
14.84870,30173
14.85682,33964
14.86493,32067
14.87307,34012
14.88118,34061
14.88932,34836
14.89743,36812
14.90555,32628
14.91368,30841
14.92180,30315
14.92992,34087
14.93805,35187
14.94617,33849
14.95430,34451
14.96242,34521
14.97053,30509
14.97867,33447
14.98678,34754
14.99492,36543
15.00303,34698
15.01115,31035
15.01928,31666
15.02740,31475
15.03553,31628
15.04365,31868
15.05177,32057
15.05990,34365
15.06802,33650
15.07613,30203
15.08427,34444
15.09238,29834
15.10052,31379
15.10863,31417
15.11675,30812
15.12488,30553
15.13300,29415
15.14113,29849
15.14925,32339
15.15737,26969
15.16550,28649
15.17362,29142
15.18175,29198
15.18987,32452
15.19798,30925
15.20612,29457
15.21423,30046
15.22235,31767
15.23048,31375
15.23860,30428
15.24673,32261
15.25485,30681
15.26297,29699
15.27110,28825
15.27922,27957
15.28735,25063
15.29547,29090
15.30358,28057
15.31172,28161
15.31983,25882
15.32795,27168
15.33608,25240
15.34420,24871
15.35233,24850
15.36045,24020
15.36857,24989
15.37670,28162
15.38482,26597
15.39295,28644
15.40107,27872
15.40918,28964
15.41732,24879
15.42543,29336
15.43357,24631
15.44168,28861
15.44980,25460
15.45793,28446
15.46605,25129
15.47417,24494
15.48230,26980
15.49042,24873
15.49855,26955
15.50667,25303
15.51478,25936
15.52292,24204
15.53103,27130
15.53917,26481
15.54728,29808
15.55540,25514
15.56353,24746
15.57165,25712
15.57978,25186
15.58790,28487
15.59602,25546
15.60415,26808
15.61227,29523
15.62038,27465
15.62852,27802
15.63663,24913
15.64477,24374
15.65288,27366
15.66100,27345
15.66913,28859
15.67725,28183
15.68538,28500
15.69350,27104
15.70162,26874
15.70975,21973
15.71787,27738
15.72598,25987
15.73412,28228
15.74223,27226
15.75037,24176
15.75848,24157
15.76660,28477
15.77473,25681
15.78285,27537
15.79098,26637
15.79910,23749
15.80722,28147
15.81535,29274
15.82347,26603
15.83160,27359
15.83972,24614
15.84783,27782
15.85597,26700
15.86408,24956
15.87220,27191
15.88033,29472
15.88845,27005
15.89658,29137
15.90470,26781
15.91282,29179
15.92095,25222
15.92907,27732
15.93720,23230
15.94532,29793
15.95343,26097
15.96157,25581
15.96968,26623
15.97780,24240
15.98593,24936
15.99405,27734
16.00218,24233
16.01030,26515
16.01842,32781
16.02655,33334
16.03467,37908
16.04280,43661
16.05092,45884
16.05903,47676
16.06717,42946
16.07528,43101
16.08342,36987
16.09153,36138
16.09965,35543
16.10778,34188
16.11590,34131
16.12402,32056
16.13215,36167
16.14027,31241
16.14840,34720
16.15652,29655
16.16463,29797
16.17277,31692
16.18088,30979
16.18902,31837
16.19713,33249
16.20525,32406
16.21338,28983
16.22150,32466
16.22963,34066
16.23775,29730
16.24587,31552
16.25400,28728
16.26212,30384
16.27023,28492
16.27837,31833
16.28648,32441
16.29462,31317
16.30273,33776
16.31085,34287
16.31898,30911
16.32710,35982
16.33523,34972
16.34335,36742
16.35147,38518
16.35960,39943
16.36772,39903
16.37583,36157
16.38397,33670
16.39208,33994
16.40022,31414
16.40833,30237
16.41645,28381
16.42458,26430
16.43270,30925
16.44083,29418
16.44895,26225
16.45707,29669
16.46520,29109
16.47332,26581
16.48145,30117
16.48957,27713
16.49768,29731
16.50582,29437
16.51393,29646
16.52205,29053
16.53018,30951
16.53830,28125
16.54643,28948
16.55455,29131
16.56267,30986
16.57080,26653
16.57892,29804
16.58705,28840
16.59517,27836
16.60328,31992
16.61142,28597
16.61953,32936
16.62767,31877
16.63578,27545
16.64390,26855
16.65203,26471
16.66015,26288
16.66827,27318
16.67640,28209
16.68452,29697
16.69265,24436
16.70077,26965
16.70888,27233
16.71702,27179
16.72513,26615
16.73327,25362
16.74138,28701
16.74950,29216
16.75763,26066
16.76575,25904
16.77387,26651
16.78200,26132
16.79012,27726
16.79825,29316
16.80637,29820
16.81448,27491
16.82262,26525
16.83073,29994
16.83887,25853
16.84698,25542
16.85510,24528
16.86323,24693
16.87135,27601
16.87948,27657
16.88760,28596
16.89572,27679
16.90385,26448
16.91197,28246
16.92008,26721
16.92822,27478
16.93633,26882
16.94447,23673
16.95258,24302
16.96070,28322
16.96883,28518
16.97695,27269
16.98508,26405
16.99320,30061
17.00132,27175
17.00945,26327
17.01757,26212
17.02568,26083
17.03382,23963
17.04193,27599
17.05007,24727
17.05818,25332
17.06630,27491
17.07443,24844
17.08255,25485
17.09068,27017
17.09880,26889
17.10692,27235
17.11505,24658
17.12317,26351
17.13130,28077
17.13942,28997
17.14753,26034
17.15567,27104
17.16378,27538
17.17190,26347
17.18003,25251
17.18815,24871
17.19628,27111
17.20440,29436
17.21252,29081
17.22065,27222
17.22877,27845
17.23690,27007
17.24502,27911
17.25313,27068
17.26127,26540
17.26938,27743
17.27752,25300
17.28563,25781
17.29375,27685
17.30188,29213
17.31000,29254
17.31812,31118
17.32625,26938
17.33437,27120
17.34250,26012
17.35062,29553
17.35873,31552
17.36687,31405
17.37498,32532
17.38312,32399
17.39123,35142
17.39935,35561
17.40748,37089
17.41560,36942
17.42373,31150
17.43185,30028
17.43997,37108
17.44810,30551
17.45622,34269
17.46433,33529
17.47247,30580
17.48058,31229
17.48872,28253
17.49683,31829
17.50495,33289
17.51308,30783
17.52120,30612
17.52933,31331
17.53745,35068
17.54557,31131
17.55370,31129
17.56182,31076
17.56993,30157
17.57807,31376
17.58618,31010
17.59432,29151
17.60243,33658
17.61055,28545
17.61868,26204
17.62680,26932
17.63493,27182
17.64305,28666
17.65117,29417
17.65930,26952
17.66742,30889
17.67555,27957
17.68367,33444
17.69178,32363
17.69992,31351
17.70803,29842
17.71615,30040
17.72428,30319
17.73240,29997
17.74053,26603
17.74865,33513
17.75677,29284
17.76490,32957
17.77302,30349
17.78115,34423
17.78927,29683
17.79738,26801
17.80552,29477
17.81363,27145
17.82175,24924
17.82988,30691
17.83800,27962
17.84613,26966
17.85425,32548
17.86237,30889
17.87050,29454
17.87862,33284
17.88675,28968
17.89487,29527
17.90298,30970
17.91112,29297
17.91923,26643
17.92737,27554
17.93548,26349
17.94360,26359
17.95173,29749
17.95985,25745
17.96797,26498
17.97610,27564
17.98422,28109
17.99235,26915
18.00047,28362
18.00858,28057
18.01672,29994
18.02483,27416
18.03297,25567
18.04108,28568
18.04920,27313
18.05733,23987
18.06545,31880
18.07358,28831
18.08170,27301
18.08982,34791
18.09795,36482
18.10607,38762
18.11418,44623
18.12232,44965
18.13043,45630
18.13857,43342
18.14668,43665
18.15480,43502
18.16293,43629
18.17105,40046
18.17918,43774
18.18730,42444
18.19542,40792
18.20355,39891
18.21167,40183
18.21978,35507
18.22792,38692
18.23603,39347
18.24417,37781
18.25228,41995
18.26040,41794
18.26853,38057
18.27665,38697
18.28478,39601
18.29290,39883
18.30102,36640
18.30915,32667
18.31727,31769
18.32540,31436
18.33352,29516
18.34163,30504
18.34977,31296
18.35788,31588
18.36600,30069
18.37413,29813
18.38225,28940
18.39038,28230
18.39850,32153
18.40662,27910
18.41475,27572
18.42287,26112
18.43100,29300
18.43912,29287
18.44723,29072
18.45537,27081
18.46348,27759
18.47162,29382
18.47973,31203
18.48785,24988
18.49598,27576
18.50410,28703
18.51222,28061
18.52035,28082
18.52847,27229
18.53660,25367
18.54472,28819
18.55283,29717
18.56097,26965
18.56908,29392
18.57722,25820
18.58533,24443
18.59345,31586
18.60158,30891
18.60970,26727
18.61782,25903
18.62595,27270
18.63407,27512
18.64220,30110
18.65032,27116
18.65843,27801
18.66657,24605
18.67468,24839
18.68282,24867
18.69093,26910
18.69905,27390
18.70718,27352
18.71530,25612
18.72343,25985
18.73155,27695
18.73967,26619
18.74780,26471
18.75592,26424
18.76403,29979
18.77217,27756
18.78028,27053
18.78842,24954
18.79653,26821
18.80465,27017
18.81278,27311
18.82090,27738
18.82903,28877
18.83715,24132
18.84527,27094
18.85340,29085
18.86152,29531
18.86963,26244
18.87777,24416
18.88588,29187
18.89402,25520
18.90213,23543
18.91025,27270
18.91838,25016
18.92650,25006
18.93463,24186
18.94275,24631
18.95087,27007
18.95900,29090
18.96712,29660
18.97525,28440
18.98337,24752
18.99148,27987
18.99962,26593
19.00773,26985
19.01585,25747
19.02398,25404
19.03210,25265
19.04023,27863
19.04835,27448
19.05647,25193
19.06460,27422
19.07272,27905
19.08085,31447
19.08897,30332
19.09708,30286
19.10522,32686
19.11333,34577
19.12147,37817
19.12958,37437
19.13770,33408
19.14583,36472
19.15395,32333
19.16207,27987
19.17020,37624
19.17832,30738
19.18645,29657
19.19457,24715
19.20268,27940
19.21082,30361
19.21893,30600
19.22707,26627
19.23518,28629
19.24330,28025
19.25143,28465
19.25955,28445
19.26767,24729
19.27580,30214
19.28392,30664
19.29205,33361
19.30017,39353
19.30828,48433
19.31642,47814
19.32453,45395
19.33267,48500
19.34078,41708
19.34890,35967
19.35703,36114
19.36515,33614
19.37328,34546
19.38140,36648
19.38952,31666
19.39765,33792
19.40577,30962
19.41388,32734
19.42202,34809
19.43013,33441
19.43827,32245
19.44638,32808
19.45450,33491
19.46263,33055
19.47075,33180
19.47888,31992
19.48700,31429
19.49512,34208
19.50325,40831
19.51137,50914
19.51950,70155
19.52762,81555
19.53573,100528
19.54387,90466
19.55198,80203
19.56010,72926
19.56823,49478
19.57635,41953
19.58448,38112
19.59260,38224
19.60072,32453
19.60885,32132
19.61697,33784
19.62510,31207
19.63322,33907
19.64133,33362
19.64947,39035
19.65758,47433
19.66570,68427
19.67383,92344
19.68195,113515
19.69008,123789
19.69820,124246
19.70632,110369
19.71445,87467
19.72257,77715
19.73070,71969
19.73882,59044
19.74693,50741
19.75507,48613
19.76318,47266
19.77132,45876
19.77943,37506
19.78755,41685
19.79568,38488
19.80380,37680
19.81192,36476
19.82005,35682
19.82817,32673
19.83630,35325
19.84442,29007
19.85253,32470
19.86067,33958
19.86878,28234
19.87692,35077
19.88503,43774
19.89315,54139
19.90128,72780
19.90940,103718
19.91753,133134
19.92565,158563
19.93377,174755
19.94190,191237
19.95002,185463
19.95813,190518
19.96627,178871
19.97438,178337
19.98252,168085
19.99063,156461
19.99875,150394
20.00688,153816
20.01500,152641
20.02313,152024
20.03125,142460
20.03937,135044
20.04750,129402
20.05562,116577
20.06373,98011
20.07187,87465
20.07998,76837
20.08812,66861
20.09623,58176
20.10435,52172
20.11248,52573
20.12060,52339
20.12873,48322
20.13685,50422
20.14497,47622
20.15310,47827
20.16122,48432
20.16935,41927
20.17747,44865
20.18558,44301
20.19372,45437
20.20183,40343
20.20995,42283
20.21808,44008
20.22620,46945
20.23433,46802
20.24245,43232
20.25057,46554
20.25870,48339
20.26682,52828
20.27495,58528
20.28307,71792
20.29118,89615
20.29932,104907
20.30743,104095
20.31555,108301
20.32368,99920
20.33180,86022
20.33993,73646
20.34805,68175
20.35617,58831
20.36430,50193
20.37242,40649
20.38055,41867
20.38867,40585
20.39678,37232
20.40492,36829
20.41303,41104
20.42117,34949
20.42928,36161
20.43740,38751
20.44553,43953
20.45365,48462
20.46177,50845
20.46990,46535
20.47802,51433
20.48615,45596
20.49427,45463
20.50238,41489
20.51052,36940
20.51863,37258
20.52677,34720
20.53488,31702
20.54300,33214
20.55113,29437
20.55925,35506
20.56738,33872
20.57550,31299
20.58362,33500
20.59175,30787
20.59987,30040
20.60798,30792
20.61612,29877
20.62423,32698
20.63237,30204
20.64048,33778
20.64860,30243
20.65673,28843
20.66485,29300
20.67298,30831
20.68110,31209
20.68922,30027
20.69735,30202
20.70547,31314
20.71358,31038
20.72172,30324
20.72983,29824
20.73797,28459
20.74608,27679
20.75420,29708
20.76233,30592
20.77045,26368
20.77858,31948
20.78670,31453
20.79482,31342
20.80295,32454
20.81107,28283
20.81920,30126
20.82732,30899
20.83543,30284
20.84357,32961
20.85168,29790
20.85980,31646
20.86793,29482
20.87605,28805
20.88418,32344
20.89230,30084
20.90042,33777
20.90855,30582
20.91667,29807
20.92480,32179
20.93292,30989
20.94103,31578
20.94917,33480
20.95728,30816
20.96542,30634
20.97353,29906
20.98165,29742
20.98978,33096
20.99790,32356
21.00602,37479
21.01415,29314
21.02227,32668
21.03040,36001
21.03852,34162
21.04663,32041
21.05477,32305
21.06288,34529
21.07102,32041
21.07913,36775
21.08725,34649
21.09538,30709
21.10350,34994
21.11162,36036
21.11975,31134
21.12787,33967
21.13600,33371
21.14412,33897
21.15223,30825
21.16037,34250
21.16848,36368
21.17662,35110
21.18473,37482
21.19285,34899
21.20098,35207
21.20910,36950
21.21723,39277
21.22535,37327
21.23347,35315
21.24160,38870
21.24972,35751
21.25783,33740
21.26597,32670
21.27408,36707
21.28222,33738
21.29033,34038
21.29845,36410
21.30658,33754
21.31470,36315
21.32283,31857
21.33095,36156
21.33907,34697
21.34720,40427
21.35532,35008
21.36343,37296
21.37157,32326
21.37968,32792
21.38782,31389
21.39593,32703
21.40405,31791
21.41218,34875
21.42030,34116
21.42843,31514
21.43655,30583
21.44467,34023
21.45280,34543
21.46092,34212
21.46905,32787
21.47717,33655
21.48528,30315
21.49342,34264
21.50153,32710
21.50965,34413
21.51778,33875
21.52590,35557
21.53403,32678
21.54215,30174
21.55027,33614
21.55840,38031
21.56652,34539
21.57465,34566
21.58277,32856
21.59088,34239
21.59902,32989
21.60713,33503
21.61527,35007
21.62338,34616
21.63150,34945
21.63963,42070
21.64775,44605
21.65587,49486
21.66400,54093
21.67212,55053
21.68025,55854
21.68837,46643
21.69648,46958
21.70462,38538
21.71273,37194
21.72087,35110
21.72898,37065
21.73710,35338
21.74523,33449
21.75335,36121
21.76147,35230
21.76960,35326
21.77772,34478
21.78585,34233
21.79397,30714
21.80208,32162
21.81022,31623
21.81833,34668
21.82647,32479
21.83458,39460
21.84270,42757
21.85083,49118
21.85895,49030
21.86708,48771
21.87520,48888
21.88332,43387
21.89145,41120
21.89957,39247
21.90768,36304
21.91582,32666
21.92393,33172
21.93207,32614
21.94018,33472
21.94830,36146
21.95643,28697
21.96455,32587
21.97268,33182
21.98080,31758
21.98892,35036
21.99705,31260
22.00517,31572
22.01330,33589
22.02142,32013
22.02953,29689
22.03767,31869
22.04578,30066
22.05390,28242
22.06203,30992
22.07015,31089
22.07828,29178
22.08640,29100
22.09452,37613
22.10265,29735
22.11077,33167
22.11890,38001
22.12702,35871
22.13513,36265
22.14327,35833
22.15138,32266
22.15950,32457
22.16763,31959
22.17575,38052
22.18388,35328
22.19200,33309
22.20012,30993
22.20825,32647
22.21637,30554
22.22450,34739
22.23262,31817
22.24073,35114
22.24887,36102
22.25698,36856
22.26512,35553
22.27323,32618
22.28135,36683
22.28948,33501
22.29760,27442
22.30572,27735
22.31385,29150
22.32197,32855
22.33010,34080
22.33822,30964
22.34633,31771
22.35447,32479
22.36258,33186
22.37072,33224
22.37883,33704
22.38695,32624
22.39508,36310
22.40320,32352
22.41132,35435
22.41945,31204
22.42757,31371
22.43570,30342
22.44382,32156
22.45193,33611
22.46007,33779
22.46818,32512
22.47632,35541
22.48443,34906
22.49255,32240
22.50068,31389
22.50880,32367
22.51693,31600
22.52505,28367
22.53317,30642
22.54130,32120
22.54942,29790
22.55753,32615
22.56567,32506
22.57378,29167
22.58192,30762
22.59003,28682
22.59815,31979
22.60628,31930
22.61440,28119
22.62253,31219
22.63065,29801
22.63877,27482
22.64690,29406
22.65502,27682
22.66315,28133
22.67127,26935
22.67938,29378
22.68752,32588
22.69563,29210
22.70375,30374
22.71188,29890
22.72000,34228
22.72813,32761
22.73625,33306
22.74437,34377
22.75250,34686
22.76062,30328
22.76875,32785
22.77687,31700
22.78498,30575
22.79312,28074
22.80123,32647
22.80935,27979
22.81748,29620
22.82560,31401
22.83373,29051
22.84185,31994
22.84997,33964
22.85810,30875
22.86622,32804
22.87435,36050
22.88247,32721
22.89058,37434
22.89872,36110
22.90683,38427
22.91497,39930
22.92308,43596
22.93120,45941
22.93933,53157
22.94745,57893
22.95557,57503
22.96370,67648
22.97182,63010
22.97995,63606
22.98807,59799
22.99618,56422
23.00432,50279
23.01243,55230
23.02057,47667
23.02868,43879
23.03680,45231
23.04493,39746
23.05305,36741
23.06118,37570
23.06930,37242
23.07742,37514
23.08555,34562
23.09367,34979
23.10178,37856
23.10992,34781
23.11803,29669
23.12617,33792
23.13428,32513
23.14240,31213
23.15053,28084
23.15865,30984
23.16678,32598
23.17490,33109
23.18302,30429
23.19115,29750
23.19927,32785
23.20738,29925
23.21552,32733
23.22363,25464
23.23177,27056
23.23988,26118
23.24800,29207
23.25613,29121
23.26425,28249
23.27238,29799
23.28050,26116
23.28862,31485
23.29675,30236
23.30487,31730
23.31300,32846
23.32112,30454
23.32923,30727
23.33737,29964
23.34548,31612
23.35360,30753
23.36173,26859
23.36985,32615
23.37798,31577
23.38610,28294
23.39422,31478
23.40235,28861
23.41047,28952
23.41860,31721
23.42672,29320
23.43483,29451
23.44297,32725
23.45108,27744
23.45922,29370
23.46733,30502
23.47545,28899
23.48358,26489
23.49170,31626
23.49982,31056
23.50795,31216
23.51607,31475
23.52420,32412
23.53232,31403
23.54043,30377
23.54857,32009
23.55668,32651
23.56482,32641
23.57293,30962
23.58105,32801
23.58918,33636
23.59730,30761
23.60542,31292
23.61355,30102
23.62167,30922
23.62980,32559
23.63792,31886
23.64603,30624
23.65417,34914
23.66228,35046
23.67042,36557
23.67853,40549
23.68665,39238
23.69478,45372
23.70290,45251
23.71103,45287
23.71915,43717
23.72727,43209
23.73540,43887
23.74352,39213
23.75163,42447
23.75977,54088
23.76788,97581
23.77602,205127
23.78413,417842
23.79225,846467
23.80038,1360020
23.80850,1734041
23.81663,1791292
23.82475,1558878
23.83287,1229047
23.84100,930655
23.84912,684515
23.85725,497724
23.86537,389972
23.87348,318990
23.88162,266190
23.88973,232283
23.89785,199389
23.90598,173061
23.91410,155705
23.92223,152534
23.93035,141685
23.93847,129355
23.94660,125768
23.95472,113500
23.96285,106606
23.97097,103860
23.97908,100651
23.98722,96568
23.99533,87204
24.00345,85094
24.01158,83921
24.01970,85624
24.02783,74545
24.03595,77406
24.04407,73659
24.05220,78117
24.06032,69979
24.06845,71925
24.07657,66448
24.08468,65508
24.09282,61227
24.10093,66204
24.10907,66005
24.11718,59843
24.12530,61079
24.13343,60746
24.14155,61398
24.14967,64147
24.15780,63676
24.16592,64226
24.17405,58587
24.18217,61419
24.19028,59144
24.19842,56062
24.20653,55862
24.21467,56002
24.22278,59808
24.23090,57439
24.23903,60564
24.24715,53994
24.25527,58166
24.26340,57316
24.27152,56881
24.27965,56653
24.28777,51698
24.29588,49086
24.30402,50757
24.31213,51097
24.32027,51578
24.32838,47741
24.33650,46336
24.34463,46628
24.35275,46751
24.36088,46622
24.36900,46058
24.37712,45735
24.38525,49202
24.39337,52099
24.40148,58527
24.40962,65493
24.41773,73226
24.42587,83388
24.43398,81988
24.44210,72223
24.45023,58250
24.45835,52513
24.46648,43221
24.47460,38188
24.48272,42448
24.49085,41295
24.49897,43556
24.50710,44323
24.51522,45941
24.52333,51749
24.53147,46620
24.53958,51145
24.54770,51655
24.55583,51297
24.56395,48183
24.57208,45657
24.58020,48138
24.58832,45531
24.59645,38459
24.60457,43927
24.61270,43742
24.62082,45129
24.62893,41461
24.63707,40573
24.64518,43065
24.65330,42739
24.66143,45328
24.66955,43662
24.67768,41108
24.68580,40574
24.69392,44508
24.70205,41006
24.71017,42226
24.71830,40248
24.72642,39232
24.73453,41715
24.74267,36763
24.75078,37780
24.75892,37367
24.76703,37804
24.77515,36879
24.78328,38451
24.79140,34063
24.79952,34197
24.80765,34799
24.81577,37153
24.82390,35194
24.83202,35610
24.84013,34390
24.84827,39196
24.85638,39822
24.86452,37385
24.87263,37491
24.88075,34565
24.88888,39141
24.89700,39661
24.90513,39819
24.91325,37476
24.92137,37370
24.92950,36418
24.93762,38873
24.94573,37483
24.95387,36817
24.96198,32729
24.97012,31962
24.97823,31587
24.98635,33804
24.99448,35510
25.00260,37358
25.01073,35762
25.01885,33346
25.02697,31388
25.03510,30398
25.04322,32221
25.05133,32526
25.05947,34735
25.06758,34447
25.07572,32685
25.08383,32757
25.09195,36105
25.10008,34222
25.10820,34436
25.11633,35369
25.12445,37734
25.13257,37711
25.14070,36144
25.14882,37847
25.15695,39285
25.16507,41577
25.17318,39053
25.18132,44157
25.18943,41443
25.19755,39308
25.20568,39302
25.21380,33519
25.22193,33251
25.23005,32786
25.23817,35569
25.24630,36656
25.25442,33934
25.26255,33648
25.27067,33533
25.27878,33962
25.28692,38067
25.29503,36373
25.30315,38050
25.31128,37692
25.31940,39885
25.32753,43533
25.33565,45122
25.34377,40951
25.35190,43474
25.36002,41379
25.36815,40905
25.37627,36154
25.38438,34484
25.39252,34042
25.40063,31768
25.40877,37310
25.41688,34201
25.42500,29708
25.43313,31415
25.44125,29979
25.44937,28253
25.45750,31071
25.46562,34825
25.47375,32238
25.48187,33681
25.48998,34533
25.49812,33074
25.50623,33710
25.51437,36782
25.52248,36003
25.53060,36540
25.53873,33739
25.54685,36124
25.55498,34545
25.56310,37483
25.57122,34149
25.57935,30537
25.58747,32092
25.59558,30303
25.60372,30086
25.61183,30522
25.61997,32468
25.62808,29935
25.63620,29883
25.64433,29231
25.65245,30716
25.66058,34146
25.66870,29118
25.67682,31481
25.68495,31772
25.69307,26587
25.70118,28603
25.70932,33829
25.71743,29043
25.72557,28058
25.73368,32758
25.74180,32920
25.74993,29555
25.75805,29141
25.76618,31239
25.77430,33086
25.78242,29080
25.79055,29930
25.79867,29649
25.80680,28707
25.81492,33228
25.82303,31461
25.83117,32688
25.83928,35005
25.84740,30228
25.85553,28221
25.86365,29833
25.87178,32827
25.87990,28217
25.88802,29236
25.89615,32385
25.90427,26133
25.91240,28005
25.92052,26152
25.92863,26370
25.93677,29490
25.94488,26112
25.95302,25597
25.96113,29326
25.96925,32301
25.97738,33044
25.98550,29504
25.99362,28110
26.00175,27348
26.00987,26838
26.01800,27498
26.02612,27829
26.03423,25623
26.04237,27775
26.05048,26805
26.05862,30340
26.06673,29635
26.07485,27273
26.08298,28557
26.09110,26661
26.09922,31196
26.10735,30291
26.11547,31337
26.12360,28336
26.13172,30505
26.13983,39059
26.14797,37402
26.15608,39566
26.16422,43105
26.17233,45491
26.18045,43623
26.18858,44341
26.19670,39663
26.20483,39575
26.21295,41238
26.22107,39080
26.22920,39970
26.23732,30068
26.24543,34591
26.25357,34407
26.26168,33886
26.26982,34783
26.27793,34971
26.28605,33877
26.29418,35297
26.30230,35923
26.31043,36361
26.31855,32252
26.32667,35114
26.33480,31721
26.34292,31411
26.35105,28718
26.35917,31241
26.36728,33060
26.37542,29675
26.38353,29623
26.39165,33731
26.39978,33825
26.40790,31229
26.41603,30748
26.42415,31195
26.43227,32155
26.44040,31359
26.44852,29282
26.45665,30278
26.46477,29087
26.47288,32579
26.48102,30307
26.48913,27642
26.49725,28551
26.50538,27394
26.51350,28846
26.52163,31854
26.52975,29039
26.53787,33018
26.54600,30328
26.55412,31033
26.56225,26941
26.57037,26523
26.57848,28927
26.58662,30812
26.59473,27772
26.60287,28871
26.61098,28287
26.61910,27082
26.62723,27855
26.63535,28620
26.64347,31995
26.65160,28722
26.65972,25040
26.66785,31596
26.67597,29203
26.68408,32603
26.69222,30321
26.70033,32302
26.70847,29976
26.71658,30235
26.72470,28192
26.73283,28524
26.74095,27517
26.74907,31172
26.75720,29630
26.76532,28157
26.77345,28669
26.78157,30615
26.78968,29387
26.79782,31473
26.80593,31663
26.81407,30117
26.82218,30782
26.83030,30967
26.83843,29287
26.84655,27890
26.85468,27912
26.86280,28435
26.87092,35414
26.87905,31381
26.88717,29241
26.89528,30783
26.90342,28986
26.91153,30218
26.91967,29006
26.92778,29505
26.93590,28376
26.94403,32527
26.95215,26517
26.96028,26765
26.96840,27432
26.97652,31312
26.98465,33489
26.99277,47476
27.00090,71699
27.00902,119864
27.01713,162906
27.02527,218374
27.03338,258478
27.04150,285509
27.04963,288846
27.05775,250569
27.06588,209272
27.07400,171916
27.08212,142873
27.09025,113595
27.09837,105074
27.10650,87140
27.11462,83743
27.12273,80458
27.13087,74647
27.13898,68227
27.14710,72531
27.15523,68489
27.16335,62977
27.17148,63237
27.17960,62218
27.18772,56724
27.19585,58967
27.20397,59012
27.21210,56547
27.22022,55249
27.22833,56876
27.23647,54974
27.24458,52848
27.25272,47228
27.26083,54415
27.26895,47910
27.27708,45135
27.28520,46982
27.29332,45931
27.30145,43673
27.30957,41273
27.31770,40594
27.32582,43242
27.33393,39359
27.34207,44267
27.35018,36921
27.35832,41712
27.36643,38390
27.37455,38520
27.38268,38853
27.39080,35483
27.39893,41643
27.40705,35844
27.41517,37959
27.42330,41844
27.43142,37925
27.43953,39695
27.44767,38436
27.45578,36496
27.46392,36418
27.47203,37650
27.48015,39535
27.48828,36256
27.49640,39160
27.50453,35889
27.51265,35996
27.52077,38126
27.52890,33931
27.53702,37649
27.54513,34868
27.55327,34833
27.56138,37259
27.56952,37170
27.57763,36091
27.58575,34093
27.59388,38841
27.60200,32578
27.61013,37358
27.61825,35519
27.62637,36256
27.63450,33040
27.64262,36706
27.65075,35907
27.65887,35021
27.66698,33275
27.67512,33989
27.68323,35107
27.69135,34118
27.69948,33440
27.70760,29696
27.71573,35178
27.72385,33012
27.73197,33038
27.74010,33510
27.74822,33595
27.75635,33563
27.76447,32278
27.77258,34524
27.78072,32716
27.78883,31257
27.79695,30801
27.80508,29699
27.81320,32964
27.82133,35580
27.82945,34905
27.83757,33726
27.84570,33897
27.85382,29547
27.86195,34280
27.87007,33330
27.87818,31714
27.88632,34343
27.89443,33905
27.90257,30327
27.91068,29907
27.91880,32099
27.92693,30638
27.93505,33360
27.94317,32069
27.95130,33064
27.95942,31966
27.96755,32057
27.97567,34971
27.98378,32846
27.99192,33143
28.00003,29175
28.00817,35526
28.01628,31411
28.02440,31341
28.03253,32052
28.04065,31284
28.04878,34514
28.05690,32133
28.06502,31044
28.07315,32022
28.08127,34017
28.08938,32068
28.09752,31987
28.10563,30563
28.11377,32371
28.12188,33019
28.13000,30559
28.13813,34719
28.14625,32834
28.15438,34456
28.16250,30297
28.17062,29020
28.17875,29485
28.18687,30971
28.19498,29082
28.20312,27161
28.21123,32082
28.21937,31000
28.22748,34301
28.23560,35424
28.24373,37687
28.25185,33681
28.25998,32509
28.26810,31981
28.27622,32246
28.28435,28262
28.29247,33473
28.30060,30385
28.30872,31803
28.31683,36157
28.32497,39097
28.33308,41183
28.34120,40829
28.34933,51736
28.35745,52074
28.36558,59642
28.37370,66036
28.38182,71664
28.38995,70978
28.39807,71681
28.40620,67563
28.41432,66668
28.42243,64204
28.43057,60832
28.43868,60172
28.44682,54346
28.45493,54164
28.46305,48968
28.47118,49590
28.47930,45266
28.48742,45206
28.49555,44672
28.50367,44610
28.51180,45584
28.51992,40728
28.52803,40335
28.53617,40032
28.54428,40861
28.55242,39547
28.56053,39850
28.56865,37452
28.57678,41744
28.58490,36053
28.59302,37172
28.60115,37875
28.60927,40879
28.61740,36459
28.62552,39794
28.63363,36854
28.64177,40814
28.64988,38982
28.65802,46101
28.66613,42291
28.67425,44383
28.68238,43430
28.69050,43483
28.69863,45349
28.70675,43290
28.71487,42763
28.72300,39634
28.73112,34724
28.73923,38734
28.74737,38562
28.75548,36651
28.76362,40186
28.77173,40438
28.77985,43920
28.78798,47202
28.79610,50867
28.80423,50708
28.81235,52239
28.82047,47763
28.82860,41105
28.83672,41082
28.84483,38225
28.85297,35847
28.86108,34482
28.86922,32502
28.87733,30425
28.88545,34023
28.89358,34982
28.90170,34995
28.90983,32612
28.91795,34954
28.92607,35617
28.93420,35790
28.94232,31398
28.95045,34000
28.95857,34960
28.96668,33143
28.97482,33314
28.98293,34513
28.99105,30648
28.99918,35884
29.00730,33121
29.01543,32148
29.02355,35114
29.03167,35072
29.03980,31635
29.04792,33156
29.05605,33419
29.06417,30925
29.07228,31150
29.08042,35601
29.08853,36292
29.09667,33575
29.10478,32408
29.11290,29212
29.12103,29721
29.12915,33776
29.13727,31631
29.14540,29612
29.15352,31326
29.16165,31896
29.16977,32121
29.17788,33756
29.18602,30862
29.19413,32708
29.20227,36375
29.21038,37390
29.21850,35546
29.22663,34918
29.23475,32559
29.24288,36433
29.25100,31243
29.25912,34659
29.26725,33310
29.27537,31389
29.28348,33534
29.29162,37981
29.29973,36326
29.30787,33067
29.31598,34171
29.32410,32769
29.33223,32102
29.34035,35178
29.34848,35811
29.35660,35332
29.36472,31451
29.37285,34332
29.38097,32726
29.38908,34467
29.39722,31278
29.40533,34421
29.41347,29346
29.42158,37332
29.42970,32488
29.43783,33718
29.44595,33505
29.45408,31908
29.46220,34507
29.47032,33397
29.47845,36755
29.48657,28692
29.49470,31409
29.50282,35578
29.51093,33951
29.51907,38529
29.52718,36791
29.53530,40609
29.54343,35897
29.55155,35556
29.55968,33766
29.56780,35567
29.57592,30448
29.58405,32521
29.59217,31622
29.60030,32842
29.60842,32416
29.61653,33199
29.62467,32612
29.63278,35997
29.64090,33057
29.64903,33697
29.65715,32390
29.66528,33413
29.67340,30031
29.68152,34187
29.68965,34625
29.69777,31154
29.70590,31140
29.71402,33911
29.72213,32989
29.73027,31191
29.73838,31778
29.74652,32607
29.75463,27142
29.76275,30406
29.77088,30816
29.77900,33125
29.78712,34086
29.79525,31857
29.80337,31244
29.81150,31332
29.81962,32353
29.82773,30924
29.83587,30452
29.84398,33194
29.85212,29203
29.86023,33551
29.86835,27353
29.87648,30248
29.88460,31433
29.89273,33016
29.90085,35855
29.90897,37709
29.91710,39769
29.92522,38172
29.93333,36772
29.94147,36765
29.94958,38411
29.95772,34001
29.96583,35313
29.97395,32745
29.98208,36376
29.99020,38186
29.99833,42928
30.00645,44669
30.01457,44075
30.02270,46187
30.03082,47656
30.03893,48720
30.04707,55609
30.05518,52709
30.06332,50930
30.07143,51604
30.07955,50179
30.08768,47346
30.09580,47303
30.10393,46633
30.11205,45314
30.12017,44675
30.12830,46999
30.13642,45025
30.14455,43357
30.15267,40352
30.16078,39326
30.16892,39893
30.17703,37138
30.18515,39546
30.19328,34493
30.20140,38009
30.20953,36234
30.21765,36676
30.22577,40236
30.23390,37486
30.24202,38101
30.25015,33810
30.25827,35600
30.26638,37673
30.27452,35971
30.28263,34038
30.29077,34135
30.29888,34316
30.30700,37115
30.31513,32626
30.32325,36035
30.33137,35068
30.33950,33448
30.34762,37520
30.35575,34485
30.36387,36914
30.37198,34379
30.38012,33526
30.38823,33088
30.39637,35013
30.40448,33090
30.41260,31549
30.42073,32314
30.42885,35468
30.43697,33014
30.44510,36030
30.45322,33059
30.46135,35356
30.46947,33842
30.47758,32260
30.48572,34219
30.49383,32859
30.50197,32179
30.51008,32822
30.51820,32851
30.52633,30595
30.53445,33899
30.54258,30771
30.55070,31598
30.55882,33697
30.56695,33608
30.57507,31705
30.58318,30943
30.59132,27449
30.59943,31914
30.60757,34542
30.61568,31636
30.62380,33331
30.63193,35275
30.64005,30522
30.64818,28462
30.65630,31002
30.66442,32930
30.67255,29879
30.68067,33345
30.68878,31888
30.69692,34250
30.70503,32886
30.71317,32958
30.72128,29844
30.72940,28351
30.73753,30642
30.74565,29623
30.75378,29261
30.76190,30808
30.77002,30816
30.77815,29752
30.78627,32647
30.79440,31568
30.80252,37212
30.81063,32962
30.81877,36893
30.82688,35663
30.83500,39860
30.84313,35079
30.85125,35771
30.85938,36286
30.86750,34704
30.87562,33725
30.88375,29668
30.89187,32892
30.90000,31904
30.90812,28353
30.91623,28402
30.92437,30286
30.93248,31577
30.94062,31721
30.94873,29707
30.95685,31472
30.96498,29492
30.97310,33121
30.98122,31259
30.98935,30804
30.99747,31204
31.00560,31014
31.01372,33666
31.02183,29348
31.02997,31220
31.03808,33498
31.04622,32617
31.05433,32561
31.06245,34994
31.07058,35926
31.07870,36558
31.08682,34264
31.09495,33284
31.10307,35679
31.11120,36295
31.11932,40479
31.12743,43604
31.13557,39245
31.14368,38106
31.15182,35996
31.15993,35183
31.16805,37149
31.17618,38356
31.18430,40270
31.19243,36278
31.20055,41590
31.20867,49438
31.21680,62499
31.22492,76629
31.23303,89501
31.24117,100052
31.24928,78664
31.25742,67936
31.26553,57463
31.27365,50905
31.28178,40088
31.28990,37385
31.29803,35612
31.30615,34582
31.31427,34191
31.32240,30840
31.33052,33064
31.33865,29544
31.34677,34253
31.35488,31730
31.36302,34598
31.37113,35414
31.37925,32290
31.38738,32355
31.39550,35773
31.40363,33271
31.41175,32255
31.41987,32967
31.42800,33783
31.43612,38328
31.44425,34790
31.45237,38892
31.46048,35684
31.46862,32865
31.47673,31937
31.48485,28024
31.49298,32366
31.50110,33381
31.50923,33360
31.51735,30412
31.52547,30797
31.53360,31254
31.54172,34384
31.54985,29982
31.55797,31579
31.56608,32335
31.57422,30633
31.58233,28518
31.59047,30880
31.59858,27835
31.60670,30578
31.61483,31114
31.62295,36232
31.63107,35433
31.63920,32348
31.64732,30780
31.65545,33882
31.66357,33686
31.67168,33674
31.67982,33886
31.68793,31464
31.69607,34999
31.70418,33361
31.71230,32593
31.72043,31208
31.72855,29375
31.73668,32134
31.74480,29952
31.75292,31123
31.76105,32135
31.76917,33130
31.77728,33277
31.78542,32519
31.79353,33927
31.80167,33482
31.80978,37141
31.81790,35106
31.82603,38612
31.83415,35452
31.84228,36509
31.85040,37904
31.85852,38538
31.86665,39288
31.87477,42457
31.88288,40258
31.89102,37896
31.89913,41506
31.90727,42836
31.91538,41226
31.92350,37860
31.93163,35350
31.93975,39607
31.94788,37451
31.95600,39928
31.96412,40102
31.97225,44432
31.98037,40202
31.98850,45446
31.99662,45130
32.00473,41593
32.01287,45216
32.02098,46709
32.02910,45879
32.03723,38449
32.04535,38968
32.05348,41074
32.06160,41559
32.06972,39254
32.07785,40933
32.08597,40516
32.09410,39921
32.10222,43994
32.11033,45612
32.11847,40317
32.12658,37330
32.13470,40219
32.14283,38702
32.15095,37287
32.15908,37710
32.16720,38357
32.17532,39681
32.18345,39343
32.19157,35492
32.19970,33807
32.20782,32449
32.21593,35673
32.22407,35493
32.23218,37893
32.24032,35276
32.24843,35244
32.25655,36401
32.26468,36666
32.27280,37837
32.28092,36189
32.28905,35597
32.29717,36287
32.30530,39312
32.31342,36475
32.32153,34727
32.32967,34153
32.33778,33353
32.34592,33823
32.35403,35991
32.36215,36181
32.37028,34662
32.37840,33778
32.38653,38186
32.39465,36355
32.40277,36865
32.41090,39324
32.41902,37531
32.42713,35294
32.43527,35456
32.44338,38782
32.45152,31423
32.45963,34305
32.46775,32513
32.47588,32468
32.48400,34564
32.49213,34378
32.50025,35256
32.50837,36391
32.51650,37281
32.52462,34744
32.53273,33133
32.54087,33662
32.54898,32220
32.55712,34924
32.56523,37336
32.57335,35205
32.58148,33845
32.58960,34963
32.59773,34353
32.60585,33234
32.61397,36483
32.62210,31378
32.63022,32219
32.63835,32149
32.64647,34458
32.65458,38906
32.66272,39091
32.67083,39620
32.67895,45112
32.68708,46234
32.69520,49624
32.70333,46812
32.71145,46161
32.71957,46365
32.72770,42566
32.73582,38669
32.74395,37970
32.75207,36618
32.76018,37250
32.76832,37059
32.77643,38160
32.78457,33960
32.79268,33687
32.80080,32544
32.80893,36836
32.81705,32174
32.82517,33432
32.83330,33883
32.84142,35016
32.84955,36151
32.85767,34567
32.86578,39072
32.87392,35226
32.88203,35775
32.89017,35069
32.89828,37258
32.90640,34467
32.91453,33729
32.92265,36415
32.93077,35687
32.93890,33399
32.94702,34076
32.95515,35493
32.96327,36036
32.97138,36149
32.97952,34933
32.98763,35987
32.99577,34651
33.00388,34237
33.01200,36608
33.02013,36116
33.02825,37887
33.03638,34164
33.04450,33393
33.05262,33519
33.06075,36602
33.06887,31593
33.07698,32252
33.08512,34931
33.09323,36607
33.10137,41740
33.10948,45068
33.11760,55056
33.12573,61994
33.13385,66775
33.14198,63428
33.15010,53965
33.15822,50145
33.16635,42919
33.17447,42183
33.18258,37473
33.19072,36989
33.19883,37932
33.20697,39786
33.21508,36406
33.22320,40401
33.23133,38422
33.23945,35916
33.24758,38602
33.25570,35469
33.26382,38749
33.27195,36272
33.28007,34042
33.28820,36347
33.29632,34837
33.30443,33713
33.31257,35436
33.32068,38535
33.32880,37821
33.33693,36330
33.34505,35079
33.35318,35065
33.36130,37994
33.36942,37584
33.37755,34335
33.38567,37014
33.39380,36559
33.40192,33578
33.41003,35859
33.41817,35321
33.42628,38103
33.43442,35016
33.44253,39143
33.45065,42320
33.45878,39038
33.46690,35869
33.47502,31796
33.48315,34055
33.49127,35084
33.49940,38322
33.50752,38961
33.51563,38323
33.52377,36266
33.53188,36543
33.54002,36730
33.54813,38856
33.55625,36910
33.56438,38885
33.57250,38360
33.58063,38945
33.58875,42526
33.59687,36221
33.60500,34940
33.61312,34794
33.62123,36505
33.62937,34058
33.63748,34339
33.64562,36238
33.65373,40567
33.66185,35835
33.66998,38355
33.67810,36328
33.68623,39082
33.69435,38160
33.70247,39666
33.71060,33821
33.71872,37896
33.72683,34616
33.73497,39744
33.74308,37248
33.75122,35883
33.75933,38804
33.76745,37606
33.77558,38130
33.78370,32927
33.79183,36295
33.79995,34591
33.80807,36315
33.81620,36200
33.82432,35358
33.83245,34044
33.84057,35266
33.84868,36918
33.85682,41120
33.86493,40083
33.87305,36536
33.88118,40326
33.88930,40084
33.89743,38842
33.90555,41802
33.91367,43230
33.92180,40179
33.92992,36413
33.93805,41810
33.94617,42807
33.95428,41455
33.96242,36404
33.97053,39561
33.97865,40181
33.98678,41927
33.99490,42415
34.00303,39748
34.01115,38334
34.01927,39780
34.02740,40258
34.03552,40869
34.04365,37053
34.05177,37434
34.05988,36353
34.06802,35731
34.07613,37888
34.08427,36344
34.09238,40125
34.10050,40302
34.10863,42931
34.11675,39343
34.12487,35631
34.13300,38328
34.14112,41329
34.14925,40800
34.15737,40830
34.16548,41517
34.17362,37275
34.18173,37948
34.18987,39729
34.19798,40041
34.20610,38734
34.21423,43096
34.22235,41033
34.23048,40713
34.23860,38804
34.24672,42353
34.25485,40617
34.26297,40171
34.27108,44505
34.27922,42282
34.28733,43302
34.29547,40759
34.30358,41558
34.31170,44571
34.31983,40323
34.32795,39572
34.33608,40779
34.34420,44251
34.35232,41088
34.36045,38788
34.36857,43201
34.37668,43290
34.38482,39103
34.39293,41198
34.40107,37980
34.40918,40892
34.41730,37474
34.42543,40512
34.43355,43012
34.44168,40857
34.44980,46654
34.45792,42055
34.46605,41184
34.47417,41183
34.48230,39630
34.49042,46353
34.49853,44968
34.50667,42786
34.51478,43085
34.52290,41977
34.53103,39310
34.53915,43458
34.54728,46717
34.55540,45110
34.56352,49152
34.57165,50639
34.57977,54037
34.58790,53788
34.59602,49895
34.60413,51545
34.61227,51749
34.62038,49916
34.62852,44978
34.63663,45221
34.64475,45995
34.65288,45355
34.66100,43276
34.66912,44966
34.67725,48302
34.68537,46141
34.69350,44741
34.70162,43649
34.70973,42201
34.71787,46378
34.72598,48314
34.73412,44147
34.74223,45101
34.75035,48777
34.75848,43988
34.76660,48646
34.77472,46718
34.78285,46314
34.79097,43660
34.79910,40941
34.80722,46682
34.81533,42892
34.82347,40928
34.83158,40889
34.83972,44668
34.84783,41808
34.85595,44554
34.86408,40941
34.87220,47333
34.88033,43238
34.88845,42493
34.89657,40575
34.90470,48229
34.91282,43060
34.92093,48126
34.92907,40597
34.93718,41936
34.94532,43809
34.95343,52721
34.96155,53362
34.96968,52855
34.97780,49826
34.98593,53117
34.99405,49930
35.00217,46259
35.01030,50385
35.01842,49590
35.02653,50694
35.03467,50831
35.04278,49847
35.05092,51275
35.05903,53175
35.06715,47048
35.07528,48608
35.08340,48209
35.09153,48155
35.09965,49828
35.10777,50808
35.11590,48932
35.12402,48176
35.13215,47216
35.14027,48941
35.14838,49741
35.15652,48725
35.16463,52018
35.17275,55089
35.18088,47055
35.18900,51369
35.19713,48160
35.20525,51046
35.21337,45961
35.22150,47060
35.22962,44401
35.23775,42783
35.24587,44687
35.25398,45687
35.26212,50463
35.27023,44221
35.27837,47466
35.28648,50590
35.29460,51660
35.30273,51054
35.31085,46138
35.31897,45351
35.32710,44785
35.33522,47089
35.34335,45394
35.35147,45252
35.35958,46550
35.36772,40771
35.37583,44197
35.38397,44894
35.39208,43463
35.40020,43966
35.40833,44067
35.41645,43036
35.42457,45057
35.43270,43055
35.44082,45154
35.44895,44959
35.45707,45468
35.46518,50199
35.47332,47671
35.48143,50362
35.48957,49530
35.49768,53058
35.50580,50324
35.51393,45635
35.52205,51332
35.53018,47938
35.53830,46781
35.54642,49648
35.55455,47613
35.56267,47178
35.57078,46532
35.57892,46492
35.58703,46707
35.59517,49072
35.60328,48354
35.61140,49575
35.61953,48554
35.62765,45769
35.63578,46433
35.64390,44943
35.65202,44409
35.66015,44630
35.66827,43346
35.67640,45037
35.68452,50112
35.69263,51251
35.70077,49748
35.70888,48016
35.71700,51749
35.72513,48238
35.73325,49661
35.74138,49687
35.74950,51215
35.75762,49254
35.76575,48172
35.77387,47023
35.78200,51907
35.79012,52460
35.79823,47453
35.80637,54492
35.81448,52580
35.82260,47845
35.83073,44232
35.83885,49331
35.84698,46439
35.85510,46279
35.86322,46767
35.87135,48160
35.87947,46354
35.88760,43533
35.89572,50473
35.90383,49509
35.91197,51429
35.92008,51486
35.92822,48336
35.93633,46646
35.94445,47508
35.95258,50686
35.96070,49562
35.96882,50727
35.97695,50668
35.98507,46465
35.99320,52508
36.00132,46867
36.00943,49390
36.01757,47864
36.02568,46998
36.03382,50522
36.04193,53941
36.05005,54072
36.05818,51209
36.06630,49834
36.07442,51922
36.08255,50115
36.09067,52551
36.09880,52083
36.10692,50800
36.11503,51038
36.12317,50088
36.13128,55044
36.13942,52295
36.14753,54013
36.15565,52191
36.16378,49476
36.17190,53053
36.18003,47909
36.18815,46625
36.19627,47759
36.20440,52725
36.21252,50987
36.22063,47253
36.22877,47256
36.23688,50239
36.24502,48181
36.25313,50930
36.26125,49622
36.26938,49584
36.27750,49151
36.28563,52281
36.29375,48969
36.30187,52119
36.31000,51315
36.31812,55662
36.32625,59973
36.33437,62314
36.34248,65533
36.35062,64235
36.35873,62320
36.36685,56791
36.37498,54959
36.38310,55794
36.39123,56265
36.39935,51827
36.40747,59633
36.41560,53132
36.42372,59157
36.43185,58009
36.43997,55015
36.44808,52994
36.45622,51819
36.46433,54028
36.47245,50117
36.48058,48199
36.48870,51494
36.49683,50627
36.50495,52856
36.51307,53551
36.52120,54797
36.52932,50060
36.53745,51904
36.54557,48132
36.55368,47876
36.56182,50723
36.56993,50311
36.57807,50501
36.58618,54299
36.59430,50327
36.60243,50472
36.61055,50690
36.61867,50284
36.62680,52254
36.63492,51118
36.64305,53128
36.65117,53047
36.65928,54573
36.66742,51897
36.67553,60158
36.68367,52636
36.69178,50546
36.69990,54754
36.70803,53450
36.71615,57164
36.72428,53056
36.73240,50876
36.74052,51058
36.74865,51738
36.75677,54718
36.76488,53314
36.77302,53626
36.78113,56707
36.78927,54232
36.79738,49533
36.80550,57578
36.81363,54961
36.82175,50474
36.82988,52600
36.83800,49253
36.84612,53939
36.85425,53463
36.86237,56421
36.87048,54228
36.87862,51802
36.88673,57369
36.89487,52374
36.90298,51250
36.91110,53947
36.91923,54219
36.92735,54281
36.93548,56027
36.94360,56608
36.95172,55386
36.95985,52318
36.96797,51608
36.97610,54737
36.98422,52686
36.99233,54834
37.00047,51971
37.00858,54354
37.01670,52345
37.02483,55957
37.03295,51730
37.04108,53833
37.04920,56936
37.05732,54993
37.06545,55381
37.07357,52895
37.08170,58277
37.08982,57955
37.09793,54198
37.10607,55502
37.11418,53777
37.12232,57825
37.13043,60186
37.13855,56668
37.14668,51773
37.15480,58367
37.16292,57456
37.17105,56619
37.17917,54461
37.18730,56459
37.19542,54923
37.20353,54985
37.21167,54266
37.21978,57790
37.22792,54607
37.23603,56440
37.24415,59464
37.25228,60966
37.26040,60151
37.26852,57642
37.27665,59389
37.28477,60550
37.29290,57243
37.30102,59557
37.30913,57546
37.31727,62021
37.32538,53631
37.33352,54606
37.34163,61128
37.34975,59747
37.35788,63937
37.36600,63758
37.37413,65536
37.38225,62203
37.39037,66339
37.39850,64366
37.40662,62322
37.41473,63239
37.42287,67222
37.43098,66342
37.43912,61615
37.44723,60555
37.45535,65645
37.46348,68581
37.47160,59466
37.47973,64525
37.48785,64464
