Z:\data\JTB-E02\BACandBLUE\JTB-E02-196-14.D Wed Feb 20 17:43:39 2019
Start of data points
2.09517	107220
2.10328	107849
2.11140	97578
2.11953	102934
2.12765	100548
2.13578	108774
2.14390	105557
2.15202	105096
2.16015	109591
2.16827	98340
2.17640	95117
2.18452	91091
2.19263	91516
2.20077	88346
2.20888	93345
2.21702	89153
2.22513	82204
2.23325	83031
2.24138	84401
2.24950	89853
2.25762	220863
2.26575	927861
2.27387	1737722
2.28200	1397021
2.29012	749553
2.29823	541281
2.30637	436537
2.31448	401015
2.32262	366544
2.33073	319078
2.33885	290013
2.34698	264208
2.35510	248631
2.36323	234308
2.37135	225596
2.37947	215812
2.38760	215168
2.39572	205147
2.40383	201360
2.41197	204562
2.42008	195918
2.42822	184160
2.43633	183954
2.44445	171599
2.45258	173985
2.46070	165824
2.46883	166592
2.47695	165316
2.48507	166926
2.49320	169098
2.50132	158185
2.50943	157467
2.51757	153515
2.52568	146568
2.53382	151654
2.54193	176111
2.55005	248672
2.55818	447207
2.56630	495153
2.57443	383204
2.58255	306992
2.59067	262363
2.59880	254233
2.60692	256099
2.61505	259155
2.62317	249983
2.63128	214349
2.63942	205327
2.64753	188389
2.65565	194355
2.66378	180210
2.67190	177259
2.68003	168358
2.68815	165257
2.69627	164008
2.70440	163850
2.71252	155225
2.72065	147719
2.72877	145519
2.73688	150242
2.74502	146695
2.75313	141049
2.76127	140482
2.76938	143363
2.77750	142617
2.78563	143190
2.79375	151008
2.80187	152319
2.81000	156497
2.81812	151650
2.82625	184777
2.83437	190621
2.84248	171359
2.85062	153371
2.85873	149371
2.86687	142450
2.87498	145438
2.88310	128021
2.89123	130370
2.89935	125311
2.90747	119232
2.91560	121204
2.92372	120608
2.93185	124094
2.93997	120564
2.94808	126355
2.95622	121832
2.96433	119499
2.97247	118515
2.98058	121657
2.98870	127649
2.99683	129365
3.00495	135861
3.01308	131445
3.02120	122451
3.02932	120091
3.03745	123559
3.04557	121861
3.05368	135109
3.06182	144000
3.06993	138839
3.07807	127326
3.08618	160905
3.09430	514213
3.10243	1388862
3.11055	1927087
3.11868	1513630
3.12680	968183
3.13492	758003
3.14305	631355
3.15117	531606
3.15928	462854
3.16742	417605
3.17553	366210
3.18367	337917
3.19178	305792
3.19990	282858
3.20803	257958
3.21615	236903
3.22428	220145
3.23240	217432
3.24052	208391
3.24865	198776
3.25677	194365
3.26490	184446
3.27302	200394
3.28113	458729
3.28927	1813335
3.29738	5515015
3.30550	1.002967E+07
3.31363	1.10858E+07
3.32175	8872592
3.32988	6027817
3.33800	4303064
3.34612	3280041
3.35425	2665055
3.36237	2236064
3.37050	1924856
3.37862	1654961
3.38673	1465547
3.39487	1340404
3.40298	1203702
3.41112	1099946
3.41923	1043203
3.42735	974314
3.43548	895945
3.44360	839655
3.45172	860677
3.45985	1087674
3.46797	1455175
3.47610	1561707
3.48422	1272111
3.49233	995934
3.50047	854439
3.50858	736121
3.51672	679628
3.52483	642597
3.53295	609729
3.54108	568466
3.54920	538002
3.55732	506304
3.56545	503733
3.57357	485876
3.58170	473017
3.58982	464220
3.59793	440652
3.60607	428682
3.61418	433297
3.62232	457884
3.63043	506635
3.63855	518957
3.64668	483407
3.65480	430402
3.66293	398457
3.67105	374455
3.67917	372600
3.68730	364804
3.69542	348034
3.70353	336514
3.71167	337271
3.71978	322762
3.72792	326254
3.73603	315632
3.74415	325173
3.75228	305288
3.76040	309437
3.76853	303579
3.77665	301086
3.78477	312578
3.79290	397218
3.80102	809646
3.80915	1762739
3.81727	2425442
3.82538	2077192
3.83352	1400244
3.84163	998106
3.84975	824024
3.85788	728948
3.86600	657581
3.87413	598723
3.88225	548836
3.89037	526160
3.89850	486457
3.90662	462535
3.91475	455570
3.92287	435310
3.93098	413821
3.93912	406653
3.94723	393776
3.95535	387868
3.96348	384832
3.97160	381391
3.97973	366375
3.98785	348755
3.99597	347030
4.00410	371094
4.01222	374742
4.02035	370919
4.02847	348705
4.03658	317272
4.04472	311793
4.05283	311378
4.06097	299418
4.06908	291911
4.07720	289952
4.08533	284808
4.09345	283621
4.10157	271410
4.10970	275057
4.11782	266735
4.12595	271091
4.13407	267750
4.14218	286597
4.15032	291280
4.15843	300035
4.16657	304442
4.17468	310736
4.18280	305006
4.19093	286322
4.19905	270151
4.20717	258852
4.21530	293386
4.22342	358985
4.23155	449251
4.23967	450954
4.24778	403577
4.25592	332687
4.26403	307592
4.27217	306871
4.28028	266754
4.28840	265426
4.29653	262577
4.30465	258904
4.31278	253675
4.32090	253330
4.32902	243110
4.33715	255486
4.34527	241282
4.35338	243460
4.36152	234533
4.36963	230435
4.37777	231975
4.38588	225099
4.39400	230422
4.40213	221416
4.41025	229140
4.41838	233887
4.42650	228291
4.43462	221407
4.44275	220707
4.45087	217672
4.45900	209961
4.46712	206609
4.47523	206263
4.48337	201373
4.49148	213835
4.49960	212765
4.50773	205995
4.51585	199484
4.52398	211320
4.53210	202695
4.54022	202912
4.54835	202438
4.55647	208999
4.56460	200918
4.57272	202142
4.58083	195269
4.58897	196004
4.59708	193496
4.60522	190885
4.61333	189384
4.62145	191104
4.62958	189786
4.63770	186833
4.64582	191688
4.65395	185958
4.66207	194278
4.67020	193589
4.67832	194307
4.68643	185620
4.69457	183176
4.70268	189087
4.71082	182073
4.71893	174837
4.72705	178893
4.73518	185501
4.74330	187485
4.75142	179913
4.75955	170734
4.76767	170034
4.77580	175083
4.78392	178745
4.79203	183249
4.80017	196486
4.80828	201700
4.81642	204097
4.82453	196894
4.83265	203925
4.84078	204747
4.84890	221203
4.85703	199079
4.86515	187552
4.87327	184285
4.88140	184611
4.88952	179587
4.89763	183951
4.90577	175048
4.91388	183729
4.92202	176510
4.93013	218382
4.93825	375143
4.94638	852744
4.95450	1669632
4.96263	2639580
4.97075	3047497
4.97887	2816351
4.98700	2284377
4.99512	1790198
5.00323	1409501
5.01137	1140493
5.01948	1009164
5.02762	878888
5.03573	803655
5.04385	721635
5.05198	666008
5.06010	629004
5.06823	607937
5.07635	578488
5.08447	544658
5.09260	517489
5.10072	490442
5.10885	491006
5.11697	467066
5.12508	457555
5.13322	439194
5.14133	418221
5.14945	410353
5.15758	405220
5.16570	398071
5.17383	391229
5.18195	372883
5.19007	396991
5.19820	378354
5.20632	373281
5.21445	356414
5.22257	354935
5.23068	360096
5.23882	362012
5.24693	361695
5.25507	353047
5.26318	332382
5.27130	324527
5.27943	305369
5.28755	288672
5.29567	300453
5.30380	287018
5.31192	290923
5.32005	288183
5.32817	311389
5.33628	312701
5.34442	326797
5.35253	327694
5.36067	316806
5.36878	300823
5.37690	307909
5.38503	314974
5.39315	321230
5.40127	309066
5.40940	305494
5.41752	279084
5.42565	291239
5.43377	315553
5.44188	347200
5.45002	369364
5.45813	366170
5.46627	343597
5.47438	324287
5.48250	293691
5.49063	302973
5.49875	279686
5.50688	280567
5.51500	301041
5.52312	287978
5.53125	271315
5.53937	272936
5.54748	263213
5.55562	274347
5.56373	262379
5.57187	269425
5.57998	278672
5.58810	292695
5.59623	293205
5.60435	292121
5.61248	277658
5.62060	265227
5.62872	279511
5.63685	278043
5.64497	271077
5.65310	267704
5.66122	272583
5.66933	253046
5.67747	258561
5.68558	276189
5.69370	295442
5.70183	309171
5.70995	302688
5.71808	258816
5.72620	260354
5.73432	254955
5.74245	241615
5.75057	237592
5.75870	233708
5.76682	230373
5.77493	232255
5.78307	234494
5.79118	220298
5.79930	214486
5.80743	215289
5.81555	218615
5.82368	215354
5.83180	230611
5.83992	225566
5.84805	216600
5.85617	218649
5.86430	220446
5.87242	216994
5.88053	216194
5.88867	216162
5.89678	210069
5.90492	204892
5.91303	181963
5.92115	159171
5.92928	156023
5.93740	156323
5.94552	159214
5.95365	157630
5.96177	185379
5.96990	229018
5.97802	286107
5.98613	338090
5.99427	323465
6.00238	275132
6.01052	225975
6.01863	200470
6.02675	191678
6.03488	181811
6.04300	176612
6.05112	171045
6.05925	157837
6.06737	151301
6.07550	160279
6.08362	149623
6.09173	148887
6.09987	151711
6.10798	150810
6.11612	148517
6.12423	153777
6.13235	160321
6.14048	152117
6.14860	161240
6.15673	160663
6.16485	163454
6.17297	166577
6.18110	173341
6.18922	169236
6.19733	166217
6.20547	181185
6.21358	182717
6.22172	184970
6.22983	184923
6.23795	185532
6.24608	196422
6.25420	186227
6.26233	188345
6.27045	187614
6.27857	197241
6.28670	203964
6.29482	199338
6.30295	208572
6.31107	217440
6.31918	216031
6.32732	220181
6.33543	222698
6.34355	214980
6.35168	208807
6.35980	220922
6.36793	227411
6.37605	229003
6.38417	226143
6.39230	233130
6.40042	227375
6.40855	237823
6.41667	227632
6.42478	231454
6.43292	239982
6.44103	252319
6.44915	256663
6.45728	245419
6.46540	248806
6.47353	248331
6.48165	250432
6.48977	253975
6.49790	245273
6.50602	263888
6.51415	255280
6.52227	267412
6.53038	253597
6.53852	259120
6.54663	262036
6.55477	268583
6.56288	261904
6.57100	275444
6.57913	270737
6.58725	276109
6.59537	274420
6.60350	278371
6.61162	289830
6.61975	280451
6.62787	267057
6.63598	311492
6.64412	470888
6.65223	1031805
6.66037	2257113
6.66848	3710546
6.67660	4180097
6.68473	3294227
6.69285	2039491
6.70098	1248807
6.70910	836893
6.71722	675593
6.72535	586609
6.73347	531516
6.74158	497348
6.74972	476946
6.75783	457229
6.76597	432798
6.77408	425999
6.78220	357574
6.79033	311721
6.79845	295088
6.80658	277434
6.81470	262524
6.82282	256977
6.83095	244125
6.83907	232320
6.84718	237002
6.85532	231335
6.86343	217026
6.87157	186340
6.87968	167489
6.88780	153701
6.89593	145926
6.90405	142547
6.91218	141646
6.92030	140546
6.92842	137383
6.93655	128701
6.94467	131347
6.95280	134483
6.96092	137479
6.96903	148732
6.97717	176682
6.98528	184125
6.99340	176053
7.00153	149317
7.00965	139593
7.01778	119618
7.02590	116427
7.03402	107170
7.04215	112359
7.05027	125332
7.05840	122030
7.06652	119676
7.07463	116926
7.08277	122966
7.09088	122948
7.09902	121849
7.10713	121851
7.11525	119219
7.12338	122352
7.13150	113227
7.13962	113002
7.14775	131136
7.15587	133156
7.16400	147303
7.17212	147154
7.18023	143258
7.18837	127064
7.19648	118194
7.20462	112442
7.21273	108288
7.22085	101589
7.22898	110508
7.23710	122774
7.24522	125771
7.25335	126413
7.26147	125976
7.26960	113683
7.27772	112359
7.28583	104236
7.29397	103650
7.30208	106696
7.31022	98910
7.31833	99550
7.32645	109145
7.33458	96295
7.34270	104737
7.35083	100997
7.35895	105707
7.36707	98427
7.37520	99870
7.38332	108286
7.39143	103372
7.39957	108546
7.40768	106028
7.41582	104488
7.42393	106344
7.43205	97549
7.44018	94893
7.44830	94331
7.45643	94970
7.46455	95113
7.47267	87499
7.48080	88240
7.48892	99251
7.49703	85952
7.50517	89104
7.51328	87104
7.52142	89550
7.52953	83086
7.53765	86042
7.54578	85999
7.55390	89981
7.56203	83691
7.57015	80583
7.57827	87974
7.58640	81772
7.59452	80437
7.60265	83504
7.61077	81865
7.61888	84593
7.62702	83637
7.63513	81955
7.64325	80324
7.65138	81526
7.65950	81952
7.66763	82629
7.67575	80667
7.68387	77428
7.69200	78364
7.70012	78052
7.70825	82353
7.71637	83025
7.72448	78068
7.73262	81074
7.74073	76094
7.74887	78449
7.75698	81599
7.76510	77429
7.77323	80418
7.78135	84420
7.78947	79327
7.79760	85928
7.80572	84931
7.81385	83960
7.82197	79069
7.83008	74524
7.83822	75344
7.84633	72395
7.85447	71708
7.86258	79982
7.87070	71269
7.87883	71116
7.88695	67554
7.89507	67473
7.90320	70610
7.91132	71423
7.91945	89233
7.92757	115338
7.93568	171066
7.94382	218896
7.95193	254650
7.96007	252877
7.96818	197362
7.97630	151534
7.98443	119290
7.99255	103190
8.00068	90135
8.00880	86398
8.01692	81741
8.02505	81564
8.03317	76486
8.04128	74491
8.04942	75378
8.05753	75020
8.06567	74296
8.07378	75909
8.08190	74194
8.09003	73748
8.09815	73566
8.10628	75669
8.11440	75140
8.12252	80649
8.13065	89530
8.13877	93812
8.14690	103407
8.15502	92357
8.16313	80592
8.17127	78822
8.17938	78929
8.18750	83700
8.19563	74567
8.20375	72328
8.21188	72839
8.22000	72474
8.22812	79963
8.23625	74750
8.24437	72262
8.25250	73696
8.26062	74827
8.26873	66628
8.27687	67014
8.28498	70432
8.29310	78840
8.30123	89132
8.30935	95328
8.31748	103614
8.32560	98853
8.33372	89279
8.34185	85575
8.34997	79613
8.35810	72617
8.36622	74190
8.37433	83152
8.38247	80057
8.39058	76295
8.39872	76571
8.40683	71590
8.41495	78153
8.42308	69957
8.43120	63410
8.43932	70566
8.44745	68525
8.45557	65830
8.46370	69354
8.47182	75523
8.47993	71226
8.48807	67570
8.49618	70073
8.50432	72712
8.51243	76754
8.52055	92066
8.52868	170600
8.53680	469364
8.54492	1131518
8.55305	2124025
8.56117	2968550
8.56930	3016900
8.57742	2396174
8.58553	1460465
8.59367	764379
8.60178	385178
8.60992	241550
8.61803	195453
8.62615	177472
8.63428	163903
8.64240	152878
8.65053	151210
8.65865	140201
8.66677	139179
8.67490	125451
8.68302	121364
8.69113	119608
8.69927	118523
8.70738	115408
8.71552	101616
8.72363	109512
8.73175	101221
8.73988	100649
8.74800	99442
8.75613	123733
8.76425	170194
8.77237	290788
8.78050	473345
8.78862	672648
8.79675	803993
8.80487	750547
8.81298	636010
8.82112	495760
8.82923	376407
8.83735	322466
8.84548	285985
8.85360	281160
8.86173	310842
8.86985	296463
8.87797	288294
8.88610	278901
8.89422	259025
8.90235	252976
8.91047	235791
8.91858	221643
8.92672	201540
8.93483	213969
8.94295	213471
8.95108	200784
8.95920	199581
8.96733	192668
8.97545	188119
8.98357	187763
8.99170	181637
8.99982	184198
9.00795	167056
9.01607	174076
9.02418	168021
9.03232	167181
9.04043	160883
9.04857	158110
9.05668	153993
9.06480	154007
9.07293	158655
9.08105	158561
9.08917	151368
9.09730	157492
9.10542	150227
9.11355	154917
9.12167	145180
9.12978	148179
9.13792	137826
9.14603	139657
9.15417	142543
9.16228	141148
9.17040	147736
9.17853	140454
9.18665	134695
9.19478	138269
9.20290	129278
9.21102	131791
9.21915	132585
9.22727	134937
9.23538	133465
9.24352	127032
9.25163	121728
9.25977	121905
9.26788	126264
9.27600	123487
9.28413	120672
9.29225	124687
9.30038	120825
9.30850	121747
9.31662	115296
9.32475	121084
9.33287	122487
9.34098	120320
9.34912	126046
9.35723	122524
9.36537	115146
9.37348	122890
9.38160	112333
9.38973	110367
9.39785	111922
9.40598	108934
9.41410	113017
9.42222	105217
9.43035	108802
9.43847	108635
9.44660	108915
9.45472	109822
9.46283	107707
9.47097	109365
9.47908	104347
9.48720	101696
9.49533	110308
9.50345	114184
9.51158	122382
9.51970	127951
9.52782	136138
9.53595	135087
9.54407	132297
9.55220	119067
9.56032	110000
9.56843	106421
9.57657	88000
9.58468	90616
9.59280	79088
9.60093	72361
9.60905	69085
9.61718	69171
9.62530	68753
9.63342	66996
9.64155	72107
9.64967	70844
9.65780	63598
9.66592	63377
9.67403	65070
9.68217	64112
9.69028	70603
9.69842	57619
9.70653	56505
9.71465	56605
9.72278	60108
9.73090	61586
9.73902	62604
9.74715	53849
9.75527	62262
9.76340	67321
9.77152	57956
9.77963	60608
9.78777	60716
9.79588	63198
9.80402	58827
9.81213	61761
9.82025	62331
9.82838	62372
9.83650	60160
9.84463	62194
9.85275	61636
9.86087	55257
9.86900	61489
9.87712	72846
9.88523	68429
9.89337	64251
9.90148	67657
9.90962	70414
9.91773	77801
9.92585	100954
9.93398	123182
9.94210	153029
9.95023	156826
9.95835	155423
9.96647	141426
9.97460	126976
9.98272	96221
9.99085	88871
9.99897	83850
10.00708	87304
10.01522	91302
10.02333	89076
10.03145	84920
10.03958	80272
10.04770	76901
10.05583	74071
10.06395	73084
10.07207	74789
10.08020	76784
10.08832	77479
10.09645	78103
10.10457	76520
10.11268	76410
10.12082	72014
10.12893	71141
10.13705	72335
10.14518	69125
10.15330	66767
10.16143	66936
10.16955	67025
10.17767	65566
10.18580	63193
10.19392	68763
10.20205	68215
10.21017	65432
10.21828	64974
10.22642	69416
10.23453	71761
10.24267	79039
10.25078	87405
10.25890	84568
10.26703	83562
10.27515	90806
10.28327	92330
10.29140	105011
10.29952	147463
10.30765	213348
10.31577	371705
10.32388	658165
10.33202	1122015
10.34013	1434059
10.34827	1466974
10.35638	1213954
10.36450	783940
10.37263	449444
10.38075	269377
10.38887	185043
10.39700	150160
10.40512	120705
10.41325	114228
10.42137	108315
10.42948	99968
10.43762	87936
10.44573	88034
10.45387	89451
10.46198	80549
10.47010	84237
10.47823	83620
10.48635	79040
10.49448	74746
10.50260	82131
10.51072	80216
10.51885	82723
10.52697	74324
10.53508	71758
10.54322	73719
10.55133	73153
10.55947	68956
10.56758	73669
10.57570	69635
10.58383	69078
10.59195	73069
10.60008	74020
10.60820	74942
10.61632	71089
10.62445	70193
10.63257	68102
10.64070	64858
10.64882	65114
10.65693	68311
10.66507	62481
10.67318	68966
10.68130	68964
10.68943	65948
10.69755	60435
10.70568	64137
10.71380	64894
10.72192	62454
10.73005	66802
10.73817	67936
10.74630	69664
10.75442	75000
10.76253	69043
10.77067	74836
10.77878	67599
10.78690	63246
10.79503	62399
10.80315	60891
10.81128	61326
10.81940	58258
10.82752	61405
10.83565	59402
10.84377	58645
10.85190	57842
10.86002	61207
10.86813	63420
10.87627	58034
10.88438	56522
10.89252	53461
10.90063	53740
10.90875	58252
10.91688	55219
10.92500	56911
10.93312	54925
10.94125	66289
10.94937	58713
10.95750	59667
10.96562	59947
10.97373	62231
10.98187	55649
10.98998	60395
10.99812	59417
11.00623	54069
11.01435	57221
11.02248	57645
11.03060	54171
11.03873	54147
11.04685	55723
11.05497	55422
11.06310	50186
11.07122	52509
11.07933	48145
11.08747	52392
11.09558	52714
11.10372	50930
11.11183	57059
11.11995	51141
11.12808	53961
11.13620	53941
11.14433	50573
11.15245	56818
11.16057	50105
11.16870	55975
11.17682	59510
11.18493	59793
11.19307	67244
11.20118	65702
11.20932	60564
11.21743	58363
11.22555	57770
11.23368	54831
11.24180	56191
11.24993	57361
11.25805	51786
11.26617	56994
11.27430	55532
11.28242	50897
11.29055	53790
11.29867	60131
11.30678	58250
11.31492	56518
11.32303	54477
11.33115	56492
11.33928	58467
11.34740	58656
11.35553	64188
11.36365	54121
11.37177	53035
11.37990	58072
11.38802	58641
11.39615	48679
11.40427	56862
11.41238	55341
11.42052	53014
11.42863	49707
11.43675	51606
11.44488	47295
11.45300	45925
11.46113	50267
11.46925	51627
11.47737	50619
11.48550	64137
11.49362	68967
11.50175	81700
11.50987	84014
11.51798	77763
11.52612	86131
11.53423	68402
11.54237	64272
11.55048	60286
11.55860	51580
11.56673	55907
11.57485	51804
11.58297	52602
11.59110	48384
11.59922	44937
11.60735	49761
11.61547	52740
11.62358	51553
11.63172	53144
11.63983	49683
11.64797	54668
11.65608	57722
11.66420	47453
11.67233	55394
11.68045	56327
11.68858	62958
11.69670	74193
11.70482	71095
11.71295	72621
11.72107	66246
11.72918	63476
11.73732	54525
11.74543	55579
11.75357	51291
11.76168	57979
11.76980	54644
11.77793	56202
11.78605	54297
11.79418	55835
11.80230	51992
11.81042	57624
11.81855	54883
11.82667	60378
11.83478	63249
11.84292	61280
11.85103	58641
11.85917	55119
11.86728	55202
11.87540	53984
11.88353	50718
11.89165	55075
11.89978	49541
11.90790	49529
11.91602	52072
11.92415	48917
11.93227	51357
11.94040	52424
11.94852	57974
11.95663	54115
11.96477	48740
11.97288	48728
11.98100	52739
11.98913	51768
11.99725	56779
12.00538	67850
12.01350	63371
12.02162	71506
12.02975	65782
12.03787	62137
12.04600	63784
12.05412	57924
12.06223	54392
12.07037	52567
12.07848	53818
12.08662	50749
12.09473	50632
12.10285	53148
12.11098	50213
12.11910	60759
12.12722	51447
12.13535	52652
12.14347	52101
12.15160	54739
12.15972	53693
12.16783	47090
12.17597	48980
12.18408	52522
12.19222	54392
12.20033	56136
12.20845	59051
12.21658	59982
12.22470	53030
12.23282	59583
12.24095	52573
12.24907	52755
12.25720	54147
12.26532	54003
12.27343	56253
12.28157	56663
12.28968	58781
12.29782	53043
12.30593	56567
12.31405	54203
12.32218	55758
12.33030	55114
12.33843	55774
12.34655	57047
12.35467	55317
12.36280	59365
12.37092	60782
12.37903	55237
12.38717	57972
12.39528	55300
12.40342	53881
12.41153	53971
12.41965	58890
12.42778	60966
12.43590	65679
12.44403	70050
12.45215	68082
12.46027	73692
12.46840	70562
12.47652	60814
12.48463	59422
12.49277	54850
12.50088	51331
12.50902	56389
12.51713	56902
12.52525	55133
12.53338	57600
12.54150	57100
12.54963	57095
12.55775	59118
12.56587	57132
12.57400	62505
12.58212	55737
12.59025	58531
12.59837	57092
12.60648	59772
12.61462	62005
12.62273	64237
12.63085	59081
12.63898	57256
12.64710	57576
12.65523	55014
12.66335	63636
12.67147	53176
12.67960	54693
12.68772	53467
12.69585	50600
12.70397	54582
12.71208	60651
12.72022	52402
12.72833	59218
12.73647	61560
12.74458	63525
12.75270	59112
12.76083	57705
12.76895	54464
12.77707	60943
12.78520	53457
12.79332	56048
12.80145	53723
12.80957	51806
12.81768	55764
12.82582	49222
12.83393	50793
12.84207	53157
12.85018	51116
12.85830	51386
12.86643	47819
12.87455	52812
12.88267	53486
12.89080	48398
12.89892	57499
12.90705	50469
12.91517	50131
12.92328	50593
12.93142	48569
12.93953	47628
12.94767	48738
12.95578	50784
12.96390	50515
12.97203	52248
12.98015	50216
12.98828	49982
12.99640	51510
13.00452	46283
13.01265	49662
13.02077	48165
13.02888	56171
13.03702	53311
13.04513	52884
13.05327	54265
13.06138	54451
13.06950	50569
13.07763	53085
13.08575	52593
13.09388	49455
13.10200	52416
13.11012	50039
13.11825	46944
13.12637	47190
13.13450	47555
13.14262	48137
13.15073	49579
13.15887	45355
13.16698	45632
13.17510	49403
13.18323	52135
13.19135	50342
13.19948	54301
13.20760	53336
13.21572	54776
13.22385	56371
13.23197	58870
13.24010	55936
13.24822	52708
13.25633	53038
13.26447	52580
13.27258	53651
13.28070	46040
13.28883	44717
13.29695	50271
13.30508	49814
13.31320	50743
13.32132	47762
13.32945	43636
13.33757	45358
13.34570	51261
13.35382	47172
13.36193	47912
13.37007	49387
13.37818	46653
13.38632	45022
13.39443	47899
13.40255	45104
13.41068	44940
13.41880	44156
13.42692	44584
13.43505	47552
13.44317	46111
13.45130	42797
13.45942	44954
13.46753	47979
13.47567	50923
13.48378	47013
13.49192	45712
13.50003	44639
13.50815	47900
13.51628	49061
13.52440	48146
13.53253	52832
13.54065	43685
13.54877	44440
13.55690	49105
13.56502	50258
13.57313	52114
13.58127	54543
13.58938	44327
13.59752	50819
13.60563	44755
13.61375	50452
13.62188	44769
13.63000	44713
13.63813	46220
13.64625	49799
13.65437	46903
13.66250	48414
13.67062	44250
13.67873	42504
13.68687	45346
13.69498	43241
13.70312	46581
13.71123	48142
13.71935	44546
13.72748	44651
13.73560	43930
13.74373	44259
13.75185	51372
13.75997	59648
13.76810	64943
13.77622	74419
13.78435	91671
13.79247	90108
13.80058	85768
13.80872	84008
13.81683	72251
13.82495	66008
13.83308	56576
13.84120	57133
13.84933	53131
13.85745	50629
13.86557	51293
13.87370	48128
13.88182	49508
13.88995	48972
13.89807	46266
13.90618	49379
13.91432	48502
13.92243	47412
13.93055	49297
13.93868	49048
13.94680	47132
13.95493	53733
13.96305	61342
13.97117	68326
13.97930	77606
13.98742	90234
13.99555	95750
14.00367	98880
14.01178	95404
14.01992	79472
14.02803	64779
14.03617	60666
14.04428	61145
14.05240	61885
14.06053	60118
14.06865	60036
14.07677	61753
14.08490	55139
14.09302	55856
14.10115	53079
14.10927	51523
14.11738	51367
14.12552	46325
14.13363	52336
14.14177	47358
14.14988	52289
14.15800	53681
14.16613	56655
14.17425	51361
14.18238	58235
14.19050	74589
14.19862	102270
14.20675	160215
14.21487	243435
14.22298	304632
14.23112	335772
14.23923	335613
14.24737	311525
14.25548	253581
14.26360	214532
14.27173	196827
14.27985	180371
14.28798	164365
14.29610	154264
14.30422	139640
14.31235	144670
14.32047	139157
14.32858	122882
14.33672	117198
14.34483	118836
14.35297	110701
14.36108	98242
14.36920	85961
14.37733	75870
14.38545	71472
14.39358	73416
14.40170	59720
14.40982	59462
14.41795	61341
14.42607	59059
14.43420	57305
14.44232	52175
14.45043	54925
14.45857	54044
14.46668	61185
14.47480	51455
14.48293	54427
14.49105	48607
14.49918	52904
14.50730	50194
14.51542	50969
14.52355	53289
14.53167	56701
14.53980	51481
14.54792	55236
14.55603	48740
14.56417	49952
14.57228	48967
14.58042	48887
14.58853	51381
14.59665	45980
14.60478	48993
14.61290	51030
14.62102	48237
14.62915	54105
14.63727	45933
14.64540	49557
14.65352	50098
14.66163	48878
14.66977	45108
14.67788	44253
14.68602	53693
14.69413	45684
14.70225	44697
14.71038	43399
14.71850	43555
14.72662	43993
14.73475	53205
14.74287	44254
14.75100	44996
14.75912	41866
14.76723	48041
14.77537	46531
14.78348	42003
14.79162	47295
14.79973	47677
14.80785	47384
14.81598	50544
14.82410	51083
14.83223	57178
14.84035	66339
14.84847	72119
14.85660	80944
14.86472	81489
14.87283	76547
14.88097	71998
14.88908	75710
14.89722	73086
14.90533	70435
14.91345	75456
14.92158	71586
14.92970	67784
14.93783	68884
14.94595	70574
14.95407	67939
14.96220	71391
14.97032	68522
14.97843	73440
14.98657	65786
14.99468	66224
15.00282	65390
15.01093	66737
15.01905	69671
15.02718	65336
15.03530	63792
15.04343	62575
15.05155	64211
15.05967	62654
15.06780	58817
15.07592	62761
15.08405	59629
15.09217	62244
15.10028	56887
15.10842	63954
15.11653	62774
15.12465	57484
15.13278	59436
15.14090	64156
15.14903	55581
15.15715	54323
15.16527	58891
15.17340	50673
15.18152	54877
15.18965	53334
15.19777	50221
15.20588	51249
15.21402	48683
15.22213	50466
15.23027	45620
15.23838	48842
15.24650	46822
15.25463	51074
15.26275	43326
15.27087	46035
15.27900	45501
15.28712	44984
15.29525	47608
15.30337	46937
15.31148	47868
15.31962	49146
15.32773	48227
15.33587	46526
15.34398	46483
15.35210	50440
15.36023	44942
15.36835	47477
15.37647	46636
15.38460	45272
15.39272	42757
15.40085	51137
15.40897	52732
15.41708	46693
15.42522	46296
15.43333	46765
15.44147	44726
15.44958	44948
15.45770	46799
15.46583	43745
15.47395	47484
15.48208	45617
15.49020	43459
15.49832	45357
15.50645	48971
15.51457	48766
15.52268	58498
15.53082	71190
15.53893	86469
15.54707	93493
15.55518	92128
15.56330	96024
15.57143	80331
15.57955	70096
15.58768	58811
15.59580	59354
15.60392	49634
15.61205	46876
15.62017	46363
15.62830	48119
15.63642	46696
15.64453	46840
15.65267	48686
15.66078	48243
15.66890	45640
15.67703	47037
15.68515	53410
15.69328	51627
15.70140	48248
15.70952	49192
15.71765	48178
15.72577	45267
15.73390	48368
15.74202	40203
15.75013	45254
15.75827	44470
15.76638	45550
15.77450	47666
15.78263	53491
15.79075	53601
15.79888	55476
15.80700	55841
15.81512	55347
15.82325	50228
15.83137	51805
15.83950	46968
15.84762	48239
15.85573	47797
15.86387	52469
15.87198	50001
15.88012	52002
15.88823	47604
15.89635	55061
15.90448	55746
15.91260	55817
15.92072	49727
15.92885	58673
15.93697	50825
15.94510	51273
15.95322	49233
15.96133	53707
15.96947	53038
15.97758	55063
15.98572	61371
15.99383	62787
16.00195	65346
16.01008	65650
16.01820	65996
16.02632	63615
16.03445	66294
16.04257	63761
16.05070	65128
16.05882	62132
16.06693	67788
16.07507	66998
16.08318	64587
16.09132	59692
16.09943	64993
16.10755	68791
16.11568	68081
16.12380	57701
16.13193	63757
16.14005	63143
16.14817	61717
16.15630	57439
16.16442	62088
16.17253	68188
16.18067	60932
16.18878	60414
16.19692	54801
16.20503	58089
16.21315	62919
16.22128	58527
16.22940	57823
16.23753	56203
16.24565	55919
16.25377	51754
16.26190	57254
16.27002	59161
16.27815	58307
16.28627	52841
16.29438	55260
16.30252	51933
16.31063	54706
16.31875	54561
16.32688	52527
16.33500	57358
16.34313	52330
16.35125	52137
16.35937	55158
16.36750	61397
16.37562	60408
16.38375	72373
16.39187	73513
16.39998	81213
16.40812	69113
16.41623	66259
16.42437	54639
16.43248	53363
16.44060	49564
16.44873	51664
16.45685	54337
16.46497	55202
16.47310	49946
16.48122	50866
16.48935	53221
16.49747	53725
16.50558	52593
16.51372	51386
16.52183	51467
16.52997	48066
16.53808	45935
16.54620	56949
16.55433	47018
16.56245	48220
16.57057	46043
16.57870	51706
16.58682	49930
16.59495	49064
16.60307	54733
16.61118	60477
16.61932	56193
16.62743	59076
16.63557	55481
16.64368	53426
16.65180	55040
16.65993	53339
16.66805	51409
16.67618	46614
16.68430	46097
16.69242	45438
16.70055	50062
16.70867	55926
16.71678	41906
16.72492	40191
16.73303	42081
16.74117	42799
16.74928	42578
16.75740	44336
16.76553	44080
16.77365	50248
16.78178	42210
16.78990	43193
16.79802	42854
16.80615	43486
16.81427	48070
16.82238	42036
16.83052	46399
16.83863	43489
16.84677	43213
16.85488	43162
16.86300	42293
16.87113	39134
16.87925	40674
16.88738	41689
16.89550	41866
16.90362	37797
16.91175	36755
16.91987	40942
16.92800	38491
16.93612	43840
16.94423	41375
16.95237	39746
16.96048	40198
16.96860	39891
16.97673	40163
16.98485	42135
16.99298	39070
17.00110	36150
17.00922	40964
17.01735	42527
17.02547	42175
17.03360	39345
17.04172	41271
17.04983	44614
17.05797	42241
17.06608	39285
17.07422	42739
17.08233	54705
17.09045	63896
17.09858	80893
17.10670	100482
17.11482	106264
17.12295	119812
17.13107	114880
17.13920	110478
17.14732	94498
17.15543	92247
17.16357	76757
17.17168	73644
17.17982	60905
17.18793	58867
17.19605	62349
17.20418	53009
17.21230	51894
17.22042	51092
17.22855	48694
17.23667	48049
17.24480	48905
17.25292	46378
17.26103	45302
17.26917	46269
17.27728	50125
17.28542	45318
17.29353	42980
17.30165	47877
17.30978	43422
17.31790	45570
17.32603	46592
17.33415	43411
17.34227	48730
17.35040	52036
17.35852	51247
17.36663	51049
17.37477	57248
17.38288	54358
17.39102	54771
17.39913	54224
17.40725	54790
17.41538	50942
17.42350	51806
17.43163	54430
17.43975	50113
17.44787	50153
17.45600	48404
17.46412	50970
17.47225	52240
17.48037	55150
17.48848	48086
17.49662	50636
17.50473	50710
17.51285	51640
17.52098	46538
17.52910	55318
17.53723	50173
17.54535	54193
17.55347	57650
17.56160	56136
17.56972	49049
17.57785	53672
17.58597	53270
17.59408	49686
17.60222	49745
17.61033	45804
17.61845	43416
17.62658	48441
17.63470	44207
17.64283	55067
17.65095	67601
17.65907	86393
17.66720	117536
17.67532	125709
17.68345	137474
17.69157	125122
17.69968	118056
17.70782	98032
17.71593	74532
17.72407	70871
17.73218	62756
17.74030	57879
17.74843	57311
17.75655	60334
17.76467	55608
17.77280	52150
17.78092	53779
17.78905	50459
17.79717	49453
17.80528	53268
17.81342	48688
17.82153	46447
17.82967	50978
17.83778	45660
17.84590	48642
17.85403	43777
17.86215	45557
17.87027	50726
17.87840	46341
17.88652	47900
17.89465	48420
17.90277	46677
17.91088	45766
17.91902	42765
17.92713	49322
17.93527	44143
17.94338	42536
17.95150	43602
17.95963	43603
17.96775	39544
17.97588	43911
17.98400	42343
17.99212	42456
18.00025	39023
18.00837	44191
18.01648	42187
18.02462	40088
18.03273	41068
18.04087	39983
18.04898	46696
18.05710	44538
18.06523	44225
18.07335	47098
18.08148	51091
18.08960	55275
18.09772	66638
18.10585	83674
18.11397	93593
18.12210	109348
18.13022	109508
18.13833	103906
18.14647	105419
18.15458	102440
18.16270	104396
18.17083	103122
18.17895	100149
18.18708	104108
18.19520	100879
18.20332	97579
18.21145	96426
18.21957	94123
18.22770	89547
18.23582	88779
18.24393	83324
18.25207	81921
18.26018	78508
18.26830	78745
18.27643	76857
18.28455	71702
18.29268	62589
18.30080	61101
18.30892	60054
18.31705	49199
18.32517	49402
18.33330	47620
18.34142	54148
18.34953	52390
18.35767	49324
18.36578	49977
18.37392	47162
18.38203	52255
18.39015	51262
18.39828	48618
18.40640	55261
18.41452	46511
18.42265	44191
18.43077	47117
18.43890	50249
18.44702	43570
18.45513	47632
18.46327	42898
18.47138	45916
18.47952	47633
18.48763	48641
18.49575	47587
18.50388	44127
18.51200	42331
18.52013	49060
18.52825	43099
18.53637	48051
18.54450	50004
18.55262	46256
18.56073	47010
18.56887	43256
18.57698	44811
18.58512	39399
18.59323	47727
18.60135	46609
18.60948	47683
18.61760	50916
18.62573	45879
18.63385	39275
18.64197	47077
18.65010	44877
18.65822	47013
18.66633	43420
18.67447	42955
18.68258	41900
18.69072	41913
18.69883	41175
18.70695	40066
18.71508	38154
18.72320	38000
18.73133	43775
18.73945	42401
18.74757	42375
18.75570	36854
18.76382	43409
18.77195	36753
18.78007	39543
18.78818	37179
18.79632	44387
18.80443	38524
18.81255	39571
18.82068	41530
18.82880	39696
18.83693	39283
18.84505	43151
18.85317	39966
18.86130	44705
18.86942	43311
18.87755	41952
18.88567	38481
18.89378	42683
18.90192	38438
18.91003	44213
18.91817	41799
18.92628	48218
18.93440	47804
18.94253	43782
18.95065	43587
18.95877	44525
18.96690	45619
18.97502	44217
18.98315	46184
18.99127	41348
18.99938	45523
19.00752	44924
19.01563	41605
19.02377	42205
19.03188	44361
19.04000	46270
19.04813	47450
19.05625	44059
19.06437	39999
19.07250	44477
19.08062	43801
19.08875	54418
19.09687	56699
19.10498	67366
19.11312	69574
19.12123	78418
19.12937	75214
19.13748	74001
19.14560	72744
19.15373	64413
19.16185	64457
19.16998	65586
19.17810	66873
19.18622	71876
19.19435	70830
19.20247	71463
19.21058	62612
19.21872	61783
19.22683	56772
19.23497	60293
19.24308	57407
19.25120	56120
19.25933	51724
19.26745	52496
19.27558	54056
19.28370	54118
19.29182	55488
19.29995	65447
19.30807	65854
19.31618	66170
19.32432	65448
19.33243	63997
19.34057	62140
19.34868	71096
19.35680	68709
19.36493	64346
19.37305	70560
19.38118	68738
19.38930	60518
19.39742	67624
19.40555	64587
19.41367	64359
19.42180	58469
19.42992	62298
19.43803	58616
19.44617	58732
19.45428	58071
19.46240	64708
19.47053	61362
19.47865	65334
19.48678	65636
19.49490	77528
19.50302	107374
19.51115	158975
19.51927	218926
19.52740	272423
19.53552	287982
19.54363	255621
19.55177	217012
19.55988	154497
19.56802	109902
19.57613	85154
19.58425	72257
19.59238	68787
19.60050	65512
19.60862	60305
19.61675	61651
19.62487	64720
19.63300	68811
19.64112	81749
19.64923	109410
19.65737	171340
19.66548	264333
19.67362	352663
19.68173	433227
19.68985	462824
19.69798	449781
19.70610	380698
19.71422	290994
19.72235	238005
19.73047	187986
19.73860	166434
19.74672	141675
19.75483	129358
19.76297	112783
19.77108	101325
19.77922	98770
19.78733	88206
19.79545	75718
19.80358	75175
19.81170	76720
19.81983	75817
19.82795	77954
19.83607	73398
19.84420	76463
19.85232	75717
19.86043	86797
19.86857	126960
19.87668	225038
19.88482	410956
19.89293	703588
19.90105	1050993
19.90918	1273036
19.91730	1344050
19.92543	1185375
19.93355	921162
19.94167	680391
19.94980	467127
19.95792	372695
19.96605	294969
19.97417	252063
19.98228	229149
19.99042	212538
19.99853	188408
20.00665	179470
20.01478	168331
20.02290	171823
20.03103	152968
20.03915	146316
20.04727	131251
20.05540	130373
20.06352	118965
20.07165	102403
20.07977	96114
20.08788	86317
20.09602	82852
20.10413	72330
20.11225	72470
20.12038	71880
20.12850	70949
20.13663	72387
20.14475	76430
20.15287	76703
20.16100	72703
20.16912	78738
20.17725	79951
20.18537	72404
20.19348	80279
20.20162	73066
20.20973	71897
20.21787	72848
20.22598	69898
20.23410	65702
20.24223	65913
20.25035	76692
20.25847	92191
20.26660	122500
20.27472	163703
20.28285	237988
20.29097	292040
20.29908	322256
20.30722	337108
20.31533	317328
20.32347	270266
20.33158	213723
20.33970	169232
20.34783	141185
20.35595	113350
20.36408	93873
20.37220	81479
20.38032	79058
20.38845	74941
20.39657	74656
20.40468	74946
20.41282	71599
20.42093	70358
20.42907	82007
20.43718	98644
20.44530	116300
20.45343	127873
20.46155	142649
20.46968	145133
20.47780	139618
20.48592	123638
20.49405	112596
20.50217	93440
20.51028	91574
20.51842	77847
20.52653	74086
20.53467	64967
20.54278	66433
20.55090	65498
20.55903	62069
20.56715	66780
20.57528	64011
20.58340	62833
20.59152	58708
20.59965	59951
20.60777	61206
20.61590	61830
20.62402	61331
20.63213	60948
20.64027	64977
20.64838	60790
20.65650	72939
20.66463	63042
20.67275	64207
20.68088	62804
20.68900	65367
20.69712	64264
20.70525	66128
20.71337	69758
20.72150	63058
20.72962	63683
20.73773	62154
20.74587	62037
20.75398	60475
20.76212	66361
20.77023	67716
20.77835	58753
20.78648	63044
20.79460	62400
20.80272	63934
20.81085	59938
20.81897	63802
20.82710	65200
20.83522	69224
20.84333	65009
20.85147	66766
20.85958	61258
20.86772	61947
20.87583	62723
20.88395	61981
20.89208	62482
20.90020	62003
20.90832	69354
20.91645	62389
20.92457	69154
20.93270	62178
20.94082	59496
20.94893	62086
20.95707	59638
20.96518	63523
20.97332	58370
20.98143	71314
20.98955	62820
20.99768	60077
21.00580	61121
21.01393	54781
21.02205	61713
21.03017	55444
21.03830	58027
21.04642	61829
21.05453	58649
21.06267	57369
21.07078	64304
21.07892	59352
21.08703	59696
21.09515	60101
21.10328	63254
21.11140	62130
21.11953	61562
21.12765	55616
21.13577	59569
21.14390	61890
21.15202	64812
21.16013	67129
21.16827	62047
21.17638	64756
21.18452	71434
21.19263	68005
21.20075	60071
21.20888	67755
21.21700	64485
21.22513	58896
21.23325	61255
21.24137	71480
21.24950	58259
21.25762	65359
21.26575	66858
21.27387	60925
21.28198	59313
21.29012	63662
21.29823	59020
21.30635	61778
21.31448	58692
21.32260	62877
21.33073	58003
21.33885	58783
21.34697	61308
21.35510	59882
21.36322	66748
21.37135	58600
21.37947	59145
21.38758	60848
21.39572	57826
21.40383	54052
21.41197	61395
21.42008	56329
21.42820	60732
21.43633	59721
21.44445	61075
21.45257	61999
21.46070	63044
21.46882	59526
21.47695	59070
21.48507	60729
21.49318	56162
21.50132	54966
21.50943	57972
21.51757	61021
21.52568	58951
21.53380	59869
21.54193	56641
21.55005	57857
21.55817	56257
21.56630	55845
21.57442	60340
21.58255	58943
21.59067	60214
21.59878	57472
21.60692	58214
21.61503	67985
21.62317	65756
21.63128	81913
21.63940	92987
21.64753	113768
21.65565	140428
21.66378	148691
21.67190	140718
21.68002	133285
21.68815	112852
21.69627	99685
21.70438	80198
21.71252	73628
21.72063	63473
21.72877	60233
21.73688	63229
21.74500	61394
21.75313	60421
21.76125	63480
21.76938	60224
21.77750	61194
21.78562	58934
21.79375	57887
21.80187	62062
21.81000	61132
21.81812	60903
21.82623	76445
21.83437	84045
21.84248	99516
21.85060	122747
21.85873	134732
21.86685	141573
21.87498	126350
21.88310	100408
21.89122	91293
21.89935	74108
21.90747	68453
21.91560	67995
21.92372	66552
21.93183	60098
21.93997	59611
21.94808	56585
21.95620	59321
21.96433	59806
21.97245	54886
21.98058	53437
21.98870	58395
21.99682	55445
22.00495	56203
22.01307	52959
22.02120	51913
22.02932	60072
22.03743	63647
22.04557	56984
22.05368	52162
22.06182	54668
22.06993	54052
22.07805	57137
22.08618	51584
22.09430	61014
22.10242	56411
22.11055	54080
22.11867	52640
22.12680	57298
22.13492	57478
22.14303	56581
22.15117	57590
22.15928	52249
22.16742	53286
22.17553	57103
22.18365	53986
22.19178	56874
22.19990	53963
22.20802	54057
22.21615	58675
22.22427	61904
22.23240	61984
22.24052	70971
22.24863	72498
22.25677	66598
22.26488	68484
22.27302	66476
22.28113	59283
22.28925	55642
22.29738	56747
22.30550	63102
22.31363	58738
22.32175	72209
22.32987	84317
22.33800	97637
22.34612	108255
22.35423	105704
22.36237	97406
22.37048	85021
22.37862	74463
22.38673	66462
22.39485	64092
22.40298	59496
22.41110	59132
22.41923	62792
22.42735	55187
22.43547	51676
22.44360	55658
22.45172	50875
22.45985	56031
22.46797	52520
22.47608	50871
22.48422	55400
22.49233	48532
22.50045	51378
22.50858	48410
22.51670	55930
22.52483	52362
22.53295	52768
22.54107	52094
22.54920	52889
22.55732	51006
22.56545	48433
22.57357	54302
22.58168	45263
22.58982	46152
22.59793	46359
22.60605	46143
22.61418	46126
22.62230	47471
22.63043	47269
22.63855	46998
22.64667	44418
22.65480	41959
22.66292	48756
22.67105	52783
22.67917	64063
22.68728	54812
22.69542	59708
22.70353	62890
22.71167	59415
22.71978	57986
22.72790	55055
22.73603	53943
22.74415	55195
22.75227	52316
22.76040	52806
22.76852	51359
22.77665	46906
22.78477	49185
22.79288	48476
22.80102	48652
22.80913	51933
22.81727	46872
22.82538	49874
22.83350	48024
22.84163	51447
22.84975	52585
22.85788	51515
22.86600	50220
22.87412	53303
22.88225	53841
22.89037	54662
22.89848	55945
22.90662	57321
22.91473	57366
22.92287	68475
22.93098	77748
22.93910	95484
22.94723	104425
22.95535	111291
22.96348	113108
22.97160	111373
22.97972	106035
22.98785	99732
22.99597	102312
23.00408	92265
23.01222	85903
23.02033	82902
23.02847	74294
23.03658	69826
23.04470	66284
23.05283	61457
23.06095	60102
23.06908	56584
23.07720	51560
23.08532	54930
23.09345	50993
23.10157	55414
23.10970	51432
23.11782	49994
23.12593	48101
23.13407	47193
23.14218	49951
23.15030	53423
23.15843	45648
23.16655	52608
23.17468	51064
23.18280	50737
23.19092	47193
23.19905	50344
23.20717	50612
23.21530	50524
23.22342	46477
23.23153	46223
23.23967	49491
23.24778	48894
23.25592	55147
23.26403	53180
23.27215	53385
23.28028	57215
23.28840	51993
23.29652	53494
23.30465	55676
23.31277	51910
23.32090	50657
23.32902	49984
23.33713	45960
23.34527	44730
23.35338	47680
23.36152	47157
23.36963	49521
23.37775	48419
23.38588	51262
23.39400	50271
23.40212	52500
23.41025	51062
23.41837	48617
23.42650	51191
23.43462	51743
23.44273	51236
23.45087	51719
23.45898	51009
23.46712	53113
23.47523	49065
23.48335	43156
23.49148	41355
23.49960	47599
23.50773	50560
23.51585	48705
23.52397	51879
23.53210	50509
23.54022	54618
23.54833	49566
23.55647	48404
23.56458	51443
23.57272	55807
23.58083	57202
23.58895	63573
23.59708	62575
23.60520	63934
23.61333	70558
23.62145	74672
23.62957	77373
23.63770	89245
23.64582	110809
23.65393	146479
23.66207	206734
23.67018	260422
23.67832	288246
23.68643	302012
23.69455	279261
23.70268	209869
23.71080	158830
23.71893	122581
23.72705	105530
23.73517	92103
23.74330	85056
23.75142	97958
23.75955	178157
23.76767	441484
23.77578	1143458
23.78392	2625504
23.79203	4498314
23.80015	6192066
23.80828	6745451
23.81640	6131204
23.82453	4820939
23.83265	3404514
23.84077	2290493
23.84890	1512984
23.85702	1103816
23.86515	827441
23.87327	653969
23.88138	537005
23.88952	471719
23.89763	396078
23.90577	380585
23.91388	351622
23.92200	310211
23.93013	288755
23.93825	265667
23.94637	255857
23.95450	239495
23.96262	235464
23.97075	217097
23.97887	201800
23.98698	197304
23.99512	183506
24.00323	180132
24.01137	175489
24.01948	176777
24.02760	173230
24.03573	167779
24.04385	168444
24.05197	168205
24.06010	173801
24.06822	166538
24.07635	164367
24.08447	158259
24.09258	141868
24.10072	140809
24.10883	130829
24.11697	138141
24.12508	132185
24.13320	129100
24.14133	127132
24.14945	139327
24.15758	145024
24.16570	143436
24.17382	143621
24.18195	135265
24.19007	120217
24.19818	117053
24.20632	110131
24.21443	117909
24.22257	120913
24.23068	136369
24.23880	143647
24.24693	139531
24.25505	140040
24.26318	124933
24.27130	116463
24.27942	104686
24.28755	108491
24.29567	97905
24.30380	101100
24.31192	92610
24.32003	91912
24.32817	94600
24.33628	99100
24.34440	93571
24.35253	92384
24.36065	88639
24.36878	83481
24.37690	92330
24.38502	97785
24.39315	119881
24.40127	159274
24.40940	204600
24.41752	247829
24.42563	267980
24.43377	238429
24.44188	198545
24.45000	144321
24.45813	110324
24.46625	96801
24.47438	94183
24.48250	86059
24.49062	81157
24.49875	87766
24.50687	89549
24.51500	107079
24.52312	113620
24.53123	120171
24.53937	131641
24.54748	125261
24.55562	115052
24.56373	106828
24.57185	112347
24.57998	100664
24.58810	104158
24.59622	103959
24.60435	103756
24.61247	99886
24.62060	98089
24.62872	90419
24.63683	86861
24.64497	86885
24.65308	84617
24.66122	87186
24.66933	85902
24.67745	86485
24.68558	86700
24.69370	78869
24.70182	80842
24.70995	80024
24.71807	76293
24.72620	71277
24.73432	72251
24.74243	73904
24.75057	77711
24.75868	73983
24.76682	68466
24.77493	68689
24.78305	71779
24.79118	64948
24.79930	71596
24.80743	67215
24.81555	67761
24.82367	59434
24.83180	61807
24.83992	62938
24.84803	68062
24.85617	63237
24.86428	68438
24.87242	69151
24.88053	64772
24.88865	63817
24.89678	71195
24.90490	67814
24.91303	71794
24.92115	67956
24.92927	72312
24.93740	67218
24.94552	65103
24.95365	63086
24.96177	68333
24.96988	66609
24.97802	61402
24.98613	62301
24.99425	58661
25.00238	56621
25.01050	62055
25.01863	58876
25.02675	55948
25.03487	57610
25.04300	56376
25.05112	54795
25.05925	58385
25.06737	56127
25.07548	57846
25.08362	60807
25.09173	62983
25.09987	56822
25.10798	61262
25.11610	63608
25.12423	59486
25.13235	62344
25.14047	76083
25.14860	87495
25.15672	93722
25.16485	102485
25.17297	104368
25.18108	111058
25.18922	106320
25.19733	96487
25.20547	90323
25.21358	84620
25.22170	80421
25.22983	65885
25.23795	65182
25.24607	68104
25.25420	65538
25.26232	61678
25.27045	65835
25.27857	61144
25.28668	61450
25.29482	62718
25.30293	64154
25.31107	65195
25.31918	65803
25.32730	68937
25.33543	70771
25.34355	75357
25.35168	74912
25.35980	68583
25.36792	69285
25.37605	60177
25.38417	55179
25.39228	58644
25.40042	54570
25.40853	55317
25.41667	54468
25.42478	57077
25.43290	59109
25.44103	60862
25.44915	54577
25.45728	58624
25.46540	60012
25.47352	56593
25.48165	65170
25.48977	65412
25.49788	71153
25.50602	70058
25.51413	75887
25.52227	67431
25.53038	65642
25.53850	68099
25.54663	59175
25.55475	61914
25.56288	57740
25.57100	55806
25.57912	56230
25.58725	57005
25.59537	58569
25.60350	48979
25.61162	54368
25.61973	53880
25.62787	49404
25.63598	52363
25.64410	54853
25.65223	53245
25.66035	53770
25.66848	55316
25.67660	57366
25.68472	63238
25.69285	56511
25.70097	54620
25.70910	51112
25.71722	50530
25.72533	51269
25.73347	55897
25.74158	53116
25.74972	54926
25.75783	62289
25.76595	61638
25.77408	55343
25.78220	56856
25.79032	52746
25.79845	54609
25.80657	54320
25.81470	58097
25.82282	55525
25.83093	56327
25.83907	61456
25.84718	59539
25.85532	60118
25.86343	54179
25.87155	52205
25.87968	50145
25.88780	50898
25.89592	50656
25.90405	57304
25.91217	49328
25.92030	49196
25.92842	47677
25.93653	54152
25.94467	54671
25.95278	57966
25.96092	50355
25.96903	48961
25.97715	50569
25.98528	47396
25.99340	47304
26.00153	51132
26.00965	50144
26.01777	51457
26.02590	47307
26.03402	46788
26.04213	51602
26.05027	53283
26.05838	53618
26.06652	49461
26.07463	49643
26.08275	54124
26.09088	54273
26.09900	53977
26.10713	55418
26.11525	54803
26.12337	52712
26.13150	57544
26.13962	57899
26.14775	57066
26.15587	67090
26.16398	69364
26.17212	66621
26.18023	69099
26.18835	65125
26.19648	64887
26.20460	62401
26.21273	64290
26.22085	54142
26.22897	59684
26.23710	57770
26.24522	58366
26.25335	57603
26.26147	56557
26.26958	57267
26.27772	54398
26.28583	53879
26.29395	54149
26.30208	57647
26.31020	55198
26.31833	52936
26.32645	51762
26.33457	49958
26.34270	51658
26.35082	55265
26.35895	52339
26.36707	56317
26.37518	59274
26.38332	56968
26.39143	58353
26.39957	61511
26.40768	61513
26.41580	66623
26.42393	70187
26.43205	60298
26.44017	66637
26.44830	63930
26.45642	62022
26.46455	58554
26.47267	55888
26.48078	50126
26.48892	50344
26.49703	53426
26.50517	54969
26.51328	54908
26.52140	54327
26.52953	54376
26.53765	47967
26.54577	48829
26.55390	46405
26.56202	52852
26.57015	49759
26.57827	50923
26.58638	52866
26.59452	50127
26.60263	54887
26.61077	48733
26.61888	48433
26.62700	51412
26.63513	49019
26.64325	53147
26.65138	49667
26.65950	52049
26.66762	52458
26.67575	53587
26.68387	52169
26.69198	53506
26.70012	58803
26.70823	52734
26.71637	57301
26.72448	60119
26.73260	50536
26.74073	51805
26.74885	54141
26.75698	53912
26.76510	55428
26.77322	55792
26.78135	56794
26.78947	57083
26.79760	51717
26.80572	56336
26.81383	55933
26.82197	60729
26.83008	61817
26.83820	60866
26.84633	63141
26.85445	66092
26.86258	64455
26.87070	65225
26.87882	65795
26.88695	62234
26.89507	63018
26.90320	65221
26.91132	59590
26.91943	61579
26.92757	60461
26.93568	60881
26.94380	61702
26.95193	60258
26.96005	60926
26.96818	75840
26.97630	102406
26.98442	165893
26.99255	336443
27.00067	657668
27.00880	1228992
27.01692	2098920
27.02503	3157025
27.03317	3561304
27.04128	3316154
27.04942	2688654
27.05753	1997803
27.06565	1449852
27.07378	1055574
27.08190	782818
27.09002	613400
27.09815	477067
27.10627	405040
27.11440	362809
27.12252	327424
27.13063	314786
27.13877	269419
27.14688	252289
27.15502	234056
27.16313	228410
27.17125	217148
27.17938	198131
27.18750	191328
27.19563	189241
27.20375	173086
27.21187	173025
27.22000	167703
27.22812	165865
27.23623	153582
27.24437	148424
27.25248	141966
27.26062	137203
27.26873	129291
27.27685	125039
27.28498	120015
27.29310	122924
27.30123	123851
27.30935	112298
27.31747	112675
27.32560	108844
27.33372	108771
27.34183	100174
27.34997	99695
27.35808	106794
27.36622	107926
27.37433	99480
27.38245	98121
27.39058	98018
27.39870	98793
27.40683	91134
27.41495	91356
27.42307	96333
27.43120	91730
27.43932	91016
27.44745	89508
27.45557	88597
27.46368	82190
27.47182	81911
27.47993	84647
27.48805	82961
27.49618	80440
27.50430	83397
27.51243	78988
27.52055	81857
27.52867	79398
27.53680	81302
27.54492	80868
27.55305	87809
27.56117	88120
27.56928	84214
27.57742	76426
27.58553	75333
27.59365	74522
27.60178	80740
27.60990	79983
27.61803	84919
27.62615	88651
27.63427	86950
27.64240	85383
27.65052	78145
27.65865	77620
27.66677	71931
27.67488	76895
27.68302	77925
27.69113	70681
27.69927	70270
27.70738	67885
27.71550	70160
27.72363	69441
27.73175	67825
27.73987	61987
27.74800	67390
27.75612	64546
27.76425	64894
27.77237	66373
27.78048	62850
27.78862	63728
27.79673	66386
27.80487	63055
27.81298	61939
27.82110	66057
27.82923	70640
27.83735	67281
27.84548	70018
27.85360	65678
27.86172	65616
27.86985	66038
27.87797	65978
27.88608	65442
27.89422	65600
27.90233	63244
27.91047	61614
27.91858	61922
27.92670	70726
27.93483	63336
27.94295	58373
27.95108	64201
27.95920	58721
27.96732	59269
27.97545	60293
27.98357	57210
27.99168	59306
27.99982	57987
28.00793	58610
28.01607	57311
28.02418	60835
28.03230	59303
28.04043	59109
28.04855	65238
28.05668	61592
28.06480	59766
28.07292	54641
28.08105	62167
28.08917	66329
28.09730	62186
28.10542	56495
28.11353	56593
28.12167	59852
28.12978	56131
28.13790	57429
28.14603	62872
28.15415	54532
28.16228	56606
28.17040	53053
28.17852	54246
28.18665	55202
28.19477	59604
28.20290	59744
28.21102	63996
28.21913	68758
28.22727	76626
28.23538	75623
28.24352	71184
28.25163	71320
28.25975	65108
28.26788	68750
28.27600	64819
28.28412	63112
28.29225	63465
28.30037	63228
28.30850	66120
28.31662	81356
28.32473	94337
28.33287	133281
28.34098	179404
28.34912	240321
28.35723	312851
28.36535	365296
28.37348	421464
28.38160	426552
28.38972	432852
28.39785	387796
28.40597	344202
28.41410	312287
28.42222	269404
28.43033	231823
28.43847	197319
28.44658	177347
28.45472	163295
28.46283	156202
28.47095	133803
28.47908	120746
28.48720	125926
28.49533	121759
28.50345	114558
28.51157	109702
28.51970	102835
28.52782	107408
28.53593	101029
28.54407	98744
28.55218	88623
28.56032	92318
28.56843	87960
28.57655	85466
28.58468	88936
28.59280	83994
28.60093	83290
28.60905	81469
28.61717	80758
28.62530	80202
28.63342	74345
28.64155	77831
28.64967	83539
28.65778	82965
28.66592	88642
28.67403	81617
28.68215	81413
28.69028	85231
28.69840	79812
28.70653	79837
28.71465	75901
28.72277	74177
28.73090	75022
28.73902	72259
28.74715	75106
28.75527	75923
28.76338	77422
28.77152	93379
28.77963	114030
28.78775	137011
28.79588	145800
28.80400	143143
28.81213	134135
28.82025	108975
28.82837	84993
28.83650	77985
28.84462	66353
28.85275	66465
28.86087	68557
28.86898	64300
28.87712	64027
28.88523	62656
28.89337	62851
28.90148	60953
28.90960	65857
28.91773	61507
28.92585	60320
28.93397	60529
28.94210	61951
28.95022	67546
28.95835	68333
28.96647	64889
28.97458	72050
28.98272	69601
28.99083	70186
28.99897	68558
29.00708	67882
29.01520	68292
29.02333	63449
29.03145	61004
29.03957	57728
29.04770	59678
29.05582	63370
29.06395	57633
29.07207	59157
29.08018	62961
29.08832	65802
29.09643	66882
29.10457	58211
29.11268	54196
29.12080	58503
29.12893	55805
29.13705	61835
29.14518	56562
29.15330	64793
29.16142	62410
29.16955	61415
29.17767	64516
29.18578	59653
29.19392	58298
29.20203	63277
29.21017	63846
29.21828	59055
29.22640	58877
29.23453	62712
29.24265	61113
29.25078	64403
29.25890	64955
29.26702	64107
29.27515	63241
29.28327	60728
29.29140	65524
29.29952	64297
29.30763	60299
29.31577	60956
29.32388	66509
29.33200	60382
29.34013	63795
29.34825	58529
29.35638	62191
29.36450	59535
29.37262	57169
29.38075	55379
29.38887	54093
29.39700	58179
29.40512	62556
29.41323	55675
29.42137	57013
29.42948	56535
29.43760	62498
29.44573	58890
29.45385	59463
29.46198	58405
29.47010	59836
29.47822	65852
29.48635	58063
29.49447	57648
29.50260	64376
29.51072	64382
29.51883	66047
29.52697	74329
29.53508	63954
29.54322	66412
29.55133	62575
29.55945	65271
29.56758	59211
29.57570	64079
29.58382	55604
29.59195	53424
29.60007	58420
29.60820	59497
29.61632	48197
29.62443	51716
29.63257	56940
29.64068	58653
29.64882	54519
29.65693	52476
29.66505	55596
29.67318	56201
29.68130	53341
29.68943	54233
29.69755	53602
29.70567	52088
29.71380	53450
29.72192	53207
29.73003	51241
29.73817	56452
29.74628	52955
29.75442	59369
29.76253	59317
29.77065	51054
29.77878	54929
29.78690	57627
29.79503	51021
29.80315	53832
29.81127	54772
29.81940	53696
29.82752	52004
29.83563	52758
29.84377	50390
29.85188	47924
29.86002	52502
29.86813	59393
29.87625	73543
29.88438	91115
29.89250	125116
29.90063	174831
29.90875	214807
29.91687	236474
29.92500	212091
29.93312	176034
29.94125	143597
29.94937	105059
29.95748	88228
29.96562	85445
29.97373	83729
29.98185	93846
29.98998	104614
29.99810	127891
30.00623	150214
30.01435	171864
30.02247	190559
30.03060	197283
30.03872	218188
30.04685	210872
30.05497	207360
30.06308	202513
30.07122	192309
30.07933	184225
30.08745	167428
30.09558	154448
30.10370	145010
30.11183	133201
30.11995	125517
30.12807	110180
30.13620	105100
30.14432	96114
30.15245	98881
30.16057	98861
30.16868	91259
30.17682	94996
30.18493	93324
30.19307	89903
30.20118	82375
30.20930	84450
30.21743	82231
30.22555	76208
30.23367	84081
30.24180	74803
30.24992	73415
30.25805	71596
30.26617	67168
30.27428	69913
30.28242	66209
30.29053	69621
30.29867	69669
30.30678	71467
30.31490	67698
30.32303	69400
30.33115	65102
30.33928	64323
30.34740	63313
30.35552	66016
30.36365	64729
30.37177	62238
30.37988	55939
30.38802	56996
30.39613	63580
30.40427	58918
30.41238	64492
30.42050	62732
30.42863	63227
30.43675	59760
30.44488	61953
30.45300	58321
30.46112	61196
30.46925	65871
30.47737	59252
30.48550	62175
30.49362	60110
30.50173	57544
30.50987	58934
30.51798	58274
30.52610	57327
30.53423	54014
30.54235	50978
30.55048	53997
30.55860	58087
30.56672	59129
30.57485	56698
30.58297	58597
30.59110	56297
30.59922	52063
30.60733	55535
30.61547	52492
30.62358	55962
30.63170	56331
30.63983	55026
30.64795	51021
30.65608	60393
30.66420	53547
30.67232	54329
30.68045	56751
30.68857	61475
30.69670	53747
30.70482	54687
30.71293	51309
30.72107	57236
30.72918	55527
30.73732	56288
30.74543	51860
30.75355	49838
30.76168	55097
30.76980	54457
30.77792	52556
30.78605	55572
30.79417	64188
30.80230	61306
30.81042	59315
30.81853	62706
30.82667	67045
30.83478	68404
30.84292	68943
30.85103	63217
30.85915	55348
30.86728	55779
30.87540	63047
30.88352	59146
30.89165	50630
30.89977	54763
30.90790	58932
30.91602	54367
30.92413	53175
30.93227	51728
30.94038	51865
30.94852	50279
30.95663	53283
30.96475	52100
30.97288	51482
30.98100	49593
30.98913	54974
30.99725	53200
31.00537	54330
31.01350	55581
31.02162	61775
31.02973	65677
31.03787	66839
31.04598	70416
31.05412	71567
31.06223	67062
31.07035	61247
31.07848	67467
31.08660	74026
31.09473	73532
31.10285	95196
31.11097	108703
31.11910	128596
31.12722	137517
31.13535	124268
31.14347	105973
31.15158	90824
31.15972	73783
31.16783	64291
31.17595	64998
31.18408	69102
31.19220	79599
31.20033	89537
31.20845	109875
31.21657	142514
31.22470	173324
31.23282	193595
31.24095	194390
31.24907	175329
31.25718	150566
31.26532	123020
31.27343	94678
31.28155	81604
31.28968	72790
31.29780	66834
31.30593	62146
31.31405	60181
31.32217	60100
31.33030	54622
31.33842	55520
31.34655	58248
31.35467	59674
31.36278	54413
31.37092	57607
31.37903	59473
31.38717	63268
31.39528	68950
31.40340	67818
31.41153	57830
31.41965	62717
31.42777	64689
31.43590	61958
31.44402	60156
31.45215	63986
31.46027	62703
31.46838	59959
31.47652	56636
31.48463	52932
31.49277	56535
31.50088	55190
31.50900	54363
31.51713	61187
31.52525	53652
31.53338	53388
31.54150	53098
31.54962	48047
31.55775	50241
31.56587	49894
31.57398	57318
31.58212	48307
31.59023	53338
31.59837	53790
31.60648	52942
31.61460	54189
31.62273	53997
31.63085	52005
31.63898	51281
31.64710	58629
31.65522	53921
31.66335	55584
31.67147	53093
31.67958	56734
31.68772	58844
31.69583	50850
31.70397	56302
31.71208	53821
31.72020	52796
31.72833	50534
31.73645	51306
31.74458	49818
31.75270	50543
31.76082	58845
31.76895	56251
31.77707	56757
31.78520	52845
31.79332	54361
31.80143	54273
31.80957	54785
31.81768	56546
31.82580	55777
31.83393	55472
31.84205	63105
31.85018	58405
31.85830	58514
31.86642	60275
31.87455	61813
31.88267	61115
31.89080	57815
31.89892	69011
31.90703	64637
31.91517	64174
31.92328	65201
31.93140	75642
31.93953	88279
31.94765	103354
31.95578	114167
31.96390	125952
31.97202	141928
31.98015	153254
31.98827	152110
31.99640	149828
32.00452	144691
32.01263	144470
32.02077	128687
32.02888	121756
32.03702	118608
32.04513	104568
32.05325	101967
32.06138	101841
32.06950	97396
32.07762	94191
32.08575	90894
32.09387	96820
32.10200	105549
32.11012	91450
32.11823	89719
32.12637	81285
32.13448	82275
32.14262	76142
32.15073	72855
32.15885	69974
32.16698	66012
32.17510	65411
32.18323	63427
32.19135	66165
32.19947	68050
32.20760	62151
32.21572	64434
32.22383	61082
32.23197	61744
32.24008	65181
32.24822	64643
32.25633	67857
32.26445	64241
32.27258	60579
32.28070	60651
32.28883	66731
32.29695	61453
32.30507	62909
32.31320	67438
32.32132	61970
32.32943	61410
32.33757	60768
32.34568	61024
32.35382	61396
32.36193	65617
32.37005	68042
32.37818	69202
32.38630	64758
32.39443	63069
32.40255	61666
32.41067	62343
32.41880	59245
32.42692	58825
32.43505	64080
32.44317	54673
32.45128	56422
32.45942	54997
32.46753	56779
32.47565	63536
32.48378	57919
32.49190	56779
32.50003	52014
32.50815	55799
32.51627	58668
32.52440	59556
32.53252	59166
32.54065	60064
32.54877	59579
32.55688	52290
32.56502	56923
32.57313	61975
32.58127	52302
32.58938	65869
32.59750	56278
32.60563	54493
32.61375	52930
32.62187	57118
32.63000	56534
32.63812	53704
32.64625	52948
32.65437	63453
32.66248	74092
32.67062	84682
32.67873	98496
32.68687	116689
32.69498	119248
32.70310	110808
32.71123	99515
32.71935	86715
32.72747	73684
32.73560	66338
32.74372	66745
32.75185	61435
32.75997	63253
32.76808	57155
32.77622	57537
32.78433	57132
32.79247	57042
32.80058	59028
32.80870	53116
32.81683	53333
32.82495	56588
32.83308	54447
32.84120	59430
32.84932	52085
32.85745	58924
32.86557	59114
32.87368	52898
32.88182	51739
32.88993	58134
32.89807	57130
32.90618	56334
32.91430	57233
32.92243	60537
32.93055	56546
32.93868	61515
32.94680	57786
32.95492	58967
32.96305	56125
32.97117	58173
32.97930	62773
32.98742	57075
32.99553	61701
33.00367	60094
33.01178	61482
33.01990	53280
33.02803	51851
33.03615	58487
33.04428	54139
33.05240	56807
33.06052	55539
33.06865	57242
33.07677	55892
33.08490	55305
33.09302	55934
33.10113	61814
33.10927	68710
33.11738	76087
33.12550	83725
33.13363	93721
33.14175	90722
33.14988	84967
33.15800	73719
33.16612	69477
33.17425	59959
33.18237	62645
33.19050	60639
33.19862	62129
33.20673	63350
33.21487	63757
33.22298	67500
33.23112	67101
33.23923	71724
33.24735	63819
33.25548	61567
33.26360	59447
33.27172	63288
33.27985	63462
33.28797	56515
33.29610	61364
33.30422	63891
33.31233	59784
33.32047	61246
33.32858	59348
33.33672	54124
33.34483	54487
33.35295	56021
33.36108	56664
33.36920	52967
33.37732	56081
33.38545	60639
33.39357	58817
33.40170	57481
33.40982	55932
33.41793	58911
33.42607	58256
33.43418	55437
33.44232	61926
33.45043	57416
33.45855	54223
33.46668	60811
33.47480	58221
33.48293	59248
33.49105	60233
33.49917	60225
33.50730	57286
33.51542	58046
33.52353	56708
33.53167	53819
33.53978	60025
33.54792	58958
33.55603	60995
33.56415	55972
33.57228	60161
33.58040	63121
33.58853	60385
33.59665	55501
33.60477	57793
33.61290	61253
33.62102	58070
33.62915	60090
33.63727	53878
33.64538	56909
33.65352	65123
33.66163	58303
33.66975	57506
33.67788	59071
33.68600	60222
33.69413	58039
33.70225	55222
33.71037	58229
33.71850	61591
33.72662	55127
33.73475	51489
33.74287	58386
33.75098	58841
33.75912	61124
33.76723	56785
33.77535	56593
33.78348	58772
33.79160	59447
33.79973	55769
33.80785	57050
33.81597	61090
33.82410	62454
33.83222	61184
33.84035	62927
33.84847	68350
33.85658	66398
33.86472	60215
33.87283	71325
33.88097	66233
33.88908	63219
33.89720	58933
33.90533	63181
33.91345	58251
33.92157	62435
33.92970	62854
33.93782	62536
33.94595	67836
33.95407	70122
33.96218	63408
33.97032	64489
33.97843	61500
33.98657	64744
33.99468	58720
34.00280	65494
34.01093	70457
34.01905	66171
34.02718	64378
34.03530	65035
34.04342	62873
34.05155	60705
34.05967	57980
34.06778	65442
34.07592	64025
34.08403	63538
34.09217	60787
34.10028	62853
34.10840	69527
34.11653	61424
34.12465	67511
34.13278	67749
34.14090	66862
34.14902	66231
34.15715	64326
34.16527	62365
34.17338	66668
34.18152	61800
34.18963	65782
34.19777	59589
34.20588	61497
34.21400	59492
34.22213	64705
34.23025	64707
34.23838	62400
34.24650	67745
34.25462	59462
34.26275	62948
34.27087	60578
34.27900	65252
34.28712	62381
34.29523	64936
34.30337	67484
34.31148	62470
34.31960	64906
34.32773	62738
34.33585	66431
34.34398	67591
34.35210	68060
34.36022	65557
34.36835	67232
34.37647	70681
34.38460	69014
34.39272	67826
34.40083	63377
34.40897	67787
34.41708	66277
34.42520	67993
34.43333	67968
34.44145	60796
34.44958	62010
34.45770	63822
34.46582	68084
34.47395	59201
34.48207	65766
34.49020	65985
34.49832	70968
34.50643	72361
34.51457	67973
34.52268	70794
34.53082	75552
34.53893	79840
34.54705	91919
34.55518	110609
34.56330	128447
34.57142	136235
34.57955	137506
34.58767	139391
34.59580	138028
34.60392	120617
34.61203	116790
34.62017	102809
34.62828	95419
34.63642	93233
34.64453	95893
34.65265	90566
34.66078	84131
34.66890	84090
34.67703	84075
34.68515	77414
34.69327	85392
34.70140	86336
34.70952	81557
34.71763	78321
34.72577	79918
34.73388	79787
34.74202	85367
34.75013	79888
34.75825	78455
34.76638	76106
34.77450	75531
34.78263	82719
34.79075	73412
34.79887	75667
34.80700	69273
34.81512	71854
34.82323	75717
34.83137	72445
34.83948	74007
34.84762	71300
34.85573	75915
34.86385	74602
34.87198	77617
34.88010	72333
34.88823	70717
34.89635	75159
34.90447	70364
34.91260	71021
34.92072	70566
34.92885	71725
34.93697	77705
34.94508	78785
34.95322	87517
34.96133	99579
34.96945	126903
34.97758	158622
34.98570	173361
34.99383	196606
35.00195	190907
35.01007	174920
35.01820	130382
35.02632	113830
35.03445	104724
35.04257	102327
35.05068	100602
35.05882	97804
35.06693	96024
35.07507	102468
35.08318	98819
35.09130	95083
35.09943	95246
35.10755	95836
35.11567	94560
35.12380	86260
35.13192	89503
35.14005	89200
35.14817	95809
35.15628	93356
35.16442	96955
35.17253	94590
35.18067	95740
35.18878	92774
35.19690	94203
35.20503	83424
35.21315	83182
35.22127	79057
35.22940	79787
35.23752	78905
35.24565	72837
35.25377	73270
35.26188	79598
35.27002	75759
35.27813	76173
35.28627	79943
35.29438	80560
35.30250	79930
35.31063	80725
35.31875	69022
35.32688	73234
35.33500	73734
35.34312	74624
35.35125	75469
35.35937	74025
35.36748	70366
35.37562	70492
35.38373	71581
35.39187	70711
35.39998	70023
35.40810	76485
35.41623	77061
35.42435	70845
35.43248	72745
35.44060	73220
35.44872	79734
35.45685	77934
35.46497	79056
35.47308	78002
35.48122	78958
35.48933	79960
35.49747	77797
35.50558	73171
35.51370	78252
35.52183	73913
35.52995	72650
35.53808	74696
35.54620	70933
35.55432	71526
35.56245	73621
35.57057	75039
35.57870	76367
35.58682	75176
35.59493	79469
35.60307	77147
35.61118	74090
35.61930	76791
35.62743	85014
35.63555	76541
35.64368	82541
35.65180	84101
35.65992	72495
35.66805	70412
35.67617	75070
35.68430	74354
35.69242	85230
35.70053	86053
35.70867	87581
35.71678	91611
35.72492	86360
35.73303	79148
35.74115	80791
35.74928	78296
35.75740	79263
35.76552	73507
35.77365	78914
35.78177	77558
35.78990	78075
35.79802	85723
35.80613	74555
35.81427	72781
35.82238	76732
35.83052	75550
35.83863	77575
35.84675	76227
35.85488	75507
35.86300	76229
35.87113	74756
35.87925	76986
35.88737	75285
35.89550	74641
35.90362	76903
35.91173	74847
35.91987	73310
35.92798	75775
35.93612	75626
35.94423	75415
35.95235	77213
35.96048	69722
35.96860	73437
35.97673	76657
35.98485	78558
35.99297	76061
36.00110	77318
36.00922	72958
36.01733	76521
36.02547	77145
36.03358	81777
36.04172	84906
36.04983	83244
36.05795	85019
36.06608	82809
36.07420	83799
36.08233	84843
36.09045	83008
36.09857	83514
36.10670	86602
36.11482	77573
36.12295	80261
36.13107	74934
36.13918	77729
36.14732	84627
36.15543	78256
36.16355	78943
36.17168	83018
36.17980	81867
36.18793	87010
36.19605	89729
36.20417	71020
36.21230	81205
36.22042	77927
36.22855	79196
36.23667	79525
36.24478	82290
36.25292	82062
36.26103	77359
36.26915	79275
36.27728	74331
36.28540	82414
36.29353	77994
36.30165	82578
36.30977	100806
36.31790	109044
36.32602	129440
36.33415	143259
36.34227	151214
36.35038	132150
36.35852	121027
36.36663	113916
36.37477	100091
36.38288	100227
36.39100	99218
36.39913	92506
36.40725	92209
36.41537	95298
36.42350	94286
36.43162	91806
36.43975	88179
36.44787	86794
36.45598	81986
36.46412	86949
36.47223	76816
36.48037	76969
36.48848	77388
36.49660	81103
36.50473	78074
36.51285	82089
36.52098	79333
36.52910	86049
36.53722	76906
36.54535	74514
36.55347	76266
36.56158	80023
36.56972	85396
36.57783	75685
36.58597	76666
36.59408	75508
36.60220	75888
36.61033	77985
36.61845	80486
36.62658	79017
36.63470	84621
36.64282	80007
36.65095	87706
36.65907	85143
36.66718	83028
36.67532	90895
36.68343	86855
36.69157	85850
36.69968	89664
36.70780	82770
36.71593	83841
36.72405	81373
36.73218	89204
36.74030	83407
36.74842	80409
36.75655	81713
36.76467	81009
36.77280	78031
36.78092	80891
36.78903	75605
36.79717	87674
36.80528	79508
36.81340	86052
36.82153	83336
36.82965	80515
36.83778	77371
36.84590	83146
36.85402	80903
36.86215	80244
36.87027	85515
36.87840	84609
36.88652	77255
36.89463	83703
36.90277	77217
36.91088	79932
36.91902	79890
36.92713	80555
36.93525	84909
36.94338	82109
36.95150	82324
36.95962	82428
36.96775	82140
36.97587	80359
36.98400	80101
36.99212	84267
37.00023	86137
37.00837	85137
37.01648	87664
37.02462	79658
37.03273	80955
37.04085	82965
37.04898	80525
37.05710	81354
37.06522	81977
37.07335	83026
37.08147	85522
37.08960	85774
37.09772	89823
37.10583	89412
37.11397	90294
37.12208	84355
37.13022	83548
37.13833	84393
37.14645	80889
37.15458	77123
37.16270	82500
37.17083	76659
37.17895	88429
37.18707	86531
37.19520	86706
37.20332	88213
37.21143	92405
37.21957	86337
37.22768	89077
37.23582	87607
37.24393	89629
37.25205	84828
37.26018	92173
37.26830	88849
37.27643	89685
37.28455	87322
37.29267	91983
37.30080	90716
37.30892	91543
37.31703	93000
37.32517	88599
37.33328	91879
37.34142	92006
37.34953	101278
37.35765	107191
37.36578	111744
37.37390	128813
37.38203	133204
37.39015	134267
37.39827	123066
37.40640	124727
37.41452	115355
37.42265	117386
37.43077	110529
37.43888	116875
37.44702	110722
37.45513	109356
37.46325	105589
37.47138	104021
37.47950	106556
37.48763	104114
