Z:\data\JTB-E02\BACandBLUE\JTB-E02-196-16.D Wed Feb 20 19:14:35 2019
Start of data points
2.09527	101035
2.10338	99160
2.11150	97478
2.11963	100785
2.12775	98741
2.13588	93749
2.14400	92560
2.15212	84620
2.16025	97960
2.16837	88361
2.17648	88675
2.18462	86717
2.19273	86380
2.20087	82331
2.20898	80382
2.21710	83723
2.22523	79211
2.23335	74215
2.24148	73409
2.24960	75355
2.25772	83021
2.26585	188660
2.27397	834757
2.28210	1626083
2.29022	1190751
2.29833	632284
2.30647	461313
2.31458	389634
2.32270	360737
2.33083	313750
2.33895	287115
2.34708	258145
2.35520	237611
2.36332	216762
2.37145	206620
2.37957	205532
2.38770	194414
2.39582	176539
2.40393	179518
2.41207	168062
2.42018	173793
2.42830	172662
2.43643	156559
2.44455	161112
2.45268	155578
2.46080	159534
2.46892	143385
2.47705	137891
2.48517	135962
2.49330	148865
2.50142	157247
2.50953	134326
2.51767	137467
2.52578	131340
2.53392	131228
2.54203	128659
2.55015	148737
2.55828	227064
2.56640	392661
2.57452	373457
2.58265	286237
2.59077	237661
2.59890	219755
2.60702	209049
2.61513	207904
2.62327	211898
2.63138	199155
2.63952	173913
2.64763	165803
2.65575	157266
2.66388	152357
2.67200	150813
2.68013	148134
2.68825	148793
2.69637	145159
2.70450	136382
2.71262	134428
2.72073	137517
2.72887	125501
2.73698	129098
2.74512	125668
2.75323	127487
2.76135	124567
2.76948	127266
2.77760	124125
2.78573	125301
2.79385	129252
2.80197	126485
2.81010	128536
2.81822	128715
2.82633	144886
2.83447	181620
2.84258	184240
2.85072	152249
2.85883	143839
2.86695	130047
2.87508	123883
2.88320	117261
2.89133	125350
2.89945	119529
2.90757	111798
2.91570	110060
2.92382	108885
2.93195	111080
2.94007	112714
2.94818	111365
2.95632	115886
2.96443	104165
2.97255	107863
2.98068	99994
2.98880	108644
2.99693	114105
3.00505	110132
3.01317	118421
3.02130	114181
3.02942	100142
3.03755	103707
3.04567	105089
3.05378	107739
3.06192	128618
3.07003	133554
3.07817	122784
3.08628	117867
3.09440	141741
3.10253	449236
3.11065	1281033
3.11877	1775383
3.12690	1311536
3.13502	864097
3.14315	661145
3.15127	550910
3.15938	476767
3.16752	398018
3.17563	361096
3.18377	326675
3.19188	281186
3.20000	255308
3.20813	244457
3.21625	233866
3.22437	218401
3.23250	207957
3.24062	190016
3.24875	187617
3.25687	179645
3.26498	167683
3.27312	162168
3.28123	190083
3.28937	423872
3.29748	1714478
3.30560	5194859
3.31373	9299390
3.32185	1.017316E+07
3.32998	7745015
3.33810	5078989
3.34622	3506437
3.35435	2678758
3.36247	2129512
3.37058	1766794
3.37872	1523338
3.38683	1309297
3.39497	1163431
3.40308	1055709
3.41120	938523
3.41933	869591
3.42745	790129
3.43558	745354
3.44370	692753
3.45182	651664
3.45995	649961
3.46807	852959
3.47618	1231944
3.48432	1330598
3.49243	1088210
3.50057	800645
3.50868	646954
3.51680	574064
3.52493	520346
3.53305	487190
3.54118	453839
3.54930	409429
3.55742	410661
3.56555	375159
3.57367	359840
3.58180	359355
3.58992	336802
3.59803	345266
3.60617	339257
3.61428	321790
3.62240	334941
3.63053	373270
3.63865	434755
3.64678	453241
3.65490	410713
3.66302	339217
3.67115	322384
3.67927	302140
3.68740	286558
3.69552	281846
3.70363	266813
3.71177	259236
3.71988	268976
3.72802	264711
3.73613	251877
3.74425	255797
3.75238	249814
3.76050	253387
3.76862	239947
3.77675	250263
3.78487	243432
3.79300	253000
3.80112	303451
3.80923	712105
3.81737	1599475
3.82548	2208269
3.83362	1906911
3.84173	1282432
3.84985	919611
3.85798	753764
3.86610	653406
3.87423	595211
3.88235	530072
3.89047	474298
3.89860	451534
3.90672	419128
3.91483	408547
3.92297	393815
3.93108	378447
3.93922	359232
3.94733	337489
3.95545	332205
3.96358	322965
3.97170	324511
3.97983	317991
3.98795	303411
3.99607	299821
4.00420	289064
4.01232	297081
4.02043	309577
4.02857	302173
4.03668	290063
4.04482	268944
4.05293	258481
4.06105	260977
4.06918	255645
4.07730	246923
4.08543	250505
4.09355	234106
4.10167	229178
4.10980	232784
4.11792	228345
4.12605	226268
4.13417	218615
4.14228	222425
4.15042	228441
4.15853	245490
4.16665	238055
4.17478	257607
4.18290	261164
4.19103	254165
4.19915	239439
4.20727	225480
4.21540	217725
4.22352	265546
4.23165	371516
4.23977	466923
4.24788	487305
4.25602	408844
4.26413	335351
4.27225	305514
4.28038	277105
4.28850	248910
4.29663	232942
4.30475	219559
4.31287	217720
4.32100	222613
4.32912	210320
4.33725	211609
4.34537	209257
4.35348	203378
4.36162	203059
4.36973	205800
4.37787	191935
4.38598	200930
4.39410	194312
4.40223	187838
4.41035	187821
4.41847	187706
4.42660	189814
4.43472	188604
4.44285	184737
4.45097	190715
4.45908	189307
4.46722	180079
4.47533	182745
4.48347	180573
4.49158	180201
4.49970	173639
4.50783	181218
4.51595	182928
4.52408	179857
4.53220	172269
4.54032	173573
4.54845	170064
4.55657	163074
4.56468	174900
4.57282	167857
4.58093	167845
4.58907	166271
4.59718	166610
4.60530	161424
4.61343	166817
4.62155	165069
4.62968	159092
4.63780	161312
4.64592	163015
4.65405	158383
4.66217	155549
4.67028	159017
4.67842	160439
4.68653	165809
4.69467	156455
4.70278	155417
4.71090	160296
4.71903	151234
4.72715	159121
4.73528	155126
4.74340	156152
4.75152	152133
4.75965	158695
4.76777	147254
4.77590	141942
4.78402	146390
4.79213	148757
4.80027	150834
4.80838	168654
4.81650	171648
4.82463	176144
4.83275	169503
4.84088	174287
4.84900	183808
4.85712	182289
4.86525	172913
4.87337	166090
4.88150	159748
4.88962	167880
4.89773	159775
4.90587	158654
4.91398	150066
4.92212	149763
4.93023	152414
4.93835	175355
4.94648	275949
4.95460	589957
4.96272	1181302
4.97085	1876128
4.97897	2266952
4.98710	2111644
4.99522	1693698
5.00333	1327568
5.01147	1016505
5.01958	870539
5.02772	734035
5.03583	653397
5.04395	590111
5.05208	546180
5.06020	502570
5.06832	458854
5.07645	449664
5.08457	437227
5.09270	426449
5.10082	398565
5.10893	362561
5.11707	356681
5.12518	353429
5.13332	350631
5.14143	329430
5.14955	330798
5.15768	300768
5.16580	300868
5.17393	293737
5.18205	299959
5.19017	300544
5.19830	299680
5.20642	308383
5.21453	297322
5.22267	289265
5.23078	274605
5.23892	269366
5.24703	274432
5.25515	281594
5.26328	272274
5.27140	261272
5.27953	236744
5.28765	246679
5.29577	233397
5.30390	226774
5.31202	235840
5.32013	222879
5.32827	228583
5.33638	241147
5.34452	255116
5.35263	280461
5.36075	263882
5.36888	248956
5.37700	231550
5.38513	251437
5.39325	264747
5.40137	269586
5.40950	269167
5.41762	266741
5.42575	248125
5.43387	241233
5.44198	265472
5.45012	278911
5.45823	300890
5.46635	290917
5.47448	284893
5.48260	241903
5.49073	242783
5.49885	230533
5.50697	229280
5.51510	233032
5.52322	229829
5.53135	227346
5.53947	234213
5.54758	217825
5.55572	212048
5.56383	209275
5.57197	211937
5.58008	228866
5.58820	263759
5.59633	303315
5.60445	306163
5.61257	280139
5.62070	259291
5.62882	243393
5.63695	238723
5.64507	230086
5.65318	224394
5.66132	223299
5.66943	212638
5.67757	204899
5.68568	208725
5.69380	230209
5.70193	234885
5.71005	253033
5.71817	247897
5.72630	229668
5.73442	213685
5.74255	201580
5.75067	200579
5.75878	195996
5.76692	186284
5.77503	192361
5.78317	192436
5.79128	189737
5.79940	180199
5.80753	179559
5.81565	176723
5.82378	182066
5.83190	176347
5.84002	191148
5.84815	200835
5.85627	202219
5.86438	206653
5.87252	189060
5.88063	188398
5.88877	183848
5.89688	174288
5.90500	183527
5.91313	161814
5.92125	140939
5.92938	136596
5.93750	132119
5.94562	122675
5.95375	131432
5.96187	131329
5.97000	154559
5.97812	180221
5.98623	237830
5.99437	284372
6.00248	276934
6.01060	239421
6.01873	209463
6.02685	191650
6.03498	181154
6.04310	178124
6.05122	171676
6.05935	160403
6.06747	150004
6.07560	147648
6.08372	138860
6.09183	139493
6.09997	135780
6.10808	132144
6.11620	133477
6.12433	131399
6.13245	141440
6.14058	135252
6.14870	139015
6.15682	139234
6.16495	142135
6.17307	145448
6.18120	142832
6.18932	144335
6.19743	151271
6.20557	149193
6.21368	150759
6.22182	161294
6.22993	154101
6.23805	163440
6.24618	150334
6.25430	168342
6.26242	157773
6.27055	162249
6.27867	165545
6.28680	175145
6.29492	168253
6.30303	174361
6.31117	178655
6.31928	183330
6.32742	203141
6.33553	201369
6.34365	196142
6.35178	209582
6.35990	196175
6.36803	200620
6.37615	198394
6.38427	205976
6.39240	213324
6.40052	207188
6.40863	209492
6.41677	200900
6.42488	210052
6.43302	217678
6.44113	218949
6.44925	218256
6.45738	229867
6.46550	222906
6.47363	229559
6.48175	229935
6.48987	233304
6.49800	229621
6.50612	226773
6.51423	233863
6.52237	234903
6.53048	244836
6.53862	243629
6.54673	241303
6.55485	249352
6.56298	246334
6.57110	254946
6.57923	262240
6.58735	258223
6.59547	261069
6.60360	245615
6.61172	252132
6.61985	258386
6.62797	271694
6.63608	262811
6.64422	290923
6.65233	419102
6.66045	934261
6.66858	2262918
6.67670	3998893
6.68483	4884589
6.69295	4265408
6.70107	2855416
6.70920	1768715
6.71732	1182109
6.72545	907988
6.73357	772740
6.74168	669540
6.74982	601776
6.75793	569633
6.76605	531229
6.77418	495950
6.78230	467544
6.79043	443001
6.79855	435272
6.80667	423405
6.81480	378485
6.82292	329920
6.83105	296724
6.83917	286908
6.84728	274099
6.85542	267634
6.86353	256081
6.87167	228369
6.87978	211810
6.88790	192399
6.89603	195573
6.90415	180340
6.91227	171871
6.92040	162556
6.92852	165678
6.93665	162125
6.94477	152899
6.95288	153379
6.96102	146751
6.96913	154736
6.97727	164327
6.98538	177726
6.99350	181543
7.00163	178387
7.00975	162139
7.01788	143645
7.02600	137569
7.03412	121649
7.04225	115639
7.05037	107746
7.05848	105013
7.06662	108272
7.07473	117462
7.08287	130426
7.09098	138870
7.09910	137038
7.10723	137054
7.11535	138501
7.12348	135277
7.13160	125158
7.13972	129677
7.14785	127652
7.15597	132300
7.16408	140105
7.17222	139902
7.18033	139722
7.18847	136641
7.19658	131867
7.20470	127580
7.21283	116267
7.22095	118508
7.22908	107295
7.23720	114047
7.24532	116606
7.25345	117150
7.26157	129121
7.26970	129560
7.27782	122455
7.28593	119699
7.29407	121540
7.30218	114507
7.31030	117662
7.31843	111045
7.32655	114814
7.33468	113952
7.34280	101515
7.35092	107694
7.35905	104988
7.36717	103597
7.37530	106916
7.38342	104705
7.39153	107241
7.39967	104383
7.40778	112501
7.41592	106530
7.42403	110175
7.43215	107575
7.44028	104448
7.44840	105590
7.45652	96841
7.46465	98564
7.47277	96804
7.48090	95734
7.48902	93658
7.49713	91613
7.50527	96949
7.51338	87660
7.52152	85116
7.52963	86841
7.53775	83121
7.54588	84655
7.55400	87201
7.56212	89273
7.57025	82082
7.57837	82055
7.58650	85254
7.59462	83172
7.60273	84593
7.61087	87818
7.61898	85448
7.62712	88343
7.63523	89338
7.64335	86261
7.65148	82461
7.65960	80639
7.66773	86060
7.67585	84485
7.68397	80699
7.69210	85298
7.70022	80595
7.70833	85011
7.71647	82446
7.72458	85738
7.73272	86491
7.74083	80123
7.74895	84823
7.75708	84300
7.76520	81984
7.77333	86501
7.78145	85232
7.78957	75861
7.79770	85205
7.80582	83560
7.81393	87233
7.82207	80398
7.83018	82050
7.83832	79220
7.84643	72617
7.85455	76533
7.86268	75648
7.87080	70832
7.87893	74627
7.88705	73350
7.89517	75713
7.90330	73246
7.91142	71854
7.91955	72790
7.92767	83460
7.93578	111793
7.94392	155694
7.95203	202203
7.96015	240709
7.96828	228406
7.97640	190563
7.98453	150692
7.99265	116821
8.00077	102446
8.00890	92563
8.01702	85289
8.02515	83209
8.03327	81011
8.04138	76014
8.04952	74919
8.05763	88087
8.06577	75300
8.07388	77640
8.08200	71700
8.09013	76016
8.09825	73159
8.10637	72601
8.11450	78590
8.12262	75296
8.13075	84326
8.13887	84582
8.14698	89955
8.15512	83614
8.16323	84544
8.17137	83676
8.17948	81032
8.18760	76757
8.19573	69838
8.20385	72784
8.21197	76519
8.22010	73503
8.22822	75613
8.23635	73913
8.24447	79603
8.25258	74945
8.26072	73982
8.26883	70223
8.27697	72601
8.28508	70741
8.29320	75345
8.30133	77621
8.30945	75618
8.31758	85401
8.32570	87147
8.33382	83744
8.34195	78110
8.35007	80150
8.35818	75340
8.36632	69738
8.37443	76582
8.38257	78925
8.39068	78044
8.39880	77075
8.40693	74669
8.41505	75964
8.42318	72047
8.43130	72275
8.43942	67796
8.44755	68183
8.45567	68933
8.46380	74034
8.47192	71939
8.48003	69915
8.48817	73340
8.49628	69464
8.50440	64729
8.51253	68199
8.52065	70308
8.52878	71743
8.53690	104399
8.54502	217569
8.55315	576609
8.56127	1292923
8.56940	2258703
8.57752	2903360
8.58563	2755007
8.59377	2045439
8.60188	1226623
8.61000	626621
8.61813	338630
8.62625	226379
8.63438	183229
8.64250	163554
8.65062	148211
8.65875	141431
8.66687	136103
8.67500	124244
8.68312	121914
8.69123	120112
8.69937	124698
8.70748	119028
8.71562	113993
8.72373	111271
8.73185	106053
8.73998	99638
8.74810	99890
8.75622	101640
8.76435	113181
8.77247	148257
8.78060	228834
8.78872	339534
8.79683	466057
8.80497	543140
8.81308	516789
8.82122	441111
8.82933	356049
8.83745	279117
8.84558	224369
8.85370	195971
8.86182	193062
8.86995	203904
8.87807	206595
8.88620	217007
8.89432	209166
8.90243	198007
8.91057	194636
8.91868	180781
8.92682	173916
8.93493	172531
8.94305	164586
8.95118	169476
8.95930	160931
8.96743	165521
8.97555	151017
8.98367	145135
8.99180	145069
8.99992	150535
9.00803	141369
9.01617	147220
9.02428	138151
9.03242	131883
9.04053	135722
9.04865	131758
9.05678	131614
9.06490	134259
9.07303	129858
9.08115	124060
9.08927	126163
9.09740	125573
9.10552	125940
9.11365	124150
9.12177	127995
9.12988	119042
9.13802	128118
9.14613	120844
9.15425	118544
9.16238	120476
9.17050	119679
9.17863	124574
9.18675	120100
9.19487	111985
9.20300	115728
9.21112	115004
9.21925	112638
9.22737	115989
9.23548	118293
9.24362	115500
9.25173	112429
9.25987	113980
9.26798	119204
9.27610	107246
9.28423	115709
9.29235	110225
9.30047	112943
9.30860	109576
9.31672	111296
9.32485	104838
9.33297	104967
9.34108	100791
9.34922	99824
9.35733	112987
9.36547	106859
9.37358	100113
9.38170	101603
9.38983	93668
9.39795	99797
9.40607	92850
9.41420	93200
9.42232	93037
9.43045	97378
9.43857	94160
9.44668	95288
9.45482	107952
9.46293	99931
9.47107	92011
9.47918	92433
9.48730	97586
9.49543	93047
9.50355	98098
9.51168	101017
9.51980	106222
9.52792	109036
9.53605	122354
9.54417	106747
9.55228	116256
9.56042	105692
9.56853	93599
9.57667	93085
9.58478	88984
9.59290	83814
9.60103	77169
9.60915	70433
9.61728	71848
9.62540	67044
9.63352	68350
9.64165	65301
9.64977	66332
9.65788	65502
9.66602	64136
9.67413	58037
9.68227	59956
9.69038	62144
9.69850	60796
9.70663	58872
9.71475	59746
9.72288	63380
9.73100	59082
9.73912	61474
9.74725	64621
9.75537	56011
9.76350	60980
9.77162	57504
9.77973	62889
9.78787	57167
9.79598	52266
9.80410	57585
9.81223	55518
9.82035	60741
9.82848	56499
9.83660	58500
9.84472	58188
9.85285	57458
9.86097	58387
9.86910	60634
9.87722	60521
9.88533	63149
9.89347	64622
9.90158	66193
9.90972	62949
9.91783	72599
9.92595	87189
9.93408	114319
9.94220	143379
9.95032	148194
9.95845	161289
9.96657	140578
9.97470	122283
9.98282	102206
9.99093	84254
9.99907	78278
10.00718	80094
10.01532	79562
10.02343	81178
10.03155	88087
10.03968	81145
10.04780	73601
10.05592	68360
10.06405	70968
10.07217	68439
10.08030	70227
10.08842	74322
10.09653	72803
10.10467	71935
10.11278	70350
10.12092	71559
10.12903	70771
10.13715	66415
10.14528	70088
10.15340	58180
10.16153	62090
10.16965	64930
10.17777	64796
10.18590	65699
10.19402	63099
10.20213	68031
10.21027	66278
10.21838	64405
10.22652	60656
10.23463	68458
10.24275	71245
10.25088	75835
10.25900	80686
10.26713	79712
10.27525	78531
10.28337	73727
10.29150	76320
10.29962	95644
10.30775	114258
10.31587	158752
10.32398	265387
10.33212	477828
10.34023	798416
10.34835	1174805
10.35648	1329850
10.36460	1183831
10.37273	828480
10.38085	488234
10.38897	273833
10.39710	168481
10.40522	132907
10.41335	111390
10.42147	103178
10.42958	94859
10.43772	91845
10.44583	86293
10.45395	82766
10.46208	77794
10.47020	79504
10.47833	75891
10.48645	72178
10.49457	71245
10.50270	70935
10.51082	68624
10.51895	72491
10.52707	69556
10.53518	63388
10.54332	70945
10.55143	69100
10.55957	64610
10.56768	68721
10.57580	66123
10.58393	62279
10.59205	64832
10.60017	71548
10.60830	64625
10.61642	68419
10.62455	64950
10.63267	65235
10.64078	61259
10.64892	56568
10.65703	62839
10.66517	60776
10.67328	63252
10.68140	70306
10.68953	60591
10.69765	62413
10.70577	59925
10.71390	57889
10.72202	57376
10.73015	60770
10.73827	57979
10.74638	62221
10.75452	64994
10.76263	67685
10.77077	65346
10.77888	68705
10.78700	64719
10.79513	59155
10.80325	59436
10.81138	57833
10.81950	53585
10.82762	59518
10.83575	52805
10.84387	59048
10.85198	56472
10.86012	62401
10.86823	55392
10.87637	56600
10.88448	53324
10.89260	54926
10.90073	57823
10.90885	58054
10.91698	56880
10.92510	53296
10.93322	52421
10.94135	53167
10.94947	53530
10.95760	56202
10.96572	56576
10.97383	57507
10.98197	56295
10.99008	53502
10.99820	57356
11.00633	50559
11.01445	52083
11.02258	48645
11.03070	48315
11.03882	46458
11.04695	51383
11.05507	48289
11.06320	48451
11.07132	52980
11.07943	51361
11.08757	52058
11.09568	49352
11.10380	49679
11.11193	54789
11.12005	57930
11.12818	49279
11.13630	48880
11.14442	47194
11.15255	48002
11.16067	53195
11.16880	50198
11.17692	51002
11.18503	58643
11.19317	55015
11.20128	56759
11.20942	54063
11.21753	55727
11.22565	55478
11.23378	55796
11.24190	46796
11.25002	51945
11.25815	45410
11.26627	48657
11.27440	49161
11.28252	45060
11.29063	46473
11.29877	50788
11.30688	48180
11.31502	52328
11.32313	51154
11.33125	56430
11.33938	51402
11.34750	49882
11.35563	55060
11.36375	46911
11.37187	47846
11.38000	50858
11.38812	48792
11.39623	50820
11.40437	46434
11.41248	46288
11.42062	45786
11.42873	46826
11.43685	45505
11.44498	44351
11.45310	45634
11.46123	45540
11.46935	45916
11.47747	45478
11.48560	49376
11.49372	54044
11.50183	65878
11.50997	74381
11.51808	80759
11.52622	80861
11.53433	74704
11.54245	61842
11.55058	57793
11.55870	52034
11.56683	55411
11.57495	53578
11.58307	53986
11.59120	49553
11.59932	47139
11.60745	49329
11.61557	50280
11.62368	52013
11.63182	48916
11.63993	45006
11.64805	49160
11.65618	46171
11.66430	44844
11.67243	47826
11.68055	49358
11.68867	53456
11.69680	55306
11.70492	63060
11.71305	64949
11.72117	69982
11.72928	61550
11.73742	61080
11.74553	47467
11.75367	47083
11.76178	46981
11.76990	53271
11.77803	50323
11.78615	51948
11.79427	52725
11.80240	49426
11.81052	49915
11.81865	47702
11.82677	47176
11.83488	47938
11.84302	46387
11.85113	48198
11.85927	49954
11.86738	47484
11.87550	45866
11.88363	50168
11.89175	52594
11.89987	47203
11.90800	46718
11.91612	47777
11.92425	50594
11.93237	49813
11.94048	47624
11.94862	53925
11.95673	51936
11.96487	49261
11.97298	47664
11.98110	45785
11.98923	49579
11.99735	46233
12.00548	49124
12.01360	54999
12.02172	56942
12.02985	58646
12.03797	60513
12.04608	58260
12.05422	52985
12.06233	51515
12.07047	48450
12.07858	47328
12.08670	47363
12.09483	45046
12.10295	45383
12.11108	44829
12.11920	44844
12.12732	51269
12.13545	50866
12.14357	50006
12.15168	50322
12.15982	50444
12.16793	47081
12.17607	49167
12.18418	49797
12.19230	44677
12.20043	50269
12.20855	45767
12.21668	49209
12.22480	47213
12.23292	46414
12.24105	50569
12.24917	47903
12.25730	50248
12.26542	48550
12.27353	53429
12.28167	50782
12.28978	56091
12.29790	51126
12.30603	50791
12.31415	46810
12.32228	48453
12.33040	46875
12.33852	52616
12.34665	43595
12.35477	45151
12.36290	52240
12.37102	51346
12.37913	49881
12.38727	53883
12.39538	47589
12.40352	48617
12.41163	47496
12.41975	47455
12.42788	47482
12.43600	48626
12.44412	53177
12.45225	53628
12.46037	53698
12.46850	55776
12.47662	48206
12.48473	54794
12.49287	46469
12.50098	48782
12.50912	48959
12.51723	47250
12.52535	46493
12.53348	45378
12.54160	50698
12.54972	50676
12.55785	46760
12.56597	47021
12.57410	51216
12.58222	57094
12.59033	51463
12.59847	50960
12.60658	52120
12.61472	50509
12.62283	51518
12.63095	50032
12.63908	48523
12.64720	50298
12.65533	52588
12.66345	46851
12.67157	48919
12.67970	50701
12.68782	42104
12.69593	45392
12.70407	47688
12.71218	48391
12.72032	52275
12.72843	44262
12.73655	48991
12.74468	55278
12.75280	50257
12.76093	54571
12.76905	48560
12.77717	53009
12.78530	48473
12.79342	47186
12.80155	47675
12.80967	47972
12.81778	43827
12.82592	45867
12.83403	49342
12.84215	46462
12.85028	44442
12.85840	42073
12.86653	43917
12.87465	43143
12.88277	43657
12.89090	47056
12.89902	47103
12.90715	47528
12.91527	46312
12.92338	43739
12.93152	47983
12.93963	43205
12.94775	43237
12.95588	42720
12.96400	43640
12.97213	44813
12.98025	43137
12.98837	47471
12.99650	51524
13.00462	43741
13.01275	43077
13.02087	44115
13.02898	45485
13.03712	43027
13.04523	45632
13.05337	41699
13.06148	44669
13.06960	48320
13.07773	47169
13.08585	45100
13.09397	45069
13.10210	47339
13.11022	49684
13.11835	46525
13.12647	45259
13.13458	45744
13.14272	46840
13.15083	40647
13.15897	41576
13.16708	42641
13.17520	41992
13.18333	44139
13.19145	45293
13.19958	47454
13.20770	47261
13.21582	48762
13.22395	49525
13.23207	47121
13.24018	44725
13.24832	50684
13.25643	47908
13.26457	47118
13.27268	40082
13.28080	46188
13.28893	42919
13.29705	43364
13.30518	42217
13.31330	44712
13.32142	42111
13.32955	41125
13.33767	42239
13.34578	42168
13.35392	43286
13.36203	41550
13.37017	43098
13.37828	41386
13.38640	42915
13.39453	40561
13.40265	36583
13.41078	46933
13.41890	44193
13.42702	40381
13.43515	38430
13.44327	37434
13.45140	37929
13.45952	42804
13.46763	37710
13.47577	39997
13.48388	38474
13.49200	39286
13.50013	42302
13.50825	46696
13.51638	38013
13.52450	40544
13.53262	37974
13.54075	42571
13.54887	37248
13.55700	38699
13.56512	43505
13.57323	45097
13.58137	43146
13.58948	42828
13.59762	41387
13.60573	43087
13.61385	40277
13.62198	40198
13.63010	40166
13.63822	46089
13.64635	40938
13.65447	39397
13.66260	40448
13.67072	40439
13.67883	39289
13.68697	40918
13.69508	42357
13.70322	40511
13.71133	39817
13.71945	40651
13.72758	39829
13.73570	40273
13.74382	38443
13.75195	38962
13.76007	40189
13.76820	48469
13.77632	58468
13.78443	65618
13.79257	87980
13.80068	90708
13.80882	89175
13.81693	77372
13.82505	67730
13.83318	59026
13.84130	55161
13.84943	56509
13.85755	47958
13.86567	44367
13.87380	43018
13.88192	45044
13.89003	43398
13.89817	42162
13.90628	42441
13.91442	44066
13.92253	43345
13.93065	45841
13.93878	54362
13.94690	46071
13.95503	49479
13.96315	45662
13.97127	53251
13.97940	60035
13.98752	72377
13.99563	87489
14.00377	91657
14.01188	91834
14.02002	80249
14.02813	70496
14.03625	62608
14.04438	54686
14.05250	50994
14.06063	51390
14.06875	53338
14.07687	56038
14.08500	49214
14.09312	49361
14.10125	48005
14.10937	48598
14.11748	44873
14.12562	45862
14.13373	52191
14.14185	44625
14.14998	48337
14.15810	51107
14.16623	52701
14.17435	48386
14.18247	50586
14.19060	54067
14.19872	63562
14.20685	89741
14.21497	122142
14.22308	165378
14.23122	202596
14.23933	226276
14.24747	212455
14.25558	191109
14.26370	166766
14.27183	162919
14.27995	150790
14.28807	131920
14.29620	125022
14.30432	114088
14.31245	109169
14.32057	106884
14.32868	100253
14.33682	95476
14.34493	86724
14.35307	84260
14.36118	84057
14.36930	75547
14.37743	68840
14.38555	63178
14.39367	56452
14.40180	51892
14.40992	48664
14.41805	50589
14.42617	44560
14.43428	49640
14.44242	45147
14.45053	48582
14.45867	45571
14.46678	45939
14.47490	45889
14.48303	44879
14.49115	44820
14.49928	46402
14.50740	44663
14.51552	47123
14.52365	45488
14.53177	43883
14.53988	46762
14.54802	50131
14.55613	43451
14.56427	42632
14.57238	43808
14.58050	45618
14.58863	45217
14.59675	46292
14.60488	48707
14.61300	41550
14.62112	39554
14.62925	42670
14.63737	45243
14.64550	42886
14.65362	44172
14.66173	40213
14.66987	44264
14.67798	39222
14.68610	38972
14.69423	38421
14.70235	40837
14.71048	40361
14.71860	42426
14.72672	40460
14.73485	42369
14.74297	39349
14.75110	42066
14.75922	37174
14.76733	40089
14.77547	37875
14.78358	45094
14.79170	39147
14.79983	41823
14.80795	40250
14.81608	41845
14.82420	46683
14.83232	47278
14.84045	51873
14.84857	62346
14.85670	67051
14.86482	75107
14.87293	75950
14.88107	75475
14.88918	74135
14.89732	71364
14.90543	70125
14.91355	81033
14.92168	69752
14.92980	70997
14.93792	70498
14.94605	70407
14.95417	69342
14.96230	65699
14.97042	69922
14.97853	71124
14.98667	72555
14.99478	65091
15.00292	67666
15.01103	73468
15.01915	64927
15.02728	73130
15.03540	61347
15.04352	70509
15.05165	64477
15.05977	60737
15.06790	58657
15.07602	57004
15.08413	60729
15.09227	63034
15.10038	61762
15.10852	57502
15.11663	54690
15.12475	60255
15.13288	53957
15.14100	58109
15.14913	58611
15.15725	50663
15.16537	51431
15.17350	59744
15.18162	52965
15.18973	47815
15.19787	48355
15.20598	45050
15.21412	47694
15.22223	44712
15.23035	43110
15.23848	42133
15.24660	45181
15.25473	46136
15.26285	49509
15.27097	45146
15.27910	42893
15.28722	47991
15.29535	46076
15.30347	48233
15.31158	46901
15.31972	42401
15.32783	40372
15.33595	42376
15.34408	42220
15.35220	42061
15.36033	43749
15.36845	40629
15.37657	44636
15.38470	44469
15.39282	45485
15.40095	41693
15.40907	41499
15.41718	42662
15.42532	41241
15.43343	40242
15.44155	39498
15.44968	38651
15.45780	38780
15.46593	40319
15.47405	37882
15.48217	36784
15.49030	39149
15.49842	42307
15.50655	47294
15.51467	48873
15.52278	53890
15.53092	65546
15.53903	80172
15.54717	97877
15.55528	107797
15.56340	108657
15.57153	93539
15.57965	80333
15.58777	69705
15.59590	58340
15.60402	54191
15.61215	55313
15.62027	52215
15.62838	46150
15.63652	45130
15.64463	41884
15.65277	43725
15.66088	44783
15.66900	42510
15.67713	39290
15.68525	43622
15.69338	34240
15.70150	38774
15.70962	43617
15.71775	40011
15.72587	37996
15.73398	41286
15.74212	41809
15.75023	47545
15.75837	36986
15.76648	37460
15.77460	42821
15.78273	39926
15.79085	46128
15.79898	49527
15.80710	57782
15.81522	52229
15.82335	54133
15.83147	50435
15.83958	44920
15.84772	52497
15.85583	44364
15.86397	43599
15.87208	42747
15.88020	43648
15.88833	42918
15.89645	43652
15.90458	47919
15.91270	49237
15.92082	51302
15.92895	46185
15.93707	49827
15.94520	45714
15.95332	47414
15.96143	43549
15.96957	45657
15.97768	52247
15.98580	55638
15.99393	55689
16.00205	59906
16.01018	60969
16.01830	61104
16.02642	64575
16.03455	61614
16.04267	61068
16.05080	61729
16.05892	63292
16.06703	59956
16.07517	55405
16.08328	58990
16.09142	60448
16.09953	59001
16.10765	56213
16.11578	54642
16.12390	59035
16.13202	55442
16.14015	58447
16.14827	53819
16.15640	51103
16.16452	52478
16.17263	56074
16.18077	56612
16.18888	51418
16.19702	51639
16.20513	51419
16.21325	59206
16.22138	49135
16.22950	51394
16.23762	55902
16.24575	52074
16.25387	50945
16.26200	56206
16.27012	51788
16.27823	48187
16.28637	51636
16.29448	52320
16.30262	50628
16.31073	49348
16.31885	51687
16.32698	49882
16.33510	50194
16.34323	47808
16.35135	50103
16.35947	51829
16.36760	53560
16.37572	58544
16.38383	67694
16.39197	72053
16.40008	78258
16.40822	70392
16.41633	67089
16.42445	60597
16.43258	56459
16.44070	48697
16.44883	46538
16.45695	44644
16.46507	46604
16.47320	46932
16.48132	48534
16.48943	50826
16.49757	49102
16.50568	54574
16.51382	53190
16.52193	53642
16.53005	50656
16.53818	49179
16.54630	49261
16.55443	47636
16.56255	45584
16.57067	55361
16.57880	47409
16.58692	48628
16.59505	51310
16.60317	47555
16.61128	53030
16.61942	57970
16.62753	60991
16.63565	57004
16.64378	55848
16.65190	50081
16.66003	51838
16.66815	49165
16.67627	45615
16.68440	49406
16.69252	42381
16.70065	44284
16.70877	40911
16.71688	46296
16.72502	40891
16.73313	43736
16.74127	41285
16.74938	49187
16.75750	43124
16.76563	38206
16.77375	39824
16.78187	42702
16.79000	41212
16.79812	42596
16.80625	38638
16.81437	38553
16.82248	38794
16.83062	39494
16.83873	42820
16.84687	47214
16.85498	38155
16.86310	40041
16.87123	42477
16.87935	38328
16.88747	41945
16.89560	39039
16.90372	36446
16.91185	37311
16.91997	35640
16.92808	38080
16.93622	35756
16.94433	37073
16.95247	37254
16.96058	37156
16.96870	34273
16.97683	38197
16.98495	37952
16.99308	38116
17.00120	34231
17.00932	38973
17.01745	38073
17.02557	33899
17.03368	39422
17.04182	37831
17.04993	40890
17.05807	37895
17.06618	44219
17.07430	50426
17.08243	51105
17.09055	70301
17.09868	88099
17.10680	107047
17.11492	134733
17.12305	143858
17.13117	150484
17.13930	153443
17.14742	123760
17.15553	119104
17.16367	106787
17.17178	97314
17.17990	83852
17.18803	76956
17.19615	67354
17.20428	65675
17.21240	57021
17.22052	50225
17.22865	48363
17.23677	49793
17.24490	45838
17.25302	48077
17.26113	49660
17.26927	42496
17.27738	43506
17.28550	42315
17.29363	49432
17.30175	46603
17.30988	45286
17.31800	42382
17.32612	45963
17.33425	42035
17.34237	43736
17.35050	44950
17.35862	41663
17.36673	47489
17.37487	48240
17.38298	52473
17.39112	49515
17.39923	49127
17.40735	48985
17.41548	52722
17.42360	50121
17.43172	46632
17.43985	47379
17.44797	47729
17.45610	50274
17.46422	47993
17.47233	50034
17.48047	49055
17.48858	49496
17.49672	46993
17.50483	40984
17.51295	47223
17.52108	46028
17.52920	42185
17.53732	51270
17.54545	44189
17.55357	49283
17.56170	48053
17.56982	48843
17.57793	48747
17.58607	49468
17.59418	48404
17.60232	46033
17.61043	44730
17.61855	43916
17.62668	40284
17.63480	42348
17.64293	44765
17.65105	54622
17.65917	72545
17.66730	91241
17.67542	121754
17.68353	133853
17.69167	142813
17.69978	131697
17.70792	108677
17.71603	90381
17.72415	83046
17.73228	71157
17.74040	63970
17.74853	63084
17.75665	60978
17.76477	59134
17.77290	59244
17.78102	54567
17.78915	55167
17.79727	50854
17.80538	54462
17.81352	51091
17.82163	48962
17.82975	45940
17.83788	52017
17.84600	45541
17.85413	47080
17.86225	46639
17.87037	49889
17.87850	45072
17.88662	42599
17.89475	42053
17.90287	45635
17.91098	42963
17.91912	39631
17.92723	44033
17.93535	39404
17.94348	37785
17.95160	42452
17.95973	44562
17.96785	44440
17.97597	44120
17.98410	39310
17.99222	40908
18.00035	42786
18.00847	39995
18.01658	32510
18.02472	36367
18.03283	39051
18.04097	39707
18.04908	41070
18.05720	43686
18.06533	40561
18.07345	43956
18.08157	46402
18.08970	54240
18.09782	63582
18.10595	77171
18.11407	100261
18.12218	114142
18.13032	129877
18.13843	130889
18.14657	138199
18.15468	140108
18.16280	129628
18.17093	125637
18.17905	125489
18.18718	124555
18.19530	109888
18.20342	114555
18.21155	106998
18.21967	114751
18.22778	105697
18.23592	101548
18.24403	97452
18.25217	96557
18.26028	92018
18.26840	95014
18.27653	86093
18.28465	83562
18.29278	76190
18.30090	71664
18.30902	64545
18.31715	56774
18.32527	55566
18.33338	46900
18.34152	51077
18.34963	55447
18.35777	48006
18.36588	48784
18.37400	43615
18.38213	48816
18.39025	46978
18.39838	45829
18.40650	45835
18.41462	45011
18.42275	41642
18.43087	41804
18.43900	42271
18.44712	40767
18.45523	42160
18.46337	46699
18.47148	47023
18.47960	40985
18.48773	41295
18.49585	41928
18.50398	44712
18.51210	37272
18.52022	39452
18.52835	42550
18.53647	42116
18.54460	43048
18.55272	46111
18.56083	44835
18.56897	41248
18.57708	42841
18.58520	38856
18.59333	42351
18.60145	43575
18.60958	44730
18.61770	44069
18.62582	44511
18.63395	45500
18.64207	42808
18.65020	46053
18.65832	41936
18.66643	42130
18.67457	40514
18.68268	41379
18.69082	38925
18.69893	37304
18.70705	37750
18.71518	35281
18.72330	37865
18.73142	34480
18.73955	36176
18.74767	37209
18.75580	37053
18.76392	39036
18.77203	36479
18.78017	37849
18.78828	36356
18.79642	39528
18.80453	36753
18.81265	37575
18.82078	42721
18.82890	36850
18.83703	33051
18.84515	35330
18.85327	37661
18.86140	36837
18.86952	34589
18.87763	35419
18.88577	38224
18.89388	35329
18.90202	36421
18.91013	35789
18.91825	36867
18.92638	37211
18.93450	36186
18.94263	38903
18.95075	40566
18.95887	41891
18.96700	37646
18.97512	37847
18.98325	44034
18.99137	38610
18.99948	42452
19.00762	40754
19.01573	39094
19.02385	38617
19.03198	34372
19.04010	39524
19.04823	39760
19.05635	39924
19.06447	33531
19.07260	34174
19.08072	37185
19.08885	43874
19.09697	49188
19.10508	57545
19.11322	63587
19.12133	68367
19.12945	73913
19.13758	71284
19.14570	67907
19.15383	61551
19.16195	55913
19.17007	56669
19.17820	57998
19.18632	58021
19.19445	59141
19.20257	61394
19.21068	61127
19.21882	59366
19.22693	55168
19.23507	50093
19.24318	52786
19.25130	45617
19.25943	41434
19.26755	47218
19.27567	44104
19.28380	46256
19.29192	42928
19.30005	52791
19.30817	50939
19.31628	54009
19.32442	52050
19.33253	55718
19.34067	59525
19.34878	58266
19.35690	56125
19.36503	57739
19.37315	57930
19.38127	58831
19.38940	56051
19.39752	56612
19.40565	54131
19.41377	57409
19.42188	53473
19.43002	55026
19.43813	57504
19.44627	51390
19.45438	49264
19.46250	49053
19.47063	47976
19.47875	44099
19.48688	51622
19.49500	51934
19.50312	68118
19.51125	87714
19.51937	116220
19.52748	149501
19.53562	188867
19.54373	175033
19.55187	158547
19.55998	121296
19.56810	98555
19.57623	73187
19.58435	61085
19.59248	54317
19.60060	50062
19.60872	51960
19.61685	51239
19.62497	47011
19.63310	47179
19.64122	56609
19.64933	71496
19.65747	89955
19.66558	134494
19.67370	187895
19.68183	244761
19.68995	285967
19.69808	304732
19.70620	276447
19.71432	223326
19.72245	178826
19.73057	147360
19.73870	124444
19.74682	116340
19.75493	98707
19.76307	92144
19.77118	84756
19.77930	79313
19.78743	78242
19.79555	71802
19.80368	70315
19.81180	67953
19.81992	61630
19.82805	64969
19.83617	63442
19.84430	65280
19.85242	59358
19.86053	63373
19.86867	66205
19.87678	95097
19.88492	151477
19.89303	238844
19.90115	396157
19.90928	579290
19.91740	755324
19.92552	843778
19.93365	843136
19.94177	803877
19.94990	719109
19.95802	657573
19.96613	580056
19.97427	551743
19.98238	519510
19.99052	501298
19.99863	474628
20.00675	450680
20.01488	423663
20.02300	395312
20.03113	369788
20.03925	354930
20.04737	336550
20.05550	299226
20.06362	264034
20.07173	216280
20.07987	177859
20.08798	141550
20.09612	118391
20.10423	105334
20.11235	96496
20.12048	98073
20.12860	90827
20.13673	96465
20.14485	85412
20.15297	91842
20.16110	89762
20.16922	89962
20.17733	91500
20.18547	87151
20.19358	89334
20.20172	88650
20.20983	83959
20.21795	88527
20.22608	78233
20.23420	78296
20.24233	77462
20.25045	78281
20.25857	88861
20.26670	95119
20.27482	118384
20.28295	154663
20.29107	187113
20.29918	230020
20.30732	244066
20.31543	232872
20.32355	220517
20.33168	179460
20.33980	160108
20.34793	123081
20.35605	98012
20.36417	79463
20.37230	81964
20.38042	67561
20.38855	63650
20.39667	58759
20.40478	63948
20.41292	61193
20.42103	58363
20.42915	66670
20.43728	70985
20.44540	83175
20.45353	95677
20.46165	105428
20.46977	106221
20.47790	99743
20.48602	102685
20.49415	98680
20.50227	82209
20.51038	72657
20.51852	65606
20.52663	63418
20.53477	61105
20.54288	57649
20.55100	55620
20.55913	55698
20.56725	52764
20.57537	53910
20.58350	52525
20.59162	53671
20.59975	50936
20.60787	50014
20.61598	49857
20.62412	45527
20.63223	48189
20.64037	50277
20.64848	47893
20.65660	50169
20.66473	46491
20.67285	48336
20.68098	45154
20.68910	47167
20.69722	47369
20.70535	46314
20.71347	51175
20.72158	49592
20.72972	50265
20.73783	48631
20.74597	46401
20.75408	49621
20.76220	48787
20.77033	49474
20.77845	53716
20.78658	48218
20.79470	58326
20.80282	54052
20.81095	53326
20.81907	53075
20.82718	53378
20.83532	54245
20.84343	52638
20.85157	57197
20.85968	49498
20.86780	55338
20.87593	57834
20.88405	50072
20.89218	53086
20.90030	59583
20.90842	52520
20.91655	51298
20.92467	51082
20.93280	50633
20.94092	49061
20.94903	55756
20.95717	56298
20.96528	47487
20.97340	50476
20.98153	53258
20.98965	52337
20.99778	48588
21.00590	51035
21.01402	50425
21.02215	51213
21.03027	46333
21.03840	50985
21.04652	51659
21.05463	54885
21.06277	54073
21.07088	55863
21.07902	52056
21.08713	49121
21.09525	47131
21.10338	48125
21.11150	48568
21.11962	54151
21.12775	51569
21.13587	54648
21.14400	54353
21.15212	52867
21.16023	56693
21.16837	52707
21.17648	56618
21.18462	57980
21.19273	60148
21.20085	54078
21.20898	60645
21.21710	59637
21.22522	52854
21.23335	58914
21.24147	53387
21.24960	60090
21.25772	51349
21.26583	52864
21.27397	56906
21.28208	58084
21.29022	55922
21.29833	54954
21.30645	52103
21.31458	57090
21.32270	51809
21.33083	52077
21.33895	53116
21.34707	56660
21.35520	53336
21.36332	52731
21.37143	50235
21.37957	47982
21.38768	49471
21.39582	51417
21.40393	52215
21.41205	49994
21.42018	50037
21.42830	47321
21.43643	54801
21.44455	56852
21.45267	54940
21.46080	52505
21.46892	53177
21.47705	51074
21.48517	51727
21.49328	53570
21.50142	54455
21.50953	56534
21.51765	50342
21.52578	51926
21.53390	54879
21.54203	51140
21.55015	57781
21.55827	48587
21.56640	50932
21.57452	51518
21.58265	50681
21.59077	50967
21.59888	49526
21.60702	52876
21.61513	50937
21.62325	53140
21.63138	57515
21.63950	64653
21.64763	80573
21.65575	87678
21.66387	103002
21.67200	100804
21.68012	102902
21.68825	93130
21.69637	80149
21.70448	81260
21.71262	64725
21.72073	57544
21.72887	52230
21.73698	53415
21.74510	55482
21.75323	55129
21.76135	48534
21.76947	51672
21.77760	49615
21.78572	62233
21.79385	53090
21.80197	45836
21.81008	53305
21.81822	51966
21.82633	56341
21.83447	58754
21.84258	73850
21.85070	78706
21.85883	93503
21.86695	93203
21.87507	95957
21.88320	90772
21.89132	78721
21.89945	67409
21.90757	64448
21.91568	59193
21.92382	53705
21.93193	53474
21.94007	50954
21.94818	50951
21.95630	51512
21.96443	51355
21.97255	50972
21.98068	45619
21.98880	46502
21.99692	45249
22.00505	48416
22.01317	45994
22.02128	45852
22.02942	51748
22.03753	51917
22.04567	48334
22.05378	50863
22.06190	51911
22.07003	49154
22.07815	51273
22.08628	49643
22.09440	48137
22.10252	47676
22.11065	47810
22.11877	48070
22.12690	46019
22.13502	45638
22.14313	45826
22.15127	49863
22.15938	47486
22.16750	48565
22.17563	48424
22.18375	47405
22.19188	46389
22.20000	54892
22.20812	44923
22.21625	46337
22.22437	46894
22.23250	52257
22.24062	53007
22.24873	62267
22.25687	59975
22.26498	59751
22.27310	57136
22.28123	50762
22.28935	56545
22.29748	43704
22.30560	47028
22.31372	52174
22.32185	58784
22.32997	64475
22.33810	86052
22.34622	95214
22.35433	111421
22.36247	96818
22.37058	91925
22.37872	80557
22.38683	68930
22.39495	64133
22.40308	56407
22.41120	55452
22.41932	54544
22.42745	50127
22.43557	53435
22.44370	54650
22.45182	47741
22.45993	49138
22.46807	55724
22.47618	49337
22.48432	48072
22.49243	51503
22.50055	51388
22.50868	48013
22.51680	47562
22.52493	47247
22.53305	43596
22.54117	46815
22.54930	45299
22.55742	45648
22.56553	45852
22.57367	45318
22.58178	42471
22.58992	47124
22.59803	42658
22.60615	38672
22.61428	43108
22.62240	42602
22.63053	43237
22.63865	44396
22.64677	39695
22.65490	44170
22.66302	43655
22.67113	43574
22.67927	45445
22.68738	51772
22.69552	57884
22.70363	58209
22.71175	58385
22.71988	61416
22.72800	55713
22.73613	52314
22.74425	50782
22.75237	52939
22.76050	50212
22.76862	49355
22.77675	48992
22.78487	47404
22.79298	44281
22.80112	52820
22.80923	45279
22.81735	41617
22.82548	46114
22.83360	50239
22.84173	42687
22.84985	44828
22.85797	46166
22.86610	43570
22.87422	49427
22.88235	51667
22.89047	51466
22.89858	49951
22.90672	54673
22.91483	59982
22.92295	72413
22.93108	88374
22.93920	126322
22.94733	160589
22.95545	202854
22.96357	212263
22.97170	224530
22.97982	208026
22.98795	202901
22.99607	186561
23.00418	175843
23.01232	155490
23.02043	148533
23.02857	121787
23.03668	103357
23.04480	92358
23.05293	79526
23.06105	72689
23.06917	63721
23.07730	61855
23.08542	60964
23.09355	63398
23.10167	61756
23.10978	58527
23.11792	57733
23.12603	56473
23.13417	55760
23.14228	51127
23.15040	50931
23.15853	50963
23.16665	46512
23.17478	48719
23.18290	45421
23.19102	46722
23.19915	45101
23.20727	45127
23.21538	46213
23.22352	44732
23.23163	46764
23.23977	49082
23.24788	48247
23.25600	43650
23.26413	53021
23.27225	52411
23.28038	50413
23.28850	51300
23.29662	47801
23.30475	50272
23.31287	45869
23.32098	42779
23.32912	45976
23.33723	43863
23.34537	43078
23.35348	45455
23.36160	44122
23.36973	44837
23.37785	49341
23.38598	48329
23.39410	53367
23.40222	52245
23.41035	48236
23.41847	47850
23.42660	46216
23.43472	48182
23.44283	46863
23.45097	46108
23.45908	47432
23.46720	47445
23.47533	45067
23.48345	46180
23.49158	46910
23.49970	42018
23.50782	42867
23.51595	46942
23.52407	43333
23.53220	48116
23.54032	53557
23.54843	46818
23.55657	47033
23.56468	47231
23.57282	51954
23.58093	58001
23.58905	57549
23.59718	60282
23.60530	58295
23.61342	70840
23.62155	68230
23.62967	73894
23.63780	76690
23.64592	84117
23.65403	114481
23.66217	162449
23.67028	222597
23.67842	271350
23.68653	315109
23.69465	301151
23.70278	245292
23.71090	188813
23.71902	139922
23.72715	119565
23.73527	98906
23.74340	82637
23.75152	87950
23.75963	102439
23.76777	175819
23.77588	396570
23.78402	1002350
23.79213	2110714
23.80025	3380439
23.80838	4400108
23.81650	4631958
23.82463	4125478
23.83275	3138644
23.84087	2258161
23.84900	1554764
23.85712	1065163
23.86523	786213
23.87337	596494
23.88148	504852
23.88962	417904
23.89773	370837
23.90585	325397
23.91398	286714
23.92210	266673
23.93023	242939
23.93835	226881
23.94647	213285
23.95460	202271
23.96272	185397
23.97083	184215
23.97897	175572
23.98708	168954
23.99522	161230
24.00333	151958
24.01145	140482
24.01958	140935
24.02770	147917
24.03583	146814
24.04395	152479
24.05207	145490
24.06020	149170
24.06832	152137
24.07645	146896
24.08457	131265
24.09268	133570
24.10082	130062
24.10893	119625
24.11705	119542
24.12518	109696
24.13330	105004
24.14143	106448
24.14955	105940
24.15767	113338
24.16580	111495
24.17392	113066
24.18205	105458
24.19017	105925
24.19828	97681
24.20642	101428
24.21453	97299
24.22267	99454
24.23078	104270
24.23890	105595
24.24703	108170
24.25515	104200
24.26327	103040
24.27140	97993
24.27952	89929
24.28765	87921
24.29577	83432
24.30388	82102
24.31202	85218
24.32013	79234
24.32827	87592
24.33638	84703
24.34450	87512
24.35263	73420
24.36075	80338
24.36888	77498
24.37700	70123
24.38512	86448
24.39325	88109
24.40137	101561
24.40948	125300
24.41762	159099
24.42573	163015
24.43387	167498
24.44198	145442
24.45010	129660
24.45823	95336
24.46635	76227
24.47448	72263
24.48260	68239
24.49072	69040
24.49885	75400
24.50697	71868
24.51508	81354
24.52322	88560
24.53133	96960
24.53947	95406
24.54758	95352
24.55570	91692
24.56383	89674
24.57195	79633
24.58008	82028
24.58820	81770
24.59632	81555
24.60445	82172
24.61257	83240
24.62070	80918
24.62882	78788
24.63693	77248
24.64507	70768
24.65318	77651
24.66130	70095
24.66943	71240
24.67755	73076
24.68568	71245
24.69380	70607
24.70192	69650
24.71005	70024
24.71817	63524
24.72630	63349
24.73442	64331
24.74253	61951
24.75067	64332
24.75878	61581
24.76690	60330
24.77503	59898
24.78315	59595
24.79128	57644
24.79940	58012
24.80752	59374
24.81565	54849
24.82377	55550
24.83190	52864
24.84002	56848
24.84813	57651
24.85627	58364
24.86438	58685
24.87252	60020
24.88063	56608
24.88875	56530
24.89688	58079
24.90500	57672
24.91312	63186
24.92125	59429
24.92937	58842
24.93750	59280
24.94562	55306
24.95373	54465
24.96187	60291
24.96998	53139
24.97812	53038
24.98623	50407
24.99435	53755
25.00248	57081
25.01060	50455
25.01873	52823
25.02685	55058
25.03497	52970
25.04310	49293
25.05122	55838
25.05933	49988
25.06747	49977
25.07558	50855
25.08372	51255
25.09183	52449
25.09995	53159
25.10808	50569
25.11620	50679
25.12433	53717
25.13245	53007
25.14057	61089
25.14870	71082
25.15682	77492
25.16493	84901
25.17307	88338
25.18118	89662
25.18932	89757
25.19743	84913
25.20555	76230
25.21368	67467
25.22180	64525
25.22993	64828
25.23805	56582
25.24617	60491
25.25430	57469
25.26242	55558
25.27055	55953
25.27867	55791
25.28678	55553
25.29492	54831
25.30303	52566
25.31115	56767
25.31928	60736
25.32740	61441
25.33553	61798
25.34365	60179
25.35177	59617
25.35990	57859
25.36802	57419
25.37615	50889
25.38427	49650
25.39238	49921
25.40052	45468
25.40863	49697
25.41677	49290
25.42488	50069
25.43300	47599
25.44113	44703
25.44925	45439
25.45737	44739
25.46550	49841
25.47362	50435
25.48175	51633
25.48987	57038
25.49798	55220
25.50612	62285
25.51423	61142
25.52237	56617
25.53048	54151
25.53860	54919
25.54673	55939
25.55485	53793
25.56297	46472
25.57110	47460
25.57922	45262
25.58735	54021
25.59547	46465
25.60358	45706
25.61172	43287
25.61983	48954
25.62797	46158
25.63608	41359
25.64420	48206
25.65233	45412
25.66045	46205
25.66858	48590
25.67670	47941
25.68482	52529
25.69295	48183
25.70107	46897
25.70918	43670
25.71732	44856
25.72543	48311
25.73357	44525
25.74168	46488
25.74980	47259
25.75793	50651
25.76605	49822
25.77418	49105
25.78230	52180
25.79042	48746
25.79855	46857
25.80667	54610
25.81478	46673
25.82292	53957
25.83103	55162
25.83917	51292
25.84728	54940
25.85540	53781
25.86353	58406
25.87165	52853
25.87978	46518
25.88790	47004
25.89602	47313
25.90415	42926
25.91227	44828
25.92040	48373
25.92852	51212
25.93663	46051
25.94477	42688
25.95288	46155
25.96100	43809
25.96913	46068
25.97725	42005
25.98538	46615
25.99350	46251
26.00162	45155
26.00975	44777
26.01787	45132
26.02600	41647
26.03412	41890
26.04223	41496
26.05037	45691
26.05848	44961
26.06662	45344
26.07473	42985
26.08285	40420
26.09098	42165
26.09910	48487
26.10722	46312
26.11535	47945
26.12347	48473
26.13160	47524
26.13972	54729
26.14783	53097
26.15597	57366
26.16408	57425
26.17222	63432
26.18033	58749
26.18845	59232
26.19658	57330
26.20470	62520
26.21282	64325
26.22095	62685
26.22907	56988
26.23720	53238
26.24532	55420
26.25343	55622
26.26157	62673
26.26968	58171
26.27782	54609
26.28593	54768
26.29405	54967
26.30218	52394
26.31030	53550
26.31843	53812
26.32655	51200
26.33467	49204
26.34280	50242
26.35092	47920
26.35903	43220
26.36717	45953
26.37528	45208
26.38342	50673
26.39153	48468
26.39965	47210
26.40778	48685
26.41590	53679
26.42403	55543
26.43215	55078
26.44027	53730
26.44840	58504
26.45652	45474
26.46465	51851
26.47277	47056
26.48088	47119
26.48902	48783
26.49713	47678
26.50525	52447
26.51338	44351
26.52150	42635
26.52963	42543
26.53775	41498
26.54587	44258
26.55400	47334
26.56212	48046
26.57025	44513
26.57837	42097
26.58648	47921
26.59462	44608
26.60273	44907
26.61085	41776
26.61898	44162
26.62710	45681
26.63523	47569
26.64335	45494
26.65147	46971
26.65960	45806
26.66772	46423
26.67585	50188
26.68397	50849
26.69208	49955
26.70022	47690
26.70833	51371
26.71647	48447
26.72458	45683
26.73270	44735
26.74083	44021
26.74895	43251
26.75707	46875
26.76520	48624
26.77332	45717
26.78145	50788
26.78957	46542
26.79768	43910
26.80582	47860
26.81393	45062
26.82207	49552
26.83018	49537
26.83830	48795
26.84643	57544
26.85455	56463
26.86268	52970
26.87080	50927
26.87892	57200
26.88705	52681
26.89517	52136
26.90328	47442
26.91142	43785
26.91953	44459
26.92767	48854
26.93578	46616
26.94390	48665
26.95203	47810
26.96015	48467
26.96828	50893
26.97640	48833
26.98452	73996
26.99265	114762
27.00077	188388
27.00888	334157
27.01702	589120
27.02513	899961
27.03327	1229871
27.04138	1393116
27.04950	1366296
27.05763	1140166
27.06575	901066
27.07388	690112
27.08200	519015
27.09012	400705
27.09825	327724
27.10637	282513
27.11450	237335
27.12262	208365
27.13073	195457
27.13887	179275
27.14698	169546
27.15510	162405
27.16323	153488
27.17135	151731
27.17948	131921
27.18760	134673
27.19572	131443
27.20385	128789
27.21197	130621
27.22010	124221
27.22822	129337
27.23633	111247
27.24447	116718
27.25258	115347
27.26070	104977
27.26883	96578
27.27695	97243
27.28508	95953
27.29320	85789
27.30132	87185
27.30945	89397
27.31757	78712
27.32570	78398
27.33382	82347
27.34193	78360
27.35007	78740
27.35818	80958
27.36632	73953
27.37443	71052
27.38255	74249
27.39068	73942
27.39880	78384
27.40692	79541
27.41505	75722
27.42317	74746
27.43130	65685
27.43942	66310
27.44753	66491
27.45567	63612
27.46378	63731
27.47192	61840
27.48003	67273
27.48815	64332
27.49628	65859
27.50440	61549
27.51253	62283
27.52065	65112
27.52877	58748
27.53690	59712
27.54502	66299
27.55313	66965
27.56127	65657
27.56938	63863
27.57752	64439
27.58563	67840
27.59375	62474
27.60188	66173
27.61000	61554
27.61813	69884
27.62625	68510
27.63437	64567
27.64250	72905
27.65062	66383
27.65873	64702
27.66687	59765
27.67498	58974
27.68312	60983
27.69123	50280
27.69935	61479
27.70748	53214
27.71560	51573
27.72373	50396
27.73185	56268
27.73997	55790
27.74810	51473
27.75622	57658
27.76435	59702
27.77247	57578
27.78058	53814
27.78872	53847
27.79683	48530
27.80495	51273
27.81308	56038
27.82120	53981
27.82933	48142
27.83745	56141
27.84557	60188
27.85370	55191
27.86182	58981
27.86995	56557
27.87807	56485
27.88618	51926
27.89432	59482
27.90243	54302
27.91057	50500
27.91868	47573
27.92680	50020
27.93493	49744
27.94305	46516
27.95117	52099
27.95930	56403
27.96742	50544
27.97555	50099
27.98367	48393
27.99178	49532
27.99992	47905
28.00803	48244
28.01617	48103
28.02428	50039
28.03240	50597
28.04053	48364
28.04865	50760
28.05677	53859
28.06490	51059
28.07302	51194
28.08115	52241
28.08927	53015
28.09738	50939
28.10552	50637
28.11363	52180
28.12177	48098
28.12988	44102
28.13800	46729
28.14613	54076
28.15425	49012
28.16238	53052
28.17050	48918
28.17862	46484
28.18675	45117
28.19487	49375
28.20298	45006
28.21112	52398
28.21923	51833
28.22737	56491
28.23548	56097
28.24360	56282
28.25173	54678
28.25985	54504
28.26798	57281
28.27610	49399
28.28422	48880
28.29235	45914
28.30047	51530
28.30858	46908
28.31672	53875
28.32483	56699
28.33297	68901
28.34108	81470
28.34920	104210
28.35733	130939
28.36545	172064
28.37358	199150
28.38170	218115
28.38982	220519
28.39795	215122
28.40607	204312
28.41420	184070
28.42232	168615
28.43043	156315
28.43857	140927
28.44668	118320
28.45480	112496
28.46293	100373
28.47105	102827
28.47918	97184
28.48730	89881
28.49542	89199
28.50355	85497
28.51167	79452
28.51980	74094
28.52792	74270
28.53603	78728
28.54417	73933
28.55228	67685
28.56042	66407
28.56853	69204
28.57665	68429
28.58478	68289
28.59290	67113
28.60102	67884
28.60915	59767
28.61727	65386
28.62540	63332
28.63352	60449
28.64163	59187
28.64977	65635
28.65788	63684
28.66602	64386
28.67413	67956
28.68225	64667
28.69038	66277
28.69850	66617
28.70662	66143
28.71475	60332
28.72287	59387
28.73100	59625
28.73912	55369
28.74723	61615
28.75537	60891
28.76348	56128
28.77162	60521
28.77973	72658
28.78785	86334
28.79598	95416
28.80410	104163
28.81223	91225
28.82035	84489
28.82847	71519
28.83660	65953
28.84472	57330
28.85283	50517
28.86097	51411
28.86908	51205
28.87722	53538
28.88533	56080
28.89345	51337
28.90158	51711
28.90970	53537
28.91783	48878
28.92595	51837
28.93407	51090
28.94220	52467
28.95032	52362
28.95845	54068
28.96657	55803
28.97468	53718
28.98282	59248
28.99093	57896
28.99905	59415
29.00718	57539
29.01530	53618
29.02343	52174
29.03155	48602
29.03967	51889
29.04780	49654
29.05592	46955
29.06405	49817
29.07217	48025
29.08028	54535
29.08842	49048
29.09653	46063
29.10465	53154
29.11278	46930
29.12090	47786
29.12903	51694
29.13715	51393
29.14527	49860
29.15340	48736
29.16152	50838
29.16965	51741
29.17777	52373
29.18588	55377
29.19402	49398
29.20213	54913
29.21027	49495
29.21838	49896
29.22650	51091
29.23463	50598
29.24275	57090
29.25087	50701
29.25900	53292
29.26712	57156
29.27525	58892
29.28337	62504
29.29148	54150
29.29962	49947
29.30773	52580
29.31587	54219
29.32398	55003
29.33210	53707
29.34023	46104
29.34835	49078
29.35648	51363
29.36460	47589
29.37272	51544
29.38085	50509
29.38897	47513
29.39708	45502
29.40522	47493
29.41333	49791
29.42147	50550
29.42958	48863
29.43770	52915
29.44583	48045
29.45395	53577
29.46208	52146
29.47020	52956
29.47832	45018
29.48645	43864
29.49457	48973
29.50268	56228
29.51082	57869
29.51893	57404
29.52707	54046
29.53518	56425
29.54330	53008
29.55143	50067
29.55955	51108
29.56768	47645
29.57580	48288
29.58392	46733
29.59205	48617
29.60017	44542
29.60830	45838
29.61642	46514
29.62453	47228
29.63267	47532
29.64078	48050
29.64890	50750
29.65703	50237
29.66515	46042
29.67328	50747
29.68140	44665
29.68952	50828
29.69765	45469
29.70577	43363
29.71390	50660
29.72202	44574
29.73013	46667
29.73827	49254
29.74638	46599
29.75452	46704
29.76263	49709
29.77075	45250
29.77888	48469
29.78700	42587
29.79512	41319
29.80325	43069
29.81137	44613
29.81950	41908
29.82762	46407
29.83573	44864
29.84387	50079
29.85198	42244
29.86012	45501
29.86823	46305
29.87635	56055
29.88448	63895
29.89260	94594
29.90072	134081
29.90885	182326
29.91697	207634
29.92510	215356
29.93322	187004
29.94133	138900
29.94947	104549
29.95758	85263
29.96572	73686
29.97383	69114
29.98195	65419
29.99008	72152
29.99820	84624
30.00633	94538
30.01445	105907
30.02257	113454
30.03070	123467
30.03882	130768
30.04693	134294
30.05507	139808
30.06318	134393
30.07132	127741
30.07943	128955
30.08755	122895
30.09568	111910
30.10380	104132
30.11193	94226
30.12005	91957
30.12817	84641
30.13630	84660
30.14442	78696
30.15253	76318
30.16067	74831
30.16878	74280
30.17692	72560
30.18503	72922
30.19315	71351
30.20128	70051
30.20940	68204
30.21753	67135
30.22565	61884
30.23377	59751
30.24190	68502
30.25002	67412
30.25815	57395
30.26627	59626
30.27438	62876
30.28252	62256
30.29063	56033
30.29875	58870
30.30688	59418
30.31500	52335
30.32313	56440
30.33125	52305
30.33937	52284
30.34750	51680
30.35562	54105
30.36375	50470
30.37187	51425
30.37998	56139
30.38812	53222
30.39623	53730
30.40437	54513
30.41248	59246
30.42060	49534
30.42873	51027
30.43685	51754
30.44497	51208
30.45310	50953
30.46122	53367
30.46935	50903
30.47747	49309
30.48558	45754
30.49372	46676
30.50183	46976
30.50997	52512
30.51808	47013
30.52620	49020
30.53433	52126
30.54245	47456
30.55057	49557
30.55870	48860
30.56682	49732
30.57495	45522
30.58307	43881
30.59118	42911
30.59932	44449
30.60743	49470
30.61557	49338
30.62368	44585
30.63180	50258
30.63993	44364
30.64805	45460
30.65618	42816
30.66430	46357
30.67242	48349
30.68055	48522
30.68867	44632
30.69678	44231
30.70492	44276
30.71303	48053
30.72117	47780
30.72928	46796
30.73740	42856
30.74553	41517
30.75365	44770
30.76178	45579
30.76990	44439
30.77802	43991
30.78615	47869
30.79427	48729
30.80240	49972
30.81052	56968
30.81863	59743
30.82677	56450
30.83488	63810
30.84300	53097
30.85113	56176
30.85925	53772
30.86738	53066
30.87550	48754
30.88362	51042
30.89175	45783
30.89987	42401
30.90800	42812
30.91612	45485
30.92423	46878
30.93237	44807
30.94048	40996
30.94860	45351
30.95673	46205
30.96485	48899
30.97298	47499
30.98110	44213
30.98922	43939
30.99735	46543
31.00547	45120
31.01360	47122
31.02172	50570
31.02983	55654
31.03797	58693
31.04608	61533
31.05422	62208
31.06233	58381
31.07045	59209
31.07858	53587
31.08670	57964
31.09482	63339
31.10295	85020
31.11107	91656
31.11920	111804
31.12732	125937
31.13543	121640
31.14357	107843
31.15168	87043
31.15982	75395
31.16793	60098
31.17605	58251
31.18418	56262
31.19230	61935
31.20042	65902
31.20855	79348
31.21667	86576
31.22480	105568
31.23292	101576
31.24103	110355
31.24917	113084
31.25728	98429
31.26542	81974
31.27353	72898
31.28165	59547
31.28978	55082
31.29790	56863
31.30603	51713
31.31415	50201
31.32227	49921
31.33040	47918
31.33852	46938
31.34663	48108
31.35477	47160
31.36288	47944
31.37102	51748
31.37913	54901
31.38725	55320
31.39538	58226
31.40350	58072
31.41163	58570
31.41975	55226
31.42787	60401
31.43600	55329
31.44412	55505
31.45225	51691
31.46037	51596
31.46848	49241
31.47662	50989
31.48473	50332
31.49285	44132
31.50098	49376
31.50910	48317
31.51723	53039
31.52535	47551
31.53347	48717
31.54160	46514
31.54972	52428
31.55785	48438
31.56597	41754
31.57408	48740
31.58222	45619
31.59033	46815
31.59845	50469
31.60658	47304
31.61470	45280
31.62283	46201
31.63095	52274
31.63907	44802
31.64720	47257
31.65532	45832
31.66345	45149
31.67157	51400
31.67968	54625
31.68782	49648
31.69593	46654
31.70407	46426
31.71218	46136
31.72030	47455
31.72843	51431
31.73655	47685
31.74467	42073
31.75280	46871
31.76092	45315
31.76905	46918
31.77717	44078
31.78528	43420
31.79342	48037
31.80153	47369
31.80967	52334
31.81778	47701
31.82590	52338
31.83403	53549
31.84215	51954
31.85028	52755
31.85840	52611
31.86652	60721
31.87465	62446
31.88277	62380
31.89088	63253
31.89902	63956
31.90713	58684
31.91527	60757
31.92338	58818
31.93150	63142
31.93963	64049
31.94775	68498
31.95588	75651
31.96400	81986
31.97212	91034
31.98025	94772
31.98837	97298
31.99648	99647
32.00462	107381
32.01273	96083
32.02087	91081
32.02898	83368
32.03710	88325
32.04523	79120
32.05335	71660
32.06148	75039
32.06960	72806
32.07772	70763
32.08585	68496
32.09397	68828
32.10210	70111
32.11022	72498
32.11833	70011
32.12647	69802
32.13458	64139
32.14270	62325
32.15083	60000
32.15895	54854
32.16708	54674
32.17520	56475
32.18332	51302
32.19145	49530
32.19957	51155
32.20770	56082
32.21582	51750
32.22393	53400
32.23207	50041
32.24018	57777
32.24832	54381
32.25643	52126
32.26455	52354
32.27268	56561
32.28080	57100
32.28892	51934
32.29705	54725
32.30517	54310
32.31330	51068
32.32142	51236
32.32953	54313
32.33767	58982
32.34578	59632
32.35392	59218
32.36203	73738
32.37015	77749
32.37828	78609
32.38640	77870
32.39452	74457
32.40265	68257
32.41077	57645
32.41890	58876
32.42702	57498
32.43513	52003
32.44327	53922
32.45138	54572
32.45952	51210
32.46763	50154
32.47575	48932
32.48388	48375
32.49200	50051
32.50013	47840
32.50825	51021
32.51637	50786
32.52450	55807
32.53262	52709
32.54073	46363
32.54887	51638
32.55698	48789
32.56512	49141
32.57323	50001
32.58135	49912
32.58948	51222
32.59760	50053
32.60573	48355
32.61385	49773
32.62197	51439
32.63010	46282
32.63822	47489
32.64633	47223
32.65447	53780
32.66258	54388
32.67072	59046
32.67883	70188
32.68695	72101
32.69508	83369
32.70320	84658
32.71133	74938
32.71945	67848
32.72757	57840
32.73570	58995
32.74382	53677
32.75195	55208
32.76007	54855
32.76818	52431
32.77632	50483
32.78443	50847
32.79255	50440
32.80068	45870
32.80880	49518
32.81693	49458
32.82505	47367
32.83317	50467
32.84130	48646
32.84942	50001
32.85755	49919
32.86567	49148
32.87378	50437
32.88192	46642
32.89003	44248
32.89817	47515
32.90628	50506
32.91440	50588
32.92253	49563
32.93065	49645
32.93877	50325
32.94690	48186
32.95502	53396
32.96315	49548
32.97127	49170
32.97938	47295
32.98752	48574
32.99563	51938
33.00377	49945
33.01188	50838
33.02000	51345
33.02813	52863
33.03625	54616
33.04437	49895
33.05250	45836
33.06062	46442
33.06875	50407
33.07687	48161
33.08498	52808
33.09312	53565
33.10123	52285
33.10937	58660
33.11748	60365
33.12560	69345
33.13373	74388
33.14185	78567
33.14998	78284
33.15810	73051
33.16622	62711
33.17435	58704
33.18247	53839
33.19058	50640
33.19872	51599
33.20683	53653
33.21497	51757
33.22308	59446
33.23120	58100
33.23933	55648
33.24745	63025
33.25558	58897
33.26370	52977
33.27182	47205
33.27995	48849
33.28807	52029
33.29620	48088
33.30432	51110
33.31243	49958
33.32057	48432
33.32868	51872
33.33680	52633
33.34493	52164
33.35305	50739
33.36118	54951
33.36930	48028
33.37742	48950
33.38555	54976
33.39367	54432
33.40180	45428
33.40992	49660
33.41803	51555
33.42617	59904
33.43428	52306
33.44240	46168
33.45053	49335
33.45865	46945
33.46678	52219
33.47490	52002
33.48302	53648
33.49115	50798
33.49927	49374
33.50740	46667
33.51552	50683
33.52363	46183
33.53177	51483
33.53988	49368
33.54802	49446
33.55613	49974
33.56425	53269
33.57238	49935
33.58050	49228
33.58862	59966
33.59675	52076
33.60487	52692
33.61300	50925
33.62112	52505
33.62923	53917
33.63737	55641
33.64548	51558
33.65362	51616
33.66173	53230
33.66985	55609
33.67798	51339
33.68610	53065
33.69422	47043
33.70235	53909
33.71047	55244
33.71860	51683
33.72672	54596
33.73483	52060
33.74297	50813
33.75108	48188
33.75922	50106
33.76733	49597
33.77545	52979
33.78358	55038
33.79170	52177
33.79983	51791
33.80795	58327
33.81607	51723
33.82420	49856
33.83232	55684
33.84043	52530
33.84857	55344
33.85668	60074
33.86482	55802
33.87293	57127
33.88105	58091
33.88918	59378
33.89730	60530
33.90543	56652
33.91355	54603
33.92167	53467
33.92980	53889
33.93792	57867
33.94605	58328
33.95417	55778
33.96228	57025
33.97042	57523
33.97853	54953
33.98665	55155
33.99478	56137
34.00290	56346
34.01103	52745
34.01915	52677
34.02727	61164
34.03540	51354
34.04352	59055
34.05165	52623
34.05977	54801
34.06788	55272
34.07602	50644
34.08413	53375
34.09227	58122
34.10038	57508
34.10850	56393
34.11663	55011
34.12475	61582
34.13287	54794
34.14100	59483
34.14912	60656
34.15725	56314
34.16537	48994
34.17348	57559
34.18162	57318
34.18973	51812
34.19787	50067
34.20598	59519
34.21410	54255
34.22223	54440
34.23035	50807
34.23847	52502
34.24660	52755
34.25472	53078
34.26285	50670
34.27097	58086
34.27908	54914
34.28722	51875
34.29533	55120
34.30347	56575
34.31158	54613
34.31970	56573
34.32783	53437
34.33595	56710
34.34408	55044
34.35220	53505
34.36032	54126
34.36845	54458
34.37657	54706
34.38468	56404
34.39282	56180
34.40093	58179
34.40907	53489
34.41718	57239
34.42530	60457
34.43343	51877
34.44155	57530
34.44968	52129
34.45780	51368
34.46592	56352
34.47405	53276
34.48217	55383
34.49028	54560
34.49842	52747
34.50653	55206
34.51467	54179
34.52278	58992
34.53090	55022
34.53903	68514
34.54715	71627
34.55528	83038
34.56340	82136
34.57152	91825
34.57965	93330
34.58777	93144
34.59590	94842
34.60402	87537
34.61213	85922
34.62027	81692
34.62838	74791
34.63650	74600
34.64463	72335
34.65275	72801
34.66088	62278
34.66900	68574
34.67712	67697
34.68525	64220
34.69337	64962
34.70150	68486
34.70962	70099
34.71773	59725
34.72587	64574
34.73398	68740
34.74212	65993
34.75023	66329
34.75835	61714
34.76648	62094
34.77460	61685
34.78272	65705
34.79085	62199
34.79897	61945
34.80710	63990
34.81522	61308
34.82333	63973
34.83147	61626
34.83958	61600
34.84772	58801
34.85583	58979
34.86395	60782
34.87208	65216
34.88020	64262
34.88832	68714
34.89645	63841
34.90457	61822
34.91270	60645
34.92082	65708
34.92893	63456
34.93707	62248
34.94518	65895
34.95332	70311
34.96143	84068
34.96955	103495
34.97768	136758
34.98580	153635
34.99393	180151
35.00205	176978
35.01017	157105
35.01830	128854
35.02642	102319
35.03453	85278
35.04267	75706
35.05078	75364
35.05892	76234
35.06703	74882
35.07515	71573
35.08328	67364
35.09140	73085
35.09953	74578
35.10765	67616
35.11577	69635
35.12390	70318
35.13202	69132
35.14015	71231
35.14827	73781
35.15638	72342
35.16452	73111
35.17263	71864
35.18075	76182
35.18888	73395
35.19700	79353
35.20513	64474
35.21325	67005
35.22137	63647
35.22950	62383
35.23762	64877
35.24575	66551
35.25387	66191
35.26198	65682
35.27012	65415
35.27823	67149
35.28635	63912
35.29448	65701
35.30260	59672
35.31073	66206
35.31885	57382
35.32697	61244
35.33510	61441
35.34322	60694
35.35135	62627
35.35947	64919
35.36758	63259
35.37572	60477
35.38383	61368
35.39197	60425
35.40008	61000
35.40820	56881
35.41633	57752
35.42445	67315
35.43257	61428
35.44070	71558
35.44882	65367
35.45695	64654
35.46507	66216
35.47318	59503
35.48132	62233
35.48943	63962
35.49757	68171
35.50568	67119
35.51380	59288
35.52193	65298
35.53005	63183
35.53817	64357
35.54630	65080
35.55442	66714
35.56255	66931
35.57067	62373
35.57878	66983
35.58692	63156
35.59503	71246
35.60317	63720
35.61128	69778
35.61940	65755
35.62753	66450
35.63565	64691
35.64378	70600
35.65190	67076
35.66002	64737
35.66815	63948
35.67627	66809
35.68438	59870
35.69252	70790
35.70063	70569
35.70877	73927
35.71688	72767
35.72500	69187
35.73313	70837
35.74125	70052
35.74938	71786
35.75750	77321
35.76562	72157
35.77375	66940
35.78187	66804
35.79000	68277
35.79812	68327
35.80623	65319
35.81437	66277
35.82248	66263
35.83060	67196
35.83873	64530
35.84685	64837
35.85498	63261
35.86310	65680
35.87122	66018
35.87935	67394
35.88747	67872
35.89560	63806
35.90372	68675
35.91183	65462
35.91997	69106
35.92808	68557
35.93620	62733
35.94433	62435
35.95245	67856
35.96058	65732
35.96870	61082
35.97682	63480
35.98495	65391
35.99307	65796
36.00120	65961
36.00932	69884
36.01743	63797
36.02557	61996
36.03368	70609
36.04182	71197
36.04993	67003
36.05805	72117
36.06618	72670
36.07430	67434
36.08242	66316
36.09055	70712
36.09867	75233
36.10680	71029
36.11492	71210
36.12303	67517
36.13117	71174
36.13928	70587
36.14742	67030
36.15553	73190
36.16365	72622
36.17178	70177
36.17990	68430
36.18803	78342
36.19615	70437
36.20427	71974
36.21240	67901
36.22052	66565
36.22863	67176
36.23677	68495
36.24488	69381
36.25302	70800
36.26113	69283
36.26925	66366
36.27738	67515
36.28550	65206
36.29363	67695
36.30175	73990
36.30987	74596
36.31800	84570
36.32612	92206
36.33423	97906
36.34237	110609
36.35048	107881
36.35862	94846
36.36673	94367
36.37485	84602
36.38298	86773
36.39110	82869
36.39923	81990
36.40735	81149
36.41547	84341
36.42360	77205
36.43172	79104
36.43985	79991
36.44797	78416
36.45608	73972
36.46422	71443
36.47233	69969
36.48045	72066
36.48858	67322
36.49670	67468
36.50483	69828
36.51295	67050
36.52107	66062
36.52920	63525
36.53732	75534
36.54545	70251
36.55357	67595
36.56168	67957
36.56982	73553
36.57793	66858
36.58605	64789
36.59418	75816
36.60230	70703
36.61043	68709
36.61855	71999
36.62667	74439
36.63480	70871
36.64292	71780
36.65105	70777
36.65917	73373
36.66728	68689
36.67542	71140
36.68353	75490
36.69167	74239
36.69978	74139
36.70790	68318
36.71603	69182
36.72415	71548
36.73227	73634
36.74040	74465
36.74852	71371
36.75665	70555
36.76477	71700
36.77288	71449
36.78102	72235
36.78913	69498
36.79727	69389
36.80538	73373
36.81350	69606
36.82163	70592
36.82975	67175
36.83788	63212
36.84600	71378
36.85412	69931
36.86225	68472
36.87037	65111
36.87848	70100
36.88662	73595
36.89473	75342
36.90287	69942
36.91098	69437
36.91910	68598
36.92723	71525
36.93535	73078
36.94348	74105
36.95160	69550
36.95972	71829
36.96785	70127
36.97597	69490
36.98408	71922
36.99222	75674
37.00033	68261
37.00847	72534
37.01658	69276
37.02470	65659
37.03283	74532
37.04095	73253
37.04908	70563
37.05720	81131
37.06532	72015
37.07345	70940
37.08157	71607
37.08970	75403
37.09782	74877
37.10593	75708
37.11407	77276
37.12218	76973
37.13030	71874
37.13843	69874
37.14655	72386
37.15468	72307
37.16280	71957
37.17092	73951
37.17905	77315
37.18717	76453
37.19530	76245
37.20342	75692
37.21153	74459
37.21967	77228
37.22778	81797
37.23592	86695
37.24403	95788
37.25215	98740
37.26028	104356
37.26840	103404
37.27652	107141
37.28465	111115
37.29277	109189
37.30090	95720
37.30902	99024
37.31713	90913
37.32527	83955
37.33338	87771
37.34152	87151
37.34963	84833
37.35775	96306
37.36588	94843
37.37400	105108
37.38212	105175
37.39025	106020
37.39837	108161
37.40650	109677
37.41462	99305
37.42273	102469
37.43087	96131
37.43898	103417
37.44712	96482
37.45523	100914
37.46335	90980
37.47148	98244
37.47960	91987
37.48773	92772
