Z:\data\JTB-E02\BACandBLUE\JTB-E02-201-07.D Fri Mar 01 09:16:23 2019
Start of data points
2.09515	65918
2.10328	63840
2.11140	65386
2.11952	62853
2.12765	65161
2.13577	61163
2.14390	65184
2.15202	61077
2.16013	59345
2.16827	61394
2.17638	60258
2.18450	66639
2.19263	52367
2.20075	54077
2.20888	53420
2.21700	52138
2.22512	53753
2.23325	53599
2.24137	50770
2.24950	55210
2.25762	60999
2.26573	290118
2.27387	1972515
2.28198	2955388
2.29012	1562632
2.29823	728999
2.30635	502653
2.31448	419793
2.32260	382374
2.33072	322207
2.33885	301877
2.34697	255738
2.35510	221808
2.36322	210952
2.37133	188869
2.37947	188873
2.38758	192977
2.39572	182797
2.40383	290662
2.41195	323374
2.42008	643190
2.42820	797539
2.43632	429882
2.44445	332327
2.45257	284200
2.46070	237915
2.46882	207691
2.47693	183120
2.48507	177858
2.49318	171682
2.50132	160774
2.50943	148189
2.51755	143415
2.52568	145603
2.53380	139234
2.54193	141273
2.55005	150902
2.55817	243517
2.56630	297278
2.57442	206838
2.58253	157711
2.59067	133313
2.59878	124849
2.60692	129565
2.61503	135016
2.62315	134851
2.63128	129168
2.63940	114214
2.64753	112214
2.65565	116182
2.66377	115193
2.67190	104829
2.68002	112204
2.68815	104380
2.69627	112444
2.70438	110707
2.71252	106516
2.72063	96573
2.72875	98215
2.73688	98426
2.74500	91752
2.75313	98340
2.76125	98119
2.76937	94733
2.77750	94073
2.78562	95787
2.79375	104088
2.80187	100390
2.80998	110185
2.81812	100295
2.82623	96799
2.83435	99320
2.84248	93243
2.85060	95910
2.85873	96471
2.86685	100620
2.87497	98259
2.88310	93063
2.89122	95761
2.89935	100094
2.90747	92447
2.91558	89977
2.92372	85509
2.93183	87332
2.93997	86949
2.94808	83567
2.95620	89692
2.96433	83345
2.97245	87179
2.98057	82099
2.98870	83838
2.99682	81624
3.00495	86337
3.01307	98669
3.02118	87491
3.02932	83514
3.03743	78043
3.04557	90220
3.05368	80651
3.06180	81322
3.06993	78409
3.07805	84848
3.08617	86689
3.09430	83430
3.10242	91423
3.11055	109867
3.11867	119480
3.12678	118556
3.13492	118229
3.14303	104734
3.15117	97892
3.15928	95446
3.16740	86203
3.17553	85493
3.18365	83855
3.19178	84854
3.19990	80196
3.20802	80055
3.21615	80593
3.22427	82025
3.23238	86571
3.24052	79763
3.24863	77414
3.25677	78302
3.26488	76452
3.27300	81883
3.28113	84389
3.28925	198500
3.29738	897393
3.30550	3024585
3.31362	6159644
3.32175	7533470
3.32987	6563248
3.33800	4866246
3.34612	3550893
3.35423	2715793
3.36237	2168948
3.37048	1828837
3.37860	1521516
3.38673	1332232
3.39485	1174817
3.40298	1068906
3.41110	994921
3.41922	891357
3.42735	816737
3.43547	756383
3.44360	694795
3.45172	646542
3.45983	619287
3.46797	581408
3.47608	572602
3.48422	555979
3.49233	522663
3.50045	520528
3.50858	477104
3.51670	479819
3.52482	460718
3.53295	441210
3.54107	425630
3.54920	412469
3.55732	386756
3.56543	378849
3.57357	368701
3.58168	363655
3.58982	353399
3.59793	347464
3.60605	338711
3.61418	333850
3.62230	340128
3.63042	325994
3.63855	312391
3.64667	300262
3.65480	289230
3.66292	300345
3.67103	288324
3.67917	286430
3.68728	303604
3.69542	295965
3.70353	290643
3.71165	284485
3.71978	278896
3.72790	271268
3.73603	270368
3.74415	272239
3.75227	265481
3.76040	252164
3.76852	255000
3.77663	241603
3.78477	244032
3.79288	247257
3.80102	247156
3.80913	250726
3.81725	241997
3.82538	242381
3.83350	235469
3.84163	238029
3.84975	230887
3.85787	230272
3.86600	224241
3.87412	216098
3.88223	220243
3.89037	208111
3.89848	212684
3.90662	208626
3.91473	207657
3.92285	201836
3.93098	198440
3.93910	205238
3.94723	197761
3.95535	208884
3.96347	199894
3.97160	199088
3.97972	189022
3.98785	187611
3.99597	193839
4.00408	178540
4.01222	195792
4.02033	198608
4.02845	202755
4.03658	190730
4.04470	197567
4.05283	195793
4.06095	190448
4.06907	181173
4.07720	179731
4.08532	173106
4.09345	179267
4.10157	178072
4.10968	172319
4.11782	174925
4.12593	173920
4.13407	183890
4.14218	200977
4.15030	280338
4.15843	350258
4.16655	341318
4.17467	288436
4.18280	238929
4.19092	212589
4.19905	195337
4.20717	181697
4.21528	179811
4.22342	183263
4.23153	193016
4.23967	205175
4.24778	206132
4.25590	189211
4.26403	183567
4.27215	169877
4.28027	166273
4.28840	162648
4.29652	162779
4.30465	163687
4.31277	156363
4.32088	165192
4.32902	168327
4.33713	172574
4.34527	161753
4.35338	164690
4.36150	155397
4.36963	160519
4.37775	157970
4.38588	159944
4.39400	153154
4.40212	153509
4.41025	160920
4.41837	146792
4.42648	153619
4.43462	149274
4.44273	147769
4.45087	149662
4.45898	142203
4.46710	145786
4.47523	145614
4.48335	145503
4.49148	142947
4.49960	146042
4.50772	147542
4.51585	146165
4.52397	144622
4.53210	143726
4.54022	142413
4.54833	137873
4.55647	139254
4.56458	146322
4.57270	137902
4.58083	132333
4.58895	142465
4.59708	134077
4.60520	132389
4.61332	129026
4.62145	130787
4.62957	135150
4.63770	130259
4.64582	137905
4.65393	135111
4.66207	133061
4.67018	130361
4.67830	133841
4.68643	137018
4.69455	130014
4.70268	133085
4.71080	133724
4.71892	123977
4.72705	128621
4.73517	129959
4.74330	127271
4.75142	126942
4.75953	125013
4.76767	125131
4.77578	123006
4.78392	124645
4.79203	121492
4.80015	128670
4.80828	125167
4.81640	123896
4.82452	118986
4.83265	123935
4.84077	122751
4.84890	119532
4.85702	127433
4.86513	122409
4.87327	116133
4.88138	119407
4.88952	124285
4.89763	129300
4.90575	131017
4.91388	121268
4.92200	124460
4.93012	124604
4.93825	150413
4.94637	277953
4.95450	678448
4.96262	1502740
4.97073	2583202
4.97887	3188762
4.98698	3035741
4.99512	2491711
5.00323	1846276
5.01135	1372588
5.01948	1091667
5.02760	903497
5.03573	783206
5.04385	695197
5.05197	614397
5.06010	561794
5.06822	536241
5.07633	488459
5.08447	466635
5.09258	438958
5.10072	418631
5.10883	405720
5.11695	399022
5.12508	390121
5.13320	355911
5.14133	350042
5.14945	349776
5.15757	329267
5.16570	334501
5.17382	318113
5.18195	317676
5.19007	311851
5.19818	318941
5.20632	320536
5.21443	301229
5.22255	289974
5.23068	290201
5.23880	301024
5.24693	313283
5.25505	302396
5.26317	293796
5.27130	271473
5.27942	261562
5.28755	246889
5.29567	246725
5.30378	244552
5.31192	235389
5.32003	235019
5.32815	235187
5.33628	220630
5.34440	230795
5.35253	239076
5.36065	222015
5.36877	218212
5.37690	220134
5.38502	217566
5.39315	208904
5.40127	203040
5.40938	205208
5.41752	203487
5.42563	200063
5.43377	205899
5.44188	199579
5.45000	193392
5.45813	197310
5.46625	196661
5.47437	190659
5.48250	190229
5.49062	190715
5.49875	190819
5.50687	186507
5.51498	185624
5.52312	184547
5.53123	187767
5.53937	181694
5.54748	175726
5.55560	173231
5.56373	176920
5.57185	168374
5.57998	177283
5.58810	175812
5.59622	178373
5.60435	182681
5.61247	171303
5.62058	176876
5.62872	190469
5.63683	200689
5.64497	200354
5.65308	202683
5.66120	189891
5.66933	185516
5.67745	184943
5.68558	191291
5.69370	207764
5.70182	227271
5.70995	219261
5.71807	206559
5.72618	185330
5.73432	179868
5.74243	168202
5.75057	167380
5.75868	158381
5.76680	162493
5.77493	159338
5.78305	152503
5.79118	158222
5.79930	144237
5.80742	153637
5.81555	153200
5.82367	150249
5.83180	153273
5.83992	154796
5.84803	149064
5.85617	151653
5.86428	148211
5.87240	154054
5.88053	140898
5.88865	147912
5.89678	139565
5.90490	140593
5.91302	130179
5.92115	125688
5.92927	106311
5.93740	116068
5.94552	112922
5.95363	108644
5.96177	112241
5.96988	120993
5.97802	143042
5.98613	165366
5.99425	191757
6.00238	187403
6.01050	165736
6.01862	145105
6.02675	127657
6.03487	121346
6.04300	117227
6.05112	113667
6.05923	116503
6.06737	116114
6.07548	113047
6.08362	122162
6.09173	115330
6.09985	115924
6.10798	120296
6.11610	108416
6.12422	111962
6.13235	110520
6.14047	115035
6.14860	117735
6.15672	118092
6.16483	123777
6.17297	132889
6.18108	130796
6.18922	123531
6.19733	133874
6.20545	137285
6.21358	121464
6.22170	131572
6.22983	134290
6.23795	136738
6.24607	139007
6.25420	139890
6.26232	139275
6.27043	143205
6.27857	150390
6.28668	150078
6.29482	147388
6.30293	148847
6.31105	147366
6.31918	144539
6.32730	150366
6.33543	155346
6.34355	155270
6.35167	150689
6.35980	157132
6.36792	158331
6.37603	153181
6.38417	165927
6.39228	165209
6.40042	169906
6.40853	161020
6.41665	162093
6.42478	172765
6.43290	174296
6.44103	179933
6.44915	177755
6.45727	188040
6.46540	184521
6.47352	185102
6.48165	189012
6.48977	183805
6.49788	199082
6.50602	192801
6.51413	181274
6.52225	186866
6.53038	192180
6.53850	190249
6.54663	193394
6.55475	160270
6.56287	154415
6.57100	137736
6.57912	135459
6.58725	134386
6.59537	133495
6.60348	125802
6.61162	126047
6.61973	116618
6.62787	123311
6.63598	123333
6.64410	113087
6.65223	124132
6.66035	112839
6.66847	127679
6.67660	116870
6.68472	118170
6.69285	120001
6.70097	111286
6.70908	114601
6.71722	109549
6.72533	110290
6.73347	104443
6.74158	105650
6.74970	105354
6.75783	109438
6.76595	106942
6.77407	104431
6.78220	109163
6.79032	106449
6.79845	107963
6.80657	94767
6.81468	105822
6.82282	106688
6.83093	102772
6.83907	101089
6.84718	98041
6.85530	95779
6.86343	93053
6.87155	83264
6.87968	75229
6.88780	74739
6.89592	79996
6.90405	79797
6.91217	76590
6.92028	71517
6.92842	69313
6.93653	65409
6.94467	66491
6.95278	59891
6.96090	73452
6.96903	64963
6.97715	62670
6.98528	65035
6.99340	64050
7.00152	63700
7.00965	68687
7.01777	67694
7.02590	62862
7.03402	67290
7.04213	65685
7.05027	66182
7.05838	65161
7.06650	67587
7.07463	66674
7.08275	65488
7.09088	66721
7.09900	63699
7.10712	61020
7.11525	66554
7.12337	64158
7.13150	64782
7.13962	61786
7.14773	60791
7.15587	58435
7.16398	62289
7.17210	59569
7.18023	63194
7.18835	67838
7.19648	67739
7.20460	72832
7.21272	69137
7.22085	68678
7.22897	69689
7.23710	72744
7.24522	61816
7.25333	65781
7.26147	65782
7.26958	59555
7.27772	66117
7.28583	68030
7.29395	60150
7.30208	61180
7.31020	59539
7.31832	59431
7.32645	62456
7.33457	56947
7.34270	59588
7.35082	61878
7.35893	61145
7.36707	62006
7.37518	61567
7.38332	59348
7.39143	57536
7.39955	62678
7.40768	64314
7.41580	62790
7.42392	65433
7.43205	64910
7.44017	68186
7.44830	78875
7.45642	77763
7.46453	72413
7.47267	69581
7.48078	67530
7.48892	68245
7.49703	64905
7.50515	57446
7.51328	59792
7.52140	62913
7.52953	62866
7.53765	58978
7.54577	55589
7.55390	60777
7.56202	60373
7.57013	56458
7.57827	58953
7.58638	66617
7.59452	60669
7.60263	60058
7.61075	56552
7.61888	54392
7.62700	66963
7.63513	60497
7.64325	55735
7.65137	59444
7.65950	56174
7.66762	60989
7.67575	56462
7.68387	61050
7.69198	54531
7.70012	58345
7.70823	56816
7.71635	61100
7.72448	56494
7.73260	57562
7.74073	53934
7.74885	59556
7.75697	64295
7.76510	52704
7.77322	55013
7.78135	55402
7.78947	58714
7.79758	61532
7.80572	62344
7.81383	57996
7.82195	57943
7.83008	54753
7.83820	59815
7.84633	52201
7.85445	54734
7.86257	48758
7.87070	55776
7.87882	56265
7.88695	53072
7.89507	52057
7.90318	53092
7.91132	50813
7.91943	50586
7.92757	51657
7.93568	56290
7.94380	51537
7.95193	50343
7.96005	58709
7.96817	53703
7.97630	52471
7.98442	53887
7.99255	61061
8.00067	57526
8.00878	60090
8.01692	53038
8.02503	53596
8.03317	50677
8.04128	45876
8.04940	50026
8.05753	51734
8.06565	55252
8.07378	48153
8.08190	52051
8.09002	53448
8.09815	54030
8.10627	52376
8.11438	56904
8.12252	52972
8.13063	51042
8.13877	48718
8.14688	58514
8.15500	54082
8.16313	54853
8.17125	55834
8.17938	57339
8.18750	57196
8.19562	60456
8.20375	58826
8.21187	56446
8.21998	55696
8.22812	54741
8.23623	50581
8.24437	52431
8.25248	52664
8.26060	49134
8.26873	56044
8.27685	49189
8.28498	54673
8.29310	55199
8.30122	50359
8.30935	52286
8.31747	49796
8.32560	60318
8.33372	55459
8.34183	59397
8.34997	66194
8.35808	70417
8.36620	70436
8.37433	67177
8.38245	60973
8.39058	52745
8.39870	57136
8.40682	54823
8.41495	54186
8.42307	52455
8.43120	53490
8.43932	54205
8.44743	57460
8.45557	56674
8.46368	58060
8.47180	51899
8.47993	56121
8.48805	56766
8.49618	54184
8.50430	57662
8.51242	55527
8.52055	60869
8.52867	68710
8.53680	67006
8.54492	64378
8.55303	61310
8.56117	60543
8.56928	53798
8.57742	55897
8.58553	56164
8.59365	58468
8.60178	57169
8.60990	57407
8.61802	51053
8.62615	55493
8.63427	53975
8.64240	58996
8.65052	52966
8.65863	59521
8.66677	56008
8.67488	59012
8.68302	53862
8.69113	55238
8.69925	61424
8.70738	51297
8.71550	51389
8.72363	59245
8.73175	50430
8.73987	54510
8.74800	55348
8.75612	54913
8.76423	56687
8.77237	65975
8.78048	89603
8.78862	173707
8.79673	327856
8.80485	539257
8.81298	704881
8.82110	759647
8.82923	677954
8.83735	565072
8.84547	445496
8.85360	368855
8.86172	331074
8.86985	291874
8.87797	256811
8.88608	228657
8.89422	211836
8.90233	198682
8.91045	188178
8.91858	173015
8.92670	176337
8.93483	163695
8.94295	156053
8.95107	148424
8.95920	148243
8.96732	147990
8.97545	141939
8.98357	134161
8.99168	141000
8.99982	136469
9.00793	131770
9.01605	127324
9.02418	122305
9.03230	116108
9.04043	118427
9.04855	113354
9.05667	112172
9.06480	109084
9.07292	110717
9.08105	109617
9.08917	111449
9.09728	100979
9.10542	99578
9.11353	102010
9.12167	103543
9.12978	101607
9.13790	95556
9.14603	101022
9.15415	99636
9.16227	96580
9.17040	101207
9.17852	103189
9.18665	105587
9.19477	103155
9.20288	97709
9.21102	95028
9.21913	93386
9.22727	90349
9.23538	94100
9.24350	97382
9.25163	99497
9.25975	94028
9.26787	91067
9.27600	88912
9.28412	84295
9.29225	89755
9.30037	85623
9.30848	80510
9.31662	84508
9.32473	85593
9.33287	82965
9.34098	78087
9.34910	79585
9.35723	80322
9.36535	75289
9.37348	78827
9.38160	81133
9.38972	72659
9.39785	79759
9.40597	81207
9.41408	71852
9.42222	69098
9.43033	71997
9.43847	74135
9.44658	69214
9.45470	75474
9.46283	68467
9.47095	72567
9.47908	69954
9.48720	73095
9.49532	66703
9.50345	73113
9.51157	70892
9.51970	66464
9.52782	67605
9.53593	72440
9.54407	74789
9.55218	72909
9.56030	70624
9.56843	74108
9.57655	64993
9.58468	61841
9.59280	49653
9.60092	50810
9.60905	59302
9.61717	52147
9.62530	54859
9.63342	49547
9.64153	50915
9.64967	49249
9.65778	45728
9.66590	49305
9.67403	44855
9.68215	47168
9.69028	41440
9.69840	48181
9.70652	47846
9.71465	45238
9.72277	41629
9.73090	46076
9.73902	48443
9.74713	46165
9.75527	42996
9.76338	38807
9.77152	45895
9.77963	47310
9.78775	43431
9.79588	43172
9.80400	38437
9.81212	44418
9.82025	41931
9.82837	40533
9.83650	46955
9.84462	46380
9.85273	53187
9.86087	51308
9.86898	51577
9.87712	45522
9.88523	47457
9.89335	49839
9.90148	42215
9.90960	42275
9.91773	41126
9.92585	46137
9.93397	40827
9.94210	44473
9.95022	45179
9.95833	46460
9.96647	41108
9.97458	44644
9.98272	46251
9.99083	46885
9.99895	47647
10.00708	51375
10.01520	50435
10.02333	56400
10.03145	59595
10.03957	63270
10.04770	70747
10.05582	65290
10.06393	63199
10.07207	59722
10.08018	55431
10.08832	56315
10.09643	57760
10.10455	53641
10.11268	49759
10.12080	48167
10.12893	47402
10.13705	48173
10.14517	47413
10.15330	46271
10.16142	48264
10.16955	42021
10.17767	45571
10.18578	48569
10.19392	43579
10.20203	44574
10.21015	46605
10.21828	44235
10.22640	47109
10.23453	45546
10.24265	50927
10.25077	57935
10.25890	58823
10.26702	52468
10.27515	53889
10.28327	50492
10.29138	49499
10.29952	49078
10.30763	54669
10.31575	57230
10.32388	63029
10.33200	68032
10.34013	65665
10.34825	62086
10.35637	58390
10.36450	56648
10.37262	55297
10.38075	51340
10.38887	50860
10.39698	52141
10.40512	51416
10.41323	48574
10.42137	47210
10.42948	46166
10.43760	50170
10.44573	45351
10.45385	46769
10.46197	48337
10.47010	46616
10.47822	45156
10.48635	54737
10.49447	49214
10.50258	48568
10.51072	44178
10.51883	44909
10.52697	45993
10.53508	47859
10.54320	45258
10.55133	44507
10.55945	45382
10.56758	48285
10.57570	47429
10.58382	46977
10.59195	45034
10.60007	44522
10.60818	45588
10.61632	45607
10.62443	42387
10.63257	39822
10.64068	39809
10.64880	43512
10.65693	45607
10.66505	45031
10.67318	45401
10.68130	42534
10.68942	45662
10.69755	42729
10.70567	42063
10.71378	46053
10.72192	45139
10.73003	48199
10.73817	43870
10.74628	42676
10.75440	43963
10.76253	45888
10.77065	50057
10.77878	48146
10.78690	51243
10.79502	47348
10.80315	42570
10.81127	46742
10.81940	44839
10.82752	42412
10.83563	46347
10.84377	41643
10.85188	41598
10.86000	41284
10.86813	41197
10.87625	42879
10.88438	40329
10.89250	40755
10.90062	42813
10.90875	41348
10.91687	37608
10.92500	42638
10.93312	41358
10.94123	44116
10.94937	40373
10.95748	40011
10.96562	39885
10.97373	41793
10.98185	44695
10.98998	39648
10.99810	38149
11.00622	39182
11.01435	39703
11.02247	40313
11.03060	45277
11.03872	37706
11.04683	41743
11.05497	34156
11.06308	37447
11.07122	40882
11.07933	38220
11.08745	33565
11.09558	38392
11.10370	44624
11.11182	42023
11.11995	38924
11.12807	39840
11.13620	37731
11.14432	35958
11.15243	34691
11.16057	36358
11.16868	36702
11.17682	34775
11.18493	43481
11.19305	50063
11.20118	57626
11.20930	64062
11.21743	66156
11.22555	67594
11.23367	61525
11.24180	56333
11.24992	54533
11.25803	45352
11.26617	43495
11.27428	45609
11.28242	42276
11.29053	38216
11.29865	45328
11.30678	39209
11.31490	38656
11.32303	41316
11.33115	38950
11.33927	39350
11.34740	39654
11.35552	35281
11.36363	35575
11.37177	40307
11.37988	35782
11.38802	36049
11.39613	38907
11.40425	36682
11.41238	35775
11.42050	35178
11.42863	39579
11.43675	37861
11.44487	35706
11.45300	34150
11.46112	37860
11.46925	35717
11.47737	35712
11.48548	38589
11.49362	34414
11.50173	35574
11.50985	36063
11.51798	36782
11.52610	34132
11.53423	36333
11.54235	39592
11.55047	38248
11.55860	35831
11.56672	35959
11.57485	34952
11.58297	36458
11.59108	38976
11.59922	32170
11.60733	38395
11.61547	39655
11.62358	32849
11.63170	35308
11.63983	33785
11.64795	36237
11.65607	33983
11.66420	35152
11.67232	37700
11.68045	38381
11.68857	33820
11.69668	36840
11.70482	36712
11.71293	41656
11.72107	42544
11.72918	38623
11.73730	39892
11.74543	41821
11.75355	39041
11.76167	42342
11.76980	36946
11.77792	39455
11.78605	42965
11.79417	42237
11.80228	41910
11.81042	45669
11.81853	40232
11.82667	38300
11.83478	36365
11.84290	38751
11.85103	38830
11.85915	38727
11.86728	40308
11.87540	37643
11.88352	40976
11.89165	35285
11.89977	39904
11.90788	41046
11.91602	35713
11.92413	35797
11.93227	37565
11.94038	37774
11.94850	35807
11.95663	35037
11.96475	39077
11.97288	34767
11.98100	35542
11.98912	37107
11.99725	35326
12.00537	36280
12.01350	33110
12.02162	37061
12.02973	39715
12.03787	38090
12.04598	43000
12.05410	32931
12.06223	35113
12.07035	37539
12.07848	38096
12.08660	34832
12.09472	37975
12.10285	37820
12.11097	34026
12.11910	34377
12.12722	38627
12.13533	35869
12.14347	36641
12.15158	40355
12.15970	36522
12.16783	39333
12.17595	36295
12.18408	42513
12.19220	43191
12.20032	41736
12.20845	36749
12.21657	38804
12.22470	39751
12.23282	38865
12.24093	40982
12.24907	44839
12.25718	39165
12.26532	38421
12.27343	40380
12.28155	38342
12.28968	37164
12.29780	42400
12.30592	37771
12.31405	41191
12.32217	38165
12.33030	37957
12.33842	37331
12.34653	37496
12.35467	36635
12.36278	39645
12.37092	41991
12.37903	38288
12.38715	38926
12.39528	38169
12.40340	36725
12.41153	39198
12.41965	39806
12.42777	38285
12.43590	41227
12.44402	39161
12.45213	43032
12.46027	44260
12.46838	50877
12.47652	48482
12.48463	45639
12.49275	42315
12.50088	44525
12.50900	41594
12.51713	38950
12.52525	38883
12.53337	38679
12.54150	39025
12.54962	38903
12.55773	36258
12.56587	40940
12.57398	36986
12.58212	36833
12.59023	39443
12.59835	39186
12.60648	34576
12.61460	40568
12.62273	31793
12.63085	37737
12.63897	41646
12.64710	34356
12.65522	33702
12.66335	35452
12.67147	39831
12.67958	37467
12.68772	36646
12.69583	38177
12.70395	40380
12.71208	36846
12.72020	39413
12.72833	41260
12.73645	40575
12.74457	40719
12.75270	39841
12.76082	44306
12.76895	44621
12.77707	43881
12.78518	42270
12.79332	39369
12.80143	32660
12.80955	37855
12.81768	33379
12.82580	35952
12.83393	35529
12.84205	33009
12.85017	35885
12.85830	31764
12.86642	34959
12.87455	34590
12.88267	36739
12.89078	36557
12.89892	36060
12.90703	34378
12.91517	35279
12.92328	33043
12.93140	33035
12.93953	29087
12.94765	32454
12.95577	31553
12.96390	37631
12.97202	36857
12.98015	30440
12.98827	31950
12.99638	37414
13.00452	36561
13.01263	32745
13.02077	36209
13.02888	34882
13.03700	32975
13.04513	33586
13.05325	32920
13.06138	32427
13.06950	41033
13.07762	34815
13.08575	34266
13.09387	34260
13.10198	34838
13.11012	38864
13.11823	33084
13.12637	35040
13.13448	34908
13.14260	34563
13.15073	35796
13.15885	36799
13.16698	33835
13.17510	32983
13.18322	36269
13.19135	34993
13.19947	43272
13.20758	42663
13.21572	43319
13.22383	47773
13.23197	44593
13.24008	45484
13.24820	38759
13.25633	37134
13.26445	37240
13.27258	39263
13.28070	38100
13.28882	38689
13.29695	37021
13.30507	29597
13.31320	33308
13.32132	35020
13.32943	36182
13.33757	32727
13.34568	34488
13.35380	39082
13.36193	39184
13.37005	34721
13.37818	34757
13.38630	35484
13.39442	33378
13.40255	32083
13.41067	34312
13.41880	34313
13.42692	36477
13.43503	40379
13.44317	34556
13.45128	35606
13.45942	33035
13.46753	34708
13.47565	34648
13.48378	31380
13.49190	36582
13.50002	36562
13.50815	33081
13.51627	35053
13.52440	36849
13.53252	33653
13.54063	35553
13.54877	31831
13.55688	34331
13.56502	36042
13.57313	34719
13.58125	33079
13.58938	36868
13.59750	37317
13.60562	34805
13.61375	35660
13.62187	32487
13.63000	35849
13.63812	36406
13.64623	32000
13.65437	33373
13.66248	35930
13.67062	33091
13.67873	34435
13.68685	31357
13.69498	35438
13.70310	35774
13.71123	32005
13.71935	30653
13.72747	35610
13.73560	39195
13.74372	29276
13.75183	37113
13.75997	34699
13.76808	35991
13.77622	35066
13.78433	34188
13.79245	36172
13.80058	36062
13.80870	32876
13.81683	37671
13.82495	33439
13.83307	36640
13.84120	39153
13.84932	38597
13.85743	38316
13.86557	38794
13.87368	35746
13.88182	39555
13.88993	38465
13.89805	41879
13.90618	35588
13.91430	37699
13.92243	39102
13.93055	39062
13.93867	37925
13.94680	40254
13.95492	39214
13.96305	44518
13.97117	41233
13.97928	37427
13.98742	42906
13.99553	38649
14.00365	44382
14.01178	39542
14.01990	35838
14.02803	37772
14.03615	40415
14.04427	38529
14.05240	38309
14.06052	38413
14.06865	40055
14.07677	40846
14.08488	42269
14.09302	45826
14.10113	46176
14.10927	41663
14.11738	39247
14.12550	37048
14.13363	43412
14.14175	39246
14.14987	38334
14.15800	41357
14.16612	37802
14.17425	45043
14.18237	43774
14.19048	46743
14.19862	64262
14.20673	90767
14.21487	143903
14.22298	196147
14.23110	245945
14.23923	263947
14.24735	248007
14.25548	208433
14.26360	168167
14.27172	141137
14.27985	127585
14.28797	119326
14.29608	110205
14.30422	96630
14.31233	90093
14.32047	94650
14.32858	82016
14.33670	86291
14.34483	78364
14.35295	75766
14.36108	72472
14.36920	72230
14.37732	60037
14.38545	52137
14.39357	47384
14.40168	49118
14.40982	48967
14.41793	46920
14.42607	44957
14.43418	41798
14.44230	42806
14.45043	42873
14.45855	40432
14.46668	45646
14.47480	42784
14.48292	40479
14.49105	38529
14.49917	37920
14.50730	38425
14.51542	38440
14.52353	38240
14.53167	41501
14.53978	38992
14.54790	42540
14.55603	38734
14.56415	39895
14.57228	39205
14.58040	37782
14.58852	36881
14.59665	36659
14.60477	38045
14.61290	41008
14.62102	40266
14.62913	39515
14.63727	38225
14.64538	34346
14.65350	36525
14.66163	36669
14.66975	41267
14.67788	38054
14.68600	36303
14.69412	34204
14.70225	34637
14.71037	38198
14.71850	42356
14.72662	38389
14.73473	35723
14.74287	35993
14.75098	37527
14.75912	41716
14.76723	36100
14.77535	35904
14.78348	37633
14.79160	36733
14.79972	36639
14.80785	34942
14.81597	38240
14.82410	40845
14.83222	49573
14.84033	49126
14.84847	62456
14.85658	65750
14.86472	67847
14.87283	69140
14.88095	68805
14.88908	64342
14.89720	66277
14.90533	63225
14.91345	63401
14.92157	57732
14.92970	64393
14.93782	61573
14.94593	60455
14.95407	59231
14.96218	60688
14.97032	57092
14.97843	55649
14.98655	51594
14.99468	55691
15.00280	54002
15.01093	50389
15.01905	50969
15.02717	53561
15.03530	54068
15.04342	51228
15.05153	56280
15.05967	51649
15.06778	50213
15.07592	52837
15.08403	49414
15.09215	49059
15.10028	51631
15.10840	50470
15.11653	45730
15.12465	49180
15.13277	46144
15.14090	48017
15.14902	48508
15.15715	47114
15.16527	44636
15.17338	44798
15.18152	44200
15.18963	45843
15.19775	41307
15.20588	46373
15.21400	49531
15.22213	42937
15.23025	39748
15.23837	45510
15.24650	40067
15.25462	37904
15.26275	43806
15.27087	40530
15.27898	39737
15.28712	39092
15.29523	37971
15.30337	37260
15.31148	41573
15.31960	42595
15.32773	38955
15.33585	43590
15.34397	34908
15.35210	37809
15.36022	36483
15.36835	36282
15.37647	38387
15.38458	40128
15.39272	35878
15.40083	34641
15.40897	38918
15.41708	38491
15.42520	38813
15.43333	36693
15.44145	38812
15.44957	39983
15.45770	39104
15.46582	36908
15.47395	38367
15.48207	47109
15.49018	38786
15.49832	38953
15.50643	38918
15.51457	39553
15.52268	37587
15.53080	44473
15.53893	41935
15.54705	40465
15.55518	40883
15.56330	41146
15.57142	47059
15.57955	36905
15.58767	39980
15.59578	38697
15.60392	37534
15.61203	35345
15.62017	41017
15.62828	38031
15.63640	35862
15.64453	36111
15.65265	35390
15.66078	37926
15.66890	38578
15.67702	37153
15.68515	37316
15.69327	36452
15.70138	36999
15.70952	40172
15.71763	35662
15.72577	36112
15.73388	37991
15.74200	45223
15.75013	36072
15.75825	38690
15.76638	41452
15.77450	46428
15.78262	43790
15.79075	45447
15.79887	39625
15.80700	40138
15.81512	40884
15.82323	44408
15.83137	38289
15.83948	38692
15.84760	39982
15.85573	38072
15.86385	42270
15.87198	40828
15.88010	42148
15.88822	42311
15.89635	42893
15.90447	37554
15.91260	38228
15.92072	42641
15.92883	43906
15.93697	46788
15.94508	39925
15.95322	41171
15.96133	40547
15.96945	38451
15.97758	40278
15.98570	37150
15.99382	42011
16.00195	40301
16.01007	40063
16.01820	49693
16.02632	54900
16.03443	52586
16.04257	56594
16.05068	59774
16.05882	61128
16.06693	54084
16.07505	50945
16.08318	44617
16.09130	46431
16.09942	47421
16.10755	45006
16.11567	44899
16.12380	42693
16.13192	43867
16.14003	46826
16.14817	44212
16.15628	39090
16.16442	37480
16.17253	41276
16.18065	42208
16.18878	41513
16.19690	40162
16.20503	45120
16.21315	43560
16.22127	40850
16.22940	43900
16.23752	45594
16.24563	41903
16.25377	38305
16.26188	34922
16.27002	41979
16.27813	40507
16.28625	40535
16.29438	37678
16.30250	37494
16.31063	41181
16.31875	39428
16.32687	43928
16.33500	41712
16.34312	41862
16.35125	40514
16.35937	38096
16.36748	42092
16.37562	41070
16.38373	43130
16.39185	38274
16.39998	44404
16.40810	40400
16.41623	44418
16.42435	44300
16.43247	37367
16.44060	40833
16.44872	39898
16.45685	41224
16.46497	39728
16.47308	38200
16.48122	43410
16.48933	43489
16.49745	46342
16.50558	44783
16.51370	50828
16.52183	46189
16.52995	50649
16.53807	44411
16.54620	43343
16.55432	43870
16.56245	42867
16.57057	43714
16.57868	44003
16.58682	46134
16.59493	43139
16.60307	41687
16.61118	40056
16.61930	40765
16.62743	44114
16.63555	41407
16.64367	45929
16.65180	42412
16.65992	45759
16.66805	48760
16.67617	39094
16.68428	41010
16.69242	43052
16.70053	40568
16.70867	40222
16.71678	40134
16.72490	42574
16.73303	39890
16.74115	35835
16.74928	39230
16.75740	37516
16.76552	35556
16.77365	38556
16.78177	37041
16.78988	40255
16.79802	37143
16.80613	36308
16.81427	37294
16.82238	40372
16.83050	36792
16.83863	37573
16.84675	37623
16.85488	36784
16.86300	39778
16.87112	34904
16.87925	37692
16.88737	36213
16.89548	38861
16.90362	38578
16.91173	35793
16.91987	36265
16.92798	34194
16.93610	40428
16.94423	36991
16.95235	44183
16.96048	37697
16.96860	39133
16.97672	38764
16.98485	38331
16.99297	34445
17.00110	36595
17.00922	36331
17.01733	41955
17.02547	37169
17.03358	40944
17.04170	34966
17.04983	38621
17.05795	36876
17.06608	38669
17.07420	37353
17.08232	34408
17.09045	35669
17.09857	34915
17.10670	36360
17.11482	32696
17.12293	37141
17.13107	38980
17.13918	36630
17.14730	34310
17.15543	39919
17.16355	40089
17.17168	34855
17.17980	34601
17.18792	39837
17.19605	37505
17.20417	35491
17.21230	40674
17.22042	35718
17.22853	38218
17.23667	34411
17.24478	33481
17.25292	33814
17.26103	41843
17.26915	32949
17.27728	37412
17.28540	39282
17.29352	36768
17.30165	39034
17.30977	34978
17.31790	37448
17.32602	33276
17.33413	36617
17.34227	35373
17.35038	40844
17.35852	40483
17.36663	44490
17.37475	49383
17.38288	44632
17.39100	47081
17.39913	47335
17.40725	50106
17.41537	46843
17.42350	46742
17.43162	44711
17.43973	43938
17.44787	45944
17.45598	39833
17.46412	43874
17.47223	42675
17.48035	39535
17.48848	39472
17.49660	40174
17.50473	40873
17.51285	35227
17.52097	41790
17.52910	40005
17.53722	38273
17.54533	42276
17.55347	41130
17.56158	41963
17.56972	40498
17.57783	37990
17.58595	41043
17.59408	37798
17.60220	38908
17.61033	41492
17.61845	37848
17.62657	39453
17.63470	44577
17.64282	41748
17.65095	35604
17.65907	35680
17.66718	39668
17.67532	39064
17.68343	42219
17.69155	42733
17.69968	43717
17.70780	46006
17.71593	49463
17.72405	47253
17.73217	47516
17.74030	44019
17.74842	47003
17.75655	50157
17.76467	47284
17.77278	43387
17.78092	43631
17.78903	46379
17.79717	38215
17.80528	40116
17.81340	39500
17.82153	40758
17.82965	41972
17.83777	43151
17.84590	38866
17.85402	40848
17.86215	41476
17.87027	40850
17.87838	41914
17.88652	41630
17.89463	42232
17.90277	36930
17.91088	39577
17.91900	39744
17.92713	39777
17.93525	36217
17.94337	35105
17.95150	34636
17.95962	36895
17.96775	36986
17.97587	36990
17.98398	38468
17.99212	37414
18.00023	36475
18.00837	35342
18.01648	37424
18.02460	34829
18.03273	34586
18.04085	36044
18.04898	36347
18.05710	37128
18.06522	42074
18.07335	35034
18.08147	39315
18.08958	45534
18.09772	51712
18.10583	60714
18.11397	67150
18.12208	73179
18.13020	73696
18.13833	68450
18.14645	68213
18.15458	72499
18.16270	64770
18.17082	73317
18.17895	65656
18.18707	63255
18.19518	61050
18.20332	62594
18.21143	57702
18.21957	56734
18.22768	58575
18.23580	54404
18.24393	56037
18.25205	54221
18.26018	56604
18.26830	51296
18.27642	56228
18.28455	50772
18.29267	47305
18.30080	46115
18.30892	44701
18.31703	40528
18.32517	42295
18.33328	40468
18.34140	41051
18.34953	41454
18.35765	40839
18.36578	39336
18.37390	37940
18.38202	38337
18.39015	37413
18.39827	38171
18.40640	43689
18.41452	38559
18.42263	38219
18.43077	37417
18.43888	38419
18.44702	35638
18.45513	39929
18.46325	38036
18.47138	43049
18.47950	43483
18.48762	39975
18.49575	40931
18.50387	39626
18.51200	42861
18.52012	37976
18.52823	43912
18.53637	39069
18.54448	39144
18.55262	36385
18.56073	39572
18.56885	40937
18.57698	42078
18.58510	35032
18.59322	44572
18.60135	39880
18.60947	39707
18.61760	39647
18.62572	44403
18.63383	38671
18.64197	38589
18.65008	39695
18.65822	40960
18.66633	38374
18.67445	41715
18.68258	36001
18.69070	35967
18.69883	34699
18.70695	35565
18.71507	40720
18.72320	36573
18.73132	38444
18.73943	44744
18.74757	36596
18.75568	36722
18.76382	33726
18.77193	37701
18.78005	37172
18.78818	34021
18.79630	34962
18.80443	40041
18.81255	37790
18.82067	34189
18.82880	36948
18.83692	36817
18.84505	37838
18.85317	35298
18.86128	38151
18.86942	36139
18.87753	39509
18.88565	37969
18.89378	36997
18.90190	33675
18.91003	36774
18.91815	35772
18.92627	35266
18.93440	33253
18.94252	32997
18.95065	37717
18.95877	36139
18.96688	34677
18.97502	36563
18.98313	38315
18.99125	36274
18.99938	37171
19.00750	38819
19.01563	38246
19.02375	38239
19.03187	42057
19.04000	41414
19.04812	41207
19.05625	35903
19.06437	38605
19.07248	33577
19.08062	36866
19.08873	40516
19.09687	33505
19.10498	41338
19.11310	40105
19.12123	43187
19.12935	43289
19.13747	38433
19.14560	37288
19.15372	37029
19.16185	43919
19.16997	42713
19.17808	42376
19.18622	36417
19.19433	39812
19.20247	40221
19.21058	37996
19.21870	42075
19.22683	41159
19.23495	42003
19.24308	39092
19.25120	33135
19.25932	36204
19.26745	35536
19.27557	40399
19.28368	44248
19.29182	41342
19.29993	51709
19.30807	52456
19.31618	52167
19.32430	52878
19.33243	49473
19.34055	42365
19.34868	45752
19.35680	43563
19.36492	41796
19.37305	44529
19.38117	39322
19.38928	44094
19.39742	42180
19.40553	43155
19.41367	40383
19.42178	43486
19.42990	43644
19.43803	43823
19.44615	43325
19.45428	43301
19.46240	40397
19.47052	42735
19.47865	40506
19.48677	44088
19.49490	42532
19.50302	51836
19.51113	74456
19.51927	95398
19.52738	129443
19.53550	135073
19.54363	134829
19.55175	124391
19.55988	91813
19.56800	70044
19.57612	63482
19.58425	53584
19.59237	47069
19.60050	42619
19.60862	39281
19.61673	44191
19.62487	44073
19.63298	44637
19.64112	48192
19.64923	59244
19.65735	93237
19.66548	142481
19.67360	189822
19.68172	248008
19.68985	288241
19.69797	298318
19.70610	270033
19.71422	210228
19.72233	154998
19.73047	133964
19.73858	101374
19.74672	90529
19.75483	78094
19.76295	69511
19.77108	65061
19.77920	61503
19.78732	59823
19.79545	55001
19.80357	53762
19.81170	47943
19.81982	45241
19.82793	47777
19.83607	46291
19.84418	47298
19.85232	49851
19.86043	52751
19.86855	53619
19.87668	64835
19.88480	90803
19.89293	147542
19.90105	272138
19.90917	454747
19.91730	692421
19.92542	932005
19.93353	1169523
19.94167	1309776
19.94978	1366941
19.95792	1328271
19.96603	1307450
19.97415	1239750
19.98228	1208570
19.99040	1140298
19.99853	1089728
20.00665	1058276
20.01477	1018484
20.02290	989589
20.03102	950739
20.03913	893328
20.04727	816397
20.05538	730402
20.06352	635899
20.07163	512697
20.07975	394027
20.08788	327594
20.09600	259147
20.10413	236465
20.11225	229092
20.12037	211845
20.12850	197855
20.13662	196594
20.14475	197379
20.15287	196786
20.16098	184147
20.16912	177622
20.17723	183931
20.18535	180821
20.19348	170441
20.20160	164997
20.20973	165009
20.21785	157361
20.22597	157256
20.23410	161801
20.24222	158690
20.25035	156547
20.25847	171437
20.26658	194982
20.27472	250126
20.28283	321532
20.29097	395397
20.29908	460833
20.30720	480479
20.31533	441340
20.32345	396574
20.33157	320283
20.33970	271784
20.34782	216566
20.35595	176488
20.36407	160143
20.37218	132766
20.38032	118936
20.38843	109665
20.39657	94389
20.40468	98869
20.41280	97659
20.42093	95735
20.42905	104811
20.43717	106889
20.44530	131231
20.45342	137201
20.46155	160375
20.46967	158201
20.47778	148612
20.48592	132717
20.49403	123746
20.50217	116999
20.51028	95217
20.51840	86329
20.52653	84491
20.53465	83453
20.54278	85377
20.55090	76205
20.55902	76204
20.56715	75505
20.57527	80874
20.58338	81344
20.59152	79488
20.59963	74485
20.60777	74780
20.61588	75794
20.62400	72312
20.63213	69616
20.64025	70524
20.64838	75509
20.65650	63944
20.66462	65078
20.67275	67550
20.68087	69255
20.68900	67857
20.69712	68726
20.70523	70733
20.71337	73261
20.72148	70792
20.72960	69502
20.73773	66758
20.74585	72012
20.75398	70159
20.76210	65685
20.77022	66011
20.77835	68713
20.78647	62427
20.79460	60865
20.80272	59248
20.81083	71616
20.81897	63376
20.82708	67729
20.83520	63064
20.84333	62526
20.85145	67598
20.85958	62384
20.86770	64515
20.87582	60994
20.88395	62907
20.89207	62518
20.90020	63061
20.90832	63056
20.91643	61174
20.92457	63105
20.93268	63313
20.94082	57894
20.94893	59481
20.95705	58050
20.96518	63470
20.97330	60057
20.98142	57295
20.98955	56335
20.99767	63374
21.00580	62610
21.01392	62613
21.02203	56173
21.03017	56714
21.03828	60076
21.04642	56885
21.05453	56896
21.06265	58484
21.07078	55935
21.07890	52493
21.08702	54880
21.09515	55886
21.10327	54778
21.11140	55308
21.11952	57127
21.12763	61589
21.13577	58270
21.14388	54402
21.15202	59006
21.16013	57324
21.16825	57212
21.17638	56789
21.18450	58768
21.19263	60137
21.20075	65906
21.20887	61607
21.21700	61815
21.22512	58393
21.23323	58960
21.24137	57952
21.24948	53183
21.25762	55344
21.26573	57187
21.27385	61066
21.28198	57696
21.29010	58720
21.29823	57110
21.30635	62796
21.31447	56133
21.32260	59055
21.33072	58218
21.33885	59766
21.34697	56481
21.35508	50827
21.36322	57921
21.37133	51920
21.37945	49160
21.38758	50019
21.39570	48739
21.40383	50309
21.41195	56795
21.42007	49445
21.42820	56112
21.43632	52270
21.44445	50961
21.45257	52228
21.46068	54154
21.46882	55687
21.47693	50811
21.48505	55136
21.49318	50933
21.50130	45952
21.50943	53797
21.51755	55996
21.52567	51184
21.53380	52443
21.54192	54175
21.55005	48531
21.55817	50955
21.56628	49147
21.57442	47679
21.58253	45511
21.59067	52768
21.59878	50126
21.60690	48209
21.61503	55128
21.62315	57445
21.63127	62925
21.63940	80985
21.64752	94779
21.65565	114035
21.66377	126730
21.67188	126981
21.68002	119463
21.68813	98429
21.69627	88037
21.70438	66720
21.71250	57744
21.72063	59462
21.72875	57309
21.73688	52105
21.74500	54055
21.75312	53065
21.76125	52824
21.76937	55752
21.77748	56612
21.78562	59630
21.79373	54839
21.80187	48041
21.80998	52468
21.81810	49519
21.82623	57649
21.83435	71010
21.84248	78103
21.85060	89311
21.85872	105545
21.86685	114285
21.87497	104021
21.88308	84853
21.89122	74470
21.89933	65716
21.90747	56095
21.91558	52483
21.92370	55153
21.93183	49495
21.93995	46863
21.94808	52892
21.95620	51474
21.96432	54760
21.97245	52172
21.98057	50610
21.98870	45957
21.99682	43720
22.00493	44846
22.01307	43937
22.02118	46291
22.02930	45347
22.03743	44751
22.04555	45237
22.05368	44965
22.06180	49472
22.06992	42778
22.07805	49519
22.08617	42799
22.09430	43292
22.10242	44618
22.11053	42331
22.11867	43957
22.12678	48608
22.13492	44359
22.14303	46147
22.15115	46673
22.15928	46241
22.16740	47683
22.17552	47104
22.18365	47170
22.19177	45560
22.19990	44797
22.20802	42682
22.21613	46419
22.22427	51196
22.23238	47770
22.24052	54892
22.24863	53588
22.25675	61225
22.26488	53909
22.27300	49620
22.28112	48045
22.28925	46613
22.29737	45091
22.30550	44255
22.31362	44723
22.32173	44406
22.32987	43042
22.33798	49779
22.34612	48649
22.35423	46722
22.36235	47921
22.37048	53997
22.37860	51711
22.38673	49123
22.39485	54319
22.40297	50794
22.41110	49206
22.41922	48720
22.42733	49925
22.43547	50360
22.44358	50262
22.45172	44146
22.45983	42781
22.46795	44519
22.47608	38466
22.48420	44156
22.49233	43374
22.50045	42257
22.50857	40092
22.51670	40147
22.52482	46028
22.53293	42269
22.54107	40612
22.54918	40771
22.55732	39964
22.56543	42729
22.57355	39146
22.58168	38744
22.58980	39301
22.59793	41733
22.60605	37920
22.61417	42666
22.62230	39116
22.63042	38893
22.63855	38223
22.64667	39093
22.65478	36002
22.66292	39659
22.67103	35636
22.67915	38647
22.68728	39413
22.69540	38599
22.70353	39946
22.71165	37744
22.71977	40380
22.72790	42797
22.73602	40299
22.74415	40598
22.75227	39725
22.76038	40773
22.76852	43169
22.77663	44296
22.78477	41223
22.79288	39741
22.80100	41513
22.80913	40776
22.81725	36982
22.82537	38697
22.83350	38362
22.84162	46346
22.84975	40239
22.85787	42078
22.86598	42175
22.87412	41084
22.88223	46283
22.89037	51595
22.89848	43196
22.90660	46210
22.91473	47566
22.92285	49454
22.93097	53965
22.93910	66261
22.94722	60917
22.95535	66067
22.96347	67731
22.97158	68487
22.97972	65507
22.98783	61732
22.99597	61977
23.00408	52789
23.01220	49506
23.02033	50408
23.02845	49941
23.03658	44412
23.04470	41991
23.05282	42664
23.06095	42657
23.06907	38914
23.07718	44984
23.08532	44063
23.09343	40657
23.10157	38668
23.10968	41140
23.11780	40380
23.12593	37538
23.13405	36569
23.14218	41669
23.15030	41105
23.15842	36580
23.16655	35423
23.17467	38977
23.18280	35290
23.19092	41341
23.19903	37205
23.20717	34964
23.21528	45037
23.22340	34202
23.23153	35688
23.23965	36267
23.24778	38652
23.25590	36071
23.26402	37485
23.27215	37585
23.28027	34755
23.28840	38338
23.29652	34914
23.30463	34766
23.31277	37139
23.32088	34578
23.32900	35147
23.33713	35015
23.34525	34604
23.35338	34215
23.36150	36630
23.36962	39298
23.37775	38846
23.38587	37371
23.39400	43576
23.40212	39699
23.41023	39577
23.41837	39135
23.42648	39103
23.43462	38033
23.44273	38367
23.45085	46990
23.45898	43571
23.46710	41262
23.47522	36335
23.48335	37312
23.49147	44344
23.49960	42256
23.50772	40294
23.51583	40082
23.52397	42636
23.53208	42121
23.54022	39359
23.54833	38709
23.55645	46595
23.56458	39500
23.57270	47358
23.58082	44372
23.58895	40398
23.59707	43779
23.60520	45643
23.61332	43326
23.62143	46383
23.62957	46744
23.63768	44772
23.64582	45603
23.65393	52775
23.66205	52107
23.67018	62794
23.67830	71457
23.68643	78153
23.69455	90105
23.70267	89683
23.71080	87014
23.71892	87731
23.72703	83559
23.73517	78832
23.74328	74125
23.75142	83665
23.75953	133592
23.76765	297128
23.77578	713914
23.78390	1647846
23.79203	3091308
23.80015	4322520
23.80827	4813847
23.81640	4512399
23.82452	3970384
23.83265	2957912
23.84077	2069475
23.84888	1449802
23.85702	1053070
23.86513	833420
23.87325	636489
23.88138	532146
23.88950	452407
23.89763	402476
23.90575	352363
23.91387	325335
23.92200	288352
23.93012	273273
23.93825	248760
23.94637	233934
23.95448	219928
23.96262	209477
23.97073	194481
23.97887	178272
23.98698	172817
23.99510	168611
24.00323	155635
24.01135	155902
24.01947	144459
24.02760	141646
24.03572	137005
24.04385	142392
24.05197	136274
24.06008	125815
24.06822	127369
24.07633	126271
24.08447	123322
24.09258	118714
24.10070	111313
24.10883	110670
24.11695	104399
24.12507	108567
24.13320	104986
24.14132	104319
24.14945	114973
24.15757	119706
24.16568	120609
24.17382	117428
24.18193	114258
24.19007	105236
24.19818	105013
24.20630	101342
24.21443	103556
24.22255	105684
24.23068	100039
24.23880	104479
24.24692	116064
24.25505	109910
24.26317	101416
24.27128	100301
24.27942	91891
24.28753	87277
24.29567	85860
24.30378	84432
24.31190	87218
24.32003	83213
24.32815	86592
24.33628	81459
24.34440	83570
24.35252	76444
24.36065	75888
24.36877	71939
24.37688	72000
24.38502	74534
24.39313	79283
24.40127	90183
24.40938	106900
24.41750	124490
24.42563	144167
24.43375	130388
24.44188	120139
24.45000	102126
24.45812	81253
24.46625	71161
24.47437	71956
24.48250	72436
24.49062	66592
24.49873	68719
24.50687	76073
24.51498	79226
24.52310	96249
24.53123	93310
24.53935	98564
24.54748	97070
24.55560	89733
24.56372	83122
24.57185	80940
24.57997	74339
24.58810	74011
24.59622	72977
24.60433	71649
24.61247	73865
24.62058	72714
24.62870	78920
24.63683	80037
24.64495	75423
24.65308	71280
24.66120	68658
24.66932	68139
24.67745	70472
24.68557	71296
24.69370	74194
24.70182	68590
24.70993	67049
24.71807	61747
24.72618	59546
24.73432	56902
24.74243	56916
24.75055	58366
24.75868	57431
24.76680	57570
24.77492	57824
24.78305	58730
24.79117	52566
24.79930	59594
24.80742	53677
24.81553	57119
24.82367	56879
24.83178	53912
24.83992	50375
24.84803	53355
24.85615	56521
24.86428	51788
24.87240	56432
24.88053	61815
24.88865	56392
24.89677	52866
24.90490	54789
24.91302	56964
24.92113	54268
24.92927	57291
24.93738	54041
24.94552	56152
24.95363	52315
24.96175	53660
24.96988	49998
24.97800	47396
24.98613	49790
24.99425	49125
25.00237	49501
25.01050	51834
25.01862	49142
25.02675	45399
25.03487	47722
25.04298	48654
25.05112	45909
25.05923	48722
25.06735	44151
25.07548	51698
25.08360	48446
25.09173	48139
25.09985	43661
25.10797	49626
25.11610	48830
25.12422	52682
25.13235	58872
25.14047	62895
25.14858	77666
25.15672	92791
25.16483	103681
25.17295	108707
25.18108	109456
25.18920	98692
25.19733	85534
25.20545	82767
25.21357	70243
25.22170	60511
25.22982	58485
25.23795	58047
25.24607	55821
25.25418	54960
25.26232	56072
25.27043	53127
25.27857	52271
25.28668	50756
25.29480	52797
25.30293	60440
25.31105	54159
25.31917	66899
25.32730	67813
25.33542	64183
25.34355	61995
25.35167	60218
25.35978	56755
25.36792	53803
25.37603	49415
25.38417	46287
25.39228	50289
25.40040	45654
25.40853	49085
25.41665	48922
25.42477	48235
25.43290	45641
25.44102	48725
25.44915	44562
25.45727	44603
25.46538	47837
25.47352	44847
25.48163	47079
25.48977	46281
25.49788	56040
25.50600	51839
25.51413	50406
25.52225	49151
25.53038	48006
25.53850	48949
25.54662	47533
25.55475	44907
25.56287	42738
25.57098	46618
25.57912	41325
25.58723	42151
25.59537	42980
25.60348	42881
25.61160	45456
25.61973	47594
25.62785	41771
25.63598	42624
25.64410	42072
25.65222	43097
25.66035	39857
25.66847	44408
25.67660	45363
25.68472	36806
25.69283	39007
25.70097	40129
25.70908	41353
25.71720	42650
25.72533	43819
25.73345	43206
25.74158	41339
25.74970	43021
25.75782	41634
25.76595	42609
25.77407	43496
25.78220	41945
25.79032	46267
25.79843	40891
25.80657	40465
25.81468	45371
25.82280	43701
25.83093	43901
25.83905	39594
25.84718	43817
25.85530	41339
25.86342	41689
25.87155	44427
25.87967	42722
25.88780	42380
25.89592	39741
25.90403	41902
25.91217	40304
25.92028	40563
25.92842	39776
25.93653	40413
25.94465	42825
25.95278	46829
25.96090	40530
25.96902	38979
25.97715	41452
25.98527	40570
25.99340	43135
26.00152	39403
26.00963	42437
26.01777	40049
26.02588	41420
26.03402	38151
26.04213	43080
26.05025	44985
26.05838	42958
26.06650	40230
26.07463	42209
26.08275	45034
26.09087	42083
26.09900	39790
26.10712	41001
26.11523	44078
26.12337	44555
26.13148	54559
26.13962	53255
26.14773	51166
26.15585	54834
26.16398	59238
26.17210	59573
26.18023	60041
26.18835	55352
26.19647	55184
26.20460	50694
26.21272	51010
26.22083	49990
26.22897	46723
26.23708	46967
26.24522	44694
26.25333	40738
26.26145	45218
26.26958	45562
26.27770	45215
26.28583	44076
26.29395	48131
26.30207	40757
26.31020	40518
26.31832	40841
26.32645	38300
26.33457	42902
26.34268	42935
26.35082	42804
26.35893	40328
26.36705	41093
26.37518	38946
26.38330	41755
26.39143	45756
26.39955	44107
26.40767	53086
26.41580	56097
26.42392	50738
26.43205	52071
26.44017	51103
26.44828	49154
26.45642	49980
26.46453	44194
26.47265	44398
26.48078	42591
26.48890	43092
26.49703	37387
26.50515	39241
26.51327	42891
26.52140	38655
26.52952	38834
26.53765	41220
26.54577	39781
26.55388	38448
26.56202	39962
26.57013	38429
26.57827	38814
26.58638	38161
26.59450	42556
26.60263	39068
26.61075	35712
26.61887	40795
26.62700	38826
26.63512	47242
26.64325	39501
26.65137	39522
26.65948	38450
26.66762	42464
26.67573	42157
26.68387	47344
26.69198	40991
26.70010	40965
26.70823	43930
26.71635	38367
26.72448	42436
26.73260	38906
26.74072	40335
26.74885	39708
26.75697	42802
26.76508	42894
26.77322	47215
26.78133	37969
26.78947	41058
26.79758	41335
26.80570	42091
26.81383	43085
26.82195	43382
26.83008	42039
26.83820	49708
26.84632	42674
26.85445	44167
26.86257	43152
26.87068	44986
26.87882	43620
26.88693	42963
26.89507	40584
26.90318	46213
26.91130	37322
26.91943	41946
26.92755	44226
26.93568	36981
26.94380	49250
26.95192	43413
26.96005	45008
26.96817	55848
26.97630	76026
26.98442	141660
26.99253	265805
27.00067	540756
27.00878	1024167
27.01690	1878496
27.02503	2862005
27.03315	3382398
27.04128	3491937
27.04940	3023042
27.05752	2463200
27.06565	1878081
27.07377	1357997
27.08190	1011010
27.09002	725606
27.09813	581732
27.10627	488307
27.11438	398793
27.12252	352827
27.13063	314890
27.13875	290367
27.14688	255834
27.15500	232297
27.16312	218499
27.17125	199246
27.17937	194405
27.18750	181552
27.19562	166444
27.20373	167000
27.21187	159583
27.21998	159681
27.22812	146738
27.23623	140440
27.24435	135167
27.25248	128686
27.26060	126653
27.26872	117935
27.27685	113174
27.28497	110295
27.29310	115092
27.30122	102746
27.30933	96962
27.31747	94843
27.32558	89570
27.33372	95505
27.34183	92921
27.34995	92655
27.35808	84611
27.36620	88610
27.37433	87448
27.38245	88070
27.39057	80350
27.39870	78013
27.40682	75983
27.41493	80344
27.42307	77133
27.43118	78859
27.43932	72562
27.44743	74585
27.45555	69784
27.46368	68174
27.47180	72010
27.47993	74681
27.48805	69630
27.49617	66536
27.50430	69197
27.51242	67061
27.52055	68044
27.52867	66593
27.53678	65436
27.54492	68084
27.55303	73212
27.56115	70150
27.56928	72047
27.57740	67220
27.58553	63489
27.59365	57963
27.60177	64769
27.60990	61515
27.61802	62333
27.62615	63696
27.63427	65682
27.64238	58779
27.65052	66766
27.65863	58319
27.66675	62861
27.67488	56532
27.68300	56984
27.69113	60498
27.69925	58798
27.70737	56162
27.71550	56281
27.72362	57271
27.73175	60274
27.73987	59394
27.74798	57264
27.75612	57484
27.76423	53499
27.77237	57358
27.78048	52168
27.78860	56690
27.79673	54178
27.80485	53873
27.81297	60051
27.82110	54794
27.82922	51478
27.83735	50398
27.84547	55609
27.85358	55178
27.86172	52712
27.86983	53708
27.87797	54767
27.88608	55046
27.89420	55746
27.90233	52250
27.91045	52021
27.91857	48054
27.92670	47344
27.93482	45251
27.94295	45251
27.95107	45367
27.95918	57183
27.96732	49112
27.97543	48027
27.98357	47366
27.99168	47210
27.99980	48950
28.00793	46332
28.01605	50113
28.02418	48736
28.03230	45792
28.04042	47002
28.04855	47623
28.05667	48690
28.06478	47957
28.07292	54624
28.08103	48271
28.08917	50079
28.09728	48693
28.10540	44744
28.11353	47009
28.12165	49306
28.12978	48613
28.13790	45788
28.14602	51699
28.15415	53854
28.16227	48999
28.17040	43787
28.17852	44747
28.18663	42121
28.19477	48398
28.20288	52828
28.21100	47736
28.21913	53918
28.22725	57012
28.23538	58077
28.24350	60032
28.25162	55791
28.25975	59048
28.26787	53209
28.27600	49758
28.28412	52393
28.29223	49887
28.30037	54303
28.30848	63163
28.31660	84853
28.32473	119435
28.33285	171967
28.34098	234147
28.34910	316798
28.35722	415151
28.36535	492080
28.37347	574665
28.38160	618926
28.38972	621989
28.39783	587691
28.40597	562010
28.41408	511976
28.42222	466758
28.43033	406884
28.43845	350903
28.44658	317687
28.45470	275655
28.46282	239569
28.47095	211035
28.47907	194886
28.48720	172433
28.49532	163919
28.50343	162412
28.51157	138884
28.51968	133996
28.52782	128361
28.53593	128688
28.54405	112234
28.55218	113304
28.56030	110068
28.56843	100521
28.57655	99422
28.58467	102000
28.59280	97542
28.60092	95800
28.60903	88862
28.61717	86192
28.62528	82538
28.63342	86169
28.64153	81637
28.64965	90477
28.65778	86420
28.66590	88189
28.67403	93080
28.68215	92442
28.69027	87301
28.69840	89883
28.70652	78223
28.71463	78451
28.72277	76194
28.73088	73699
28.73902	70049
28.74713	74907
28.75525	69699
28.76338	73991
28.77150	80505
28.77963	78567
28.78775	84011
28.79587	97705
28.80400	95655
28.81212	88395
28.82025	84493
28.82837	78374
28.83648	65096
28.84462	59535
28.85273	61461
28.86085	61634
28.86898	62830
28.87710	60984
28.88523	59105
28.89335	58121
28.90147	60825
28.90960	59949
28.91772	58916
28.92585	60917
28.93397	60361
28.94208	57535
28.95022	57160
28.95833	60149
28.96645	57036
28.97458	55632
28.98270	60854
28.99083	59131
28.99895	59113
29.00707	55203
29.01520	55414
29.02332	54794
29.03145	55485
29.03957	51046
29.04768	53432
29.05582	53972
29.06393	50706
29.07207	48434
29.08018	49509
29.08830	50657
29.09643	50264
29.10455	47710
29.11267	52034
29.12080	50061
29.12892	55560
29.13705	49293
29.14517	53600
29.15328	49885
29.16142	51743
29.16953	59347
29.17767	54918
29.18578	57174
29.19390	55008
29.20203	55022
29.21015	55955
29.21828	62273
29.22640	52905
29.23452	51791
29.24265	58040
29.25077	51429
29.25888	53823
29.26702	60715
29.27513	52125
29.28327	54007
29.29138	53824
29.29950	55051
29.30763	54649
29.31575	50117
29.32388	50664
29.33200	50689
29.34012	50019
29.34825	55110
29.35637	52113
29.36448	55711
29.37262	51464
29.38073	51734
29.38887	52346
29.39698	52445
29.40510	51226
29.41323	47903
29.42135	49248
29.42948	49470
29.43760	48542
29.44572	50123
29.45385	53499
29.46197	50855
29.47010	50881
29.47822	52494
29.48633	49263
29.49447	55738
29.50258	56582
29.51070	56843
29.51883	62245
29.52695	57323
29.53508	59658
29.54320	55079
29.55132	57382
29.55945	51744
29.56757	45935
29.57570	47621
29.58382	46364
29.59193	45421
29.60007	46416
29.60818	47301
29.61632	47436
29.62443	48296
29.63255	45624
29.64068	44758
29.64880	47205
29.65692	47828
29.66505	50908
29.67317	50041
29.68130	45107
29.68942	43956
29.69753	49603
29.70567	43849
29.71378	43767
29.72192	45261
29.73003	47178
29.73815	41339
29.74628	47066
29.75440	47364
29.76252	45553
29.77065	46125
29.77877	41187
29.78690	44623
29.79502	44034
29.80313	45031
29.81127	42131
29.81938	40050
29.82752	42139
29.83563	41923
29.84375	42027
29.85188	44576
29.86000	42130
29.86813	42555
29.87625	42323
29.88437	46952
29.89250	50813
29.90062	64348
29.90873	70095
29.91687	74666
29.92498	86535
29.93312	79869
29.94123	71261
29.94935	70386
29.95748	69130
29.96560	78088
29.97373	91606
29.98185	107669
29.98997	121683
29.99810	150910
30.00622	167346
30.01433	195161
30.02247	207769
30.03058	226194
30.03872	239448
30.04683	248086
30.05495	237175
30.06308	233720
30.07120	232686
30.07933	212208
30.08745	200017
30.09557	197597
30.10370	182748
30.11182	170858
30.11995	154221
30.12807	143026
30.13618	131965
30.14432	127828
30.15243	114924
30.16055	111280
30.16868	106163
30.17680	101135
30.18493	95383
30.19305	88512
30.20117	88742
30.20930	79886
30.21742	80803
30.22555	76030
30.23367	75971
30.24178	75918
30.24992	79328
30.25803	66931
30.26617	66632
30.27428	69015
30.28240	70642
30.29053	66479
30.29865	60765
30.30677	57536
30.31490	57325
30.32302	56056
30.33115	56946
30.33927	56273
30.34738	55558
30.35552	56251
30.36363	62992
30.37177	61979
30.37988	48654
30.38800	50048
30.39613	51909
30.40425	53304
30.41238	52598
30.42050	59436
30.42862	52478
30.43675	55820
30.44487	53020
30.45298	51355
30.46112	58572
30.46923	51245
30.47737	51670
30.48548	52657
30.49360	52283
30.50173	55234
30.50985	53785
30.51798	49168
30.52610	55245
30.53422	46845
30.54235	47206
30.55047	45700
30.55858	48364
30.56672	45824
30.57483	50805
30.58297	49913
30.59108	52767
30.59920	45278
30.60733	44465
30.61545	46945
30.62358	49203
30.63170	45360
30.63982	48434
30.64795	42883
30.65607	46288
30.66420	47836
30.67232	52182
30.68043	45172
30.68857	43572
30.69668	45300
30.70480	46841
30.71293	43690
30.72105	45639
30.72918	47064
30.73730	43132
30.74542	45475
30.75355	44246
30.76167	52180
30.76980	46406
30.77792	48899
30.78603	49842
30.79417	46821
30.80228	51699
30.81040	53936
30.81853	56402
30.82665	62779
30.83478	56933
30.84290	55972
30.85102	55395
30.85915	53391
30.86727	51492
30.87540	48399
30.88352	44504
30.89163	43190
30.89977	44991
30.90788	47549
30.91602	41649
30.92413	44951
30.93225	50472
30.94038	44154
30.94850	43345
30.95662	43995
30.96475	42439
30.97287	42232
30.98100	44120
30.98912	45630
30.99723	43711
31.00537	41398
31.01348	42680
31.02162	39767
31.02973	42957
31.03785	46015
31.04598	47005
31.05410	47624
31.06223	44520
31.07035	48339
31.07847	48159
31.08660	44919
31.09472	48991
31.10283	55515
31.11097	56526
31.11908	58464
31.12722	59532
31.13533	60953
31.14345	57163
31.15158	52173
31.15970	52278
31.16783	48586
31.17595	50376
31.18407	49579
31.19220	57509
31.20032	59214
31.20843	64561
31.21657	78550
31.22468	81826
31.23282	104443
31.24093	88613
31.24905	99080
31.25718	80208
31.26530	68278
31.27343	56553
31.28155	53010
31.28967	53290
31.29780	48245
31.30592	42152
31.31405	43867
31.32217	38750
31.33028	43209
31.33842	43073
31.34653	45566
31.35465	40163
31.36278	41796
31.37090	41632
31.37903	40374
31.38715	43561
31.39527	43886
31.40340	43933
31.41152	42268
31.41965	45924
31.42777	43192
31.43588	47331
31.44402	44689
31.45213	45439
31.46027	47432
31.46838	42870
31.47650	40931
31.48463	41956
31.49275	43488
31.50087	43641
31.50900	47157
31.51712	43680
31.52525	45256
31.53337	40960
31.54148	41864
31.54962	40846
31.55773	42563
31.56587	44885
31.57398	41312
31.58210	43404
31.59023	43763
31.59835	41178
31.60647	42228
31.61460	39424
31.62272	44404
31.63085	39155
31.63897	38889
31.64708	42544
31.65522	40707
31.66333	41366
31.67147	41875
31.67958	42504
31.68770	40773
31.69583	37520
31.70395	40685
31.71208	40700
31.72020	42647
31.72832	39409
31.73645	39052
31.74457	39258
31.75268	39247
31.76082	37766
31.76893	35955
31.77707	39263
31.78518	37326
31.79330	39099
31.80143	39213
31.80955	40943
31.81768	44730
31.82580	44310
31.83392	43114
31.84205	41192
31.85017	42619
31.85828	40953
31.86642	41365
31.87453	42083
31.88267	45244
31.89078	47283
31.89890	46432
31.90703	54530
31.91515	51708
31.92328	65642
31.93140	68023
31.93952	74242
31.94765	97948
31.95577	114464
31.96390	123612
31.97202	133068
31.98013	126561
31.98827	135868
31.99638	132126
32.00450	131318
32.01263	127945
32.02075	130796
32.02888	112697
32.03700	107960
32.04512	103646
32.05325	92085
32.06137	91290
32.06950	91331
32.07762	81286
32.08573	84386
32.09387	78752
32.10198	77754
32.11012	75512
32.11823	77484
32.12635	69649
32.13448	65715
32.14260	72910
32.15072	58370
32.15885	56946
32.16697	56960
32.17510	53498
32.18322	57258
32.19133	54843
32.19947	55416
32.20758	51373
32.21572	48233
32.22383	52988
32.23195	48741
32.24008	53447
32.24820	49247
32.25632	52530
32.26445	53324
32.27257	46836
32.28070	49180
32.28882	52448
32.29693	53027
32.30507	47576
32.31318	50326
32.32132	45244
32.32943	46092
32.33755	43977
32.34568	48686
32.35380	50654
32.36193	47496
32.37005	47300
32.37817	50604
32.38630	53030
32.39442	47019
32.40253	47804
32.41067	47401
32.41878	43820
32.42692	44710
32.43503	46567
32.44315	47583
32.45128	47200
32.45940	48858
32.46753	45871
32.47565	42063
32.48377	45163
32.49190	44758
32.50002	45156
32.50815	43102
32.51627	47015
32.52438	42841
32.53252	45281
32.54063	42915
32.54875	41938
32.55688	43006
32.56500	44678
32.57313	44922
32.58125	40887
32.58937	44286
32.59750	44093
32.60562	40007
32.61375	42105
32.62187	40419
32.62998	47177
32.63812	38785
32.64623	42207
32.65435	43898
32.66248	47661
32.67060	48332
32.67873	53445
32.68685	61979
32.69497	61407
32.70310	66246
32.71122	57846
32.71935	57766
32.72747	51152
32.73558	47921
32.74372	48090
32.75183	47373
32.75997	45027
32.76808	46644
32.77620	43434
32.78433	41592
32.79245	41064
32.80057	45624
32.80870	41834
32.81682	39660
32.82495	44462
32.83307	37223
32.84118	42204
32.84932	49050
32.85743	38681
32.86557	40177
32.87368	43113
32.88180	43842
32.88993	44660
32.89805	44588
32.90618	43720
32.91430	46487
32.92242	44061
32.93055	44739
32.93867	46734
32.94678	47253
32.95492	41193
32.96303	46355
32.97117	39960
32.97928	40110
32.98740	44304
32.99553	41319
33.00365	46194
33.01178	46572
33.01990	47722
33.02802	48289
33.03615	45778
33.04427	44972
33.05238	41301
33.06052	40450
33.06863	46301
33.07677	42991
33.08488	41068
33.09300	46527
33.10113	45751
33.10925	47668
33.11738	49051
33.12550	53624
33.13362	58820
33.14175	56326
33.14987	54427
33.15800	53708
33.16612	48108
33.17423	46047
33.18237	41617
33.19048	41503
33.19860	44983
33.20673	46313
33.21485	47138
33.22298	46791
33.23110	52015
33.23922	49206
33.24735	44254
33.25547	41057
33.26360	44440
33.27172	39580
33.27983	40259
33.28797	43581
33.29608	43865
33.30420	43472
33.31233	40569
33.32045	42797
33.32858	41172
33.33670	40487
33.34482	41780
33.35295	42963
33.36107	39433
33.36920	44093
33.37732	39593
33.38543	40559
33.39357	38005
33.40168	39966
33.40982	39069
33.41793	45153
33.42605	41251
33.43418	39086
33.44230	40640
33.45042	47318
33.45855	45751
33.46667	44733
33.47480	39435
33.48292	41819
33.49103	44889
33.49917	43037
33.50728	44610
33.51542	43988
33.52353	44364
33.53165	40823
33.53978	45628
33.54790	41580
33.55603	44067
33.56415	43797
33.57227	40741
33.58040	41686
33.58852	43281
33.59663	42067
33.60477	40224
33.61288	44864
33.62102	41292
33.62913	38532
33.63725	42641
33.64538	37619
33.65350	40703
33.66163	42201
33.66975	45630
33.67787	47976
33.68600	43050
33.69412	48031
33.70223	44815
33.71037	43849
33.71848	40000
33.72662	42281
33.73473	41115
33.74285	41275
33.75098	40975
33.75910	42882
33.76723	40464
33.77535	40854
33.78347	39839
33.79160	41942
33.79972	41411
33.80785	40700
33.81597	39939
33.82408	44808
33.83222	39161
33.84033	44081
33.84845	43228
33.85658	45650
33.86470	43558
33.87283	42608
33.88095	44645
33.88907	46288
33.89720	46227
33.90532	47017
33.91345	46517
33.92157	41921
33.92968	42296
33.93782	40343
33.94593	43625
33.95407	43655
33.96218	44719
33.97030	40778
33.97843	42220
33.98655	43043
33.99467	39338
34.00280	41978
34.01092	43689
34.01905	43183
34.02717	46249
34.03528	42098
34.04342	41272
34.05153	41583
34.05967	41249
34.06778	41047
34.07590	41252
34.08403	43679
34.09215	42991
34.10027	45262
34.10840	40459
34.11652	41244
34.12465	42331
34.13277	43136
34.14088	41104
34.14902	43314
34.15713	43210
34.16527	45823
34.17338	44314
34.18150	43892
34.18963	44086
34.19775	39811
34.20588	44535
34.21400	43716
34.22212	38610
34.23025	43064
34.23837	39145
34.24648	43805
34.25462	42523
34.26273	45726
34.27087	43248
34.27898	46254
34.28710	47202
34.29523	48687
34.30335	42681
34.31148	45873
34.31960	49764
34.32772	44416
34.33585	44842
34.34397	45975
34.35208	43419
34.36022	43373
34.36833	44717
34.37647	45488
34.38458	45938
34.39270	42592
34.40083	44751
34.40895	44887
34.41708	41310
34.42520	43935
34.43332	43702
34.44145	43082
34.44957	45008
34.45770	44033
34.46582	39496
34.47393	39960
34.48207	41796
34.49018	41908
34.49830	47337
34.50643	48883
34.51455	48467
34.52268	57412
34.53080	54499
34.53892	62966
34.54705	74945
34.55517	93663
34.56330	101592
34.57142	101644
34.57953	107921
34.58767	106591
34.59578	97669
34.60392	92697
34.61203	77339
34.62015	78135
34.62828	68372
34.63640	64592
34.64452	66635
34.65265	64884
34.66077	58923
34.66890	59234
34.67702	62561
34.68513	54867
34.69327	57744
34.70138	54779
34.70952	54859
34.71763	57722
34.72575	51640
34.73388	52761
34.74200	55713
34.75013	53721
34.75825	53917
34.76637	53235
34.77450	52618
34.78262	55489
34.79073	49351
34.79887	53960
34.80698	50382
34.81512	47661
34.82323	49853
34.83135	46113
34.83948	43993
34.84760	51066
34.85573	47876
34.86385	43242
34.87197	48639
34.88010	49954
34.88822	44543
34.89633	50913
34.90447	51924
34.91258	52736
34.92072	49327
34.92883	49540
34.93695	52488
34.94508	51642
34.95320	53218
34.96133	58158
34.96945	60785
34.97757	68514
34.98570	68468
34.99382	69624
35.00195	69648
35.01007	69426
35.01818	60541
35.02632	58662
35.03443	55145
35.04255	51360
35.05068	53953
35.05880	56703
35.06693	54818
35.07505	54087
35.08317	51803
35.09130	51742
35.09942	55277
35.10755	53834
35.11567	50227
35.12378	54600
35.13192	47038
35.14003	49043
35.14815	58146
35.15628	54171
35.16440	50337
35.17253	51092
35.18065	65347
35.18877	55095
35.19690	56613
35.20502	53652
35.21315	54557
35.22127	47747
35.22938	48387
35.23752	47923
35.24563	52348
35.25377	46927
35.26188	50144
35.27000	48168
35.27813	49650
35.28625	54816
35.29437	52523
35.30250	51848
35.31062	50305
35.31875	49324
35.32687	45641
35.33498	45954
35.34312	45893
35.35123	45477
35.35937	43413
35.36748	44398
35.37560	48473
35.38373	47653
35.39185	48107
35.39997	46738
35.40810	48674
35.41622	46546
35.42435	47190
35.43247	47463
35.44058	46416
35.44872	48345
35.45683	52722
35.46497	53385
35.47308	51239
35.48120	53434
35.48933	53328
35.49745	55320
35.50558	52958
35.51370	53918
35.52182	51681
35.52995	49846
35.53807	51862
35.54618	50625
35.55432	46732
35.56243	52156
35.57057	49112
35.57868	51912
35.58680	49189
35.59493	51290
35.60305	49111
35.61118	47543
35.61930	47106
35.62742	47383
35.63555	46244
35.64367	48098
35.65180	46287
35.65992	44671
35.66803	50541
35.67617	48082
35.68428	49761
35.69240	57526
35.70053	54131
35.70865	54656
35.71678	60052
35.72490	55659
35.73302	49288
35.74115	53326
35.74927	49495
35.75740	51776
35.76552	53700
35.77363	52576
35.78177	52695
35.78988	53293
35.79802	54196
35.80613	51318
35.81425	54961
35.82238	47485
35.83050	49947
35.83862	55672
35.84675	49096
35.85487	47936
35.86300	49742
35.87112	54306
35.87923	50213
35.88737	50568
35.89548	55721
35.90362	50739
35.91173	52840
35.91985	47253
35.92798	49112
35.93610	46641
35.94422	50310
35.95235	48354
35.96047	51553
35.96860	54677
35.97672	44131
35.98483	46246
35.99297	51135
36.00108	48685
36.00922	53367
36.01733	51140
36.02545	48766
36.03358	62114
36.04170	55355
36.04983	53996
36.05795	54044
36.06607	50866
36.07420	57988
36.08232	48917
36.09043	50618
36.09857	55452
36.10668	53288
36.11482	49174
36.12293	53985
36.13105	52283
36.13918	48526
36.14730	50586
36.15543	50797
36.16355	53790
36.17167	52223
36.17980	50991
36.18792	48711
36.19603	51669
36.20417	49964
36.21228	50311
36.22042	52668
36.22853	50972
36.23665	52750
36.24478	49500
36.25290	47824
36.26103	49082
36.26915	50683
36.27727	47077
36.28540	48394
36.29352	45984
36.30165	52366
36.30977	59394
36.31788	55206
36.32602	59664
36.33413	63499
36.34225	68175
36.35038	65363
36.35850	62693
36.36663	63368
36.37475	53087
36.38287	54517
36.39100	53233
36.39912	53181
36.40725	54008
36.41537	56312
36.42348	55452
36.43162	50833
36.43973	54988
36.44787	49425
36.45598	55250
36.46410	50555
36.47223	51279
36.48035	55781
36.48847	51855
36.49660	48086
36.50472	49089
36.51285	53672
36.52097	48281
36.52908	49980
36.53722	51033
36.54533	51713
36.55347	50527
36.56158	49703
36.56970	51698
36.57783	52028
36.58595	48419
36.59407	50513
36.60220	52774
36.61032	50274
36.61845	56024
36.62657	50328
36.63468	52112
36.64282	54685
36.65093	50968
36.65907	53519
36.66718	53871
36.67530	53834
36.68343	51882
36.69155	48875
36.69968	55098
36.70780	54770
36.71592	50725
36.72405	52215
36.73217	56297
36.74028	54625
36.74842	56013
36.75653	49046
36.76467	47756
36.77278	49211
36.78090	52866
36.78903	52082
36.79715	53510
36.80528	54121
36.81340	58500
36.82152	53139
36.82965	53827
36.83777	50781
36.84590	52754
36.85402	52104
36.86213	49910
36.87027	53563
36.87838	50115
36.88650	53612
36.89463	54166
36.90275	54686
36.91088	51318
36.91900	49641
36.92712	56829
36.93525	51132
36.94337	57334
36.95150	53112
36.95962	53349
36.96773	56536
36.97587	51623
36.98398	51983
36.99210	52378
37.00023	53986
37.00835	52194
37.01648	59178
37.02460	56754
37.03272	60503
37.04085	50546
37.04897	52590
37.05710	53566
37.06522	55834
37.07333	54081
37.08147	53979
37.08958	53719
37.09772	59337
37.10583	57707
37.11395	55575
37.12208	56906
37.13020	57059
37.13832	51469
37.14645	51323
37.15457	50499
37.16270	53412
37.17082	57869
37.17893	54865
37.18707	54751
37.19518	59007
37.20332	55940
37.21143	55737
37.21955	58580
37.22768	57568
37.23580	57230
37.24392	52034
37.25205	55550
37.26017	52338
37.26830	56908
37.27642	54511
37.28453	59892
37.29267	55101
37.30078	59935
37.30892	55013
37.31703	61640
37.32515	58815
37.33328	56627
37.34140	63115
37.34953	69424
37.35765	73935
37.36577	85736
37.37390	92821
37.38202	89530
37.39013	95245
37.39827	86005
37.40638	83598
37.41452	80928
37.42263	73177
37.43075	68937
37.43888	69005
37.44700	70990
37.45513	66306
37.46325	70519
37.47137	58267
37.47950	65065
37.48762	61434
