C:\MassHunter\GCMS\1\data\JTB-E18\BACandBLUE_bioassay\JTB-E18-41-05.D Tue Dec 03 13:48:14 2019
Start of data points
2.09527,62655
2.10340,67484
2.11152,76343
2.11963,86058
2.12777,92611
2.13588,113484
2.14402,121643
2.15213,142731
2.16025,144454
2.16838,153089
2.17650,153050
2.18462,155832
2.19275,145861
2.20087,140703
2.20900,138887
2.21712,131385
2.22523,126122
2.23337,116316
2.24148,113526
2.24962,110459
2.25773,108565
2.26585,261900
2.27398,1447573
2.28210,2247140
2.29023,1102340
2.29835,620201
2.30647,493917
2.31460,433503
2.32272,383714
2.33083,347749
2.33897,341294
2.34708,289126
2.35522,265397
2.36333,243637
2.37145,227371
2.37958,228725
2.38770,225107
2.39583,205030
2.40395,195025
2.41207,192269
2.42020,194723
2.42832,190321
2.43645,176022
2.44457,180981
2.45268,173866
2.46082,165435
2.46893,157123
2.47705,151974
2.48518,150343
2.49330,163052
2.50143,156471
2.50955,152820
2.51767,146195
2.52580,140517
2.53392,138951
2.54205,139283
2.55017,165857
2.55828,249707
2.56642,229393
2.57453,170499
2.58265,146904
2.59078,144514
2.59890,151728
2.60703,289965
2.61515,402284
2.62327,295978
2.63140,206492
2.63952,180202
2.64765,157601
2.65577,150503
2.66388,144003
2.67202,140783
2.68013,146503
2.68827,135373
2.69638,132177
2.70450,124642
2.71263,138209
2.72075,148934
2.72887,137465
2.73700,131447
2.74512,132925
2.75325,133994
2.76137,125741
2.76948,128974
2.77762,196497
2.78573,330763
2.79387,298904
2.80198,206761
2.81010,193901
2.81823,238615
2.82635,300129
2.83447,363392
2.84260,292347
2.85072,210853
2.85885,188831
2.86697,170307
2.87508,163836
2.88322,146037
2.89133,144579
2.89947,136219
2.90758,130882
2.91570,132027
2.92383,123462
2.93195,123257
2.94008,118616
2.94820,121307
2.95632,122072
2.96445,116882
2.97257,119282
2.98068,118138
2.98882,143188
2.99693,176994
3.00507,174520
3.01318,149699
3.02130,147775
3.02943,191357
3.03755,228787
3.04568,354522
3.05380,875811
3.06192,1433733
3.07005,1194164
3.07817,850543
3.08630,1218673
3.09442,1885330
3.10253,2469694
3.11067,2767308
3.11878,1919047
3.12690,1136667
3.13503,815296
3.14315,634679
3.15128,502158
3.15940,454744
3.16752,473839
3.17565,509642
3.18377,731759
3.19190,1247928
3.20002,1220876
3.20813,827249
3.21627,622157
3.22438,505535
3.23250,430771
3.24063,363702
3.24875,322345
3.25688,288054
3.26500,267473
3.27312,276828
3.28125,464596
3.28937,1296349
3.29750,2952187
3.30562,4123689
3.31373,3954127
3.32187,3132650
3.32998,2508038
3.33812,2169989
3.34623,1881736
3.35435,1712063
3.36248,1554245
3.37060,1493068
3.37872,1439546
3.38685,1354830
3.39497,1265949
3.40310,1373331
3.41122,1662143
3.41933,1720692
3.42747,1462669
3.43558,1223428
3.44372,1083400
3.45183,986800
3.45995,946954
3.46808,908523
3.47620,890386
3.48433,838376
3.49245,814001
3.50057,784741
3.50870,769129
3.51682,776600
3.52493,781425
3.53307,782187
3.54118,748562
3.54932,711822
3.55743,701025
3.56555,702032
3.57368,715035
3.58180,703536
3.58993,660013
3.59805,640267
3.60617,627119
3.61430,660224
3.62242,822926
3.63053,1080091
3.63867,1119609
3.64678,953972
3.65492,986722
3.66303,2230444
3.67115,5789739
3.67928,8561366
3.68740,7328134
3.69553,4878943
3.70365,3557314
3.71177,2835390
3.71990,2332532
3.72802,2014823
3.73615,1755368
3.74427,1574654
3.75238,1410941
3.76052,1290551
3.76863,1194996
3.77675,1098282
3.78488,1021530
3.79300,1011046
3.80113,1174181
3.80925,1500751
3.81737,1650853
3.82550,1435712
3.83362,1179378
3.84175,1029285
3.84987,930203
3.85798,860077
3.86612,796349
3.87423,766330
3.88237,732340
3.89048,694360
3.89860,673736
3.90673,680054
3.91485,736230
3.92297,815273
3.93110,811118
3.93922,820921
3.94735,1060648
3.95547,1709372
3.96358,2296931
3.97172,2095298
3.97983,1514388
3.98797,1218082
3.99608,1512331
4.00420,2479714
4.01233,3163170
4.02045,2712768
4.02857,1855638
4.03670,1260999
4.04482,980716
4.05295,801682
4.06107,718496
4.06918,653118
4.07732,599683
4.08543,570006
4.09357,546336
4.10168,523811
4.10980,499611
4.11793,513816
4.12605,670946
4.13418,1298173
4.14230,2347972
4.15042,2795306
4.15855,2182607
4.16667,1409094
4.17478,980098
4.18292,775465
4.19103,673623
4.19917,871077
4.20728,2408289
4.21540,6762325
4.22353,1.228399E+07
4.23165,1.467728E+07
4.23978,1.178062E+07
4.24790,6705996
4.25602,4010683
4.26415,2721228
4.27227,2076951
4.28038,1635664
4.28852,1359431
4.29663,1169417
4.30477,1023081
4.31288,912166
4.32100,834607
4.32913,769901
4.33725,734676
4.34538,705347
4.35350,709257
4.36162,704986
4.36975,685146
4.37787,628864
4.38600,602591
4.39412,555668
4.40223,536318
4.41037,516838
4.41848,509710
4.42660,488305
4.43473,478229
4.44285,473296
4.45098,462475
4.45910,456734
4.46722,445016
4.47535,443430
4.48347,439184
4.49160,436893
4.49972,420151
4.50783,411786
4.51597,403955
4.52408,392185
4.53222,406358
4.54033,403247
4.54845,397972
4.55658,389098
4.56470,387984
4.57282,371071
4.58095,355598
4.58907,359624
4.59720,348805
4.60532,357888
4.61343,381124
4.62157,447051
4.62968,569243
4.63782,644757
4.64593,618480
4.65405,534934
4.66218,463722
4.67030,438815
4.67842,421443
4.68655,395657
4.69467,378322
4.70280,365835
4.71092,344630
4.71903,343330
4.72717,338475
4.73528,329346
4.74342,317723
4.75153,329324
4.75965,309204
4.76778,314388
4.77590,318781
4.78403,340107
4.79215,372052
4.80027,428541
4.80840,433945
4.81652,412811
4.82463,390891
4.83277,380596
4.84088,392461
4.84902,374305
4.85713,354551
4.86525,336698
4.87338,322965
4.88150,318069
4.88963,312872
4.89775,310807
4.90587,339946
4.91400,470979
4.92212,784935
4.93025,1290698
4.93837,1771536
4.94648,2006881
4.95462,1987598
4.96273,1812541
4.97085,1601399
4.97898,1477749
4.98710,1347965
4.99523,1245088
5.00335,1183248
5.01147,1122664
5.01960,1100746
5.02772,1103291
5.03585,1124659
5.04397,1109030
5.05208,1043795
5.06022,981768
5.06833,938864
5.07645,896330
5.08458,871613
5.09270,848366
5.10083,863451
5.10895,893906
5.11707,886667
5.12520,878539
5.13332,824621
5.14145,784583
5.14957,801154
5.15768,829820
5.16582,866357
5.17393,864907
5.18207,866049
5.19018,872247
5.19830,825400
5.20643,801170
5.21455,765930
5.22267,727857
5.23080,709375
5.23892,689828
5.24705,665911
5.25517,626794
5.26328,611619
5.27142,602315
5.27953,578584
5.28767,581829
5.29578,567714
5.30390,546602
5.31203,543230
5.32015,548697
5.32827,550303
5.33640,551988
5.34452,539509
5.35265,530192
5.36077,513775
5.36888,520401
5.37702,515228
5.38513,522719
5.39327,529595
5.40138,526587
5.40950,503715
5.41763,496583
5.42575,481973
5.43388,487723
5.44200,489223
5.45012,478341
5.45825,493077
5.46637,478233
5.47448,455573
5.48262,451772
5.49073,442638
5.49887,448863
5.50698,441955
5.51510,441652
5.52323,436630
5.53135,420310
5.53948,432575
5.54760,470312
5.55572,531566
5.56385,599494
5.57197,629159
5.58010,619276
5.58822,584229
5.59633,515260
5.60447,492102
5.61258,452284
5.62070,447193
5.62883,431528
5.63695,430345
5.64508,417396
5.65320,412721
5.66132,407971
5.66945,430420
5.67757,432666
5.68570,445102
5.69382,439079
5.70193,442554
5.71007,439077
5.71818,447302
5.72632,441538
5.73443,448219
5.74255,430493
5.75068,434182
5.75880,448390
5.76692,451693
5.77505,457701
5.78317,431851
5.79130,436909
5.79942,501532
5.80753,678549
5.81567,980241
5.82378,1248492
5.83192,1356094
5.84003,1213617
5.84815,969481
5.85628,733982
5.86440,603637
5.87252,517331
5.88065,480995
5.88877,457482
5.89690,457907
5.90502,508551
5.91313,588931
5.92127,692045
5.92938,775029
5.93752,720851
5.94563,636442
5.95375,580125
5.96188,631674
5.97000,806358
5.97813,953291
5.98625,949111
5.99437,794697
6.00250,655019
6.01062,541992
6.01873,472286
6.02687,435508
6.03498,412033
6.04312,387818
6.05123,372117
6.05935,355285
6.06748,345743
6.07560,343872
6.08373,335538
6.09185,330430
6.09997,327848
6.10810,332889
6.11622,348181
6.12433,398373
6.13247,451026
6.14058,485797
6.14872,486066
6.15683,431942
6.16495,393574
6.17308,366007
6.18120,358280
6.18933,346868
6.19745,342167
6.20557,325800
6.21370,313294
6.22182,302872
6.22995,296448
6.23807,294735
6.24618,295831
6.25432,301302
6.26243,285423
6.27055,277722
6.27868,265744
6.28680,267563
6.29493,258699
6.30305,261698
6.31117,274274
6.31930,303192
6.32742,319146
6.33555,322276
6.34367,322950
6.35178,296184
6.35992,275352
6.36803,267056
6.37617,259326
6.38428,260274
6.39240,252521
6.40053,246492
6.40865,244416
6.41677,236819
6.42490,241941
6.43302,242758
6.44115,241839
6.44927,245457
6.45738,239283
6.46552,257168
6.47363,256786
6.48177,255294
6.48988,245836
6.49800,252160
6.50613,254505
6.51425,241485
6.52237,246488
6.53050,248139
6.53862,253887
6.54675,255487
6.55487,269258
6.56298,313111
6.57112,336809
6.57923,341361
6.58737,322983
6.59548,281657
6.60360,265559
6.61173,255362
6.61985,246488
6.62798,254225
6.63610,309215
6.64422,529077
6.65235,988958
6.66047,1486527
6.66858,1668532
6.67672,1470283
6.68483,1124886
6.69297,859178
6.70108,657323
6.70920,508482
6.71733,413547
6.72545,363216
6.73358,335978
6.74170,362228
6.74982,349176
6.75795,333615
6.76607,368697
6.77420,469325
6.78232,700472
6.79043,1029155
6.79857,1278466
6.80668,1292540
6.81480,1061913
6.82293,777855
6.83105,528729
6.83918,393041
6.84730,308871
6.85542,250258
6.86355,214259
6.87167,195841
6.87980,184218
6.88792,170675
6.89603,162958
6.90417,165658
6.91228,194734
6.92040,251823
6.92853,362664
6.93665,476066
6.94478,555565
6.95290,537655
6.96102,458878
6.96915,365655
6.97727,283117
6.98540,214686
6.99352,177827
7.00163,157829
7.00977,152571
7.01788,153658
7.02602,158526
7.03413,158963
7.04225,162411
7.05038,161061
7.05850,154650
7.06662,149971
7.07475,142380
7.08287,134186
7.09100,130040
7.09912,126987
7.10723,123056
7.11537,123314
7.12348,129195
7.13162,133652
7.13973,156051
7.14785,175980
7.15598,211958
7.16410,226601
7.17222,255616
7.18035,259476
7.18847,286095
7.19660,318410
7.20472,458630
7.21283,823524
7.22097,1277501
7.22908,1541927
7.23722,1347091
7.24533,927499
7.25345,607074
7.26158,401905
7.26970,288750
7.27783,247491
7.28595,234641
7.29407,261772
7.30220,318250
7.31032,372276
7.31843,394639
7.32657,363205
7.33468,314737
7.34282,253657
7.35093,205563
7.35905,176546
7.36718,164531
7.37530,153839
7.38343,155225
7.39155,170078
7.39967,195496
7.40780,236133
7.41592,263446
7.42405,289723
7.43217,273545
7.44028,242397
7.44842,204371
7.45653,172488
7.46465,149971
7.47278,139069
7.48090,132412
7.48903,130994
7.49715,142566
7.50527,183455
7.51340,249866
7.52152,374355
7.52965,540231
7.53777,707164
7.54588,772171
7.55402,745512
7.56213,617155
7.57025,461573
7.57838,325542
7.58650,241297
7.59463,186555
7.60275,161382
7.61087,155133
7.61900,144701
7.62712,143096
7.63525,132503
7.64337,124545
7.65148,123510
7.65962,121402
7.66773,122563
7.67587,118397
7.68398,119811
7.69210,115669
7.70023,120715
7.70835,117186
7.71647,122885
7.72460,114748
7.73272,118000
7.74085,115933
7.74897,112650
7.75708,114110
7.76522,117856
7.77333,117264
7.78147,120140
7.78958,126164
7.79770,135273
7.80583,142720
7.81395,132524
7.82208,120578
7.83020,122017
7.83832,114794
7.84645,115742
7.85457,123970
7.86268,129994
7.87082,133953
7.87893,132329
7.88707,133637
7.89518,117946
7.90330,117072
7.91143,116385
7.91955,121337
7.92768,136608
7.93580,142171
7.94392,139875
7.95205,129932
7.96017,121028
7.96828,112178
7.97642,103698
7.98453,99750
7.99267,95836
8.00078,92088
8.00890,97092
8.01703,97749
8.02515,98221
8.03328,98953
8.04140,100942
8.04952,100505
8.05765,100014
8.06577,97469
8.07390,94044
8.08202,96407
8.09013,88971
8.09827,85769
8.10638,87387
8.11450,92022
8.12263,98834
8.13075,105654
8.13888,110460
8.14700,106998
8.15512,103654
8.16325,95507
8.17137,91989
8.17950,91880
8.18762,89378
8.19573,88685
8.20387,95377
8.21198,94724
8.22012,94638
8.22823,90484
8.23635,83950
8.24448,84158
8.25260,82754
8.26072,82748
8.26885,80041
8.27697,82166
8.28510,82553
8.29322,89283
8.30133,88245
8.30947,91423
8.31758,91999
8.32572,99635
8.33383,84926
8.34195,80827
8.35008,81565
8.35820,77748
8.36632,80391
8.37445,79481
8.38257,81925
8.39070,82371
8.39882,79581
8.40693,76205
8.41507,68452
8.42318,75935
8.43132,75074
8.43943,73846
8.44755,77006
8.45568,75370
8.46380,78727
8.47193,78431
8.48005,80307
8.48817,80838
8.49630,80645
8.50442,86689
8.51253,102581
8.52067,148925
8.52878,210890
8.53692,269576
8.54503,273769
8.55315,227029
8.56128,168320
8.56940,124950
8.57753,99542
8.58565,95327
8.59377,87051
8.60190,88214
8.61002,84764
8.61813,86587
8.62627,85713
8.63438,80559
8.64252,83697
8.65063,74780
8.65875,79742
8.66688,77223
8.67500,79423
8.68313,81909
8.69125,102408
8.69937,175787
8.70750,332294
8.71562,632918
8.72375,965000
8.73187,1207965
8.73998,1231802
8.74812,1055176
8.75623,845477
8.76435,654887
8.77248,534878
8.78060,468804
8.78873,421627
8.79685,437865
8.80497,458474
8.81310,482523
8.82122,490454
8.82935,487766
8.83747,452347
8.84558,439513
8.85372,424542
8.86183,405788
8.86997,397427
8.87808,386677
8.88620,368288
8.89433,361924
8.90245,360525
8.91057,349636
8.91870,339539
8.92682,342806
8.93495,349523
8.94307,341535
8.95118,340031
8.95932,321546
8.96743,318030
8.97557,308973
8.98368,311136
8.99180,295802
8.99993,286676
9.00805,278214
9.01617,276116
9.02430,272475
9.03242,264032
9.04055,261333
9.04867,259983
9.05678,243526
9.06492,245791
9.07303,243934
9.08117,235906
9.08928,250098
9.09740,258781
9.10553,272794
9.11365,260712
9.12178,259156
9.12990,237791
9.13802,224846
9.14615,211875
9.15427,211499
9.16238,204002
9.17052,205508
9.17863,199721
9.18677,192653
9.19488,193770
9.20300,189505
9.21113,195253
9.21925,188951
9.22738,189406
9.23550,189604
9.24362,181646
9.25175,181970
9.25987,187651
9.26800,180882
9.27612,175697
9.28423,176472
9.29237,177700
9.30048,173273
9.30860,168790
9.31673,169063
9.32485,168113
9.33298,172896
9.34110,167501
9.34922,164444
9.35735,161416
9.36547,158447
9.37360,160309
9.38172,168526
9.38983,172608
9.39797,176053
9.40608,209183
9.41420,225917
9.42233,235954
9.43045,238084
9.43858,217558
9.44670,195647
9.45482,184800
9.46295,166800
9.47107,149310
9.47920,151429
9.48732,149499
9.49543,155169
9.50357,143193
9.51168,135968
9.51982,118632
9.52793,98279
9.53605,83560
9.54418,76553
9.55230,71833
9.56042,67834
9.56855,64342
9.57667,64820
9.58480,66069
9.59292,64857
9.60103,66248
9.60917,63292
9.61728,62975
9.62542,60195
9.63353,60056
9.64165,63945
9.64978,60472
9.65790,61930
9.66602,60885
9.67415,60175
9.68227,57842
9.69040,59594
9.69852,56045
9.70663,56104
9.71477,54362
9.72288,57172
9.73102,55865
9.73913,53032
9.74725,56484
9.75538,54875
9.76350,54358
9.77163,53062
9.77975,53254
9.78787,54332
9.79600,52067
9.80412,51345
9.81223,53451
9.82037,56377
9.82848,59343
9.83662,62261
9.84473,78486
9.85285,85478
9.86098,91606
9.86910,78143
9.87723,73785
9.88535,64506
9.89347,61459
9.90160,72032
9.90972,73390
9.91785,81318
9.92597,100105
9.93408,126254
9.94222,142470
9.95033,155496
9.95845,141556
9.96658,124813
9.97470,109038
9.98283,94662
9.99095,84347
9.99907,75497
10.00720,68107
10.01532,69655
10.02345,69139
10.03157,72390
10.03968,68274
10.04782,71626
10.05593,70741
10.06405,72362
10.07218,72035
10.08030,68664
10.08843,69084
10.09655,68851
10.10467,66732
10.11280,65858
10.12092,63579
10.12905,65276
10.13717,59294
10.14528,65312
10.15342,61814
10.16153,65799
10.16967,61655
10.17778,62483
10.18590,60152
10.19403,59448
10.20215,63683
10.21027,66298
10.21840,70794
10.22652,78844
10.23465,87652
10.24277,119556
10.25088,182768
10.25902,383682
10.26713,743829
10.27527,1195613
10.28338,1781600
10.29150,2495187
10.29963,3550244
10.30775,5072794
10.31588,6301212
10.32400,6465878
10.33212,5407944
10.34025,3873937
10.34837,2597247
10.35648,1756420
10.36462,1222648
10.37273,892923
10.38087,622208
10.38898,434691
10.39710,336756
10.40523,270957
10.41335,252620
10.42148,233457
10.42960,247318
10.43772,248267
10.44585,236079
10.45397,233224
10.46208,221531
10.47022,219533
10.47833,204138
10.48647,209487
10.49458,202921
10.50270,186663
10.51083,172747
10.51895,162558
10.52708,151305
10.53520,142418
10.54332,138805
10.55145,135319
10.55957,130164
10.56770,128338
10.57582,123455
10.58393,125940
10.59207,129416
10.60018,125803
10.60830,131119
10.61643,115947
10.62455,125625
10.63268,116145
10.64080,113818
10.64892,120034
10.65705,123543
10.66517,126582
10.67330,130925
10.68142,133447
10.68953,133290
10.69767,123755
10.70578,116523
10.71390,110208
10.72203,101650
10.73015,96615
10.73828,90329
10.74640,95628
10.75452,92472
10.76265,90445
10.77077,95430
10.77890,96032
10.78702,98654
10.79513,102064
10.80327,103383
10.81138,97715
10.81952,90167
10.82763,88392
10.83575,86122
10.84388,83449
10.85200,81299
10.86012,84413
10.86825,80580
10.87637,82848
10.88450,80229
10.89262,83315
10.90073,87688
10.90887,83082
10.91698,80107
10.92512,78717
10.93323,85863
10.94135,77382
10.94948,86403
10.95760,81669
10.96573,87241
10.97385,85384
10.98197,82803
10.99010,87648
10.99822,77520
11.00633,81256
11.01447,79885
11.02258,78742
11.03072,78179
11.03883,78200
11.04695,77048
11.05508,76804
11.06320,88625
11.07133,91234
11.07945,99952
11.08757,109994
11.09570,114879
11.10382,114860
11.11195,100804
11.12007,87895
11.12818,78403
11.13632,70990
11.14443,69323
11.15255,72856
11.16068,79974
11.16880,80756
11.17693,85960
11.18505,84850
11.19317,83102
11.20130,78236
11.20942,73976
11.21755,72125
11.22567,78301
11.23378,103773
11.24192,163259
11.25003,258691
11.25815,370770
11.26628,459477
11.27440,513064
11.28253,492667
11.29065,480849
11.29877,534575
11.30690,698958
11.31502,881380
11.32315,1021925
11.33127,1020951
11.33938,902453
11.34752,672371
11.35563,487196
11.36377,350665
11.37188,278225
11.38000,249428
11.38813,240863
11.39625,224848
11.40437,212498
11.41250,196411
11.42062,179647
11.42875,163057
11.43687,152882
11.44498,144279
11.45312,140985
11.46123,138411
11.46937,147233
11.47748,157023
11.48560,177614
11.49373,195000
11.50185,214315
11.50997,216976
11.51810,216021
11.52622,207428
11.53435,183060
11.54247,151570
11.55058,131234
11.55872,114595
11.56683,103315
11.57497,103741
11.58308,113471
11.59120,131212
11.59933,144960
11.60745,154228
11.61558,140600
11.62370,127326
11.63182,116151
11.63995,108236
11.64807,103606
11.65618,108429
11.66432,115764
11.67243,118368
11.68057,130099
11.68868,153773
11.69680,177342
11.70493,194294
11.71305,190903
11.72118,183915
11.72930,158519
11.73742,134221
11.74555,113332
11.75367,104954
11.76180,96702
11.76992,92877
11.77803,96423
11.78617,92560
11.79428,90028
11.80240,87685
11.81053,86943
11.81865,85396
11.82678,80259
11.83490,85107
11.84302,78263
11.85115,74693
11.85927,75972
11.86740,73728
11.87552,81074
11.88363,89142
11.89177,112084
11.89988,139575
11.90800,173730
11.91613,190140
11.92425,190639
11.93238,166346
11.94050,133411
11.94862,103004
11.95675,84002
11.96487,78874
11.97300,82239
11.98112,89097
11.98923,94845
11.99737,96127
12.00548,95368
12.01362,87808
12.02173,80013
12.02985,80009
12.03798,73791
12.04610,76252
12.05422,75329
12.06235,76523
12.07047,79544
12.07860,76995
12.08672,77181
12.09483,78339
12.10297,82586
12.11108,86029
12.11922,90525
12.12733,83215
12.13545,82407
12.14358,74470
12.15170,68928
12.15983,65698
12.16795,62641
12.17607,58399
12.18420,62943
12.19232,63927
12.20043,56837
12.20857,61257
12.21668,61114
12.22482,65283
12.23293,64583
12.24105,66227
12.24918,75131
12.25730,93177
12.26543,98526
12.27355,116866
12.28167,109942
12.28980,101670
12.29792,81111
12.30603,75679
12.31417,59022
12.32228,59348
12.33042,61102
12.33853,56852
12.34665,60129
12.35478,61470
12.36290,57801
12.37103,63634
12.37915,78318
12.38727,111419
12.39540,149064
12.40352,176265
12.41165,181235
12.41977,160518
12.42788,135333
12.43602,108504
12.44413,90412
12.45225,75559
12.46038,74917
12.46850,71555
12.47663,72023
12.48475,65682
12.49287,63845
12.50100,59130
12.50912,61762
12.51725,64163
12.52537,63026
12.53348,74515
12.54162,78008
12.54973,87441
12.55785,83187
12.56598,73429
12.57410,72522
12.58223,65187
12.59035,59143
12.59847,59578
12.60660,58872
12.61472,58470
12.62285,53375
12.63097,49570
12.63908,53515
12.64722,53399
12.65533,48580
12.66347,45197
12.67158,50550
12.67970,48389
12.68783,46038
12.69595,45622
12.70407,50847
12.71220,49884
12.72032,53676
12.72845,53734
12.73657,56969
12.74468,58686
12.75282,73770
12.76093,81748
12.76907,92543
12.77718,97981
12.78530,95710
12.79343,88670
12.80155,77505
12.80968,65728
12.81780,59008
12.82592,58644
12.83405,53425
12.84217,59517
12.85028,62636
12.85842,57875
12.86653,57213
12.87467,58476
12.88278,55714
12.89090,55026
12.89903,67885
12.90715,84672
12.91528,126129
12.92340,196178
12.93152,286444
12.93965,371405
12.94777,417243
12.95588,423750
12.96402,377722
12.97213,295711
12.98027,212074
12.98838,160620
12.99650,136346
13.00463,129195
13.01275,135972
13.02088,134240
13.02900,131395
13.03712,118742
13.04525,104124
13.05337,102803
13.06150,90784
13.06962,81541
13.07773,79911
13.08587,76082
13.09398,75939
13.10210,71386
13.11023,75405
13.11835,68812
13.12648,74172
13.13460,76295
13.14272,74173
13.15085,75200
13.15897,71565
13.16710,72000
13.17522,71902
13.18333,76476
13.19147,76612
13.19958,81451
13.20772,88685
13.21583,103246
13.22395,114478
13.23208,134021
13.24020,150146
13.24832,162107
13.25645,149090
13.26457,138610
13.27270,128214
13.28082,118501
13.28893,128446
13.29707,148451
13.30518,146229
13.31332,148519
13.32143,137649
13.32955,113914
13.33768,100739
13.34580,91643
13.35392,83003
13.36205,81673
13.37017,84238
13.37830,81889
13.38642,84014
13.39453,79484
13.40267,82292
13.41078,71905
13.41892,70645
13.42703,70902
13.43515,68185
13.44328,68264
13.45140,64910
13.45953,64186
13.46765,63603
13.47577,61559
13.48390,66092
13.49202,67725
13.50013,73829
13.50827,78171
13.51638,90328
13.52452,110107
13.53263,122623
13.54075,129832
13.54888,130129
13.55700,127341
13.56513,118473
13.57325,131724
13.58137,145111
13.58950,170918
13.59762,182971
13.60575,203907
13.61387,203988
13.62198,193884
13.63012,164449
13.63823,138269
13.64635,114100
13.65448,102188
13.66260,96764
13.67073,97219
13.67885,98277
13.68697,103426
13.69510,101425
13.70322,98452
13.71135,93070
13.71947,86733
13.72758,87757
13.73572,102762
13.74383,109722
13.75195,129618
13.76008,149761
13.76820,169800
13.77633,173096
13.78445,180137
13.79257,191022
13.80070,214802
13.80882,249266
13.81695,266428
13.82507,247444
13.83318,223701
13.84132,193556
13.84943,160759
13.85757,151027
13.86568,155650
13.87380,159759
13.88193,167545
13.89005,156985
13.89817,156544
13.90630,131385
13.91442,115070
13.92255,103703
13.93067,95675
13.93878,102831
13.94692,99403
13.95503,107371
13.96317,110535
13.97128,103803
13.97940,96166
13.98753,93049
13.99565,87271
14.00377,83611
14.01190,82198
14.02002,75719
14.02815,74249
14.03627,69475
14.04438,72408
14.05252,66427
14.06063,60796
14.06877,59061
14.07688,63771
14.08500,58645
14.09313,69499
14.10125,113296
14.10938,194991
14.11750,349546
14.12562,569374
14.13375,762624
14.14187,848486
14.14998,872925
14.15812,756960
14.16623,630146
14.17437,545385
14.18248,462556
14.19060,404776
14.19873,373853
14.20685,340241
14.21498,315144
14.22310,292917
14.23122,270997
14.23935,251406
14.24747,241952
14.25560,228554
14.26372,204364
14.27183,190476
14.27997,164993
14.28808,138075
14.29620,111867
14.30433,89820
14.31245,76049
14.32058,72613
14.32870,68327
14.33682,61264
14.34495,63630
14.35307,61180
14.36120,60581
14.36932,62435
14.37743,60484
14.38557,58272
14.39368,61580
14.40180,66995
14.40993,65771
14.41805,66768
14.42618,62523
14.43430,54921
14.44242,57133
14.45055,55449
14.45867,53897
14.46680,53645
14.47492,55608
14.48303,54211
14.49117,52979
14.49928,54064
14.50742,56789
14.51553,55438
14.52365,54684
14.53178,52058
14.53990,50066
14.54802,51714
14.55615,48162
14.56427,48823
14.57240,48144
14.58052,48391
14.58863,45943
14.59677,44711
14.60488,46160
14.61302,45406
14.62113,50564
14.62925,44388
14.63738,42624
14.64550,43122
14.65363,44009
14.66175,44645
14.66987,41285
14.67800,42749
14.68612,42580
14.69423,44898
14.70237,46686
14.71048,43530
14.71862,51589
14.72673,50017
14.73485,46659
14.74298,49248
14.75110,45865
14.75923,53555
14.76735,64149
14.77547,120986
14.78360,285490
14.79172,594799
14.79983,1067060
14.80797,1551923
14.81608,1764323
14.82422,1666990
14.83233,1312558
14.84045,892084
14.84858,570502
14.85670,372880
14.86483,282859
14.87295,213361
14.88107,184404
14.88920,157156
14.89732,146532
14.90545,138462
14.91357,119329
14.92168,111036
14.92982,104544
14.93793,98307
14.94605,94717
14.95418,86516
14.96230,88505
14.97043,84702
14.97855,74653
14.98667,80219
14.99480,76810
15.00292,76567
15.01105,74707
15.01917,72928
15.02728,73261
15.03542,71634
15.04353,70507
15.05165,67738
15.05978,67672
15.06790,63242
15.07603,65071
15.08415,63277
15.09227,64362
15.10040,60317
15.10852,66872
15.11665,69585
15.12477,67329
15.13288,71131
15.14102,63676
15.14913,62801
15.15727,59485
15.16538,56776
15.17350,53847
15.18163,56255
15.18975,50545
15.19787,48884
15.20600,50934
15.21412,50516
15.22225,45528
15.23037,48656
15.23848,46470
15.24662,45957
15.25473,47571
15.26287,46802
15.27098,45262
15.27910,50144
15.28723,40351
15.29535,43547
15.30348,40441
15.31160,45021
15.31972,44593
15.32785,41450
15.33597,42780
15.34408,40861
15.35222,41267
15.36033,41360
15.36847,40997
15.37658,42291
15.38470,38520
15.39283,41333
15.40095,40372
15.40908,38656
15.41720,37057
15.42532,43660
15.43345,47068
15.44157,51618
15.44970,65013
15.45782,101606
15.46593,138895
15.47407,182858
15.48218,211106
15.49030,221417
15.49843,207458
15.50655,190644
15.51468,176132
15.52280,169202
15.53092,168502
15.53905,157408
15.54717,134993
15.55530,117166
15.56342,95113
15.57153,80563
15.57967,74139
15.58778,66433
15.59590,68002
15.60403,58472
15.61215,59015
15.62028,55087
15.62840,56427
15.63652,51931
15.64465,48939
15.65277,51830
15.66090,44330
15.66902,45770
15.67713,43091
15.68527,42249
15.69338,43070
15.70152,43179
15.70963,42406
15.71775,45161
15.72588,49839
15.73400,56066
15.74212,71662
15.75025,89216
15.75837,126374
15.76650,148620
15.77462,164850
15.78273,149445
15.79087,126115
15.79898,92512
15.80712,77793
15.81523,65873
15.82335,61173
15.83148,60056
15.83960,52587
15.84772,52089
15.85585,54208
15.86397,51095
15.87210,52467
15.88022,50500
15.88833,50100
15.89647,45591
15.90458,50817
15.91272,44532
15.92083,45002
15.92895,42372
15.93708,45789
15.94520,48097
15.95333,47673
15.96145,50352
15.96957,54268
15.97770,56279
15.98582,58868
15.99393,60934
16.00207,59022
16.01018,56621
16.01832,55877
16.02643,53834
16.03455,47397
16.04268,48835
16.05080,46206
16.05893,44623
16.06705,46620
16.07517,44890
16.08330,45454
16.09142,42396
16.09955,44335
16.10767,47159
16.11578,47595
16.12392,47503
16.13203,46043
16.14015,44606
16.14828,43665
16.15640,45683
16.16453,43667
16.17265,42500
16.18077,40901
16.18890,43286
16.19702,42495
16.20515,41676
16.21327,39263
16.22138,41081
16.22952,44084
16.23763,46411
16.24575,43755
16.25388,44047
16.26200,42088
16.27013,52692
16.27825,52851
16.28637,58968
16.29450,54124
16.30262,50308
16.31075,53604
16.31887,50607
16.32698,56219
16.33512,52850
16.34323,52465
16.35137,52943
16.35948,54767
16.36760,55213
16.37573,52676
16.38385,49754
16.39197,46022
16.40010,44901
16.40822,41674
16.41635,46727
16.42447,55373
16.43258,84147
16.44072,136703
16.44883,219388
16.45697,308731
16.46508,376574
16.47320,359330
16.48133,304677
16.48945,220005
16.49758,152020
16.50570,113405
16.51382,89866
16.52195,81313
16.53007,66387
16.53818,59629
16.54632,57331
16.55443,57399
16.56257,56879
16.57068,60183
16.57880,55498
16.58693,51648
16.59505,53833
16.60318,51923
16.61130,52496
16.61942,49518
16.62755,51114
16.63567,42501
16.64378,44112
16.65192,44598
16.66003,43551
16.66817,40520
16.67628,40901
16.68440,44904
16.69253,41634
16.70065,42366
16.70878,42132
16.71690,40254
16.72502,39179
16.73315,43981
16.74127,42888
16.74940,43059
16.75752,44343
16.76563,44311
16.77377,39297
16.78188,40266
16.79000,39172
16.79813,38496
16.80625,44113
16.81438,42151
16.82250,43105
16.83062,41399
16.83875,45046
16.84687,37015
16.85500,40231
16.86312,39440
16.87123,39577
16.87937,38747
16.88748,39481
16.89560,40901
16.90373,39630
16.91185,40351
16.91998,38697
16.92810,43343
16.93622,39431
16.94435,37951
16.95247,41060
16.96060,38636
16.96872,40329
16.97683,43319
16.98497,41742
16.99308,41987
17.00122,43807
17.00933,43909
17.01745,44226
17.02558,47466
17.03370,43796
17.04182,49791
17.04995,51116
17.05807,63437
17.06620,68449
17.07432,76834
17.08243,90112
17.09057,98169
17.09868,101931
17.10682,95991
17.11493,92886
17.12305,89388
17.13118,79461
17.13930,73788
17.14743,68724
17.15555,60915
17.16367,56761
17.17180,50866
17.17992,49182
17.18803,48396
17.19617,46843
17.20428,43922
17.21242,45594
17.22053,42643
17.22865,44823
17.23678,43569
17.24490,48104
17.25303,44256
17.26115,41564
17.26927,46801
17.27740,42636
17.28552,47203
17.29363,49051
17.30177,49601
17.30988,56816
17.31802,51988
17.32613,58769
17.33425,61098
17.34238,60867
17.35050,65978
17.35863,62341
17.36675,68092
17.37487,70386
17.38300,72095
17.39112,68120
17.39925,67906
17.40737,69308
17.41548,71069
17.42362,66030
17.43173,60872
17.43985,60593
17.44798,57546
17.45610,55040
17.46423,56851
17.47235,57203
17.48047,62859
17.48860,68913
17.49672,86067
17.50485,98103
17.51297,115190
17.52108,127498
17.52922,131263
17.53733,141970
17.54547,145904
17.55358,157248
17.56170,181398
17.56983,223478
17.57795,245649
17.58607,254372
17.59420,247362
17.60232,208355
17.61045,160627
17.61857,126977
17.62668,100015
17.63482,90152
17.64293,83881
17.65107,82113
17.65918,69267
17.66730,73532
17.67543,67350
17.68355,73910
17.69167,69111
17.69980,71303
17.70792,69621
17.71605,61815
17.72417,60753
17.73228,61070
17.74042,60943
17.74853,59161
17.75667,56269
17.76478,54576
17.77290,54820
17.78103,54217
17.78915,57402
17.79728,59632
17.80540,62632
17.81352,71524
17.82165,72178
17.82977,81104
17.83788,83380
17.84602,83306
17.85413,80751
17.86227,72988
17.87038,65651
17.87850,60491
17.88663,54869
17.89475,54132
17.90288,50686
17.91100,45340
17.91912,46640
17.92725,46989
17.93537,43422
17.94348,49356
17.95162,47854
17.95973,44814
17.96787,46040
17.97598,50184
17.98410,50489
17.99223,62302
18.00035,76395
18.00848,92692
18.01660,111410
18.02472,115719
18.03285,116333
18.04097,117992
18.04910,148350
18.05722,216145
18.06533,334607
18.07347,433294
18.08158,501040
18.08970,480292
18.09783,414019
18.10595,319630
18.11408,241865
18.12220,194451
18.13032,167146
18.13845,144453
18.14657,134569
18.15470,113245
18.16282,115693
18.17093,96148
18.17907,94601
18.18718,84570
18.19532,83597
18.20343,79895
18.21155,75446
18.21968,70873
18.22780,73030
18.23592,64376
18.24405,63757
18.25217,69855
18.26030,63144
18.26842,62248
18.27653,54019
18.28467,53742
18.29278,47226
18.30092,45680
18.30903,44849
18.31715,45356
18.32528,44478
18.33340,47073
18.34152,44557
18.34965,46743
18.35777,45723
18.36590,50814
18.37402,52737
18.38213,48926
18.39027,56707
18.39838,71471
18.40652,89534
18.41463,119426
18.42275,153306
18.43088,163697
18.43900,184499
18.44713,193579
18.45525,200642
18.46337,195209
18.47150,199462
18.47962,182330
18.48773,162306
18.49587,152282
18.50398,140405
18.51212,128865
18.52023,130245
18.52835,118382
18.53648,114590
18.54460,122386
18.55273,124551
18.56085,134690
18.56897,132573
18.57710,140728
18.58522,150674
18.59335,147450
18.60147,150321
18.60958,151190
18.61772,138709
18.62583,133171
18.63395,124140
18.64208,122547
18.65020,112186
18.65833,106038
18.66645,107399
18.67457,103283
18.68270,104264
18.69082,106486
18.69895,100874
18.70707,99922
18.71518,97678
18.72332,98474
18.73143,96800
18.73955,105336
18.74768,93654
18.75580,89374
18.76393,94711
18.77205,94315
18.78017,97253
18.78830,101142
18.79642,98610
18.80455,96791
18.81267,93831
18.82078,96541
18.82892,97656
18.83703,104924
18.84517,104983
18.85328,103751
18.86140,111770
18.86953,106481
18.87765,106494
18.88577,111837
18.89390,107707
18.90202,105555
18.91015,108426
18.91827,113220
18.92638,116445
18.93452,111215
18.94263,110294
18.95077,110526
18.95888,106782
18.96700,106341
18.97513,102243
18.98325,103899
18.99138,104395
18.99950,107111
19.00762,99891
19.01575,98399
19.02387,99425
19.03198,92625
19.04012,94545
19.04823,94829
19.05637,89894
19.06448,98475
19.07260,107041
19.08073,117850
19.08885,122485
19.09698,128908
19.10510,131755
19.11322,142756
19.12135,137818
19.12947,148808
19.13758,152980
19.14572,143421
19.15383,140123
19.16197,127502
19.17008,123002
19.17820,107033
19.18633,103585
19.19445,97923
19.20258,94795
19.21070,88840
19.21882,95439
19.22695,87782
19.23507,90824
19.24320,87116
19.25132,87289
19.25943,90372
19.26757,98696
19.27568,101209
19.28380,101806
19.29193,101346
19.30005,100628
19.30818,99784
19.31630,96705
19.32442,94404
19.33255,91868
19.34067,100352
19.34880,107288
19.35692,107723
19.36503,109288
19.37317,109309
19.38128,105608
19.38940,115174
19.39753,144934
19.40565,244244
19.41378,393807
19.42190,575425
19.43002,737688
19.43815,764546
19.44627,653585
19.45440,456788
19.46252,289017
19.47063,189272
19.47877,144058
19.48688,109606
19.49502,102668
19.50313,104924
19.51125,97645
19.51938,99681
19.52750,90997
19.53562,88520
19.54375,81015
19.55187,81406
19.56000,75032
19.56812,71639
19.57623,65846
19.58437,66174
19.59248,69544
19.60062,89193
19.60873,141021
19.61685,223137
19.62498,354876
19.63310,534565
19.64123,666965
19.64935,752957
19.65747,725987
19.66560,655505
19.67372,514411
19.68183,409077
19.68997,324248
19.69808,267178
19.70622,230226
19.71433,194629
19.72245,159761
19.73058,138418
19.73870,122714
19.74683,112803
19.75495,115365
19.76307,107712
19.77120,112064
19.77932,116780
19.78743,110764
19.79557,111613
19.80368,102145
19.81182,99987
19.81993,90680
19.82805,93427
19.83618,102587
19.84430,126705
19.85243,183493
19.86055,275886
19.86867,418143
19.87680,562719
19.88492,657028
19.89305,648510
19.90117,584180
19.90928,470934
19.91742,354445
19.92553,284539
19.93365,226113
19.94178,194116
19.94990,176024
19.95803,169708
19.96615,169142
19.97427,152365
19.98240,149589
19.99052,141602
19.99865,134425
20.00677,131566
20.01488,127829
20.02302,123457
20.03113,125572
20.03927,133865
20.04738,136792
20.05550,149399
20.06363,158750
20.07175,158616
20.07987,148891
20.08800,139333
20.09612,119063
20.10425,109847
20.11237,110941
20.12048,125849
20.12862,173598
20.13673,251627
20.14487,365791
20.15298,501093
20.16110,661609
20.16923,792252
20.17735,831119
20.18547,782127
20.19360,701258
20.20172,579974
20.20985,517544
20.21797,532879
20.22608,651575
20.23422,801917
20.24233,939088
20.25047,1016253
20.25858,984981
20.26670,869225
20.27483,722312
20.28295,544344
20.29108,414775
20.29920,289725
20.30732,211320
20.31545,156666
20.32357,128246
20.33168,105311
20.33982,101291
20.34793,95733
20.35607,85399
20.36418,100363
20.37230,121044
20.38043,150031
20.38855,198290
20.39668,232927
20.40480,253974
20.41292,254027
20.42105,243475
20.42917,214476
20.43728,179129
20.44542,146316
20.45353,122109
20.46167,100409
20.46978,88271
20.47790,75872
20.48603,67906
20.49415,65099
20.50228,65011
20.51040,58219
20.51852,58659
20.52665,53515
20.53477,59254
20.54290,54521
20.55102,55064
20.55913,54194
20.56727,50009
20.57538,49928
20.58350,52304
20.59163,53236
20.59975,51279
20.60788,52615
20.61600,51450
20.62412,56471
20.63225,52944
20.64037,56513
20.64850,50532
20.65662,47234
20.66473,46240
20.67287,50182
20.68098,46217
20.68912,46258
20.69723,43185
20.70535,42604
20.71348,43521
20.72160,46179
20.72972,54091
20.73785,45991
20.74597,51172
20.75410,60562
20.76222,60286
20.77033,77725
20.77847,102334
20.78658,135802
20.79472,166250
20.80283,171628
20.81095,164193
20.81908,140878
20.82720,99524
20.83533,77242
20.84345,62047
20.85157,54243
20.85970,51381
20.86782,53405
20.87593,53314
20.88407,58530
20.89218,67139
20.90032,65907
20.90843,77364
20.91655,72942
20.92468,71967
20.93280,63096
20.94093,60564
20.94905,59911
20.95717,46419
20.96530,46675
20.97342,43883
20.98153,41221
20.98967,47416
20.99778,47481
21.00592,44754
21.01403,46359
21.02215,47553
21.03028,50731
21.03840,46015
21.04653,50005
21.05465,44850
21.06277,47590
21.07090,44613
21.07902,43354
21.08715,45373
21.09527,45552
21.10338,51189
21.11152,61061
21.11963,75433
21.12775,94929
21.13588,113655
21.14400,121525
21.15213,128770
21.16025,107817
21.16837,89865
21.17650,77028
21.18462,63545
21.19275,60832
21.20087,58067
21.20898,51496
21.21712,55688
21.22523,47881
21.23335,51395
21.24148,52164
21.24960,51931
21.25773,50721
21.26585,47182
21.27397,50030
21.28210,49223
21.29022,46785
21.29835,50891
21.30647,53082
21.31458,52557
21.32272,52430
21.33083,53767
21.33897,59133
21.34708,61778
21.35520,67080
21.36333,72702
21.37145,79119
21.37957,85192
21.38770,94427
21.39582,101286
21.40395,96718
21.41207,88562
21.42018,80692
21.42832,77165
21.43643,72292
21.44457,71254
21.45268,72722
21.46080,66069
21.46893,72057
21.47705,67624
21.48518,67567
21.49330,66770
21.50142,58846
21.50955,64659
21.51767,62401
21.52578,61917
21.53392,63423
21.54203,73551
21.55017,98795
21.55828,121042
21.56640,173433
21.57453,208157
21.58265,230334
21.59078,225919
21.59890,212213
21.60702,184628
21.61515,146476
21.62327,126306
21.63138,100972
21.63952,91168
21.64763,89980
21.65577,86686
21.66388,86622
21.67200,80972
21.68013,76112
21.68825,72924
21.69638,68417
21.70450,62895
21.71262,65740
21.72075,65793
21.72887,62116
21.73700,72210
21.74512,90717
21.75323,119925
21.76137,165679
21.76948,208658
21.77760,227715
21.78573,221499
21.79385,197465
21.80198,171502
21.81010,126336
21.81822,100361
21.82635,85190
21.83447,70645
21.84260,63465
21.85072,62497
21.85883,59446
21.86697,64533
21.87508,53488
21.88322,55607
21.89133,49481
21.89945,49538
21.90758,48518
21.91570,44990
21.92382,44510
21.93195,44787
21.94007,48677
21.94820,41032
21.95632,42586
21.96443,43661
21.97257,42539
21.98068,42145
21.98882,43641
21.99693,41622
22.00505,44505
22.01318,47013
22.02130,47028
22.02942,46835
22.03755,44044
22.04567,49099
22.05380,66428
22.06192,79522
22.07003,95653
22.07817,108337
22.08628,124075
22.09442,122676
22.10253,130882
22.11065,130475
22.11878,133114
22.12690,122638
22.13503,144201
22.14315,148676
22.15127,165946
22.15940,178259
22.16752,184956
22.17563,182593
22.18377,172599
22.19188,159133
22.20002,139213
22.20813,128194
22.21625,115413
22.22438,111624
22.23250,104467
22.24063,102236
22.24875,104954
22.25687,107189
22.26500,101859
22.27312,107516
22.28123,100494
22.28937,101536
22.29748,99826
22.30562,92487
22.31373,94107
22.32185,94896
22.32998,85807
22.33810,87754
22.34623,78562
22.35435,81838
22.36247,80345
22.37060,80711
22.37872,82372
22.38685,95138
22.39497,102963
22.40308,105825
22.41122,99973
22.41933,95297
22.42745,90822
22.43558,81389
22.44370,75454
22.45183,76085
22.45995,75841
22.46807,80693
22.47620,76406
22.48432,83159
22.49245,84574
22.50057,81560
22.50868,86813
22.51682,74332
22.52493,72507
22.53307,71692
22.54118,68418
22.54930,61346
22.55743,57376
22.56555,53288
22.57367,50891
22.58180,50012
22.58992,48014
22.59805,46777
22.60617,46026
22.61428,48771
22.62242,47707
22.63053,46102
22.63867,49018
22.64678,49714
22.65490,53163
22.66303,56526
22.67115,63180
22.67927,81311
22.68740,90666
22.69552,100134
22.70365,100086
22.71177,94618
22.71988,85167
22.72802,74336
22.73613,66347
22.74427,59151
22.75238,66271
22.76050,68094
22.76863,71741
22.77675,82617
22.78488,85488
22.79300,91651
22.80112,87697
22.80925,85401
22.81737,71647
22.82548,66392
22.83362,67151
22.84173,68533
22.84987,79294
22.85798,84829
22.86610,99302
22.87423,105364
22.88235,112474
22.89048,120526
22.89860,139278
22.90672,144293
22.91485,147725
22.92297,151905
22.93110,145326
22.93922,129395
22.94733,117809
22.95547,105850
22.96358,98572
22.97170,90209
22.97983,82262
22.98795,75647
22.99608,71149
23.00420,62273
23.01232,61604
23.02045,54304
23.02857,54784
23.03670,56420
23.04482,55147
23.05293,56506
23.06107,53032
23.06918,53603
23.07730,54501
23.08543,53970
23.09355,50740
23.10168,53078
23.10980,48150
23.11792,48205
23.12605,45083
23.13417,44242
23.14230,45216
23.15042,45884
23.15853,49179
23.16667,40664
23.17478,42786
23.18292,43843
23.19103,45235
23.19915,43077
23.20728,42960
23.21540,42508
23.22352,42149
23.23165,42120
23.23977,46230
23.24790,47273
23.25602,50553
23.26413,51410
23.27227,48106
23.28038,50954
23.28852,48414
23.29663,45089
23.30475,47761
23.31288,51861
23.32100,56640
23.32912,67395
23.33725,71009
23.34537,78078
23.35350,75195
23.36162,79374
23.36973,75735
23.37787,71068
23.38598,61901
23.39412,59462
23.40223,58332
23.41035,58249
23.41848,53321
23.42660,54844
23.43473,51182
23.44285,48408
23.45097,47899
23.45910,45199
23.46722,48847
23.47533,48532
23.48347,51266
23.49158,46972
23.49972,49061
23.50783,47682
23.51595,46295
23.52408,49077
23.53220,53175
23.54033,60679
23.54845,67480
23.55657,88012
23.56470,107364
23.57282,129793
23.58095,154926
23.58907,157292
23.59718,145517
23.60532,128861
23.61343,108308
23.62155,94446
23.62968,84201
23.63780,83557
23.64593,80619
23.65405,77892
23.66217,77506
23.67030,66973
23.67842,67026
23.68655,59877
23.69467,58870
23.70278,58044
23.71092,82866
23.71903,164505
23.72715,415360
23.73528,1019191
23.74340,2240133
23.75153,3859225
23.75965,5478140
23.76777,6270486
23.77590,6216537
23.78402,5051316
23.79215,4030817
23.80027,2908224
23.80838,2023863
23.81652,1482176
23.82463,1118966
23.83277,856100
23.84088,748743
23.84900,644455
23.85713,576235
23.86525,519549
23.87337,473830
23.88150,450761
23.88962,427618
23.89775,396094
23.90587,373645
23.91398,358929
23.92212,353577
23.93023,321882
23.93837,307705
23.94648,287132
23.95460,289179
23.96273,278700
23.97085,272183
23.97898,261751
23.98710,245507
23.99522,248891
24.00335,251567
24.01147,241079
24.01958,241892
24.02772,247923
24.03583,269523
24.04397,259306
24.05208,260484
24.06020,254264
24.06833,241682
24.07645,225901
24.08458,208935
24.09270,197793
24.10082,206116
24.10895,215281
24.11707,236349
24.12518,259008
24.13332,285688
24.14143,298911
24.14957,281446
24.15768,256053
24.16580,225546
24.17393,196270
24.18205,181020
24.19018,173803
24.19830,162247
24.20642,147936
24.21455,150640
24.22267,154508
24.23080,156776
24.23892,160112
24.24703,164495
24.25517,175917
24.26328,179558
24.27140,191426
24.27953,226792
24.28765,303058
24.29578,433159
24.30390,619045
24.31202,750699
24.32015,781170
24.32827,656481
24.33640,463308
24.34452,306344
24.35263,195523
24.36077,145627
24.36888,124821
24.37702,117959
24.38513,118807
24.39325,118050
24.40138,125650
24.40950,143840
24.41762,167949
24.42575,187306
24.43387,192605
24.44200,192704
24.45012,165102
24.45823,160943
24.46637,139412
24.47448,133208
24.48262,119971
24.49073,115395
24.49885,105015
24.50698,101070
24.51510,106783
24.52322,108472
24.53135,118692
24.53947,108045
24.54760,105931
24.55572,101600
24.56383,102389
24.57197,98809
24.58008,90273
24.58822,89154
24.59633,86330
24.60445,85235
24.61258,80287
24.62070,82409
24.62883,82418
24.63695,84779
24.64507,89288
24.65320,88013
24.66132,87327
24.66943,84484
24.67757,82152
24.68568,72683
24.69382,70971
24.70193,70279
24.71005,73649
24.71818,70048
24.72630,69910
24.73443,69959
24.74255,69723
24.75067,69506
24.75880,72144
24.76692,68854
24.77503,70909
24.78317,80007
24.79128,73601
24.79942,71303
24.80753,77150
24.81565,79830
24.82378,84169
24.83190,99265
24.84003,120420
24.84815,145687
24.85627,174218
24.86440,205495
24.87252,213671
24.88065,209450
24.88877,185358
24.89688,151336
24.90502,114441
24.91313,92541
24.92125,74086
24.92938,71286
24.93750,62523
24.94563,60672
24.95375,58286
24.96187,61278
24.97000,60507
24.97812,56928
24.98625,54747
24.99437,56664
25.00248,60959
25.01062,57820
25.01873,59391
25.02687,56699
25.03498,56715
25.04310,59490
25.05123,61249
25.05935,68223
25.06747,79292
25.07560,110281
25.08372,149989
25.09185,225220
25.09997,353605
25.10808,540079
25.11622,752741
25.12433,911789
25.13247,951878
25.14058,877375
25.14870,725409
25.15683,545743
25.16495,389450
25.17307,301361
25.18120,232090
25.18932,192140
25.19745,168469
25.20557,158917
25.21368,155260
25.22182,164107
25.22993,176929
25.23807,219018
25.24618,252219
25.25430,264367
25.26243,253577
25.27055,241830
25.27868,208613
25.28680,184786
25.29492,166461
25.30305,152555
25.31117,143477
25.31928,137917
25.32742,122485
25.33553,112889
25.34367,106087
25.35178,103478
25.35990,104821
25.36803,111474
25.37615,114716
25.38428,121962
25.39240,127959
25.40052,123292
25.40865,113640
25.41677,99580
25.42490,93979
25.43302,86915
25.44113,84269
25.44927,78993
25.45738,74954
25.46550,81309
25.47363,71847
25.48175,74104
25.48988,72580
25.49800,73841
25.50612,69926
25.51425,68135
25.52237,71817
25.53050,65599
25.53862,63481
25.54673,62411
25.55487,58919
25.56298,59725
25.57110,64506
25.57923,59030
25.58735,68591
25.59548,59965
25.60360,58198
25.61172,59760
25.61985,61185
25.62797,64647
25.63610,61923
25.64422,61279
25.65233,62666
25.66047,70044
25.66858,63507
25.67672,61862
25.68483,62516
25.69295,66759
25.70108,59147
25.70920,57427
25.71732,57691
25.72545,54684
25.73357,57449
25.74170,54458
25.74982,57039
25.75793,54618
25.76607,53391
25.77418,56241
25.78232,59067
25.79043,53905
25.79855,60474
25.80668,59771
25.81480,65619
25.82292,63741
25.83105,64551
25.83917,58003
25.84730,61371
25.85542,57822
25.86353,59329
25.87167,51326
25.87978,53167
25.88792,56636
25.89603,52808
25.90415,53017
25.91228,55513
25.92040,54229
25.92853,56761
25.93665,59270
25.94477,60643
25.95290,56530
25.96102,57472
25.96913,59021
25.97727,57447
25.98538,56573
25.99352,52793
26.00163,46948
26.00975,51096
26.01788,51565
26.02600,59559
26.03413,55846
26.04225,54424
26.05037,55925
26.05850,56215
26.06662,55063
26.07475,54213
26.08287,58983
26.09098,55733
26.09912,59884
26.10723,64495
26.11535,70282
26.12348,74522
26.13160,77620
26.13973,82976
26.14785,82246
26.15597,77576
26.16410,72381
26.17222,66365
26.18035,63636
26.18847,60435
26.19658,58838
26.20472,53634
26.21283,54259
26.22097,54884
26.22908,59447
26.23720,51602
26.24533,54208
26.25345,51619
26.26157,50171
26.26970,48275
26.27782,50166
26.28595,46006
26.29407,46309
26.30218,52317
26.31032,50295
26.31843,58868
26.32657,64565
26.33468,74907
26.34280,102671
26.35093,134007
26.35905,176448
26.36717,220253
26.37530,254360
26.38342,267319
26.39155,242587
26.39967,204018
26.40778,162178
26.41592,134228
26.42403,102272
26.43217,86853
26.44028,72609
26.44840,62919
26.45653,56200
26.46465,57228
26.47278,53674
26.48090,57125
26.48902,55263
26.49715,56723
26.50527,48373
26.51338,49201
26.52152,52332
26.52963,51198
26.53777,54807
26.54588,51637
26.55400,51539
26.56213,56047
26.57025,53164
26.57838,58899
26.58650,53538
26.59462,49488
26.60275,53769
26.61087,51741
26.61898,49744
26.62712,57811
26.63523,58366
26.64337,57734
26.65148,58861
26.65960,58213
26.66773,63519
26.67585,64080
26.68398,55607
26.69210,60690
26.70022,61429
26.70835,62239
26.71647,67656
26.72460,62339
26.73272,65147
26.74083,75167
26.74897,72505
26.75708,79499
26.76520,72340
26.77333,80585
26.78145,78205
26.78958,73844
26.79770,67975
26.80582,60325
26.81395,59196
26.82207,63197
26.83020,61391
26.83832,61849
26.84643,66397
26.85457,64464
26.86268,65266
26.87082,73573
26.87893,71141
26.88705,70672
26.89518,71195
26.90330,78078
26.91142,84812
26.91955,99289
26.92767,153588
26.93580,286366
26.94392,579904
26.95203,1178240
26.96017,2206494
26.96828,3464997
26.97642,4683222
26.98453,5216422
26.99265,5063873
27.00078,4487652
27.00890,3563980
27.01702,2713558
27.02515,2041399
27.03327,1470566
27.04140,1081475
27.04952,841428
27.05763,669381
27.06577,544858
27.07388,448663
27.08202,403364
27.09013,345621
27.09825,308826
27.10638,287871
27.11450,258074
27.12263,237518
27.13075,232573
27.13887,229871
27.14700,230387
27.15512,227754
27.16323,218978
27.17137,211690
27.17948,194371
27.18762,181710
27.19573,173666
27.20385,155547
27.21198,148026
27.22010,143021
27.22823,144620
27.23635,131490
27.24447,124551
27.25260,126599
27.26072,124984
27.26885,117249
27.27697,122587
27.28508,113803
27.29322,116107
27.30133,117386
27.30945,115915
27.31758,113529
27.32570,106088
27.33383,104306
27.34195,102672
27.35007,108406
27.35820,107808
27.36632,102499
27.37445,100609
27.38257,105511
27.39068,102078
27.39882,102937
27.40693,107877
27.41505,107654
27.42318,105164
27.43130,106853
27.43943,108565
27.44755,110482
27.45567,102189
27.46380,92013
27.47192,102131
27.48005,90756
27.48817,92219
27.49628,92325
27.50442,92465
27.51253,95492
27.52067,92903
27.52878,90636
27.53690,91401
27.54503,84254
27.55315,85778
27.56127,84734
27.56940,83587
27.57752,87441
27.58565,88545
27.59377,87019
27.60188,78956
27.61002,82738
27.61813,76721
27.62627,78844
27.63438,76761
27.64250,74363
27.65063,74580
27.65875,73691
27.66687,75164
27.67500,73064
27.68312,74920
27.69125,75114
27.69937,75749
27.70748,82247
27.71562,89315
27.72373,103703
27.73187,107500
27.73998,109782
27.74810,110173
27.75623,103045
27.76435,95097
27.77248,87750
27.78060,79393
27.78872,88519
27.79685,75037
27.80497,72068
27.81308,72766
27.82122,77485
27.82933,65019
27.83747,70413
27.84558,70995
27.85370,73242
27.86183,66108
27.86995,63865
27.87808,63260
27.88620,64592
27.89432,64951
27.90245,66956
27.91057,61620
27.91870,65016
27.92682,66237
27.93493,63889
27.94307,68818
27.95118,81236
27.95930,85570
27.96743,90269
27.97555,95771
27.98368,94901
27.99180,92589
27.99992,92612
28.00805,90583
28.01617,88313
28.02430,87082
28.03242,91822
28.04053,84356
28.04867,80193
28.05678,75738
28.06490,82387
28.07303,81542
28.08115,88854
28.08928,104713
28.09740,120299
28.10552,121885
28.11365,118358
28.12177,107719
28.12990,96663
28.13802,86310
28.14613,70875
28.15427,66826
28.16238,69139
28.17052,69381
28.17863,67937
28.18675,73862
28.19488,76285
28.20300,82993
28.21112,82553
28.21925,87356
28.22737,100080
28.23550,129695
28.24362,197905
28.25173,299827
28.25987,464799
28.26798,677010
28.27612,969430
28.28423,1269277
28.29235,1504137
28.30048,1769096
28.30860,1843844
28.31673,1849221
28.32485,1810244
28.33297,1643141
28.34110,1450879
28.34922,1288179
28.35733,1065705
28.36547,913609
28.37358,779727
28.38172,666279
28.38983,556343
28.39795,478745
28.40608,419410
28.41420,361434
28.42233,307189
28.43045,273514
28.43857,258765
28.44670,238493
28.45482,215919
28.46293,200916
28.47107,193727
28.47918,183406
28.48732,170778
28.49543,163764
28.50355,162282
28.51168,150015
28.51980,143871
28.52793,131671
28.53605,133381
28.54417,124899
28.55230,123298
28.56042,119906
28.56855,120550
28.57667,114107
28.58478,111772
28.59292,108817
28.60103,117275
28.60915,120103
28.61728,118023
28.62540,122334
28.63353,138047
28.64165,158825
28.64977,198865
28.65790,271374
28.66602,381498
28.67415,515869
28.68227,587713
28.69038,562676
28.69852,434539
28.70663,299511
28.71475,208916
28.72288,145887
28.73100,117573
28.73913,106653
28.74725,103985
28.75537,95797
28.76350,91964
28.77162,92104
28.77975,87952
28.78787,86905
28.79598,89673
28.80412,88405
28.81223,83886
28.82037,82672
28.82848,85357
28.83660,84000
28.84473,78432
28.85285,84736
28.86097,89838
28.86910,87351
28.87722,83752
28.88535,88760
28.89347,83924
28.90158,84438
28.90972,80294
28.91783,78453
28.92597,80762
28.93408,81043
28.94220,83649
28.95033,80802
28.95845,79683
28.96658,80679
28.97470,81096
28.98282,75349
28.99095,76545
28.99907,73261
29.00718,70310
29.01532,79875
29.02343,73298
29.03157,74318
29.03968,79628
29.04780,78246
29.05593,76113
29.06405,76594
29.07218,72381
29.08030,75246
29.08842,68325
29.09655,64614
29.10467,70035
29.11278,63200
29.12092,63984
29.12903,66040
29.13717,64712
29.14528,67232
29.15340,70084
29.16153,66343
29.16965,69071
29.17778,75702
29.18590,76516
29.19402,81354
29.20215,90422
29.21027,92731
29.21840,84065
29.22652,90475
29.23463,97544
29.24277,91769
29.25088,98090
29.25900,91503
29.26713,88591
29.27525,81622
29.28338,74451
29.29150,73455
29.29962,65660
29.30775,64609
29.31587,68252
29.32400,63886
29.33212,63501
29.34023,65843
29.34837,62119
29.35648,73880
29.36462,72911
29.37273,77645
29.38085,80973
29.38898,82279
29.39710,82639
29.40522,81469
29.41335,77674
29.42147,74505
29.42960,69001
29.43772,65869
29.44583,63301
29.45397,67443
29.46208,68100
29.47022,71611
29.47833,80334
29.48645,73646
29.49458,77570
29.50270,78450
29.51082,78846
29.51895,71711
29.52707,68774
29.53520,66651
29.54332,62487
29.55143,65363
29.55957,59785
29.56768,67297
29.57582,70278
29.58393,70113
29.59205,71630
29.60018,68926
29.60830,69434
29.61643,71180
29.62455,63753
29.63267,63921
29.64080,60740
29.64892,59601
29.65703,55379
29.66517,54715
29.67328,52855
29.68142,54963
29.68953,55931
29.69765,55860
29.70578,54144
29.71390,56162
29.72203,57357
29.73015,52679
29.73827,58387
29.74640,55606
29.75452,52808
29.76265,52911
29.77077,49429
29.77888,52390
29.78702,51390
29.79513,53993
29.80325,51401
29.81138,50068
29.81950,50295
29.82763,53552
29.83575,58874
29.84387,67993
29.85200,89166
29.86012,123242
29.86825,170959
29.87637,253767
29.88448,343572
29.89262,457488
29.90073,585247
29.90885,712646
29.91698,817548
29.92510,938580
29.93323,1048611
29.94135,1087762
29.94947,1063297
29.95760,1103381
29.96572,1054829
29.97385,1006364
29.98197,923652
29.99008,839035
29.99822,781071
30.00633,704793
30.01447,631329
30.02258,552820
30.03070,514439
30.03883,448856
30.04695,405357
30.05507,364284
30.06320,332272
30.07132,303761
30.07945,263458
30.08757,245814
30.09568,232470
30.10382,207910
30.11193,197153
30.12007,174054
30.12818,164794
30.13630,150053
30.14443,148810
30.15255,142373
30.16067,143066
30.16880,148033
30.17692,141845
30.18505,147842
30.19317,140299
30.20128,136665
30.20942,123999
30.21753,124726
30.22567,119852
30.23378,119116
30.24190,120187
30.25003,117777
30.25815,114291
30.26628,109671
30.27440,110166
30.28252,111926
30.29065,107416
30.29877,107932
30.30688,104926
30.31502,98932
30.32313,98213
30.33127,101677
30.33938,99559
30.34750,98562
30.35563,95772
30.36375,91562
30.37188,94119
30.38000,91776
30.38812,89258
30.39625,84455
30.40437,86019
30.41250,84556
30.42062,82675
30.42873,82491
30.43687,89448
30.44498,83554
30.45310,79141
30.46123,76498
30.46935,79125
30.47748,73362
30.48560,77937
30.49372,74404
30.50185,75865
30.50997,72898
30.51810,74601
30.52622,72361
30.53433,74451
30.54247,71778
30.55058,75680
30.55870,72679
30.56683,75770
30.57495,70231
30.58308,69406
30.59120,72216
30.59932,73133
30.60745,72252
30.61557,70150
30.62370,74075
30.63182,69226
30.63993,67833
30.64807,69802
30.65618,65642
30.66432,63581
30.67243,64128
30.68055,61785
30.68868,66491
30.69680,63902
30.70492,63443
30.71305,66646
30.72117,67494
30.72930,70753
30.73742,76316
30.74553,109954
30.75367,190161
30.76178,395493
30.76992,759937
30.77803,1266593
30.78615,1740860
30.79428,2030545
30.80240,2072171
30.81053,1776419
30.81865,1312130
30.82677,860019
30.83490,513929
30.84302,294174
30.85113,189799
30.85927,134451
30.86738,112487
30.87552,105229
30.88363,95169
30.89175,89539
30.89988,86039
30.90800,79677
30.91613,77056
30.92425,74145
30.93237,73043
30.94050,70412
30.94862,68180
30.95673,67923
30.96487,66739
30.97298,64751
30.98112,70877
30.98923,65598
30.99735,64439
31.00548,62555
31.01360,69732
31.02173,66182
31.02985,69777
31.03797,69069
31.04610,64844
31.05422,78856
31.06235,81266
31.07047,99546
31.07858,107091
31.08672,103199
31.09483,104177
31.10295,94937
31.11108,86439
31.11920,78627
31.12733,75816
31.13545,79305
31.14357,81665
31.15170,100991
31.15982,125543
31.16795,170821
31.17607,229076
31.18418,323401
31.19232,380343
31.20043,414654
31.20855,392753
31.21668,341989
31.22480,262595
31.23293,182721
31.24105,127655
31.24917,102400
31.25730,77523
31.26542,76896
31.27355,65683
31.28167,67648
31.28978,68166
31.29792,74837
31.30603,76598
31.31417,77631
31.32228,79724
31.33040,72931
31.33853,65414
31.34665,72043
31.35477,63887
31.36290,64452
31.37102,59737
31.37915,64553
31.38727,61663
31.39538,59831
31.40352,59954
31.41163,62374
31.41977,60004
31.42788,53726
31.43600,57732
31.44413,62415
31.45225,61111
31.46038,60889
31.46850,65801
31.47662,65542
31.48475,61057
31.49287,61800
31.50098,63049
31.50912,69447
31.51723,64945
31.52537,62103
31.53348,66707
31.54160,61067
31.54973,59521
31.55785,61464
31.56598,56779
31.57410,59951
31.58222,59947
31.59035,57251
31.59847,60143
31.60660,60285
31.61472,61672
31.62283,58328
31.63097,61241
31.63908,61573
31.64720,61109
31.65533,67083
31.66345,65509
31.67158,70201
31.67970,75076
31.68782,68558
31.69595,71977
31.70407,65530
31.71220,64258
31.72032,61558
31.72843,56143
31.73657,58251
31.74468,58509
31.75280,54669
31.76093,59446
31.76905,67152
31.77718,76537
31.78530,81371
31.79342,94306
31.80155,112536
31.80967,143139
31.81780,197799
31.82592,280258
31.83403,398520
31.84217,502219
31.85028,629693
31.85842,744427
31.86653,813618
31.87465,868903
31.88278,875750
31.89090,875462
31.89902,823419
31.90715,770537
31.91527,731155
31.92340,670959
31.93152,578735
31.93963,538205
31.94777,481380
31.95588,435803
31.96402,423358
31.97213,389583
31.98025,352285
31.98838,311582
31.99650,268780
32.00462,230608
32.01275,209078
32.02087,195984
32.02900,178687
32.03712,171765
32.04523,160601
32.05337,147109
32.06148,142411
32.06962,126930
32.07773,123242
32.08585,126012
32.09398,113710
32.10210,110871
32.11023,106452
32.11835,104422
32.12647,101125
32.13460,102566
32.14272,97846
32.15083,99000
32.15897,99148
32.16708,90300
32.17522,88935
32.18333,86658
32.19145,90553
32.19958,84606
32.20770,85968
32.21583,81054
32.22395,91561
32.23207,87370
32.24020,87747
32.24832,82938
32.25645,83775
32.26457,82492
32.27268,81958
32.28082,75396
32.28893,79503
32.29705,78242
32.30518,84342
32.31330,82596
32.32143,81250
32.32955,90283
32.33767,83966
32.34580,92726
32.35392,80103
32.36205,77497
32.37017,70880
32.37828,71570
32.38642,76579
32.39453,73867
32.40265,71965
32.41078,72147
32.41890,71402
32.42703,73485
32.43515,74319
32.44327,66185
32.45140,64816
32.45952,69628
32.46765,64771
32.47577,61867
32.48388,65518
32.49202,66586
32.50013,63742
32.50827,68287
32.51638,71802
32.52450,78162
32.53263,89267
32.54075,136828
32.54887,213505
32.55700,307218
32.56512,422871
32.57325,507285
32.58137,505934
32.58948,399263
32.59762,278169
32.60573,194135
32.61387,132082
32.62198,104021
32.63010,88042
32.63823,76747
32.64635,79352
32.65448,73273
32.66260,72895
32.67072,74464
32.67885,76216
32.68697,75845
32.69508,78786
32.70322,72949
32.71133,85171
32.71947,79680
32.72758,71296
32.73570,75369
32.74383,71300
32.75195,65941
32.76008,64272
32.76820,60088
32.77632,68480
32.78445,62063
32.79257,63089
32.80068,65972
32.80882,68274
32.81693,63950
32.82507,65394
32.83318,63963
32.84130,64399
32.84943,67810
32.85755,70274
32.86568,69989
32.87380,72884
32.88192,79691
32.89005,81949
32.89817,80054
32.90630,77406
32.91442,74229
32.92253,70363
32.93067,68742
32.93878,71105
32.94690,71753
32.95503,76579
32.96315,78934
32.97128,88690
32.97940,94848
32.98752,97613
32.99565,90662
33.00377,86240
33.01190,85152
33.02002,75540
33.02813,70872
33.03627,71369
33.04438,74628
33.05250,77088
33.06063,84955
33.06875,89942
33.07688,103441
33.08500,111020
33.09312,124830
33.10125,120618
33.10937,123466
33.11750,108441
33.12562,98590
33.13373,87840
33.14187,81038
33.14998,73360
33.15812,69170
33.16623,63421
33.17435,66689
33.18248,68913
33.19060,65453
33.19872,64114
33.20685,68690
33.21497,66691
33.22310,64859
33.23122,62934
33.23933,66544
33.24747,64383
33.25558,68085
33.26372,65915
33.27183,64926
33.27995,69293
33.28808,68713
33.29620,66367
33.30433,65047
33.31245,68526
33.32057,72855
33.32870,71161
33.33682,69684
33.34493,67868
33.35307,67630
33.36118,70339
33.36932,66083
33.37743,63959
33.38555,65671
33.39368,70186
33.40180,67502
33.40993,66207
33.41805,62881
33.42617,63613
33.43430,69517
33.44242,65350
33.45053,64033
33.45867,69676
33.46678,66577
33.47492,65774
33.48303,68636
33.49115,67958
33.49928,67061
33.50740,61605
33.51553,62734
33.52365,68680
33.53177,62839
33.53990,72752
33.54802,62929
33.55615,63553
33.56427,63472
33.57238,63169
33.58052,61566
33.58863,60167
33.59675,57218
33.60488,59118
33.61300,58030
33.62113,59146
33.62925,64111
33.63737,67384
33.64550,65236
33.65362,67706
33.66175,60839
33.66987,56372
33.67798,60447
33.68612,60003
33.69423,59572
33.70237,61050
33.71048,63022
33.71860,57162
33.72673,65466
33.73485,72859
33.74297,71145
33.75110,73748
33.75922,75098
33.76735,67271
33.77547,64916
33.78358,68690
33.79172,63669
33.79983,64203
33.80797,63984
33.81608,68186
33.82420,65101
33.83233,69297
33.84045,66377
33.84857,63823
33.85670,65586
33.86482,63401
33.87295,62068
33.88107,65257
33.88918,65610
33.89732,66949
33.90543,63380
33.91357,61693
33.92168,60892
33.92980,59497
33.93793,61122
33.94605,60033
33.95418,58887
33.96230,60208
33.97042,56979
33.97855,61755
33.98667,60647
33.99478,60208
34.00292,61609
34.01103,61594
34.01917,57103
34.02728,61762
34.03540,59828
34.04353,62280
34.05165,59999
34.05978,59570
34.06790,59780
34.07602,62952
34.08415,61137
34.09227,64161
34.10040,61103
34.10852,64237
34.11663,64277
34.12477,66174
34.13288,63527
34.14100,69057
34.14913,60121
34.15725,59512
34.16538,62223
34.17350,60750
34.18162,62792
34.18975,63222
34.19787,61794
34.20600,61476
34.21412,61566
34.22223,64296
34.23037,64690
34.23848,63493
34.24660,62696
34.25473,67419
34.26285,63727
34.27098,61624
34.27910,65211
34.28722,62631
34.29535,58885
34.30347,57858
34.31160,58817
34.31972,59703
34.32783,61389
34.33597,60033
34.34408,61814
34.35222,57823
34.36033,58659
34.36845,58247
34.37658,62344
34.38470,58943
34.39282,66368
34.40095,75821
34.40907,108558
34.41720,163234
34.42532,251428
34.43343,401055
34.44157,575718
34.44968,754633
34.45782,916972
34.46593,961145
34.47405,1016067
34.48218,937081
34.49030,838807
34.49842,714465
34.50655,580477
34.51467,481756
34.52280,408175
34.53092,340567
34.53903,296569
34.54717,268926
34.55528,232705
34.56342,215271
34.57153,196675
34.57965,179146
34.58778,174207
34.59590,164072
34.60403,164705
34.61215,156454
34.62027,150483
34.62840,142654
34.63652,137082
34.64463,131097
34.65277,125707
34.66088,122026
34.66902,116227
34.67713,114655
34.68525,109932
34.69338,108286
34.70150,107223
34.70963,106405
34.71775,105100
34.72587,104290
34.73400,103348
34.74212,97422
34.75025,100982
34.75837,97714
34.76648,96696
34.77462,93601
34.78273,87484
34.79085,90294
34.79898,91948
34.80710,86711
34.81523,94997
34.82335,88892
34.83147,92179
34.83960,98563
34.84772,93678
34.85585,92029
34.86397,97001
34.87208,90337
34.88022,88966
34.88833,88168
34.89645,80697
34.90458,82704
34.91270,84092
34.92083,90319
34.92895,82476
34.93707,80571
34.94520,81140
34.95332,83095
34.96145,80333
34.96957,82993
34.97768,81075
34.98582,84388
34.99393,82437
35.00207,80337
35.01018,83341
35.01830,78624
35.02643,85354
35.03455,89885
35.04267,104692
35.05080,91729
35.05892,99815
35.06705,90368
35.07517,88795
35.08328,88827
35.09142,84341
35.09953,79981
35.10767,79389
35.11578,80507
35.12390,79737
35.13203,73100
35.14015,77168
35.14828,78495
35.15640,79010
35.16452,78503
35.17265,72749
35.18077,72868
35.18888,73120
35.19702,78285
35.20513,73158
35.21327,69511
35.22138,70320
35.22950,71331
35.23763,72637
35.24575,77882
35.25388,75796
35.26200,77173
35.27012,74160
35.27825,73095
35.28637,73581
35.29448,68702
35.30262,72461
35.31073,69524
35.31887,71162
35.32698,64009
35.33510,64335
35.34323,69970
35.35135,68361
35.35948,71185
35.36760,73386
35.37572,72145
35.38385,70021
35.39197,75486
35.40010,74996
35.40822,80040
35.41633,85220
35.42447,87562
35.43258,89779
35.44070,93426
35.44883,98731
35.45695,93924
35.46508,88872
35.47320,92953
35.48132,97273
35.48945,89340
35.49757,87000
35.50570,84854
35.51382,86397
35.52193,82886
35.53007,85285
35.53818,91697
35.54630,106520
35.55443,116069
35.56255,128336
35.57068,133120
35.57880,125365
35.58692,116501
35.59505,102093
35.60317,88608
35.61130,86764
35.61942,87321
35.62753,84320
35.63567,77361
35.64378,83416
35.65192,78372
35.66003,78175
35.66815,79293
35.67628,76088
35.68440,79685
35.69252,76650
35.70065,79381
35.70877,81269
35.71690,75944
35.72502,81877
35.73313,81390
35.74127,85939
35.74938,86768
35.75752,83823
35.76563,79437
35.77375,74984
35.78188,79006
35.79000,84191
35.79813,79308
35.80625,82491
35.81437,76405
35.82250,79847
35.83062,74361
35.83873,77626
35.84687,71446
35.85498,73104
35.86312,69906
35.87123,76292
35.87935,68994
35.88748,68485
35.89560,71525
35.90373,74102
35.91185,75532
35.91997,75426
35.92810,73773
35.93622,70341
35.94433,72749
35.95247,73855
35.96058,75920
35.96872,79191
35.97683,83060
35.98495,93944
35.99308,94722
36.00120,100934
36.00933,103339
36.01745,103067
36.02557,99894
36.03370,95054
36.04182,98757
36.04995,92203
36.05807,90865
36.06618,85474
36.07432,79773
36.08243,79193
36.09055,80610
36.09868,77504
36.10680,76207
36.11493,79397
36.12305,77460
36.13117,79203
36.13930,78138
36.14742,78789
36.15555,78653
36.16367,80448
36.17178,98680
36.17992,135195
36.18803,189395
36.19617,305279
36.20428,434776
36.21240,555985
36.22053,611293
36.22865,563695
36.23677,434761
36.24490,327444
36.25302,232692
36.26115,176761
36.26927,136338
36.27738,122616
36.28552,105260
36.29363,95624
36.30177,96322
36.30988,85003
36.31800,86604
36.32613,86191
36.33425,78357
36.34237,80237
36.35050,77485
36.35862,80053
36.36675,79679
36.37487,82347
36.38298,88899
36.39112,91018
36.39923,89871
36.40737,83805
36.41548,81872
36.42360,81621
36.43173,74209
36.43985,76227
36.44798,75456
36.45610,71488
36.46422,75024
36.47235,73797
36.48047,70061
36.48858,69847
36.49672,73148
36.50483,73663
36.51297,79137
36.52108,82869
36.52920,88841
36.53733,88590
36.54545,98311
36.55358,96317
36.56170,90751
36.56982,84045
36.57795,84546
36.58607,86423
36.59418,84023
36.60232,83993
36.61043,77795
36.61857,76497
36.62668,71262
36.63480,74207
36.64293,75648
36.65105,74579
36.65918,76448
36.66730,76404
36.67542,72735
36.68355,74729
36.69167,75467
36.69980,75099
36.70792,74748
36.71603,72876
36.72417,72174
36.73228,74600
36.74040,71822
36.74853,72844
36.75665,70371
36.76478,73080
36.77290,72041
36.78102,70306
36.78915,71803
36.79727,72559
36.80540,68669
36.81352,72689
36.82163,73192
36.82977,71622
36.83788,69246
36.84602,73225
36.85413,73642
36.86225,70524
36.87038,72113
36.87850,67265
36.88662,73724
36.89475,76365
36.90287,74590
36.91100,76583
36.91912,78089
36.92723,82578
36.93537,87931
36.94348,89500
36.95162,91485
36.95973,91778
36.96785,85539
36.97598,86344
36.98410,94811
36.99223,96636
37.00035,107957
37.00847,109838
37.01660,123545
37.02472,118436
37.03283,116197
37.04097,97274
37.04908,95853
37.05722,91292
37.06533,85680
37.07345,90582
37.08158,90235
37.08970,93224
37.09783,92382
37.10595,87031
37.11407,78556
37.12220,84184
37.13032,82592
37.13843,82277
37.14657,88406
37.15468,83232
37.16282,82237
37.17093,79176
37.17905,83091
37.18718,78612
37.19530,90048
37.20343,112366
37.21155,168923
37.21967,269993
37.22780,421924
37.23592,621018
37.24405,845343
37.25217,953864
37.26028,1010067
37.26842,953437
37.27653,854182
37.28465,723625
37.29278,610344
37.30090,509869
37.30903,422838
37.31715,355263
37.32527,307413
37.33340,281328
37.34152,258815
37.34965,241614
37.35777,224962
37.36588,207878
37.37402,201531
37.38213,189610
37.39025,176889
37.39838,172954
37.40650,169559
37.41463,162984
37.42275,157830
37.43087,151054
37.43900,142801
37.44712,141575
37.45525,137366
37.46337,132657
37.47148,132338
37.47962,134592
37.48773,132676
