C:\MassHunter\GCMS\1\data\JTB-E18\JTB-E18-030-07.D Wed Oct 02 12:28:14 2019
Start of data points
2.09515,134749
2.10327,130107
2.11140,123111
2.11952,127158
2.12763,121987
2.13577,118152
2.14388,114342
2.15202,116786
2.16013,116137
2.16825,112968
2.17638,107438
2.18450,111979
2.19263,110261
2.20075,111326
2.20887,111675
2.21700,106755
2.22512,101450
2.23325,99105
2.24137,102890
2.24948,99781
2.25762,101559
2.26573,121178
2.27385,510930
2.28198,1764419
2.29010,1603784
2.29823,715971
2.30635,441531
2.31447,367086
2.32260,322453
2.33072,285774
2.33885,273194
2.34697,252101
2.35508,226502
2.36322,202690
2.37133,198950
2.37947,197593
2.38758,291947
2.39570,278076
2.40383,208845
2.41195,193740
2.42007,182945
2.42820,186184
2.43632,183309
2.44445,178816
2.45257,189910
2.46068,175608
2.46882,171896
2.47693,165065
2.48507,165489
2.49318,162985
2.50130,180755
2.50943,166185
2.51755,159084
2.52567,159338
2.53380,148236
2.54192,149322
2.55005,158885
2.55817,198452
2.56628,263493
2.57442,210153
2.58253,177078
2.59067,179156
2.59878,164031
2.60690,194389
2.61503,371766
2.62315,460351
2.63128,349458
2.63940,263622
2.64752,218804
2.65565,201448
2.66377,190559
2.67188,191659
2.68002,238531
2.68813,260786
2.69627,195635
2.70438,167434
2.71250,160064
2.72063,155288
2.72875,146834
2.73688,151598
2.74500,154970
2.75312,143195
2.76125,150546
2.76937,142824
2.77750,152844
2.78562,185039
2.79373,221281
2.80187,201925
2.80998,209135
2.81810,218343
2.82623,335149
2.83435,789757
2.84248,962500
2.85060,560555
2.85872,330987
2.86685,333797
2.87497,304007
2.88310,235450
2.89122,200186
2.89933,182070
2.90747,176095
2.91558,172527
2.92370,163688
2.93183,150265
2.93995,151486
2.94808,146494
2.95620,147559
2.96432,147581
2.97245,144833
2.98057,142669
2.98870,149752
2.99682,158036
3.00493,163074
3.01307,183354
3.02118,203751
3.02932,427954
3.03743,975090
3.04555,1444755
3.05368,3168484
3.06180,8976238
3.06992,1.217127E+07
3.07805,8066347
3.08617,3891796
3.09430,2683272
3.10242,2555769
3.11053,2822653
3.11867,2967038
3.12678,2168885
3.13492,1491966
3.14303,1184817
3.15115,1011556
3.15928,849940
3.16740,772668
3.17552,751903
3.18365,718421
3.19177,900816
3.19990,1247221
3.20802,1163421
3.21613,871612
3.22427,739660
3.23238,669206
3.24052,611781
3.24863,546238
3.25675,492541
3.26488,439930
3.27300,414750
3.28113,423265
3.28925,612378
3.29737,1315951
3.30550,2555711
3.31362,3409138
3.32173,3123770
3.32987,2373205
3.33798,1812623
3.34612,1493063
3.35423,1271978
3.36235,1126558
3.37048,1122701
3.37860,1390909
3.38673,1605294
3.39485,1464271
3.40297,1432106
3.41110,2536027
3.41922,4437509
3.42735,4530180
3.43547,2834171
3.44358,1621226
3.45172,1118163
3.45983,934200
3.46795,857936
3.47608,767204
3.48420,697723
3.49233,632139
3.50045,580612
3.50857,560070
3.51670,526565
3.52482,494608
3.53295,497218
3.54107,488216
3.54918,467648
3.55732,444689
3.56543,428232
3.57355,438037
3.58168,438719
3.58980,432226
3.59793,397356
3.60605,388416
3.61417,450044
3.62230,787885
3.63042,1825998
3.63855,3050385
3.64667,3031550
3.65478,1991053
3.66292,1230614
3.67103,1467230
3.67917,2924384
3.68728,3867308
3.69540,3037572
3.70353,1860595
3.71165,1339158
3.71977,1070278
3.72790,956155
3.73602,852504
3.74415,810905
3.75227,748347
3.76038,714263
3.76852,679381
3.77663,659243
3.78477,620411
3.79288,604371
3.80100,590176
3.80913,730177
3.81725,1019036
3.82538,1135026
3.83350,943665
3.84162,739793
3.84975,634071
3.85787,583886
3.86598,534230
3.87412,506114
3.88223,485967
3.89037,468549
3.89848,450186
3.90660,449734
3.91473,441060
3.92285,496810
3.93098,594703
3.93910,616100
3.94722,577393
3.95535,743539
3.96347,1248072
3.97158,1669601
3.97972,1445823
3.98783,982530
3.99597,725260
4.00408,888962
4.01220,1450477
4.02033,1818091
4.02845,1543777
4.03658,998721
4.04470,694176
4.05282,574713
4.06095,512923
4.06907,464830
4.07720,451712
4.08532,420615
4.09343,395880
4.10157,371916
4.10968,363915
4.11780,341859
4.12593,344242
4.13405,351037
4.14218,367007
4.15030,431111
4.15842,468007
4.16655,441391
4.17467,393076
4.18280,358664
4.19092,344292
4.19903,320263
4.20717,359599
4.21528,886769
4.22342,3202791
4.23153,8084744
4.23965,1.264309E+07
4.24778,1.340064E+07
4.25590,9964168
4.26402,6360816
4.27215,4428479
4.28027,3314221
4.28840,2577034
4.29652,2024515
4.30463,1635334
4.31277,1372229
4.32088,1187598
4.32902,1053208
4.33713,941694
4.34525,860925
4.35338,813900
4.36150,776472
4.36962,731186
4.37775,686554
4.38587,632077
4.39400,591909
4.40212,552978
4.41023,528504
4.41837,500962
4.42648,487216
4.43462,471418
4.44273,455422
4.45085,452934
4.45898,457275
4.46710,460127
4.47523,436418
4.48335,405999
4.49147,395678
4.49960,377940
4.50772,367309
4.51583,354528
4.52397,352668
4.53208,341907
4.54022,340156
4.54833,326879
4.55645,329723
4.56458,313414
4.57270,304619
4.58083,305548
4.58895,297555
4.59707,295966
4.60520,286370
4.61332,284957
4.62143,300952
4.62957,356970
4.63768,461817
4.64582,558046
4.65393,530301
4.66205,430745
4.67018,360316
4.67830,320732
4.68643,304101
4.69455,288992
4.70267,280067
4.71080,266029
4.71892,263816
4.72705,266980
4.73517,250901
4.74328,253782
4.75142,253686
4.75953,247366
4.76765,240139
4.77578,237159
4.78390,243847
4.79203,270251
4.80015,333616
4.80827,454147
4.81640,481237
4.82452,434688
4.83265,366598
4.84077,328355
4.84888,320304
4.85702,309020
4.86513,296184
4.87327,277412
4.88138,266670
4.88950,255807
4.89763,252660
4.90575,246394
4.91387,249285
4.92200,290905
4.93012,409355
4.93825,669534
4.94637,1003137
4.95448,1207212
4.96262,1166652
4.97073,1015432
4.97887,849222
4.98698,721782
4.99510,614210
5.00323,559894
5.01135,520219
5.01947,500041
5.02760,552634
5.03572,711020
5.04385,886474
5.05197,916166
5.06008,819271
5.06822,667168
5.07633,593570
5.08447,524947
5.09258,509091
5.10070,511067
5.10883,543910
5.11695,578328
5.12508,600910
5.13320,547776
5.14132,484057
5.14945,444839
5.15757,451570
5.16568,471385
5.17382,508036
5.18193,561716
5.19007,584704
5.19818,571685
5.20630,526617
5.21443,479927
5.22255,438969
5.23068,412743
5.23880,382296
5.24692,379100
5.25505,353443
5.26317,340656
5.27130,324333
5.27942,317416
5.28753,307517
5.29567,310873
5.30378,303207
5.31190,295277
5.32003,283885
5.32815,286380
5.33628,291805
5.34440,292407
5.35252,294337
5.36065,275264
5.36877,265545
5.37690,265315
5.38502,264697
5.39313,264012
5.40127,256238
5.40938,258422
5.41750,253292
5.42563,245610
5.43375,241538
5.44188,248645
5.45000,231667
5.45812,239104
5.46625,247407
5.47437,230546
5.48250,227049
5.49062,223854
5.49873,228997
5.50687,230327
5.51498,232873
5.52312,222753
5.53123,225380
5.53935,221446
5.54748,219162
5.55560,220290
5.56372,233086
5.57185,246226
5.57997,255848
5.58810,256721
5.59622,241669
5.60433,230092
5.61247,234729
5.62058,228432
5.62872,226007
5.63683,228826
5.64495,237189
5.65308,227797
5.66120,221941
5.66932,212619
5.67745,227786
5.68557,240703
5.69370,248327
5.70182,266661
5.70993,269487
5.71807,270054
5.72618,291975
5.73432,293783
5.74243,290392
5.75055,282620
5.75868,282776
5.76680,291924
5.77493,292586
5.78305,291593
5.79117,275455
5.79930,280011
5.80742,366764
5.81553,579103
5.82367,964577
5.83178,1367974
5.83992,1495709
5.84803,1317283
5.85615,960929
5.86428,646703
5.87240,464420
5.88053,369933
5.88865,315923
5.89677,289540
5.90490,294153
5.91302,344520
5.92115,476086
5.92927,624827
5.93738,715266
5.94552,665044
5.95363,540767
5.96175,429300
5.96988,362228
5.97800,355237
5.98613,352554
5.99425,370832
6.00237,341007
6.01050,287864
6.01862,237859
6.02675,217537
6.03487,203665
6.04298,192524
6.05112,184590
6.05923,179026
6.06735,181628
6.07548,164776
6.08360,165375
6.09173,165782
6.09985,157592
6.10797,154629
6.11610,165103
6.12422,176186
6.13235,217142
6.14047,285020
6.14858,364376
6.15672,362087
6.16483,318283
6.17297,254763
6.18108,232649
6.18920,224472
6.19733,234502
6.20545,241739
6.21357,248575
6.22170,229016
6.22982,208956
6.23795,199362
6.24607,194897
6.25418,191440
6.26232,199092
6.27043,195785
6.27857,198759
6.28668,192351
6.29480,193914
6.30293,193721
6.31105,193612
6.31918,217327
6.32730,259124
6.33542,341998
6.34355,387408
6.35167,386265
6.35978,341215
6.36792,292278
6.37603,264603
6.38417,241448
6.39228,238645
6.40040,228600
6.40853,228114
6.41665,223885
6.42478,231117
6.43290,225552
6.44102,238441
6.44915,232759
6.45727,240453
6.46538,239820
6.47352,236110
6.48163,231716
6.48977,231239
6.49788,249572
6.50600,250808
6.51413,255545
6.52225,249201
6.53038,247574
6.53850,249530
6.54662,261636
6.55475,268859
6.56287,266569
6.57100,267328
6.57912,277973
6.58723,285303
6.59537,281221
6.60348,280576
6.61160,259432
6.61973,256890
6.62785,254028
6.63598,253707
6.64410,261104
6.65222,278074
6.66035,331293
6.66847,418595
6.67660,452463
6.68472,456307
6.69283,448452
6.70097,459217
6.70908,437825
6.71720,384012
6.72533,309564
6.73345,290775
6.74158,276156
6.74970,209760
6.75782,182447
6.76595,174983
6.77407,185978
6.78220,221537
6.79032,329828
6.79843,547301
6.80657,819318
6.81468,1002847
6.82282,988306
6.83093,774576
6.83905,522711
6.84718,337118
6.85530,237982
6.86342,190427
6.87155,158114
6.87967,147594
6.88780,129869
6.89592,125335
6.90403,116127
6.91217,112041
6.92028,118209
6.92842,140545
6.93653,188426
6.94465,269555
6.95278,359600
6.96090,401339
6.96903,402488
6.97715,338823
6.98527,269082
6.99340,199997
7.00152,162999
7.00963,134596
7.01777,111184
7.02588,119418
7.03402,116430
7.04213,110554
7.05025,112897
7.05838,108804
7.06650,102885
7.07463,100099
7.08275,96753
7.09087,92918
7.09900,88155
7.10712,90625
7.11525,93250
7.12337,89727
7.13148,89196
7.13962,92434
7.14773,103876
7.15585,121403
7.16398,143555
7.17210,158138
7.18023,178631
7.18835,185883
7.19647,190863
7.20460,200020
7.21272,267414
7.22085,479739
7.22897,838222
7.23708,1131250
7.24522,1133845
7.25333,885004
7.26145,570997
7.26958,388615
7.27770,287684
7.28583,224923
7.29395,182788
7.30207,180968
7.31020,227013
7.31832,274551
7.32645,317214
7.33457,334652
7.34268,304926
7.35082,251197
7.35893,193849
7.36707,150979
7.37518,134747
7.38330,126067
7.39143,122538
7.39955,127541
7.40767,137352
7.41580,154015
7.42392,187505
7.43205,208323
7.44017,222107
7.44828,218555
7.45642,184434
7.46453,150832
7.47267,129217
7.48078,112931
7.48890,102506
7.49703,103505
7.50515,98702
7.51327,99018
7.52140,111071
7.52952,125049
7.53765,157430
7.54577,190636
7.55388,212819
7.56202,219748
7.57013,198912
7.57827,175041
7.58638,140541
7.59450,122179
7.60263,110480
7.61075,104256
7.61888,97876
7.62700,98805
7.63512,92828
7.64325,89448
7.65137,90699
7.65948,82735
7.66762,86015
7.67573,82980
7.68387,86015
7.69198,83413
7.70010,83256
7.70823,84514
7.71635,87152
7.72448,82516
7.73260,87244
7.74072,83455
7.74885,74726
7.75697,83709
7.76510,90448
7.77322,76034
7.78133,78945
7.78947,82022
7.79758,84804
7.80570,82483
7.81383,83593
7.82195,86241
7.83008,81204
7.83820,77068
7.84632,79567
7.85445,78238
7.86257,76323
7.87070,75465
7.87882,81172
7.88693,80091
7.89507,81854
7.90318,78390
7.91130,74249
7.91943,73808
7.92755,81602
7.93568,90256
7.94380,107439
7.95192,115561
7.96005,100779
7.96817,93501
7.97630,89786
7.98442,83164
7.99253,79351
8.00067,70080
8.00878,68063
8.01692,64334
8.02503,66827
8.03315,63474
8.04128,69290
8.04940,73071
8.05752,67306
8.06565,66939
8.07377,68179
8.08190,66369
8.09002,62821
8.09813,67627
8.10627,68267
8.11438,70602
8.12252,71155
8.13063,68336
8.13875,71814
8.14688,78588
8.15500,84331
8.16313,80751
8.17125,74870
8.17937,68928
8.18750,70512
8.19562,66716
8.20373,69844
8.21187,72792
8.21998,66589
8.22812,68251
8.23623,70499
8.24435,67678
8.25248,65453
8.26060,63802
8.26873,64090
8.27685,66726
8.28497,67730
8.29310,62799
8.30122,69481
8.30933,72802
8.31747,72160
8.32558,79798
8.33372,71842
8.34183,71742
8.34995,70854
8.35808,67255
8.36620,65531
8.37433,60988
8.38245,60413
8.39057,63556
8.39870,64641
8.40682,64347
8.41495,62629
8.42307,62018
8.43118,63507
8.43932,61219
8.44743,61085
8.45555,58303
8.46368,59859
8.47180,59989
8.47993,63302
8.48805,63860
8.49617,60420
8.50430,64951
8.51242,68014
8.52055,76742
8.52867,102845
8.53678,151141
8.54492,224454
8.55303,265486
8.56117,246484
8.56928,200735
8.57740,156138
8.58553,110152
8.59365,94965
8.60177,82331
8.60990,79424
8.61802,77690
8.62615,72769
8.63427,69090
8.64238,62742
8.65052,71881
8.65863,70923
8.66677,72767
8.67488,68406
8.68300,65071
8.69113,68631
8.69925,70097
8.70737,69851
8.71550,72840
8.72362,88350
8.73175,122073
8.73987,195253
8.74798,264533
8.75612,327522
8.76423,320500
8.77237,292613
8.78048,222019
8.78860,181665
8.79673,147803
8.80485,127500
8.81298,122525
8.82110,129073
8.82922,134411
8.83735,131831
8.84547,128569
8.85358,120270
8.86172,126847
8.86983,119655
8.87797,110726
8.88608,111090
8.89420,109115
8.90233,101802
8.91045,97306
8.91858,101817
8.92670,99891
8.93482,105480
8.94295,107813
8.95107,115080
8.95918,110086
8.96732,106800
8.97543,103467
8.98357,96210
8.99168,93954
8.99980,96857
9.00793,90171
9.01605,92638
9.02418,89932
9.03230,84594
9.04042,88382
9.04855,82725
9.05667,84819
9.06480,80652
9.07292,84546
9.08103,82779
9.08917,83698
9.09728,87672
9.10540,89106
9.11353,95966
9.12165,100762
9.12978,90456
9.13790,84818
9.14602,92257
9.15415,79295
9.16227,74723
9.17040,79015
9.17852,76386
9.18663,74738
9.19477,76279
9.20288,72958
9.21102,74761
9.21913,75289
9.22725,71821
9.23538,77190
9.24350,69685
9.25162,77458
9.25975,77596
9.26787,76275
9.27600,78622
9.28412,77390
9.29223,76363
9.30037,74896
9.30848,75568
9.31662,73646
9.32473,79895
9.33285,75432
9.34098,78236
9.34910,77666
9.35722,75508
9.36535,70562
9.37347,68218
9.38160,69213
9.38972,69039
9.39783,69891
9.40597,71470
9.41408,78651
9.42222,85180
9.43033,86687
9.43845,89722
9.44658,84325
9.45470,74801
9.46283,72014
9.47095,68477
9.47907,67874
9.48720,64269
9.49532,62465
9.50343,64424
9.51157,70411
9.51968,76090
9.52782,76974
9.53593,70915
9.54405,63934
9.55218,55470
9.56030,53035
9.56843,51419
9.57655,47680
9.58467,49535
9.59280,50447
9.60092,47256
9.60905,49980
9.61717,48360
9.62528,48242
9.63342,51437
9.64153,50766
9.64965,49810
9.65778,47860
9.66590,50345
9.67403,49392
9.68215,51073
9.69027,50599
9.69840,44747
9.70652,42658
9.71465,43004
9.72277,41122
9.73088,42254
9.73902,44006
9.74713,45848
9.75525,42488
9.76338,42953
9.77150,46998
9.77963,47376
9.78775,42994
9.79587,41209
9.80400,40667
9.81212,41423
9.82025,39052
9.82837,43773
9.83648,44814
9.84462,43044
9.85273,40858
9.86087,46196
9.86898,46477
9.87710,42869
9.88523,47212
9.89335,47724
9.90147,43867
9.90960,42061
9.91772,45105
9.92585,49513
9.93397,60081
9.94208,76066
9.95022,91358
9.95833,101471
9.96647,97142
9.97458,87654
9.98270,73696
9.99083,71884
9.99895,57097
10.00707,56101
10.01520,49163
10.02332,46964
10.03145,43735
10.03957,46503
10.04768,47883
10.05582,45804
10.06393,49202
10.07207,48321
10.08018,45728
10.08830,46013
10.09643,45162
10.10455,48470
10.11268,44091
10.12080,43538
10.12892,42375
10.13705,43597
10.14517,37471
10.15328,43801
10.16142,43054
10.16953,40157
10.17767,44653
10.18578,41800
10.19390,39977
10.20203,39282
10.21015,40557
10.21828,47591
10.22640,44009
10.23452,45273
10.24265,51873
10.25077,55375
10.25890,77247
10.26702,127610
10.27513,272159
10.28327,535477
10.29138,908089
10.29950,1374777
10.30763,2042435
10.31575,3142784
10.32388,4560767
10.33200,5710168
10.34012,5798033
10.34825,4801234
10.35637,3074365
10.36450,1770561
10.37262,1027395
10.38073,652964
10.38887,464251
10.39698,349350
10.40510,274078
10.41323,220217
10.42135,191976
10.42948,175101
10.43760,155637
10.44572,141787
10.45385,138739
10.46197,129727
10.47010,126005
10.47822,123611
10.48633,115956
10.49447,117695
10.50258,108539
10.51072,107032
10.51883,103172
10.52695,99989
10.53508,92710
10.54320,92222
10.55132,86584
10.55945,87027
10.56757,85605
10.57570,82575
10.58382,81861
10.59193,82099
10.60007,78739
10.60818,78162
10.61632,79000
10.62443,70771
10.63255,67016
10.64068,69934
10.64880,63508
10.65693,65000
10.66505,68281
10.67317,63579
10.68130,69697
10.68942,69973
10.69753,71204
10.70567,68385
10.71378,65359
10.72192,67566
10.73003,65711
10.73815,66345
10.74628,61033
10.75440,59789
10.76253,53611
10.77065,58641
10.77877,55960
10.78690,53139
10.79502,56556
10.80313,55478
10.81127,55853
10.81938,54692
10.82752,55228
10.83563,51805
10.84375,50373
10.85188,48645
10.86000,51962
10.86813,51539
10.87625,49045
10.88437,50108
10.89250,56673
10.90062,49558
10.90875,48777
10.91687,45355
10.92498,45807
10.93312,44195
10.94123,47594
10.94935,46155
10.95748,49568
10.96560,48008
10.97373,47154
10.98185,49200
10.98997,46064
10.99810,47633
11.00622,42874
11.01435,46800
11.02247,43260
11.03058,44949
11.03872,44629
11.04683,46400
11.05495,44940
11.06308,45393
11.07120,53156
11.07933,51204
11.08745,52351
11.09557,55969
11.10370,55640
11.11182,56203
11.11995,56437
11.12807,56368
11.13618,54831
11.14432,56936
11.15243,61753
11.16057,54914
11.16868,57545
11.17680,57406
11.18493,58849
11.19305,57041
11.20117,60594
11.20930,59327
11.21742,55949
11.22555,57843
11.23367,58558
11.24178,55491
11.24992,63417
11.25803,74626
11.26617,86071
11.27428,103737
11.28240,126785
11.29053,141813
11.29865,143245
11.30678,149716
11.31490,162840
11.32302,194663
11.33115,233157
11.33927,253857
11.34738,253830
11.35552,227214
11.36363,176745
11.37177,141006
11.37988,119763
11.38800,102012
11.39613,96647
11.40425,93894
11.41238,86534
11.42050,84215
11.42862,78744
11.43675,73558
11.44487,70762
11.45300,70813
11.46112,66741
11.46923,66589
11.47737,72634
11.48548,87500
11.49360,96998
11.50173,104483
11.50985,105927
11.51798,99189
11.52610,100141
11.53422,92964
11.54235,91323
11.55047,91173
11.55860,78373
11.56672,70414
11.57483,72243
11.58297,64687
11.59108,72122
11.59920,77208
11.60733,87798
11.61545,99395
11.62358,96784
11.63170,91016
11.63982,79074
11.64795,73583
11.65607,69625
11.66420,69138
11.67232,65725
11.68043,71225
11.68857,72456
11.69668,84822
11.70482,86386
11.71293,86209
11.72105,84099
11.72918,89669
11.73730,77457
11.74542,79680
11.75355,73532
11.76167,62151
11.76980,64390
11.77792,62554
11.78603,63902
11.79417,62356
11.80228,60706
11.81042,61290
11.81853,59146
11.82665,55609
11.83478,56691
11.84290,53142
11.85102,51408
11.85915,50360
11.86727,47345
11.87540,46513
11.88352,52364
11.89163,50159
11.89977,48251
11.90788,59103
11.91602,60517
11.92413,68606
11.93225,74601
11.94038,74104
11.94850,68999
11.95663,59845
11.96475,54938
11.97287,51396
11.98100,50318
11.98912,51366
11.99723,57490
12.00537,63493
12.01348,61885
12.02162,60071
12.02973,56299
12.03785,52872
12.04598,51711
12.05410,51938
12.06223,49067
12.07035,47973
12.07847,47233
12.08660,45712
12.09472,46242
12.10285,45262
12.11097,50124
12.11908,47735
12.12722,47709
12.13533,47415
12.14345,48043
12.15158,45412
12.15970,42303
12.16783,43736
12.17595,42816
12.18407,42674
12.19220,45932
12.20032,40491
12.20845,45556
12.21657,43761
12.22468,41768
12.23282,43417
12.24093,39077
12.24905,43822
12.25718,41318
12.26530,41420
12.27343,44187
12.28155,42250
12.28967,41688
12.29780,42897
12.30592,46822
12.31405,46111
12.32217,47118
12.33028,43811
12.33842,42657
12.34653,42987
12.35467,43142
12.36278,46930
12.37090,43439
12.37903,40325
12.38715,42925
12.39527,46730
12.40340,53274
12.41152,65385
12.41965,74160
12.42777,77806
12.43588,79396
12.44402,68960
12.45213,60148
12.46027,55304
12.46838,49937
12.47650,47876
12.48463,48819
12.49275,45443
12.50088,44330
12.50900,44685
12.51712,41433
12.52525,42025
12.53337,44755
12.54148,52016
12.54962,59049
12.55773,72823
12.56587,78958
12.57398,86182
12.58210,77929
12.59023,68371
12.59835,59546
12.60648,51765
12.61460,51490
12.62272,52235
12.63085,47965
12.63897,47147
12.64708,47636
12.65522,43893
12.66333,40485
12.67147,45861
12.67958,40329
12.68770,43118
12.69583,41929
12.70395,36652
12.71208,42569
12.72020,39161
12.72832,41645
12.73645,41155
12.74457,47398
12.75270,46243
12.76082,43358
12.76893,41186
12.77707,47517
12.78518,49771
12.79330,47671
12.80143,47470
12.80955,43909
12.81768,41778
12.82580,44187
12.83392,40685
12.84205,39112
12.85017,35586
12.85830,37382
12.86642,38939
12.87453,39842
12.88267,42353
12.89078,37683
12.89890,35149
12.90703,36108
12.91515,34918
12.92328,42513
12.93140,49124
12.93952,59359
12.94765,75957
12.95577,90600
12.96390,101974
12.97202,111531
12.98013,101949
12.98827,100877
12.99638,86953
13.00452,71377
13.01263,67408
13.02075,62998
13.02888,63831
13.03700,56263
13.04512,59894
13.05325,54990
13.06137,50255
13.06950,48377
13.07762,50484
13.08573,46206
13.09387,44105
13.10198,43988
13.11012,41870
13.11823,43794
13.12635,41932
13.13448,42201
13.14260,39496
13.15073,41462
13.15885,41545
13.16697,40747
13.17510,42287
13.18322,40440
13.19133,40410
13.19947,40746
13.20758,40729
13.21572,42553
13.22383,42372
13.23195,44076
13.24008,47109
13.24820,48893
13.25633,51980
13.26445,55403
13.27257,52368
13.28070,55969
13.28882,50255
13.29693,47312
13.30507,49329
13.31318,56289
13.32132,49129
13.32943,52425
13.33755,51967
13.34568,48382
13.35380,44758
13.36193,45731
13.37005,46768
13.37817,43185
13.38630,41747
13.39442,42027
13.40255,38503
13.41067,40921
13.41878,38801
13.42692,39880
13.43503,38710
13.44315,38426
13.45128,34921
13.45940,39570
13.46753,35225
13.47565,38764
13.48377,36164
13.49190,36233
13.50002,35662
13.50815,34708
13.51627,38272
13.52438,39449
13.53252,41901
13.54063,43497
13.54877,41535
13.55688,47930
13.56500,47772
13.57313,48096
13.58125,48905
13.58937,53345
13.59750,62330
13.60562,72595
13.61375,91902
13.62187,106368
13.62998,112770
13.63812,96932
13.64623,83509
13.65437,68041
13.66248,59411
13.67060,55278
13.67873,52322
13.68685,52755
13.69497,48466
13.70310,52541
13.71122,44576
13.71935,49067
13.72747,44998
13.73558,46219
13.74372,46421
13.75183,53122
13.75997,64498
13.76808,80363
13.77620,93682
13.78433,103338
13.79245,112447
13.80058,120257
13.80870,126147
13.81682,128022
13.82495,136326
13.83307,142348
13.84118,134488
13.84932,122162
13.85743,100064
13.86557,85175
13.87368,73600
13.88180,70792
13.88993,66528
13.89805,67777
13.90618,65898
13.91430,66399
13.92242,55352
13.93055,56177
13.93867,52794
13.94678,49223
13.95492,55987
13.96303,47675
13.97117,53388
13.97928,52041
13.98740,50894
13.99553,50933
14.00365,53642
14.01178,48579
14.01990,53213
14.02802,50227
14.03615,44138
14.04427,48661
14.05240,42772
14.06052,44965
14.06863,43950
14.07677,43591
14.08488,42920
14.09300,42032
14.10113,42427
14.10925,43507
14.11738,46913
14.12550,49683
14.13362,56070
14.14175,74104
14.14987,98216
14.15800,128354
14.16612,151474
14.17423,151755
14.18237,147405
14.19048,128396
14.19862,106781
14.20673,102175
14.21485,93674
14.22298,88001
14.23110,81978
14.23922,80019
14.24735,76993
14.25547,72193
14.26360,70844
14.27172,67152
14.27983,62856
14.28797,60351
14.29608,62066
14.30422,55499
14.31233,51502
14.32045,46518
14.32858,44936
14.33670,42595
14.34482,43780
14.35295,44173
14.36107,45101
14.36920,44755
14.37732,42265
14.38543,41878
14.39357,54533
14.40168,79393
14.40982,104987
14.41793,124331
14.42605,140270
14.43418,128778
14.44230,108217
14.45043,83222
14.45855,70329
14.46667,59096
14.47480,56396
14.48292,57863
14.49103,49152
14.49917,47012
14.50728,43148
14.51542,46279
14.52353,42809
14.53165,47460
14.53978,45623
14.54790,42413
14.55603,40417
14.56415,38874
14.57227,40441
14.58040,39536
14.58852,39129
14.59665,41329
14.60477,37857
14.61288,39589
14.62102,38821
14.62913,34773
14.63725,34188
14.64538,34618
14.65350,36461
14.66163,35214
14.66975,33960
14.67787,36145
14.68600,32996
14.69412,35039
14.70225,38085
14.71037,35608
14.71848,34707
14.72662,35894
14.73473,36594
14.74285,33500
14.75098,35863
14.75910,36222
14.76723,34965
14.77535,40551
14.78347,45582
14.79160,76298
14.79972,163270
14.80785,316631
14.81597,560240
14.82408,859057
14.83222,994067
14.84033,918596
14.84847,691907
14.85658,486534
14.86470,308893
14.87283,217122
14.88095,156451
14.88907,128947
14.89720,110551
14.90532,104353
14.91345,87788
14.92157,88564
14.92968,82139
14.93782,81799
14.94593,71770
14.95407,69250
14.96218,65736
14.97030,63186
14.97843,59968
14.98655,57752
14.99468,59420
15.00280,55958
15.01092,58073
15.01905,55759
15.02717,51649
15.03528,50514
15.04342,52950
15.05153,50202
15.05967,48199
15.06778,49826
15.07590,49496
15.08403,50690
15.09215,43145
15.10028,48126
15.10840,45951
15.11652,47084
15.12465,50239
15.13277,52340
15.14088,48952
15.14902,52577
15.15713,50845
15.16527,46923
15.17338,45598
15.18150,40148
15.18963,41387
15.19775,41769
15.20588,35823
15.21400,36229
15.22212,36245
15.23025,38203
15.23837,35282
15.24650,37475
15.25462,37920
15.26273,34941
15.27087,34876
15.27898,30758
15.28710,35249
15.29523,35835
15.30335,31894
15.31148,32696
15.31960,34624
15.32772,33691
15.33585,32042
15.34397,35430
15.35210,31201
15.36022,35395
15.36833,31375
15.37647,33844
15.38458,34423
15.39270,34933
15.40083,31280
15.40895,31892
15.41708,34582
15.42520,33108
15.43332,32639
15.44145,33839
15.44957,33843
15.45770,37998
15.46582,41366
15.47393,49128
15.48207,56684
15.49018,63907
15.49832,66997
15.50643,68125
15.51455,66705
15.52268,59292
15.53080,54300
15.53892,48511
15.54705,48216
15.55517,43053
15.56330,43470
15.57142,39874
15.57953,38347
15.58767,37171
15.59578,35885
15.60392,38046
15.61203,34671
15.62015,36114
15.62828,36037
15.63640,32408
15.64453,33526
15.65265,34636
15.66077,32940
15.66890,34484
15.67702,36510
15.68513,32087
15.69327,34453
15.70138,32851
15.70952,31812
15.71763,31622
15.72575,34289
15.73388,34685
15.74200,34288
15.75013,40761
15.75825,51947
15.76637,65475
15.77450,87196
15.78262,107346
15.79073,122971
15.79887,104218
15.80698,91471
15.81512,71310
15.82323,57575
15.83135,51863
15.83948,49648
15.84760,43368
15.85573,44205
15.86385,47862
15.87197,44575
15.88010,46888
15.88822,48370
15.89635,49859
15.90447,47317
15.91258,45186
15.92072,41774
15.92883,38938
15.93695,40178
15.94508,40157
15.95320,38084
15.96133,39500
15.96945,43133
15.97757,39691
15.98570,38991
15.99382,41666
16.00195,44794
16.01007,43782
16.01818,48233
16.02632,46838
16.03443,44665
16.04257,39244
16.05068,37041
16.05880,36812
16.06693,35966
16.07505,38572
16.08317,34196
16.09130,33228
16.09942,34885
16.10755,41613
16.11567,36958
16.12378,40852
16.13192,40072
16.14003,38567
16.14817,41044
16.15628,36898
16.16440,37456
16.17253,35034
16.18065,35538
16.18877,36409
16.19690,36021
16.20502,36790
16.21315,34834
16.22127,36209
16.22938,34584
16.23752,34491
16.24563,34028
16.25377,35072
16.26188,32901
16.27000,36365
16.27813,34628
16.28625,38284
16.29438,37357
16.30250,38416
16.31062,33966
16.31875,38651
16.32687,36590
16.33498,33573
16.34312,39281
16.35123,39535
16.35937,45314
16.36748,38372
16.37560,38356
16.38373,36229
16.39185,41316
16.39998,36706
16.40810,38969
16.41622,38039
16.42435,35573
16.43247,39252
16.44058,38278
16.44872,54460
16.45683,65909
16.46497,91017
16.47308,115985
16.48120,131038
16.48933,128463
16.49745,112449
16.50558,83379
16.51370,68334
16.52182,55742
16.52995,49546
16.53807,47936
16.54620,48304
16.55432,44564
16.56243,42739
16.57057,43109
16.57868,41338
16.58680,42429
16.59493,39634
16.60305,38184
16.61118,41265
16.61930,37790
16.62742,37505
16.63555,38854
16.64367,35013
16.65180,36151
16.65992,33783
16.66803,34382
16.67617,35937
16.68428,36224
16.69242,33175
16.70053,38567
16.70865,34726
16.71678,33462
16.72490,35314
16.73302,36095
16.74115,36816
16.74927,36996
16.75740,39100
16.76552,38776
16.77363,38410
16.78177,35242
16.78988,35649
16.79802,34738
16.80613,34770
16.81425,32263
16.82238,35391
16.83050,40740
16.83863,33881
16.84675,36741
16.85487,32147
16.86300,36614
16.87112,31489
16.87923,34976
16.88737,32382
16.89548,33390
16.90362,33225
16.91173,32566
16.91985,34735
16.92798,33329
16.93610,34383
16.94423,33558
16.95235,31799
16.96047,34199
16.96860,30646
16.97672,33815
16.98483,34439
16.99297,38105
17.00108,34612
17.00922,30672
17.01733,30066
17.02545,34926
17.03358,34062
17.04170,33966
17.04983,38872
17.05795,34528
17.06607,42214
17.07420,35352
17.08232,38337
17.09045,41310
17.09857,38455
17.10668,37706
17.11482,38759
17.12293,36532
17.13105,35587
17.13918,37061
17.14730,39945
17.15543,33906
17.16355,38637
17.17167,37685
17.17980,34550
17.18792,31937
17.19605,33721
17.20417,34195
17.21228,35385
17.22042,30918
17.22853,31684
17.23665,33909
17.24478,33361
17.25290,34822
17.26103,34518
17.26915,35695
17.27727,33905
17.28540,32421
17.29352,36179
17.30165,34422
17.30977,35310
17.31788,36453
17.32602,37772
17.33413,38830
17.34227,40891
17.35038,36216
17.35850,39711
17.36663,38880
17.37475,37723
17.38287,38079
17.39100,38685
17.39912,39761
17.40725,39666
17.41537,39004
17.42348,39757
17.43162,41673
17.43973,45185
17.44787,34452
17.45598,38129
17.46410,37385
17.47223,35305
17.48035,35848
17.48848,37327
17.49660,35989
17.50472,38063
17.51285,42755
17.52097,49171
17.52908,48472
17.53722,52552
17.54533,56431
17.55347,62000
17.56158,68806
17.56970,82598
17.57783,93915
17.58595,123939
17.59408,144470
17.60220,158275
17.61032,148754
17.61845,139258
17.62657,119953
17.63468,92470
17.64282,80842
17.65093,69567
17.65907,65838
17.66718,60494
17.67530,60609
17.68343,58311
17.69155,54913
17.69968,53291
17.70780,53233
17.71592,50171
17.72405,49673
17.73217,47784
17.74030,46758
17.74842,46118
17.75653,44425
17.76467,38502
17.77278,41959
17.78090,40300
17.78903,38482
17.79715,40607
17.80528,44632
17.81340,46419
17.82152,50549
17.82965,49143
17.83777,46293
17.84590,50848
17.85402,52633
17.86213,53986
17.87027,50335
17.87838,47991
17.88652,49804
17.89463,44472
17.90275,41507
17.91088,37712
17.91900,39297
17.92712,39191
17.93525,36357
17.94337,38584
17.95150,37060
17.95962,36503
17.96773,37363
17.97587,40002
17.98398,36698
17.99212,39157
18.00023,42990
18.00835,40944
18.01648,44994
18.02460,54055
18.03272,58140
18.04085,57540
18.04897,59593
18.05710,75999
18.06522,105252
18.07333,162527
18.08147,265568
18.08958,390727
18.09772,489124
18.10583,532585
18.11395,499399
18.12208,443382
18.13020,402883
18.13833,378605
18.14645,354695
18.15457,350181
18.16270,341999
18.17082,335553
18.17893,318938
18.18707,313769
18.19518,308277
18.20332,299205
18.21143,300012
18.21955,286518
18.22768,280580
18.23580,284634
18.24393,269233
18.25205,271008
18.26017,267277
18.26830,255261
18.27642,246921
18.28453,238687
18.29267,230798
18.30078,219459
18.30892,222202
18.31703,213283
18.32515,215985
18.33328,207507
18.34140,194282
18.34953,188951
18.35765,190344
18.36577,189493
18.37390,184824
18.38202,182933
18.39015,179824
18.39827,175157
18.40638,179563
18.41452,173693
18.42263,176511
18.43075,173138
18.43888,171092
18.44700,180369
18.45513,175624
18.46325,189563
18.47137,196410
18.47950,195634
18.48762,190558
18.49575,180387
18.50387,170447
18.51198,158467
18.52012,148331
18.52823,149580
18.53637,140517
18.54448,134722
18.55260,132263
18.56073,131867
18.56885,128158
18.57697,129189
18.58510,122850
18.59322,126701
18.60135,125970
18.60947,124979
18.61758,124911
18.62572,122415
18.63383,120931
18.64197,108963
18.65008,114159
18.65820,108188
18.66633,109789
18.67445,105861
18.68257,103485
18.69070,103834
18.69882,97836
18.70695,94834
18.71507,99482
18.72318,92705
18.73132,91147
18.73943,86949
18.74757,88991
18.75568,86600
18.76380,86601
18.77193,83274
18.78005,81513
18.78818,84213
18.79630,78645
18.80442,79770
18.81255,79873
18.82067,75613
18.82878,74702
18.83692,78591
18.84503,73951
18.85317,71037
18.86128,77267
18.86940,73224
18.87753,75618
18.88565,72958
18.89378,74947
18.90190,74427
18.91002,74516
18.91815,70949
18.92627,72372
18.93440,69665
18.94252,68806
18.95063,72969
18.95877,66281
18.96688,66115
18.97500,61869
18.98313,63245
18.99125,63158
18.99938,64346
19.00750,59167
19.01562,62209
19.02375,66308
19.03187,66528
19.04000,61668
19.04812,58722
19.05623,59839
19.06437,65341
19.07248,63122
19.08060,69420
19.08873,80465
19.09685,78214
19.10498,79871
19.11310,81298
19.12122,76945
19.12935,76009
19.13747,74816
19.14560,78441
19.15372,74522
19.16183,78158
19.16997,75087
19.17808,72952
19.18622,64445
19.19433,65368
19.20245,62539
19.21058,57733
19.21870,57922
19.22682,57072
19.23495,54849
19.24307,55622
19.25120,50699
19.25932,51564
19.26743,54247
19.27557,52603
19.28368,54481
19.29182,59042
19.29993,55472
19.30805,55924
19.31618,54493
19.32430,50835
19.33243,55066
19.34055,56885
19.34867,54868
19.35680,58431
19.36492,64831
19.37303,64024
19.38117,65955
19.38928,64507
19.39742,56548
19.40553,55392
19.41365,55641
19.42178,57300
19.42990,58207
19.43803,76135
19.44615,101076
19.45427,124797
19.46240,137452
19.47052,133077
19.47863,117219
19.48677,100899
19.49488,79940
19.50302,66936
19.51113,57430
19.51925,59832
19.52738,56357
19.53550,55218
19.54363,54627
19.55175,52776
19.55987,49619
19.56800,48282
19.57612,50677
19.58425,51660
19.59237,46929
19.60048,46256
19.60862,45982
19.61673,53397
19.62485,55068
19.63298,65089
19.64110,80876
19.64923,102276
19.65735,112573
19.66547,126851
19.67360,125027
19.68172,115987
19.68985,107088
19.69797,96252
19.70608,86751
19.71422,76310
19.72233,71821
19.73045,72160
19.73858,66290
19.74670,58496
19.75483,52543
19.76295,56500
19.77107,62580
19.77920,60572
19.78732,64237
19.79545,63194
19.80357,68099
19.81168,61564
19.81982,60283
19.82793,61601
19.83607,54654
19.84418,55816
19.85230,61762
19.86043,85314
19.86855,110507
19.87667,179693
19.88480,266764
19.89292,341115
19.90105,388133
19.90917,369655
19.91728,317739
19.92542,249080
19.93353,187979
19.94167,156060
19.94978,135747
19.95790,122667
19.96603,108861
19.97415,104800
19.98228,96574
19.99040,98870
19.99852,93268
20.00665,92354
20.01477,86027
20.02288,83595
20.03102,84375
20.03913,78861
20.04727,79594
20.05538,66719
20.06350,68529
20.07163,68462
20.07975,74464
20.08788,67666
20.09600,63530
20.10412,59853
20.11225,58854
20.12037,58099
20.12848,53662
20.13662,52662
20.14473,56488
20.15287,58484
20.16098,62745
20.16910,69866
20.17723,72057
20.18535,79958
20.19348,81776
20.20160,77085
20.20972,71039
20.21785,69129
20.22597,74890
20.23410,83759
20.24222,93039
20.25033,103500
20.25847,113635
20.26658,111944
20.27470,117713
20.28283,102197
20.29095,93879
20.29908,80365
20.30720,77163
20.31532,65070
20.32345,56363
20.33157,56849
20.33970,49912
20.34782,46675
20.35593,47105
20.36407,41370
20.37218,46995
20.38032,45721
20.38843,45975
20.39655,49649
20.40468,50404
20.41280,56790
20.42092,53044
20.42905,57298
20.43717,52923
20.44530,54068
20.45342,51740
20.46153,53414
20.46967,47136
20.47778,48692
20.48592,47104
20.49403,44183
20.50215,43399
20.51028,40402
20.51840,43238
20.52652,42506
20.53465,39684
20.54277,40653
20.55090,38412
20.55902,36118
20.56713,38402
20.57527,38116
20.58338,37059
20.59152,40721
20.59963,40416
20.60775,39623
20.61588,38393
20.62400,37267
20.63213,36216
20.64025,38771
20.64837,42186
20.65650,39984
20.66462,39114
20.67273,37974
20.68087,44307
20.68898,38353
20.69712,40932
20.70523,40101
20.71335,36806
20.72148,37312
20.72960,39212
20.73773,41518
20.74585,40472
20.75397,38977
20.76210,41606
20.77022,46092
20.77833,53484
20.78647,59386
20.79458,75884
20.80272,96889
20.81083,105339
20.81895,110449
20.82708,101138
20.83520,83587
20.84333,68141
20.85145,59896
20.85957,50556
20.86770,45545
20.87582,48303
20.88395,46928
20.89207,45578
20.90018,48871
20.90832,44577
20.91643,42792
20.92455,38414
20.93268,42111
20.94080,40830
20.94893,40990
20.95705,43671
20.96517,43287
20.97330,41972
20.98142,41235
20.98955,38471
20.99767,35769
21.00578,41352
21.01392,38242
21.02203,41199
21.03017,39209
21.03828,39256
21.04640,42168
21.05453,40407
21.06265,38885
21.07077,39166
21.07890,38172
21.08702,46849
21.09515,41985
21.10327,38737
21.11138,40024
21.11952,43218
21.12763,48465
21.13577,53867
21.14388,67939
21.15200,73367
21.16013,73480
21.16825,75203
21.17637,70913
21.18450,67734
21.19262,64371
21.20075,59977
21.20887,58673
21.21698,59261
21.22512,56605
21.23323,56565
21.24137,56748
21.24948,57434
21.25760,53827
21.26573,56358
21.27385,57572
21.28198,55066
21.29010,54331
21.29822,53203
21.30635,50521
21.31447,54564
21.32258,53651
21.33072,49507
21.33883,52513
21.34697,47263
21.35508,54027
21.36320,47364
21.37133,50004
21.37945,51531
21.38758,53829
21.39570,55567
21.40382,52577
21.41195,60454
21.42007,58387
21.42820,58110
21.43632,54117
21.44443,53939
21.45257,55270
21.46068,50710
21.46880,52297
21.47693,53820
21.48505,52052
21.49318,51266
21.50130,52481
21.50942,46091
21.51755,51857
21.52567,49105
21.53380,47722
21.54192,43067
21.55003,44330
21.55817,44733
21.56628,46961
21.57440,52608
21.58253,54293
21.59065,58385
21.59878,66403
21.60690,64275
21.61502,67530
21.62315,62189
21.63127,59824
21.63940,58674
21.64752,54504
21.65563,52745
21.66377,52661
21.67188,53231
21.68002,55540
21.68813,51505
21.69625,47060
21.70438,47991
21.71250,42029
21.72062,43758
21.72875,39746
21.73687,45847
21.74500,42708
21.75312,43319
21.76123,46647
21.76937,45584
21.77748,48876
21.78562,51429
21.79373,56510
21.80185,56440
21.80998,54141
21.81810,53930
21.82622,49105
21.83435,47816
21.84247,42987
21.85060,42704
21.85872,43346
21.86683,48903
21.87497,56318
21.88308,76198
21.89122,90249
21.89933,97975
21.90745,112326
21.91558,115457
21.92370,125121
21.93183,123468
21.93995,116633
21.94807,125909
21.95620,124722
21.96432,126210
21.97243,116757
21.98057,127548
21.98868,119427
21.99682,121951
22.00493,119709
22.01305,118663
22.02118,115432
22.02930,115571
22.03743,114279
22.04555,108685
22.05367,111616
22.06180,110732
22.06992,107233
22.07805,104561
22.08617,100790
22.09428,103225
22.10242,104580
22.11053,97989
22.11865,98311
22.12678,93984
22.13490,92536
22.14303,92384
22.15115,88150
22.15927,86755
22.16740,84101
22.17552,85364
22.18365,79352
22.19177,77458
22.19988,78351
22.20802,78516
22.21613,77881
22.22427,74415
22.23238,70739
22.24050,70911
22.24863,65961
22.25675,61577
22.26487,67249
22.27300,71172
22.28112,65116
22.28925,66089
22.29737,67301
22.30548,72100
22.31362,68425
22.32173,66919
22.32987,67987
22.33798,65124
22.34610,60180
22.35423,58430
22.36235,56082
22.37047,57589
22.37860,58193
22.38672,63765
22.39485,70582
22.40297,67751
22.41108,76314
22.41922,71369
22.42733,74542
22.43547,68642
22.44358,65874
22.45170,61851
22.45983,60952
22.46795,57062
22.47608,58074
22.48420,61371
22.49232,65248
22.50045,65553
22.50857,63559
22.51668,59674
22.52482,57925
22.53293,62043
22.54107,55936
22.54918,52011
22.55730,47747
22.56543,49561
22.57355,50197
22.58168,48005
22.58980,41880
22.59792,43579
22.60605,46947
22.61417,42720
22.62228,45285
22.63042,45616
22.63853,40286
22.64667,43078
22.65478,41116
22.66290,44320
22.67103,45805
22.67915,43612
22.68728,53943
22.69540,53600
22.70352,55747
22.71165,59147
22.71977,59314
22.72790,55653
22.73602,53813
22.74413,53284
22.75227,48058
22.76038,47445
22.76850,47099
22.77663,49309
22.78475,53413
22.79288,55128
22.80100,57989
22.80912,58790
22.81725,56336
22.82537,57108
22.83350,53063
22.84162,49442
22.84973,49391
22.85787,51923
22.86598,54256
22.87412,53080
22.88223,54726
22.89035,60797
22.89848,67323
22.90660,74395
22.91472,91532
22.92285,104056
22.93097,117762
22.93910,110551
22.94722,95342
22.95533,89644
22.96347,71671
22.97158,71901
22.97972,66318
22.98783,60142
22.99595,57927
23.00408,56288
23.01220,52263
23.02032,51942
23.02845,47700
23.03657,45503
23.04470,43541
23.05282,41779
23.06093,42645
23.06907,41024
23.07718,42541
23.08532,43121
23.09343,43995
23.10155,42589
23.10968,43196
23.11780,40908
23.12593,40693
23.13405,37065
23.14217,41520
23.15030,38021
23.15842,37873
23.16653,40881
23.17467,40232
23.18278,37740
23.19092,41664
23.19903,34498
23.20715,39022
23.21528,36697
23.22340,38589
23.23153,37816
23.23965,41912
23.24777,39596
23.25590,40614
23.26402,41377
23.27215,39775
23.28027,37196
23.28838,39986
23.29652,41064
23.30463,43081
23.31275,41606
23.32088,40005
23.32900,40731
23.33713,44057
23.34525,56291
23.35337,54641
23.36150,56044
23.36962,60306
23.37775,55279
23.38587,54601
23.39398,50951
23.40212,46900
23.41023,46696
23.41835,43708
23.42648,47084
23.43460,45595
23.44273,44068
23.45085,39361
23.45897,42125
23.46710,38505
23.47522,37471
23.48335,43013
23.49147,41317
23.49958,42457
23.50772,38882
23.51583,41984
23.52397,41584
23.53208,43913
23.54020,48504
23.54833,42717
23.55645,48371
23.56457,50819
23.57270,53365
23.58082,65011
23.58895,67429
23.59707,78333
23.60518,81984
23.61332,75005
23.62143,73704
23.62957,74746
23.63768,94346
23.64580,104447
23.65393,123534
23.66205,133026
23.67017,146268
23.67830,143629
23.68642,151341
23.69455,156700
23.70267,156840
23.71078,156748
23.71892,158285
23.72703,164110
23.73517,195004
23.74328,289213
23.75140,498384
23.75953,942761
23.76765,1614321
23.77578,2362761
23.78390,2872153
23.79202,2905404
23.80015,2561731
23.80827,2087367
23.81638,1612182
23.82452,1199497
23.83263,905842
23.84077,723234
23.84888,595805
23.85700,503178
23.86513,436058
23.87325,379523
23.88138,359461
23.88950,323959
23.89762,290869
23.90575,272729
23.91387,261446
23.92200,244401
23.93012,230030
23.93823,223747
23.94637,206450
23.95448,202195
23.96260,187800
23.97073,177882
23.97885,178707
23.98698,166661
23.99510,167701
24.00322,151905
24.01135,156773
24.01947,165632
24.02760,169620
24.03572,166148
24.04383,162978
24.05197,154970
24.06008,142911
24.06820,123720
24.07633,126286
24.08445,123706
24.09258,125505
24.10070,125641
24.10882,113112
24.11695,111765
24.12507,110081
24.13320,114430
24.14132,115925
24.14943,126186
24.15757,123026
24.16568,122797
24.17382,121034
24.18193,119185
24.19005,114135
24.19818,110983
24.20630,112944
24.21442,107869
24.22255,104226
24.23067,96802
24.23880,94839
24.24692,89281
24.25503,84845
24.26317,87789
24.27128,82371
24.27942,81381
24.28753,79790
24.29565,75267
24.30378,77976
24.31190,85557
24.32003,91558
24.32815,109203
24.33627,124665
24.34440,139727
24.35252,135935
24.36063,122573
24.36877,103410
24.37688,86192
24.38502,79279
24.39313,70426
24.40125,68888
24.40938,65371
24.41750,69197
24.42563,64593
24.43375,68809
24.44187,74769
24.45000,73274
24.45812,75482
24.46623,77728
24.47437,78390
24.48248,78083
24.49062,81240
24.49873,68416
24.50685,69175
24.51498,62007
24.52310,71187
24.53123,67222
24.53935,76621
24.54747,76684
24.55560,77005
24.56372,80218
24.57185,75360
24.57997,65616
24.58808,62367
24.59622,60974
24.60433,60229
24.61245,60921
24.62058,58210
24.62870,49284
24.63683,54718
24.64495,55883
24.65307,54394
24.66120,51571
24.66932,49559
24.67745,56554
24.68557,53533
24.69368,50565
24.70182,51601
24.70993,47693
24.71805,46738
24.72618,45193
24.73430,51503
24.74243,49156
24.75055,49235
24.75867,51422
24.76680,55553
24.77492,50453
24.78305,54969
24.79117,53280
24.79928,53193
24.80742,55438
24.81553,57980
24.82367,59121
24.83178,61157
24.83990,64088
24.84803,77112
24.85615,90733
24.86427,111689
24.87240,133813
24.88052,152381
24.88865,174858
24.89677,180100
24.90488,176896
24.91302,168705
24.92113,156737
24.92927,148127
24.93738,144650
24.94550,137626
24.95363,134596
24.96175,136031
24.96988,137834
24.97800,144358
24.98612,138667
24.99425,132933
25.00237,134278
25.01048,142034
25.01862,134670
25.02673,131117
25.03487,130572
25.04298,133489
25.05110,127177
25.05923,121792
25.06735,124359
25.07548,119537
25.08360,130022
25.09172,132078
25.09985,168478
25.10797,219682
25.11608,330777
25.12422,483841
25.13233,666655
25.14047,805978
25.14858,835953
25.15670,695089
25.16483,526044
25.17295,377389
25.18108,271161
25.18920,196424
25.19732,163981
25.20545,142296
25.21357,121506
25.22170,116282
25.22982,133318
25.23793,149944
25.24607,185757
25.25418,219704
25.26230,254135
25.27043,267392
25.27855,254593
25.28668,227424
25.29480,183013
25.30292,147323
25.31105,120266
25.31917,107580
25.32730,93498
25.33542,90435
25.34353,82795
25.35167,80153
25.35978,75971
25.36792,74846
25.37603,73464
25.38415,67119
25.39228,73575
25.40040,71905
25.40852,67392
25.41665,71453
25.42477,70030
25.43290,66605
25.44102,65460
25.44913,61791
25.45727,60339
25.46538,57744
25.47352,60185
25.48163,58456
25.48975,58841
25.49788,59310
25.50600,58524
25.51412,57179
25.52225,58190
25.53037,57192
25.53850,54470
25.54662,55125
25.55473,49469
25.56287,51714
25.57098,55108
25.57912,51539
25.58723,52422
25.59535,51559
25.60348,51987
25.61160,51148
25.61973,51093
25.62785,57543
25.63597,56049
25.64410,55874
25.65222,54516
25.66033,51331
25.66847,52264
25.67658,48708
25.68472,51620
25.69283,52834
25.70095,44627
25.70908,51676
25.71720,47890
25.72533,46741
25.73345,47430
25.74157,43869
25.74970,43216
25.75782,47677
25.76595,42372
25.77407,48452
25.78218,46478
25.79032,45851
25.79843,48575
25.80655,50138
25.81468,47255
25.82280,48636
25.83093,45562
25.83905,47253
25.84717,47901
25.85530,46856
25.86342,47451
25.87155,48786
25.87967,44313
25.88778,44534
25.89592,44952
25.90403,44470
25.91215,40861
25.92028,44492
25.92840,42493
25.93653,44459
25.94465,47387
25.95277,45592
25.96090,46250
25.96902,47390
25.97715,41360
25.98527,43047
25.99338,42187
26.00152,40592
26.00963,41225
26.01777,37386
26.02588,41451
26.03400,40984
26.04213,44330
26.05025,40095
26.05837,42749
26.06650,41129
26.07462,43308
26.08275,43838
26.09087,44311
26.09898,41999
26.10712,44909
26.11523,43285
26.12337,47613
26.13148,45573
26.13960,46589
26.14773,47197
26.15585,48227
26.16397,50716
26.17210,49981
26.18022,48889
26.18835,46119
26.19647,48275
26.20458,48439
26.21272,44442
26.22083,47203
26.22897,43308
26.23708,44678
26.24520,42359
26.25333,45439
26.26145,44724
26.26958,39834
26.27770,39628
26.28582,42694
26.29395,43088
26.30207,46590
26.31018,41897
26.31832,39177
26.32643,40937
26.33457,42151
26.34268,38991
26.35080,44483
26.35893,46531
26.36705,46751
26.37518,52190
26.38330,52281
26.39142,52796
26.39955,52593
26.40767,51516
26.41580,49869
26.42392,50516
26.43203,49532
26.44017,45089
26.44828,42406
26.45640,45274
26.46453,46251
26.47265,43704
26.48078,42918
26.48890,41763
26.49702,41065
26.50515,42754
26.51327,46870
26.52140,42940
26.52952,39355
26.53763,41813
26.54577,40739
26.55388,42415
26.56200,42045
26.57013,45069
26.57825,38407
26.58638,40520
26.59450,35648
26.60262,39797
26.61075,37086
26.61887,35381
26.62700,39918
26.63512,41260
26.64323,40443
26.65137,39126
26.65948,42900
26.66762,42893
26.67573,40040
26.68385,40106
26.69198,38546
26.70010,35419
26.70822,36702
26.71635,39363
26.72447,38362
26.73260,39666
26.74072,36894
26.74883,37400
26.75697,31614
26.76508,37893
26.77322,36737
26.78133,40571
26.78945,38342
26.79758,41715
26.80570,42659
26.81383,44215
26.82195,46127
26.83007,39903
26.83820,37643
26.84632,39422
26.85443,31855
26.86257,36782
26.87068,36774
26.87882,36738
26.88693,36723
26.89505,36343
26.90318,37889
26.91130,36870
26.91943,36218
26.92755,38883
26.93567,40428
26.94380,51414
26.95192,66241
26.96003,108782
26.96817,156001
26.97628,251625
26.98442,357010
26.99253,450501
27.00065,534555
27.00878,546491
27.01690,529652
27.02503,462986
27.03315,389390
27.04127,302858
27.04940,245783
27.05752,188890
27.06565,168532
27.07377,142683
27.08188,123723
27.09002,106674
27.09813,100168
27.10625,100078
27.11438,87788
27.12250,85540
27.13063,79862
27.13875,77653
27.14687,81033
27.15500,81390
27.16312,84347
27.17125,84731
27.17937,81481
27.18748,78147
27.19562,69222
27.20373,67977
27.21185,67430
27.21998,61925
27.22810,60256
27.23623,58426
27.24435,57913
27.25247,57414
27.26060,53575
27.26872,52059
27.27685,52287
27.28497,49117
27.29308,52839
27.30122,48236
27.30933,50302
27.31747,48636
27.32558,45254
27.33370,48276
27.34183,49260
27.34995,49893
27.35807,46618
27.36620,47488
27.37432,45627
27.38245,46169
27.39057,46511
27.39868,44369
27.40682,42765
27.41493,41214
27.42307,42780
27.43118,43638
27.43930,48126
27.44743,43435
27.45555,43255
27.46368,46649
27.47180,46526
27.47992,44361
27.48805,42261
27.49617,45074
27.50428,42611
27.51242,42768
27.52053,42858
27.52867,41257
27.53678,40713
27.54490,43566
27.55303,45284
27.56115,43814
27.56928,46982
27.57740,50053
27.58552,51870
27.59365,46600
27.60177,48761
27.60990,42841
27.61802,43119
27.62613,42380
27.63427,39797
27.64238,42829
27.65050,43152
27.65863,42470
27.66675,42426
27.67488,46565
27.68300,45407
27.69112,45440
27.69925,42782
27.70737,43793
27.71550,44050
27.72362,42795
27.73173,45265
27.73987,48313
27.74798,50992
27.75610,55820
27.76423,48917
27.77235,45785
27.78048,46406
27.78860,50198
27.79672,44935
27.80485,42029
27.81297,40235
27.82110,41535
27.82922,42795
27.83733,38231
27.84547,36262
27.85358,37212
27.86172,34725
27.86983,36265
27.87795,38469
27.88608,37107
27.89420,39162
27.90232,35800
27.91045,35505
27.91857,31223
27.92670,35502
27.93482,36828
27.94293,35601
27.95107,34812
27.95918,38902
27.96732,40068
27.97543,38228
27.98355,43116
27.99168,46041
27.99980,48567
28.00792,46272
28.01605,50252
28.02417,49669
28.03230,54997
28.04042,51873
28.04853,56403
28.05667,52309
28.06478,49716
28.07292,45685
28.08103,46281
28.08915,42773
28.09728,46241
28.10540,47523
28.11353,49223
28.12165,47762
28.12977,49804
28.13790,48295
28.14602,47085
28.15413,46233
28.16227,47278
28.17038,42159
28.17852,43443
28.18663,42497
28.19475,42066
28.20288,45370
28.21100,48605
28.21913,44810
28.22725,45581
28.23537,42483
28.24350,45270
28.25162,49687
28.25975,58913
28.26787,70397
28.27598,99352
28.28412,125744
28.29223,157224
28.30035,183897
28.30848,220001
28.31660,234954
28.32473,240636
28.33285,228986
28.34097,226619
28.34910,210536
28.35722,206748
28.36535,167249
28.37347,153995
28.38158,144124
28.38972,125499
28.39783,118515
28.40595,104372
28.41408,94988
28.42220,88286
28.43033,80957
28.43845,74370
28.44657,73251
28.45470,67983
28.46282,68042
28.47095,64163
28.47907,61360
28.48718,62695
28.49532,60914
28.50343,61051
28.51157,59388
28.51968,54526
28.52780,54773
28.53593,54638
28.54405,49143
28.55217,52104
28.56030,52979
28.56842,46011
28.57655,49179
28.58467,48471
28.59278,44914
28.60092,51367
28.60903,48661
28.61717,50544
28.62528,53489
28.63340,51096
28.64153,54742
28.64965,49219
28.65778,54332
28.66590,48457
28.67402,54124
28.68215,56465
28.69027,58869
28.69838,65193
28.70652,71660
28.71463,82226
28.72277,72448
28.73088,67088
28.73900,53574
28.74713,48576
28.75525,46500
28.76338,45901
28.77150,45151
28.77962,38164
28.78775,45579
28.79587,41962
28.80398,42352
28.81212,41150
28.82023,45067
28.82837,42916
28.83648,41681
28.84460,39454
28.85273,41306
28.86085,42813
28.86898,43644
28.87710,46760
28.88522,45352
28.89335,43078
28.90147,46479
28.90960,46708
28.91772,44777
28.92583,42845
28.93397,43303
28.94208,43396
28.95020,40201
28.95833,44016
28.96645,40498
28.97458,43450
28.98270,42388
28.99082,41199
28.99895,38623
29.00707,37002
29.01520,36041
29.02332,38106
29.03143,36962
29.03957,45754
29.04768,38714
29.05580,46026
29.06393,44243
29.07205,46119
29.08018,43372
29.08830,38016
29.09642,37699
29.10455,39607
29.11267,38074
29.12080,37263
29.12892,39335
29.13703,39204
29.14517,36509
29.15328,37285
29.16142,39928
29.16953,38644
29.17765,39926
29.18578,40776
29.19390,47779
29.20202,47052
29.21015,49481
29.21827,53112
29.22640,50421
29.23452,49174
29.24263,48803
29.25077,50202
29.25888,48426
29.26702,48575
29.27513,44242
29.28325,41675
29.29138,39763
29.29950,37870
29.30763,36833
29.31575,36100
29.32387,35045
29.33200,36134
29.34012,37457
29.34823,40610
29.35637,34245
29.36448,36123
29.37262,34674
29.38073,34518
29.38885,34600
29.39698,38256
29.40510,39509
29.41323,42199
29.42135,39530
29.42947,36839
29.43760,39976
29.44572,39867
29.45383,39575
29.46197,37513
29.47008,35460
29.47822,36761
29.48633,34610
29.49445,40300
29.50258,38133
29.51070,37109
29.51883,38821
29.52695,37326
29.53507,34397
29.54320,34435
29.55132,39415
29.55945,36889
29.56757,38050
29.57568,38559
29.58382,43254
29.59193,42125
29.60005,42081
29.60818,44042
29.61630,40375
29.62443,41386
29.63255,36394
29.64067,35764
29.64880,34592
29.65692,35743
29.66505,34322
29.67317,36832
29.68128,37097
29.68942,35447
29.69753,37845
29.70567,37479
29.71378,35615
29.72190,31461
29.73003,35608
29.73815,32392
29.74627,34692
29.75440,33248
29.76252,33040
29.77065,33143
29.77877,37395
29.78688,30649
29.79502,32740
29.80313,33749
29.81127,32496
29.81938,31482
29.82750,32400
29.83563,31380
29.84375,35694
29.85187,34640
29.86000,34494
29.86812,42929
29.87625,53607
29.88437,62380
29.89248,73832
29.90062,86182
29.90873,98075
29.91687,111081
29.92498,125275
29.93310,128320
29.94123,145521
29.94935,144740
29.95748,154009
29.96560,153149
29.97372,153680
29.98185,150808
29.98997,144759
29.99808,137831
30.00622,131769
30.01433,121302
30.02247,113298
30.03058,110414
30.03870,103605
30.04683,93249
30.05495,99820
30.06308,84605
30.07120,82787
30.07932,82597
30.08745,78028
30.09557,71502
30.10368,73239
30.11182,69625
30.11993,66068
30.12807,68330
30.13618,64244
30.14430,63752
30.15243,59353
30.16055,54540
30.16868,55484
30.17680,52304
30.18492,54959
30.19305,51979
30.20117,56532
30.20930,53875
30.21742,51846
30.22553,47593
30.23367,48529
30.24178,48296
30.24990,46786
30.25803,49114
30.26615,50078
30.27428,46820
30.28240,47842
30.29052,45832
30.29865,46009
30.30677,45910
30.31490,43986
30.32302,44437
30.33113,42642
30.33927,45323
30.34738,44774
30.35552,46433
30.36363,43454
30.37175,41881
30.37988,41370
30.38800,40377
30.39612,40588
30.40425,39047
30.41237,39837
30.42050,43969
30.42862,44400
30.43673,42200
30.44487,38214
30.45298,39331
30.46112,39659
30.46923,39270
30.47735,42898
30.48548,36674
30.49360,40207
30.50172,39401
30.50985,39966
30.51797,37032
30.52610,36615
30.53422,38279
30.54233,37818
30.55047,37925
30.55858,38444
30.56672,41233
30.57483,41456
30.58295,40221
30.59108,40987
30.59920,41456
30.60733,41689
30.61545,41216
30.62357,37099
30.63170,37995
30.63982,37848
30.64793,38206
30.65607,39127
30.66418,36379
30.67232,36030
30.68043,35262
30.68855,42827
30.69668,33912
30.70480,36729
30.71293,35002
30.72105,37127
30.72917,37422
30.73730,37132
30.74542,38142
30.75355,39853
30.76167,41813
30.76978,48039
30.77792,53746
30.78603,65636
30.79415,75398
30.80228,82405
30.81040,90416
30.81853,76408
30.82665,72321
30.83477,58810
30.84290,49677
30.85102,45714
30.85915,40779
30.86727,41215
30.87538,39108
30.88352,41030
30.89163,39221
30.89975,39589
30.90788,40067
30.91600,35805
30.92413,38513
30.93225,36852
30.94037,36966
30.94850,37079
30.95662,38815
30.96475,34409
30.97287,33220
30.98098,38582
30.98912,37168
30.99723,36582
31.00537,33594
31.01348,36583
31.02160,38406
31.02973,34756
31.03785,35754
31.04597,36525
31.05410,36370
31.06222,38478
31.07035,38647
31.07847,40683
31.08658,42228
31.09472,46306
31.10283,42611
31.11097,44436
31.11908,43747
31.12720,39748
31.13533,42765
31.14345,41197
31.15158,39034
31.15970,45916
31.16782,46582
31.17595,57832
31.18407,72226
31.19218,82989
31.20032,98796
31.20843,102121
31.21657,109610
31.22468,97483
31.23280,77835
31.24093,66671
31.24905,54891
31.25718,47077
31.26530,39610
31.27342,39149
31.28155,38254
31.28967,35270
31.29778,43027
31.30592,38898
31.31403,39522
31.32217,41086
31.33028,41012
31.33840,40508
31.34653,37423
31.35465,38267
31.36278,37869
31.37090,37915
31.37902,39422
31.38715,38382
31.39527,40303
31.40340,34757
31.41152,38312
31.41963,40366
31.42777,37121
31.43588,36170
31.44400,37201
31.45213,40828
31.46025,42351
31.46838,40317
31.47650,45620
31.48462,40354
31.49275,45254
31.50087,44773
31.50900,41346
31.51712,42222
31.52523,46171
31.53337,39280
31.54148,44123
31.54960,45204
31.55773,42135
31.56585,44975
31.57398,45120
31.58210,45539
31.59022,40234
31.59835,37678
31.60647,36900
31.61460,40779
31.62272,38852
31.63083,42657
31.63897,37621
31.64708,38711
31.65522,39590
31.66333,41206
31.67145,44506
31.67958,42740
31.68770,43668
31.69582,44111
31.70395,43196
31.71207,42654
31.72020,37524
31.72832,38220
31.73643,35598
31.74457,34820
31.75268,39350
31.76082,35989
31.76893,39169
31.77705,36060
31.78518,35542
31.79330,36586
31.80143,40069
31.80955,37780
31.81767,45755
31.82580,45095
31.83392,56028
31.84203,65110
31.85017,75991
31.85828,88286
31.86642,98962
31.87453,111212
31.88265,116275
31.89078,117761
31.89890,122527
31.90703,114595
31.91515,110733
31.92327,103555
31.93140,100687
31.93952,93021
31.94763,93778
31.95577,81055
31.96388,83722
31.97202,76029
31.98013,70913
31.98825,71799
31.99638,75584
32.00450,67132
32.01263,70443
32.02075,65345
32.02887,60232
32.03700,58069
32.04512,54761
32.05325,53104
32.06137,48267
32.06948,49568
32.07762,52800
32.08573,47467
32.09385,47406
32.10198,47379
32.11010,44737
32.11823,41927
32.12635,39177
32.13447,42228
32.14260,44450
32.15072,43487
32.15885,44360
32.16697,44731
32.17508,44506
32.18322,41671
32.19133,42330
32.19947,40680
32.20758,40892
32.21570,42154
32.22383,42876
32.23195,40864
32.24007,42330
32.24820,49831
32.25632,39672
32.26445,39473
32.27257,42086
32.28068,39929
32.28882,38488
32.29693,37794
32.30507,40926
32.31318,43405
32.32130,40875
32.32943,39688
32.33755,42952
32.34567,40931
32.35380,37285
32.36192,40116
32.37005,38650
32.37817,39288
32.38628,42404
32.39442,37907
32.40253,40008
32.41067,39304
32.41878,37809
32.42690,40827
32.43503,40928
32.44315,38841
32.45128,38838
32.45940,36824
32.46752,38947
32.47565,37737
32.48377,36726
32.49188,38642
32.50002,36422
32.50813,40541
32.51627,36010
32.52438,36848
32.53250,37303
32.54063,38118
32.54875,36838
32.55688,38003
32.56500,44741
32.57312,46998
32.58125,51995
32.58937,59131
32.59748,68302
32.60562,67013
32.61373,65691
32.62187,58962
32.62998,50546
32.63810,44485
32.64623,39194
32.65435,40670
32.66248,41650
32.67060,39436
32.67872,38431
32.68685,40548
32.69497,39309
32.70310,42854
32.71122,39764
32.71933,40879
32.72747,41468
32.73558,39868
32.74370,38063
32.75183,42803
32.75995,37389
32.76808,41709
32.77620,40513
32.78432,34613
32.79245,36374
32.80057,39943
32.80870,37602
32.81682,38048
32.82493,39519
32.83307,37487
32.84118,38274
32.84932,36601
32.85743,37449
32.86555,37282
32.87368,39060
32.88180,38963
32.88992,39140
32.89805,40533
32.90617,41738
32.91430,38254
32.92242,39421
32.93053,37973
32.93867,40727
32.94678,37560
32.95492,38430
32.96303,42808
32.97115,47320
32.97928,57547
32.98740,57425
32.99553,62556
33.00365,60295
33.01177,56602
33.01990,52794
33.02802,46553
33.03613,44842
33.04427,43621
33.05238,41884
33.06052,42534
33.06863,44435
33.07675,44671
33.08488,43458
33.09300,49011
33.10113,48293
33.10925,58302
33.11737,55499
33.12550,56914
33.13362,53739
33.14173,48577
33.14987,48141
33.15798,43894
33.16612,43285
33.17423,42547
33.18235,43770
33.19048,43765
33.19860,37957
33.20673,40471
33.21485,41293
33.22297,38623
33.23110,41788
33.23922,38654
33.24735,40729
33.25547,39049
33.26358,39765
33.27172,41412
33.27983,42849
33.28795,39480
33.29608,39909
33.30420,38075
33.31233,41017
33.32045,38225
33.32857,39048
33.33670,38607
33.34482,37368
33.35295,40648
33.36107,39046
33.36918,40433
33.37732,38621
33.38543,40598
33.39355,38371
33.40168,38482
33.40980,40335
33.41793,39041
33.42605,39404
33.43417,38939
33.44230,39317
33.45042,35825
33.45855,34966
33.46667,38608
33.47478,44463
33.48292,38834
33.49103,38143
33.49917,37168
33.50728,38732
33.51540,35058
33.52353,38896
33.53165,37046
33.53977,41839
33.54790,42304
33.55602,41260
33.56415,42691
33.57227,43549
33.58038,39231
33.58852,41487
33.59663,35509
33.60477,41364
33.61288,45316
33.62100,41414
33.62913,37258
33.63725,39863
33.64538,39059
33.65350,41338
33.66162,38577
33.66975,38151
33.67787,41242
33.68598,38241
33.69412,40261
33.70223,42384
33.71037,44835
33.71848,45959
33.72660,45695
33.73473,44279
33.74285,46202
33.75098,50348
33.75910,50873
33.76722,50101
33.77535,52270
33.78347,50547
33.79158,50281
33.79972,52943
33.80783,50189
33.81597,50427
33.82408,51358
33.83220,53358
33.84033,51326
33.84845,49332
33.85658,52531
33.86470,51394
33.87282,52623
33.88095,53790
33.88907,50300
33.89720,55222
33.90532,50024
33.91343,49339
33.92157,49614
33.92968,52096
33.93780,47610
33.94593,47337
33.95405,52243
33.96218,46476
33.97030,45011
33.97842,50103
33.98655,47407
33.99467,45291
34.00280,46839
34.01092,43636
34.01903,45446
34.02717,45216
34.03528,45358
34.04342,41426
34.05153,41862
34.05965,42843
34.06778,44465
34.07590,43100
34.08402,43849
34.09215,39688
34.10027,45278
34.10840,48082
34.11652,44828
34.12463,40918
34.13277,42105
34.14088,44473
34.14902,40914
34.15713,44638
34.16525,39414
34.17338,40565
34.18150,40745
34.18962,39340
34.19775,43135
34.20587,41474
34.21400,41437
34.22212,44231
34.23023,41814
34.23837,42514
34.24648,39760
34.25462,41999
34.26273,40215
34.27085,41525
34.27898,40691
34.28710,40799
34.29523,41143
34.30335,38917
34.31147,42908
34.31960,43738
34.32772,41487
34.33583,42816
34.34397,42081
34.35208,42279
34.36022,40698
34.36833,44316
34.37645,36931
34.38458,39360
34.39270,42589
34.40083,43278
34.40895,42651
34.41707,43040
34.42520,45968
34.43332,44225
34.44143,60387
34.44957,63100
34.45768,80860
34.46582,93780
34.47393,113722
34.48205,124993
34.49018,130886
34.49830,126204
34.50643,123037
34.51455,114394
34.52267,102687
34.53080,96938
34.53892,86552
34.54705,78270
34.55517,76126
34.56328,75596
34.57142,69991
34.57953,67833
34.58765,68529
34.59578,70861
34.60390,63692
34.61203,65102
34.62015,64287
34.62827,61953
34.63640,61308
34.64452,61528
34.65265,63225
34.66077,63448
34.66888,62028
34.67702,61482
34.68513,56835
34.69327,60237
34.70138,62409
34.70950,55001
34.71763,57044
34.72575,55039
34.73387,55196
34.74200,58285
34.75012,54036
34.75825,52247
34.76637,55767
34.77448,54123
34.78262,50451
34.79073,50550
34.79887,50059
34.80698,51568
34.81510,49622
34.82323,48159
34.83135,50892
34.83947,47957
34.84760,48927
34.85572,46022
34.86385,48712
34.87197,46763
34.88008,48792
34.88822,46994
34.89633,48496
34.90447,48893
34.91258,46789
34.92070,45562
34.92883,45890
34.93695,45173
34.94508,47922
34.95320,48176
34.96132,50980
34.96945,50028
34.97757,45124
34.98568,49738
34.99382,49430
35.00193,47019
35.01007,47813
35.01818,44200
35.02630,44533
35.03443,48343
35.04255,45045
35.05068,45310
35.05880,49592
35.06692,47713
35.07505,49002
35.08317,48833
35.09130,49399
35.09942,46053
35.10753,48093
35.11567,47499
35.12378,44461
35.13190,48757
35.14003,49921
35.14815,47054
35.15628,43347
35.16440,52712
35.17252,48240
35.18065,44050
35.18877,45935
35.19690,47236
35.20502,45894
35.21313,45588
35.22127,47455
35.22938,46618
35.23750,48078
35.24563,45898
35.25375,47690
35.26188,44437
35.27000,51965
35.27812,50725
35.28625,45793
35.29437,46552
35.30250,43109
35.31062,46155
35.31873,45211
35.32687,45575
35.33498,47118
35.34312,46850
35.35123,46024
35.35935,48844
35.36748,47854
35.37560,50125
35.38372,46049
35.39185,51736
35.39997,54345
35.40810,53152
35.41622,57085
35.42433,56768
35.43247,57437
35.44058,55821
35.44872,55470
35.45683,58809
35.46495,52928
35.47308,57000
35.48120,55023
35.48932,53281
35.49745,58471
35.50557,62805
35.51370,53581
35.52182,56277
35.52993,54746
35.53807,48932
35.54618,49861
35.55432,53011
35.56243,50597
35.57055,50158
35.57868,52801
35.58680,57862
35.59493,61256
35.60305,55730
35.61117,57039
35.61930,56955
35.62742,53543
35.63553,47278
35.64367,51586
35.65178,48760
35.65992,49082
35.66803,49000
35.67615,49169
35.68428,52543
35.69240,53878
35.70053,51724
35.70865,49201
35.71677,45709
35.72490,53384
35.73302,49537
35.74115,48505
35.74927,50679
35.75738,50121
35.76552,52649
35.77363,54998
35.78175,47159
35.78988,50548
35.79800,48087
35.80613,52685
35.81425,51536
35.82237,48856
35.83050,48144
35.83862,48141
35.84675,48197
35.85487,48201
35.86298,48449
35.87112,49327
35.87923,50259
35.88735,51134
35.89548,48861
35.90360,49241
35.91173,48371
35.91985,49781
35.92797,49191
35.93610,47813
35.94422,49362
35.95235,49200
35.96047,47019
35.96858,47046
35.97672,52755
35.98483,46935
35.99297,49952
36.00108,48029
36.00920,51654
36.01733,52313
36.02545,53622
36.03357,53474
36.04170,56439
36.04982,53275
36.05795,51467
36.06607,52016
36.07418,48891
36.08232,53397
36.09043,51322
36.09857,49976
36.10668,52935
36.11480,50621
36.12293,51468
36.13105,51079
36.13918,51815
36.14730,53418
36.15542,52589
36.16355,49710
36.17167,48724
36.17978,49919
36.18792,54520
36.19603,50445
36.20417,52251
36.21228,58209
36.22040,60931
36.22853,75262
36.23665,89373
36.24478,84380
36.25290,88186
36.26102,77168
36.26915,68280
36.27727,62443
36.28538,55493
36.29352,56308
36.30163,51942
36.30977,51404
36.31788,56600
36.32600,52554
36.33413,54549
36.34225,53941
36.35038,54761
36.35850,55531
36.36662,54870
36.37475,56361
36.38287,55508
36.39100,59490
36.39912,50863
36.40723,53180
36.41537,55072
36.42348,51784
36.43160,53388
36.43973,51130
36.44785,51886
36.45598,53624
36.46410,50453
36.47222,57635
36.48035,50811
36.48847,50783
36.49660,51922
36.50472,52679
36.51283,50763
36.52097,50889
36.52908,52195
36.53722,52043
36.54533,53217
36.55345,52256
36.56158,52636
36.56970,56016
36.57782,51378
36.58595,54764
36.59407,55491
36.60220,52787
36.61032,53760
36.61843,53196
36.62657,53868
36.63468,54273
36.64282,51320
36.65093,46876
36.65905,52652
36.66718,49998
36.67530,53270
36.68342,49211
36.69155,56180
36.69967,54291
36.70780,55530
36.71592,52848
36.72403,57431
36.73217,50414
36.74028,53866
36.74842,51043
36.75653,51000
36.76465,54366
36.77278,53403
36.78090,52598
36.78903,52451
36.79715,50469
36.80527,52830
36.81340,56064
36.82152,53042
36.82963,50684
36.83777,51367
36.84588,52841
36.85402,54953
36.86213,52961
36.87025,54275
36.87838,53075
36.88650,51985
36.89463,56508
36.90275,51751
36.91087,57082
36.91900,58553
36.92712,57030
36.93523,57964
36.94337,63390
36.95148,60415
36.95962,61865
36.96773,61758
36.97585,63181
36.98398,66243
36.99210,63834
37.00023,69796
37.00835,75744
37.01647,78876
37.02460,84791
37.03272,77760
37.04085,78140
37.04897,70393
37.05708,72242
37.06522,63857
37.07333,61048
37.08145,57965
37.08958,58205
37.09770,60163
37.10583,58509
37.11395,58421
37.12207,60278
37.13020,56428
37.13832,56273
37.14645,56770
37.15457,57739
37.16268,62072
37.17082,59233
37.17893,53992
37.18707,57575
37.19518,61764
37.20330,55499
37.21143,56260
37.21955,56041
37.22767,64163
37.23580,65799
37.24392,72073
37.25205,86768
37.26017,102310
37.26828,118226
37.27642,136019
37.28453,139958
37.29267,141723
37.30078,130945
37.30890,127785
37.31703,114517
37.32515,108954
37.33327,91280
37.34140,83781
37.34952,87592
37.35765,84719
37.36577,79007
37.37388,80869
37.38202,75001
37.39013,78238
37.39827,75365
37.40638,77427
37.41450,75504
37.42263,69077
37.43075,74645
37.43888,71363
37.44700,69208
37.45512,67304
37.46325,67074
37.47137,68323
37.47948,70591
37.48762,66363
