Z:\data\JTB-E02\BACandBLUE\JTB-E02-205-14.D Sun Mar 10 13:59:19 2019
Start of data points
2.09513	63360
2.10325	60323
2.11137	64307
2.11950	61349
2.12762	62528
2.13573	61709
2.14387	60398
2.15198	60955
2.16012	60085
2.16823	57726
2.17635	61082
2.18448	62988
2.19260	55904
2.20073	56706
2.20885	52903
2.21697	58564
2.22510	52119
2.23322	51738
2.24133	54387
2.24947	54456
2.25758	53072
2.26572	64438
2.27383	319932
2.28195	1344237
2.29008	1226939
2.29820	544494
2.30633	353392
2.31445	283713
2.32257	250791
2.33070	219410
2.33882	196087
2.34695	186402
2.35507	170773
2.36318	156839
2.37132	151353
2.37943	142283
2.38755	137347
2.39568	130628
2.40380	129236
2.41193	119839
2.42005	122489
2.42817	121985
2.43630	117734
2.44442	118024
2.45255	113059
2.46067	108922
2.46878	110856
2.47692	108940
2.48503	110386
2.49315	113658
2.50128	115954
2.50940	106495
2.51753	105375
2.52565	101080
2.53377	97034
2.54190	99131
2.55002	101473
2.55815	124514
2.56627	179876
2.57438	170395
2.58252	134042
2.59063	123814
2.59877	117848
2.60688	241333
2.61500	917602
2.62313	1144429
2.63125	678298
2.63937	397491
2.64750	292931
2.65562	227437
2.66375	194954
2.67187	169250
2.67998	152169
2.68812	147683
2.69623	127433
2.70437	122287
2.71248	115139
2.72060	108155
2.72873	112143
2.73685	111938
2.74498	104364
2.75310	100185
2.76122	96955
2.76935	95264
2.77747	121750
2.78558	343968
2.79372	708506
2.80183	551231
2.80997	315803
2.81808	245547
2.82620	218234
2.83433	184425
2.84245	174472
2.85058	155045
2.85870	137482
2.86682	139875
2.87495	130680
2.88307	119595
2.89118	121979
2.89932	116652
2.90743	116192
2.91557	109453
2.92368	104964
2.93180	101535
2.93993	102551
2.94805	96877
2.95618	97987
2.96430	103121
2.97242	106924
2.98055	101335
2.98867	102688
2.99680	98607
3.00492	102495
3.01303	107431
3.02117	112925
3.02928	101709
3.03740	94537
3.04553	94123
3.05365	95424
3.06178	91535
3.06990	94056
3.07802	108958
3.08615	376377
3.09427	1605959
3.10240	3304844
3.11052	5217182
3.11863	6467791
3.12677	4743350
3.13488	2960179
3.14302	2138084
3.15113	1686002
3.15925	1344661
3.16738	1125785
3.17550	932231
3.18362	847181
3.19175	1053873
3.19987	1507045
3.20800	1450692
3.21612	1059147
3.22423	820745
3.23237	712712
3.24048	616584
3.24862	545155
3.25673	479418
3.26485	443398
3.27298	394390
3.28110	376834
3.28922	418754
3.29735	855124
3.30547	2363340
3.31360	4539946
3.32172	5249412
3.32983	4079023
3.33797	2708362
3.34608	1819277
3.35422	1412276
3.36233	1133439
3.37045	973688
3.37858	848398
3.38670	747305
3.39483	690115
3.40295	628975
3.41107	579115
3.41920	537368
3.42732	521088
3.43543	488911
3.44357	475152
3.45168	444348
3.45982	413245
3.46793	413848
3.47605	409496
3.48418	420420
3.49230	397147
3.50043	378490
3.50855	355211
3.51667	344067
3.52480	345881
3.53292	334468
3.54105	332038
3.54917	342306
3.55728	316433
3.56542	303058
3.57353	303063
3.58165	325367
3.58978	311140
3.59790	289804
3.60603	282487
3.61415	282784
3.62227	286673
3.63040	279276
3.63852	274311
3.64665	266296
3.65477	255078
3.66288	357485
3.67102	1321522
3.67913	4697006
3.68725	8258479
3.69538	7321646
3.70350	4291251
3.71163	2660777
3.71975	2022124
3.72787	1678246
3.73600	1435026
3.74412	1259259
3.75225	1117197
3.76037	1006649
3.76848	935507
3.77662	871022
3.78473	816526
3.79287	772893
3.80098	786205
3.80910	1274046
3.81723	2524019
3.82535	3512298
3.83347	2969368
3.84160	1988131
3.84972	1438322
3.85785	1220953
3.86597	1060892
3.87408	938382
3.88222	853683
3.89033	812501
3.89847	744853
3.90658	687798
3.91470	675196
3.92283	682261
3.93095	779671
3.93907	843239
3.94720	846362
3.95532	1248854
3.96345	2836390
3.97157	4740852
3.97968	4881391
3.98782	3437949
3.99593	2408790
4.00407	4083976
4.01218	1.026609E+07
4.02030	1.768453E+07
4.02843	1.79731E+07
4.03655	1.173913E+07
4.04468	6344831
4.05280	3788472
4.06092	2658514
4.06905	2070036
4.07717	1670390
4.08528	1390870
4.09342	1196392
4.10153	1073012
4.10967	947014
4.11778	863774
4.12590	778799
4.13403	724020
4.14215	708808
4.15028	686926
4.15840	699731
4.16652	655192
4.17465	623489
4.18277	620640
4.19090	591396
4.19902	529528
4.20713	538192
4.21527	1050004
4.22338	3505208
4.23150	9315686
4.23963	1.505756E+07
4.24775	1.622336E+07
4.25588	1.245525E+07
4.26400	7841382
4.27212	5192471
4.28025	3768559
4.28837	2857623
4.29650	2230132
4.30462	1811081
4.31273	1513892
4.32087	1280740
4.32898	1095319
4.33710	966697
4.34523	859651
4.35335	799252
4.36148	757325
4.36960	730389
4.37772	703895
4.38585	671584
4.39397	578905
4.40210	538484
4.41022	503699
4.41833	485282
4.42647	448597
4.43458	433834
4.44272	409668
4.45083	395782
4.45895	377359
4.46708	360576
4.47520	361516
4.48332	341643
4.49145	332268
4.49957	329450
4.50770	320977
4.51582	314660
4.52393	302817
4.53207	304488
4.54018	302843
4.54832	300446
4.55643	304086
4.56455	295105
4.57268	276744
4.58080	268029
4.58893	270040
4.59705	261288
4.60517	253167
4.61330	251732
4.62142	256681
4.62953	304276
4.63767	408227
4.64578	541883
4.65392	578643
4.66203	502677
4.67015	397291
4.67828	326849
4.68640	298395
4.69453	289404
4.70265	264698
4.71077	249424
4.71890	242868
4.72702	245562
4.73513	240505
4.74327	240986
4.75138	233049
4.75952	217523
4.76763	212499
4.77575	215199
4.78388	234860
4.79200	358732
4.80013	859561
4.80825	1700478
4.81637	2231782
4.82450	1928947
4.83262	1329594
4.84075	956650
4.84887	806264
4.85698	701276
4.86512	625629
4.87323	554385
4.88135	491132
4.88948	439549
4.89760	415200
4.90573	376979
4.91385	363931
4.92197	339897
4.93010	337963
4.93822	366345
4.94635	552375
4.95447	1098395
4.96258	2004568
4.97072	2865971
4.97883	3007071
4.98695	2520716
4.99508	1791613
5.00320	1265004
5.01133	939619
5.01945	774610
5.02757	684941
5.03570	697652
5.04382	748401
5.05195	778130
5.06007	698849
5.06818	594350
5.07632	542615
5.08443	491526
5.09257	458578
5.10068	439285
5.10880	421961
5.11693	390009
5.12505	375957
5.13317	370085
5.14130	371584
5.14942	353083
5.15755	385577
5.16567	412944
5.17378	451509
5.18192	465982
5.19003	423197
5.19817	392235
5.20628	389780
5.21440	404875
5.22253	399417
5.23065	383445
5.23878	365716
5.24690	353549
5.25502	349449
5.26315	309864
5.27127	283583
5.27938	275636
5.28752	257523
5.29563	249906
5.30377	242243
5.31188	238841
5.32000	230283
5.32813	241866
5.33625	259708
5.34438	273146
5.35250	292029
5.36062	279574
5.36875	253458
5.37687	232025
5.38498	219287
5.39312	232534
5.40123	227621
5.40937	234921
5.41748	229300
5.42560	217641
5.43373	204450
5.44185	200843
5.44998	203775
5.45810	210159
5.46622	206769
5.47435	200766
5.48247	200688
5.49060	195063
5.49872	187906
5.50683	189890
5.51497	194125
5.52308	186521
5.53120	193652
5.53933	198998
5.54745	190660
5.55558	193731
5.56370	213742
5.57182	270511
5.57995	311991
5.58807	333018
5.59620	320557
5.60432	271978
5.61243	237620
5.62057	212917
5.62868	211894
5.63682	199411
5.64493	193292
5.65305	196211
5.66118	186171
5.66930	178825
5.67742	196274
5.68555	225570
5.69367	278615
5.70180	308496
5.70992	306779
5.71803	273352
5.72617	229855
5.73428	195873
5.74242	183009
5.75053	178425
5.75865	166937
5.76678	164334
5.77490	155121
5.78302	155155
5.79115	160301
5.79927	157415
5.80740	154689
5.81552	154766
5.82363	150944
5.83177	153252
5.83988	158537
5.84802	157551
5.85613	153281
5.86425	150651
5.87238	150240
5.88050	140645
5.88863	141095
5.89675	148115
5.90487	136792
5.91300	135148
5.92112	123751
5.92923	128289
5.93737	126380
5.94548	135744
5.95362	142080
5.96173	162109
5.96985	198888
5.97798	242689
5.98610	300221
5.99423	359004
6.00235	354712
6.01047	305217
6.01860	252305
6.02672	197154
6.03485	167686
6.04297	150845
6.05108	137473
6.05922	138673
6.06733	134228
6.07545	128107
6.08358	125356
6.09170	124591
6.09983	125649
6.10795	120360
6.11607	132810
6.12420	146396
6.13232	181612
6.14045	280603
6.14857	390983
6.15668	465029
6.16482	414673
6.17293	320152
6.18105	248852
6.18918	196103
6.19730	187584
6.20543	173334
6.21355	180769
6.22167	168804
6.22980	167034
6.23792	167053
6.24605	155064
6.25417	150668
6.26228	162360
6.27042	165014
6.27853	165902
6.28667	160451
6.29478	160635
6.30290	163923
6.31103	160634
6.31915	163298
6.32727	176279
6.33540	203783
6.34352	228379
6.35165	252231
6.35977	232424
6.36788	210123
6.37602	189364
6.38413	176341
6.39227	176144
6.40038	171484
6.40850	172099
6.41663	173809
6.42475	181134
6.43288	170740
6.44100	175127
6.44912	173507
6.45725	169345
6.46537	181110
6.47348	185713
6.48162	183749
6.48973	181130
6.49787	175751
6.50598	180642
6.51410	184354
6.52223	186598
6.53035	181069
6.53848	190397
6.54660	193708
6.55472	186314
6.56285	190662
6.57097	203899
6.57908	226013
6.58722	256748
6.59533	267124
6.60347	239029
6.61158	229584
6.61970	214814
6.62783	204959
6.63595	207830
6.64408	209489
6.65220	225265
6.66032	299613
6.66845	430546
6.67657	581522
6.68470	625615
6.69282	515570
6.70093	380548
6.70907	299057
6.71718	264700
6.72530	246932
6.73343	237239
6.74155	239966
6.74968	232612
6.75780	226155
6.76592	240133
6.77405	229565
6.78217	229421
6.79030	225633
6.79842	232516
6.80653	222684
6.81467	203220
6.82278	169679
6.83090	161374
6.83903	157714
6.84715	153568
6.85528	168710
6.86340	181025
6.87152	166906
6.87965	160730
6.88777	138972
6.89590	119990
6.90402	114764
6.91213	110004
6.92027	103264
6.92838	103177
6.93652	94736
6.94463	100406
6.95275	99814
6.96088	101654
6.96900	115522
6.97712	135869
6.98525	169435
6.99337	175535
7.00150	154273
7.00962	133968
7.01773	116272
7.02587	107747
7.03398	96430
7.04212	108776
7.05023	103744
7.05835	99493
7.06648	95186
7.07460	92451
7.08273	87484
7.09085	91077
7.09897	93654
7.10710	87525
7.11522	79192
7.12333	82811
7.13147	80298
7.13958	84498
7.14772	96944
7.15583	120725
7.16395	171679
7.17208	197265
7.18020	185990
7.18833	160125
7.19645	122950
7.20457	100387
7.21270	100501
7.22082	101672
7.22893	133670
7.23707	271071
7.24518	718567
7.25332	1541045
7.26143	2303155
7.26955	2461861
7.27768	1964602
7.28580	1218614
7.29393	712924
7.30205	460587
7.31017	348041
7.31830	293870
7.32642	227789
7.33455	162220
7.34267	125245
7.35078	109959
7.35892	103148
7.36703	103845
7.37515	99930
7.38328	101389
7.39140	95263
7.39953	97455
7.40765	96375
7.41577	89021
7.42390	89603
7.43202	80440
7.44015	84019
7.44827	85563
7.45638	82959
7.46452	88809
7.47263	89638
7.48077	84100
7.48888	82530
7.49700	83062
7.50513	87104
7.51325	106853
7.52137	157781
7.52950	233652
7.53762	328184
7.54575	411209
7.55387	452782
7.56198	437217
7.57012	355785
7.57823	266874
7.58637	198541
7.59448	141807
7.60260	115220
7.61073	100375
7.61885	95003
7.62697	96951
7.63510	91814
7.64322	84069
7.65135	85374
7.65947	79619
7.66758	78939
7.67572	74521
7.68383	71707
7.69197	74936
7.70008	79008
7.70820	72050
7.71633	72766
7.72445	74910
7.73258	66923
7.74070	68541
7.74882	70549
7.75695	74195
7.76507	76801
7.77318	67607
7.78132	69202
7.78943	75944
7.79757	79826
7.80568	86126
7.81380	92074
7.82193	91402
7.83005	86192
7.83818	83168
7.84630	80579
7.85442	86591
7.86255	92512
7.87067	115035
7.87878	145519
7.88692	158412
7.89503	153772
7.90317	134267
7.91128	107209
7.91940	91935
7.92753	109576
7.93565	158941
7.94378	233489
7.95190	329329
7.96002	336118
7.96815	302264
7.97627	234217
7.98440	163819
7.99252	124887
8.00063	104976
8.00877	84951
8.01688	75616
8.02500	78742
8.03313	75142
8.04125	71780
8.04938	72400
8.05750	72484
8.06562	66053
8.07375	76255
8.08187	73810
8.09000	63301
8.09812	67199
8.10623	66130
8.11437	64228
8.12248	67976
8.13062	69152
8.13873	72028
8.14685	83901
8.15498	91734
8.16310	101154
8.17122	93183
8.17935	82702
8.18747	77459
8.19560	63650
8.20372	63406
8.21183	63684
8.21997	66878
8.22808	60206
8.23622	58258
8.24433	62754
8.25245	58652
8.26058	59325
8.26870	57566
8.27682	60569
8.28495	59499
8.29307	63669
8.30120	62704
8.30932	63905
8.31743	64808
8.32557	66661
8.33368	61292
8.34182	60967
8.34993	59357
8.35805	56620
8.36618	64409
8.37430	60252
8.38243	64629
8.39055	61158
8.39867	58768
8.40680	57575
8.41492	56535
8.42303	62864
8.43117	55255
8.43928	55264
8.44742	58363
8.45553	56463
8.46365	55483
8.47178	55432
8.47990	51137
8.48803	52699
8.49615	51180
8.50427	58511
8.51240	53749
8.52052	55673
8.52865	64468
8.53677	109364
8.54488	273765
8.55302	639620
8.56113	1159331
8.56925	1645177
8.57738	1661976
8.58550	1311022
8.59363	818132
8.60175	454959
8.60987	243719
8.61800	167346
8.62612	137566
8.63425	123363
8.64237	115093
8.65048	105783
8.65862	100256
8.66673	95900
8.67485	91171
8.68298	88445
8.69110	88021
8.69923	81093
8.70735	83134
8.71547	81393
8.72360	76748
8.73172	86356
8.73985	73773
8.74797	75241
8.75608	81082
8.76422	113295
8.77233	193344
8.78047	326996
8.78858	479557
8.79670	570041
8.80483	576126
8.81295	459091
8.82107	328169
8.82920	222481
8.83732	186227
8.84545	157751
8.85357	157897
8.86168	154279
8.86982	158819
8.87793	155290
8.88607	146710
8.89418	138683
8.90230	133961
8.91043	127526
8.91855	119918
8.92668	122397
8.93480	115000
8.94292	132002
8.95105	142298
8.95917	156371
8.96728	170154
8.97542	157493
8.98353	145459
8.99167	135767
8.99978	128889
9.00790	115792
9.01603	104627
9.02415	98566
9.03228	97209
9.04040	98684
9.04852	84578
9.05665	87474
9.06477	87077
9.07288	88883
9.08102	87748
9.08913	86799
9.09727	96903
9.10538	102883
9.11350	111293
9.12163	117660
9.12975	125573
9.13788	105631
9.14600	104117
9.15412	87408
9.16225	87346
9.17037	90563
9.17850	85026
9.18662	80738
9.19473	77786
9.20287	79081
9.21098	71029
9.21910	71980
9.22723	72592
9.23535	73589
9.24348	78041
9.25160	77110
9.25972	75375
9.26785	71482
9.27597	75995
9.28410	71449
9.29222	71522
9.30033	72910
9.30847	68291
9.31658	67078
9.32470	65965
9.33283	64559
9.34095	70993
9.34908	66948
9.35720	65423
9.36532	67294
9.37345	68392
9.38157	72569
9.38970	68846
9.39782	63819
9.40593	74383
9.41407	82630
9.42218	87557
9.43032	103160
9.43843	106550
9.44655	104963
9.45468	98426
9.46280	89228
9.47092	81161
9.47905	80634
9.48717	77225
9.49530	76362
9.50342	69456
9.51153	73226
9.51967	78743
9.52778	89505
9.53592	87817
9.54403	87243
9.55215	77918
9.56028	83078
9.56840	93317
9.57653	116418
9.58465	150773
9.59277	183819
9.60090	191991
9.60902	162510
9.61713	127084
9.62527	92379
9.63338	76857
9.64152	60849
9.64963	57910
9.65775	54783
9.66588	53261
9.67400	52030
9.68213	52629
9.69025	55885
9.69837	57849
9.70650	53745
9.71462	49031
9.72273	51265
9.73087	50046
9.73898	53697
9.74712	50549
9.75523	49527
9.76335	47502
9.77148	52482
9.77960	46768
9.78773	48186
9.79585	47744
9.80397	47311
9.81210	45803
9.82022	43387
9.82835	49066
9.83647	48282
9.84458	44909
9.85272	48625
9.86083	44383
9.86895	47478
9.87708	47090
9.88520	51800
9.89333	51315
9.90145	52298
9.90957	51713
9.91770	45743
9.92582	48494
9.93395	58569
9.94207	63111
9.95018	75815
9.95832	77241
9.96643	82852
9.97457	83088
9.98268	73681
9.99080	75856
9.99893	67105
10.00705	68597
10.01517	64656
10.02330	67753
10.03142	65263
10.03955	57908
10.04767	62097
10.05578	53767
10.06392	53254
10.07203	47804
10.08017	51097
10.08828	51257
10.09640	52974
10.10453	56469
10.11265	57545
10.12077	57559
10.12890	54710
10.13702	50020
10.14515	47476
10.15327	50042
10.16138	48120
10.16952	48614
10.17763	54817
10.18577	46903
10.19388	46409
10.20200	47601
10.21013	41266
10.21825	45194
10.22638	44188
10.23450	46702
10.24262	54973
10.25075	58091
10.25887	64861
10.26698	90282
10.27512	199398
10.28323	494059
10.29137	1185566
10.29948	2403441
10.30760	3900369
10.31573	5674085
10.32385	8262511
10.33198	1.265467E+07
10.34010	1.92303E+07
10.34822	2.649807E+07
10.35635	3.141762E+07
10.36447	3.055424E+07
10.37258	2.257867E+07
10.38072	1.212857E+07
10.38883	5104339
10.39697	2137889
10.40508	1208553
10.41320	876864
10.42133	707712
10.42945	612110
10.43758	521459
10.44570	463020
10.45382	409233
10.46195	396388
10.47007	359398
10.47820	335825
10.48632	310625
10.49443	298499
10.50257	277233
10.51068	250366
10.51880	254614
10.52693	257429
10.53505	280547
10.54318	293619
10.55130	301130
10.55942	294109
10.56755	260841
10.57567	229982
10.58380	204595
10.59192	200998
10.60003	183883
10.60817	166359
10.61628	159184
10.62442	150401
10.63253	148540
10.64065	144730
10.64878	142158
10.65690	131655
10.66502	135556
10.67315	133101
10.68127	125461
10.68940	122617
10.69752	119343
10.70563	118753
10.71377	116710
10.72188	117137
10.73002	113454
10.73813	117683
10.74625	113744
10.75438	111634
10.76250	108215
10.77062	106719
10.77875	98110
10.78687	94743
10.79500	89414
10.80312	89761
10.81123	94677
10.81937	87002
10.82748	91751
10.83562	93311
10.84373	85727
10.85185	84662
10.85998	79061
10.86810	81824
10.87623	86803
10.88435	73408
10.89247	77248
10.90060	73827
10.90872	76272
10.91683	73873
10.92497	69894
10.93308	73374
10.94122	73469
10.94933	73410
10.95745	70979
10.96558	70326
10.97370	67718
10.98183	71558
10.98995	65897
10.99807	71079
11.00620	70841
11.01432	68275
11.02245	67145
11.03057	67069
11.03868	63124
11.04682	60443
11.05493	69372
11.06305	59789
11.07118	65257
11.07930	58147
11.08743	63288
11.09555	63932
11.10367	66954
11.11180	65489
11.11992	59280
11.12805	58236
11.13617	49995
11.14428	60758
11.15242	51370
11.16053	44884
11.16865	50912
11.17678	50990
11.18490	56556
11.19303	56851
11.20115	57591
11.20927	63244
11.21740	55398
11.22552	53651
11.23365	51036
11.24177	43370
11.24988	44344
11.25802	47505
11.26613	45935
11.27427	48612
11.28238	46067
11.29050	47625
11.29863	53982
11.30675	65569
11.31487	87744
11.32300	132001
11.33112	191040
11.33925	244094
11.34737	277747
11.35548	263449
11.36362	232773
11.37173	177081
11.37987	125958
11.38798	99166
11.39610	78572
11.40423	72115
11.41235	74317
11.42047	74772
11.42860	73700
11.43672	65941
11.44485	62578
11.45297	60094
11.46108	65112
11.46922	60645
11.47733	70050
11.48547	85484
11.49358	129291
11.50170	160756
11.50983	172375
11.51795	174246
11.52608	152567
11.53420	123122
11.54232	106966
11.55045	109037
11.55857	112886
11.56668	102782
11.57482	94306
11.58293	90595
11.59107	70658
11.59918	74827
11.60730	90336
11.61543	113641
11.62355	144697
11.63168	181763
11.63980	161557
11.64792	144886
11.65605	119543
11.66417	91499
11.67230	73199
11.68042	68821
11.68853	71220
11.69667	62813
11.70478	61048
11.71290	59306
11.72103	56855
11.72915	56297
11.73728	54870
11.74540	55397
11.75352	56813
11.76165	53557
11.76977	52385
11.77790	50000
11.78602	50429
11.79413	53592
11.80227	49517
11.81038	46196
11.81852	49798
11.82663	46809
11.83475	49070
11.84288	44882
11.85100	45406
11.85912	49602
11.86725	49400
11.87537	45932
11.88350	46500
11.89162	50591
11.89973	44169
11.90787	47940
11.91598	50866
11.92412	50987
11.93223	55476
11.94035	52775
11.94848	53882
11.95660	49087
11.96472	53484
11.97285	44378
11.98097	47822
11.98910	44095
11.99722	50311
12.00533	59894
12.01347	75267
12.02158	85888
12.02972	88856
12.03783	82543
12.04595	71348
12.05408	61049
12.06220	51886
12.07033	51509
12.07845	51178
12.08657	50268
12.09470	46045
12.10282	51912
12.11093	51938
12.11907	53827
12.12718	60069
12.13532	58715
12.14343	62465
12.15155	60157
12.15968	49697
12.16780	46441
12.17593	45772
12.18405	43004
12.19217	41335
12.20030	42087
12.20842	42794
12.21653	47062
12.22467	41982
12.23278	42359
12.24092	44654
12.24903	49438
12.25715	45205
12.26528	42526
12.27340	46212
12.28153	46070
12.28965	41235
12.29777	39805
12.30590	42673
12.31402	41893
12.32215	41748
12.33027	41058
12.33838	42468
12.34652	38921
12.35463	46080
12.36275	40458
12.37088	40903
12.37900	42156
12.38713	47027
12.39525	45369
12.40337	46348
12.41150	54232
12.41962	57483
12.42775	61488
12.43587	83292
12.44398	84155
12.45212	78202
12.46023	74038
12.46837	59951
12.47648	53831
12.48460	48151
12.49273	47548
12.50085	46956
12.50897	47729
12.51710	44772
12.52522	42597
12.53335	45581
12.54147	57380
12.54958	70820
12.55772	113911
12.56583	174996
12.57397	259438
12.58208	306648
12.59020	290019
12.59833	230635
12.60645	162617
12.61457	107376
12.62270	80087
12.63082	65434
12.63895	61208
12.64707	61093
12.65518	50539
12.66332	49780
12.67143	49545
12.67957	52067
12.68768	49946
12.69580	49940
12.70393	49175
12.71205	47319
12.72018	50040
12.72830	54545
12.73642	67668
12.74455	67270
12.75267	68977
12.76078	67935
12.76892	60512
12.77703	52050
12.78517	45637
12.79328	46303
12.80140	43762
12.80953	44782
12.81765	42370
12.82578	42939
12.83390	41560
12.84202	42346
12.85015	42891
12.85827	39097
12.86640	40533
12.87452	39746
12.88263	37347
12.89077	33828
12.89888	36980
12.90700	35986
12.91513	36953
12.92325	40175
12.93138	39732
12.93950	36861
12.94762	35454
12.95575	35695
12.96387	39054
12.97200	40056
12.98012	39266
12.98823	38477
12.99637	39337
13.00448	41639
13.01260	44478
13.02073	41700
13.02885	37111
13.03698	38805
13.04510	38685
13.05322	39912
13.06135	35444
13.06947	37837
13.07760	35927
13.08572	38583
13.09383	35287
13.10197	42049
13.11008	38439
13.11822	40592
13.12633	39454
13.13445	39318
13.14258	34813
13.15070	38613
13.15882	33944
13.16695	34760
13.17507	36043
13.18320	40005
13.19132	41045
13.19943	43430
13.20757	45775
13.21568	44368
13.22382	45952
13.23193	43903
13.24005	45368
13.24818	39153
13.25630	41854
13.26442	39401
13.27255	39762
13.28067	41735
13.28880	39728
13.29692	41498
13.30503	39613
13.31317	36575
13.32128	33752
13.32942	38574
13.33753	33619
13.34565	33718
13.35378	38017
13.36190	33208
13.37003	33765
13.37815	35311
13.38627	32299
13.39440	32788
13.40252	35365
13.41063	31309
13.41877	32849
13.42688	34561
13.43502	34119
13.44313	37604
13.45125	30781
13.45938	32579
13.46750	34833
13.47563	46706
13.48375	33083
13.49187	32967
13.50000	34760
13.50812	34252
13.51625	33999
13.52437	35017
13.53248	37216
13.54062	42212
13.54873	37235
13.55685	37538
13.56498	39253
13.57310	34412
13.58123	39505
13.58935	36580
13.59747	38790
13.60560	46725
13.61372	44453
13.62185	47343
13.62997	51473
13.63808	52969
13.64622	48721
13.65433	45874
13.66245	46973
13.67058	35848
13.67870	34665
13.68683	33521
13.69495	33437
13.70307	31625
13.71120	32183
13.71932	34309
13.72745	35009
13.73557	35517
13.74368	36710
13.75182	44475
13.75993	56827
13.76807	84936
13.77618	115941
13.78430	168304
13.79243	197665
13.80055	208889
13.80867	215485
13.81680	216496
13.82492	203028
13.83305	208104
13.84117	210191
13.84928	200079
13.85742	172840
13.86553	154228
13.87367	123188
13.88178	104381
13.88990	83963
13.89803	75788
13.90615	65355
13.91428	63061
13.92240	59658
13.93052	57851
13.93865	54027
13.94677	54441
13.95488	60298
13.96302	69714
13.97113	97961
13.97927	130028
13.98738	158974
13.99550	200203
14.00363	178800
14.01175	163212
14.01988	125574
14.02800	100683
14.03612	79864
14.04425	74926
14.05237	69483
14.06048	62113
14.06862	62014
14.07673	58534
14.08487	63351
14.09298	59730
14.10110	53773
14.10923	50900
14.11735	52642
14.12548	46633
14.13360	49881
14.14172	52175
14.14985	55595
14.15797	52732
14.16610	57792
14.17422	55008
14.18233	53878
14.19047	67913
14.19858	65557
14.20670	88253
14.21483	107785
14.22295	138197
14.23108	154735
14.23920	157557
14.24732	161902
14.25545	161929
14.26357	155213
14.27170	142994
14.27982	125361
14.28793	112529
14.29607	96563
14.30418	80039
14.31232	79119
14.32043	74793
14.32855	67845
14.33668	70325
14.34480	66829
14.35292	63915
14.36105	65468
14.36917	66114
14.37730	56681
14.38542	54519
14.39353	50414
14.40167	53733
14.40978	54979
14.41792	56720
14.42603	67960
14.43415	69229
14.44228	69933
14.45040	63635
14.45852	59800
14.46665	51638
14.47477	54889
14.48290	45473
14.49102	49380
14.49913	42294
14.50727	44146
14.51538	43119
14.52352	43056
14.53163	50600
14.53975	49439
14.54788	50592
14.55600	47272
14.56413	43736
14.57225	42788
14.58037	47763
14.58850	42547
14.59662	41887
14.60473	41390
14.61287	36336
14.62098	37656
14.62912	36729
14.63723	37134
14.64535	36210
14.65348	35785
14.66160	31969
14.66973	35512
14.67785	34078
14.68597	36235
14.69410	33957
14.70222	34021
14.71033	35635
14.71847	35469
14.72658	36477
14.73472	39379
14.74283	35553
14.75095	37775
14.75908	44035
14.76720	40349
14.77533	39166
14.78345	40358
14.79157	53717
14.79970	100806
14.80782	253893
14.81595	633450
14.82407	1435546
14.83218	2552622
14.84032	3611142
14.84843	4088398
14.85655	3650880
14.86468	2692403
14.87280	1710621
14.88093	1021297
14.88905	631550
14.89717	445641
14.90530	350393
14.91342	292784
14.92155	262866
14.92967	234956
14.93778	213063
14.94592	197079
14.95403	178077
14.96217	169693
14.97028	152580
14.97840	151120
14.98653	139557
14.99465	136360
15.00277	119047
15.01090	123876
15.01902	124429
15.02715	116763
15.03527	114148
15.04338	104624
15.05152	97300
15.05963	100905
15.06777	89687
15.07588	92201
15.08400	89216
15.09213	87267
15.10025	83047
15.10837	81098
15.11650	77534
15.12462	79600
15.13275	84917
15.14087	91107
15.14898	106201
15.15712	99422
15.16523	93158
15.17337	90335
15.18148	78581
15.18960	63073
15.19773	57242
15.20585	53569
15.21398	51469
15.22210	50860
15.23022	52172
15.23835	47698
15.24647	46316
15.25458	45846
15.26272	46396
15.27083	48905
15.27897	42659
15.28708	45036
15.29520	45241
15.30333	40987
15.31145	42946
15.31958	41624
15.32770	39746
15.33582	37973
15.34395	39620
15.35207	37038
15.36020	40913
15.36832	39535
15.37643	42050
15.38457	43428
15.39268	41343
15.40080	43209
15.40893	40010
15.41705	38999
15.42518	42789
15.43330	42097
15.44142	37696
15.44955	41419
15.45767	39518
15.46580	42516
15.47392	49796
15.48203	56775
15.49017	60282
15.49828	72602
15.50640	72118
15.51453	80601
15.52265	74109
15.53078	72539
15.53890	68478
15.54702	64083
15.55515	62810
15.56327	60867
15.57140	54133
15.57952	48005
15.58763	49945
15.59577	48121
15.60388	43492
15.61202	41677
15.62013	38551
15.62825	42411
15.63638	43408
15.64450	48235
15.65262	43862
15.66075	42921
15.66887	40172
15.67700	37455
15.68512	37992
15.69323	34501
15.70137	39243
15.70948	39478
15.71762	38948
15.72573	37234
15.73385	40246
15.74198	41269
15.75010	44559
15.75822	48552
15.76635	62183
15.77447	105400
15.78260	156627
15.79072	235675
15.79883	301356
15.80697	296630
15.81508	266727
15.82322	198841
15.83133	154834
15.83945	101879
15.84758	82510
15.85570	75766
15.86383	65205
15.87195	62693
15.88007	57273
15.88820	56017
15.89632	58662
15.90443	56022
15.91257	52248
15.92068	55882
15.92882	57032
15.93693	58649
15.94505	52772
15.95318	51254
15.96130	58738
15.96943	60192
15.97755	67881
15.98567	70316
15.99380	75717
16.00192	77927
16.01005	80656
16.01817	85113
16.02628	88344
16.03442	90882
16.04253	87086
16.05065	85745
16.05878	72804
16.06690	64005
16.07503	59042
16.08315	49765
16.09127	49382
16.09940	46315
16.10752	47061
16.11565	49645
16.12377	50824
16.13188	47925
16.14002	49494
16.14813	49734
16.15625	51061
16.16438	50294
16.17250	46600
16.18063	53036
16.18875	48885
16.19687	48788
16.20500	48067
16.21312	44608
16.22125	42783
16.22937	46022
16.23748	43127
16.24562	42899
16.25373	44120
16.26187	40861
16.26998	45356
16.27810	41980
16.28623	46346
16.29435	42701
16.30247	41650
16.31060	47648
16.31872	51290
16.32685	44673
16.33497	49050
16.34308	42466
16.35122	45125
16.35933	52932
16.36747	68117
16.37558	78784
16.38370	94176
16.39183	93923
16.39995	88355
16.40808	82061
16.41620	64958
16.42432	60487
16.43245	56734
16.44057	53822
16.44868	59308
16.45682	89534
16.46493	151310
16.47307	277887
16.48118	449333
16.48930	644412
16.49743	732104
16.50555	672737
16.51368	529065
16.52180	350240
16.52992	216845
16.53805	150147
16.54617	121731
16.55428	98642
16.56242	89651
16.57053	87197
16.57867	76660
16.58678	81362
16.59490	84884
16.60303	74778
16.61115	80482
16.61928	79957
16.62740	84131
16.63552	76349
16.64365	73828
16.65177	68450
16.65990	59831
16.66802	58855
16.67613	53880
16.68427	53359
16.69238	51582
16.70050	51187
16.70863	48160
16.71675	47218
16.72488	48145
16.73300	44142
16.74112	51063
16.74925	44152
16.75737	50211
16.76550	54685
16.77362	60746
16.78173	57372
16.78987	55015
16.79798	52499
16.80612	47735
16.81423	50480
16.82235	41199
16.83048	41710
16.83860	42794
16.84672	44474
16.85485	38078
16.86297	37530
16.87110	49535
16.87922	39810
16.88733	38141
16.89547	38746
16.90358	44284
16.91172	35311
16.91983	37950
16.92795	35360
16.93608	36930
16.94420	36416
16.95232	36966
16.96045	34316
16.96857	38826
16.97670	39172
16.98482	38306
16.99293	36967
17.00107	38350
17.00918	38890
17.01732	38816
17.02543	37778
17.03355	38613
17.04168	44660
17.04980	45764
17.05793	47749
17.06605	45393
17.07417	47614
17.08230	47161
17.09042	43574
17.09853	43212
17.10667	45786
17.11478	46098
17.12292	46761
17.13103	44894
17.13915	42081
17.14728	41655
17.15540	40095
17.16353	40065
17.17165	40026
17.17977	41371
17.18790	39412
17.19602	40616
17.20415	39177
17.21227	38538
17.22038	37249
17.22852	38011
17.23663	34397
17.24475	37037
17.25288	40063
17.26100	38459
17.26913	37491
17.27725	40800
17.28537	39147
17.29350	38322
17.30162	39456
17.30975	39229
17.31787	39684
17.32598	41052
17.33412	40738
17.34223	45370
17.35035	49827
17.35848	47039
17.36660	50632
17.37473	49570
17.38285	44535
17.39097	49822
17.39910	44024
17.40722	42988
17.41535	52367
17.42347	42149
17.43158	47373
17.43972	48044
17.44783	47705
17.45597	51153
17.46408	43449
17.47220	42723
17.48033	42072
17.48845	43402
17.49657	43105
17.50470	39626
17.51282	39289
17.52095	43958
17.52907	39463
17.53718	40677
17.54532	42296
17.55343	41767
17.56157	46636
17.56968	58727
17.57780	79424
17.58593	142823
17.59405	224920
17.60217	319395
17.61030	438210
17.61842	505873
17.62655	510089
17.63467	424212
17.64278	340883
17.65092	278545
17.65903	256612
17.66717	266705
17.67528	274594
17.68340	284838
17.69153	251859
17.69965	215683
17.70778	164645
17.71590	140737
17.72402	114396
17.73215	95196
17.74027	88060
17.74838	80146
17.75652	72596
17.76463	70897
17.77277	62158
17.78088	65677
17.78900	65164
17.79713	64967
17.80525	57786
17.81338	64347
17.82150	68567
17.82962	74774
17.83775	80123
17.84587	82233
17.85400	80773
17.86212	75703
17.87023	82384
17.87837	78864
17.88648	71402
17.89460	64674
17.90273	56738
17.91085	55453
17.91898	53358
17.92710	49276
17.93522	49653
17.94335	44551
17.95147	46052
17.95960	45912
17.96772	45433
17.97583	42605
17.98397	50338
17.99208	41061
18.00020	40032
18.00833	47027
18.01645	49597
18.02458	52798
18.03270	67528
18.04082	76924
18.04895	83393
18.05707	83891
18.06520	88056
18.07332	113192
18.08143	154969
18.08957	224625
18.09768	301246
18.10582	355182
18.11393	358497
18.12205	310946
18.13018	250783
18.13830	207141
18.14642	178511
18.15455	153514
18.16267	131462
18.17080	123397
18.17892	124893
18.18703	119624
18.19517	107089
18.20328	101283
18.21142	98695
18.21953	95465
18.22765	87539
18.23578	83490
18.24390	78259
18.25203	78703
18.26015	74731
18.26827	68419
18.27640	65509
18.28452	63467
18.29263	58831
18.30077	55177
18.30888	46217
18.31702	47852
18.32513	43200
18.33325	44425
18.34138	51103
18.34950	44083
18.35763	40206
18.36575	49051
18.37387	42130
18.38200	40656
18.39012	44248
18.39823	42010
18.40637	39286
18.41448	41096
18.42262	44703
18.43073	42997
18.43885	46082
18.44698	55395
18.45510	61013
18.46323	83707
18.47135	110361
18.47947	136617
18.48760	169398
18.49572	188684
18.50385	180877
18.51197	160066
18.52008	130095
18.52822	100955
18.53633	83768
18.54445	64357
18.55258	60511
18.56070	56411
18.56883	51708
18.57695	52991
18.58507	50464
18.59320	47299
18.60132	51058
18.60945	51166
18.61757	53911
18.62568	56859
18.63382	73021
18.64193	110416
18.65005	156531
18.65818	197361
18.66630	209949
18.67443	229558
18.68255	233789
18.69067	239168
18.69880	246409
18.70692	251770
18.71505	249133
18.72317	248529
18.73128	249752
18.73942	249216
18.74753	257252
18.75567	238214
18.76378	246133
18.77190	251322
18.78003	254085
18.78815	246028
18.79627	254720
18.80440	250216
18.81252	249237
18.82065	241491
18.82877	245975
18.83688	241372
18.84502	245761
18.85313	237151
18.86127	241016
18.86938	234310
18.87750	239915
18.88563	234853
18.89375	221675
18.90188	230521
18.91000	226972
18.91812	222354
18.92625	233994
18.93437	240210
18.94248	244174
18.95062	235358
18.95873	232808
18.96687	244579
18.97498	241740
18.98310	240162
18.99123	230946
18.99935	226690
19.00748	225209
19.01560	221523
19.02372	209328
19.03185	214398
19.03997	205835
19.04808	201441
19.05622	205636
19.06433	195495
19.07247	203994
19.08058	214420
19.08870	204139
19.09683	221728
19.10495	244849
19.11308	251519
19.12120	266458
19.12932	246186
19.13745	250786
19.14557	217964
19.15370	225266
19.16182	208466
19.16993	204287
19.17807	202956
19.18618	204551
19.19430	200167
19.20243	198104
19.21055	194837
19.21868	199896
19.22680	193127
19.23492	180936
19.24305	175672
19.25117	187573
19.25930	177250
19.26742	180696
19.27553	188068
19.28367	196426
19.29178	207405
19.29992	213586
19.30803	221637
19.31615	225205
19.32428	203196
19.33240	210149
19.34052	198804
19.34865	187062
19.35677	189280
19.36490	202856
19.37302	218934
19.38113	236301
19.38927	229000
19.39738	226014
19.40552	211588
19.41363	191994
19.42175	172011
19.42988	169128
19.43800	163812
19.44612	163969
19.45425	159448
19.46237	154995
19.47050	160199
19.47862	155672
19.48673	149147
19.49487	157252
19.50298	161701
19.51112	182663
19.51923	199370
19.52735	213887
19.53548	223021
19.54360	215918
19.55173	200416
19.55985	177329
19.56797	162220
19.57610	148314
19.58422	142918
19.59233	149736
19.60047	134228
19.60858	138555
19.61672	135852
19.62483	129872
19.63295	129752
19.64108	138576
19.64920	157310
19.65733	198445
19.66545	260709
19.67357	332420
19.68170	400199
19.68982	412596
19.69795	406219
19.70607	360226
19.71418	302507
19.72232	261831
19.73043	236881
19.73855	204539
19.74668	196213
19.75480	171707
19.76293	164669
19.77105	162173
19.77917	150335
19.78730	148368
19.79542	149534
19.80355	158067
19.81167	148909
19.81978	157346
19.82792	147516
19.83603	142789
19.84415	139611
19.85228	137253
19.86040	156429
19.86853	222797
19.87665	401532
19.88477	743701
19.89290	1315520
19.90102	1961368
19.90915	2550066
19.91727	2829241
19.92538	2744490
19.93352	2394566
19.94163	2112824
19.94977	1826439
19.95788	1596682
19.96600	1444460
19.97413	1306342
19.98225	1210088
19.99037	1167576
19.99850	1127716
20.00662	1036089
20.01475	979368
20.02287	955662
20.03098	894194
20.03912	839652
20.04723	773525
20.05537	668812
20.06348	550835
20.07160	440650
20.07973	382124
20.08785	308388
20.09597	271975
20.10410	241057
20.11222	231233
20.12035	216482
20.12847	214138
20.13658	207318
20.14472	195401
20.15283	202945
20.16097	199142
20.16908	221682
20.17720	226499
20.18533	233615
20.19345	243071
20.20158	233742
20.20970	236602
20.21782	226536
20.22595	222995
20.23407	207647
20.24218	194989
20.25032	214792
20.25843	235226
20.26657	278850
20.27468	345508
20.28280	445720
20.29093	524597
20.29905	538629
20.30718	531103
20.31530	457706
20.32342	408778
20.33155	309267
20.33967	260267
20.34780	212784
20.35592	183908
20.36403	154372
20.37217	138793
20.38028	126048
20.38840	116976
20.39653	116379
20.40465	109869
20.41278	113513
20.42090	103236
20.42902	106905
20.43715	112309
20.44527	126040
20.45340	135368
20.46152	137930
20.46963	137955
20.47777	133930
20.48588	124931
20.49400	118145
20.50213	115523
20.51025	103175
20.51838	100975
20.52650	94449
20.53462	96182
20.54275	93790
20.55087	89894
20.55900	91310
20.56712	85570
20.57523	91714
20.58337	86928
20.59148	86876
20.59962	88986
20.60773	85835
20.61585	84824
20.62398	84123
20.63210	80726
20.64022	81766
20.64835	79443
20.65647	75708
20.66460	77270
20.67272	80817
20.68083	80016
20.68897	77219
20.69708	78505
20.70522	78656
20.71333	80960
20.72145	78844
20.72958	74079
20.73770	81414
20.74583	75633
20.75395	73285
20.76207	75587
20.77020	80389
20.77832	80638
20.78643	81976
20.79457	95037
20.80268	117898
20.81082	145299
20.81893	187126
20.82705	209650
20.83518	211014
20.84330	189866
20.85143	165745
20.85955	136153
20.86767	110357
20.87580	92906
20.88392	82616
20.89203	86701
20.90017	82824
20.90828	83050
20.91642	74844
20.92453	75716
20.93265	78703
20.94078	77737
20.94890	75888
20.95703	73843
20.96515	73614
20.97327	73797
20.98140	68537
20.98952	72070
20.99765	71646
21.00577	77891
21.01388	72472
21.02202	68543
21.03013	74007
21.03825	76237
21.04638	77266
21.05450	74904
21.06263	72819
21.07075	79099
21.07887	71858
21.08700	75359
21.09512	74609
21.10325	66349
21.11137	65814
21.11948	68281
21.12762	69251
21.13573	73596
21.14385	78183
21.15198	86929
21.16010	98039
21.16823	105710
21.17635	107335
21.18447	106564
21.19260	91774
21.20072	86060
21.20885	88397
21.21697	78588
21.22508	76230
21.23322	74421
21.24133	70385
21.24947	69184
21.25758	67690
21.26570	68801
21.27383	66310
21.28195	62868
21.29007	68394
21.29820	65540
21.30632	62138
21.31445	65724
21.32257	62664
21.33068	60494
21.33882	59676
21.34693	59964
21.35507	63968
21.36318	61457
21.37130	62574
21.37943	64084
21.38755	64604
21.39568	56664
21.40380	60985
21.41192	65545
21.42005	68460
21.42817	69714
21.43628	68637
21.44442	72090
21.45253	69903
21.46067	68186
21.46878	69045
21.47690	65943
21.48503	61994
21.49315	62416
21.50128	60044
21.50940	56455
21.51752	55057
21.52565	56478
21.53377	53945
21.54188	50650
21.55002	49991
21.55813	51300
21.56627	50539
21.57438	45401
21.58250	52833
21.59063	59650
21.59875	61483
21.60688	66600
21.61500	64306
21.62312	59885
21.63125	61697
21.63937	73970
21.64750	71752
21.65562	82382
21.66373	87835
21.67187	90955
21.67998	90825
21.68810	83147
21.69623	78469
21.70435	79312
21.71248	71449
21.72060	62139
21.72872	57319
21.73685	59706
21.74497	60614
21.75310	56257
21.76122	54612
21.76933	52634
21.77747	50592
21.78558	47866
21.79372	48599
21.80183	49927
21.80995	49742
21.81808	50621
21.82620	56311
21.83432	64481
21.84245	74688
21.85057	82029
21.85870	84413
21.86682	87268
21.87493	93761
21.88307	82302
21.89118	68762
21.89932	63587
21.90743	60873
21.91555	60862
21.92368	51738
21.93180	52238
21.93992	51149
21.94805	46515
21.95617	45338
21.96430	49701
21.97242	47679
21.98053	45160
21.98867	45553
21.99678	41147
22.00492	42494
22.01303	47711
22.02115	43521
22.02928	47964
22.03740	47066
22.04553	52174
22.05365	46737
22.06177	44075
22.06990	43589
22.07802	47529
22.08613	44573
22.09427	45620
22.10238	43216
22.11052	45498
22.11863	44274
22.12675	41763
22.13488	46596
22.14300	41825
22.15113	40595
22.15925	42926
22.16737	46683
22.17550	44428
22.18362	43644
22.19173	43000
22.19987	40111
22.20798	45371
22.21612	42453
22.22423	47203
22.23235	41656
22.24048	50122
22.24860	57473
22.25673	67153
22.26485	82334
22.27297	83982
22.28110	89435
22.28922	91151
22.29735	93728
22.30547	102826
22.31358	125242
22.32172	143251
22.32983	176426
22.33795	215379
22.34608	231553
22.35420	233657
22.36233	210352
22.37045	187734
22.37857	157504
22.38670	150492
22.39482	143929
22.40295	147676
22.41107	151116
22.41918	159198
22.42732	171140
22.43543	173875
22.44357	161506
22.45168	155629
22.45980	141023
22.46793	126594
22.47605	119647
22.48417	113081
22.49230	113794
22.50042	120332
22.50855	121395
22.51667	116881
22.52478	112428
22.53292	116704
22.54103	108394
22.54917	114551
22.55728	110670
22.56540	101096
22.57353	96093
22.58165	95451
22.58978	96149
22.59790	94890
22.60602	90678
22.61415	88451
22.62227	85504
22.63038	84108
22.63852	84443
22.64663	84357
22.65477	89416
22.66288	86093
22.67100	89291
22.67913	91410
22.68725	96457
22.69538	93480
22.70350	98739
22.71162	91285
22.71975	94970
22.72787	93279
22.73598	78511
22.74412	79115
22.75223	72656
22.76037	65056
22.76848	60272
22.77660	61360
22.78473	67638
22.79285	68239
22.80098	74371
22.80910	83304
22.81722	88428
22.82535	94715
22.83347	84268
22.84160	81578
22.84972	71116
22.85783	71396
22.86597	62580
22.87408	64188
22.88220	70548
22.89033	71540
22.89845	76170
22.90658	79432
22.91470	90262
22.92282	105270
22.93095	119332
22.93907	132969
22.94720	134853
22.95532	127593
22.96343	113164
22.97157	103199
22.97968	98756
22.98780	96105
22.99593	108286
23.00405	121501
23.01218	137282
23.02030	129618
23.02842	137213
23.03655	129455
23.04467	133624
23.05280	139491
23.06092	143559
23.06903	140699
23.07717	137228
23.08528	143391
23.09342	143466
23.10153	142238
23.10965	142893
23.11778	141623
23.12590	137685
23.13402	134441
23.14215	133720
23.15027	142327
23.15840	142444
23.16652	142579
23.17463	134312
23.18277	127819
23.19088	131495
23.19902	138251
23.20713	137779
23.21525	128234
23.22338	130748
23.23150	139213
23.23963	134289
23.24775	140532
23.25587	164414
23.26400	166694
23.27212	178015
23.28023	175306
23.28837	164983
23.29648	154264
23.30462	147173
23.31273	147185
23.32085	135167
23.32898	134733
23.33710	135130
23.34523	145060
23.35335	152736
23.36147	170849
23.36960	202481
23.37772	234511
23.38583	273468
23.39397	344695
23.40208	388557
23.41022	431715
23.41833	481937
23.42645	495451
23.43458	507964
23.44270	513710
23.45083	500496
23.45895	471419
23.46707	468979
23.47520	427133
23.48332	409852
23.49145	375045
23.49957	352958
23.50768	327033
23.51582	306339
23.52393	286548
23.53205	263331
23.54018	256825
23.54830	240406
23.55643	232058
23.56455	232528
23.57267	218909
23.58080	216594
23.58892	222079
23.59705	235937
23.60517	239215
23.61328	252630
23.62142	249398
23.62953	246444
23.63767	266024
23.64578	312411
23.65390	411321
23.66203	566653
23.67015	715863
23.67827	778841
23.68640	788475
23.69452	676853
23.70265	524501
23.71077	414369
23.71888	320895
23.72702	262781
23.73513	229235
23.74327	202705
23.75138	187593
23.75950	210104
23.76763	284726
23.77575	495230
23.78387	868706
23.79200	1488584
23.80012	2060342
23.80825	2359259
23.81637	2348831
23.82448	2037501
23.83262	1613553
23.84073	1224817
23.84887	926453
23.85698	712194
23.86510	590550
23.87323	491017
23.88135	428521
23.88948	367930
23.89760	348763
23.90572	319187
23.91385	303152
23.92197	278873
23.93008	266721
23.93822	251604
23.94633	245911
23.95447	229312
23.96258	212674
23.97070	206418
23.97883	195310
23.98695	193750
23.99508	182028
24.00320	187097
24.01132	194269
24.01945	235032
24.02757	276993
24.03568	343742
24.04382	414093
24.05193	423652
24.06007	387595
24.06818	315347
24.07630	258790
24.08443	192826
24.09255	173765
24.10068	151331
24.10880	145602
24.11692	144145
24.12505	139050
24.13317	131578
24.14130	137735
24.14942	131816
24.15753	136044
24.16567	134411
24.17378	123583
24.18190	123489
24.19003	114339
24.19815	115229
24.20628	107644
24.21440	104174
24.22252	112635
24.23065	102764
24.23877	106179
24.24690	103693
24.25502	96799
24.26313	89422
24.27127	82977
24.27938	87215
24.28752	83548
24.29563	83983
24.30375	86789
24.31188	80914
24.32000	88616
24.32812	83515
24.33625	84896
24.34437	77127
24.35250	78659
24.36062	77805
24.36873	75854
24.37687	75053
24.38498	75380
24.39312	77112
24.40123	84422
24.40935	90586
24.41748	105594
24.42560	107950
24.43372	107590
24.44185	91155
24.44997	80735
24.45810	70835
24.46622	68762
24.47433	68002
24.48247	69848
24.49058	68783
24.49872	72938
24.50683	78253
24.51495	78142
24.52308	87483
24.53120	87768
24.53933	98889
24.54745	104235
24.55557	95914
24.56370	100624
24.57182	93352
24.57993	88027
24.58807	86303
24.59618	80988
24.60432	75171
24.61243	73583
24.62055	70536
24.62868	68183
24.63680	67223
24.64493	67998
24.65305	67599
24.66117	67153
24.66930	62736
24.67742	69464
24.68555	89411
24.69367	123925
24.70178	150737
24.70992	169805
24.71803	195584
24.72615	196318
24.73428	203762
24.74240	209739
24.75053	232898
24.75865	221094
24.76677	222723
24.77490	236442
24.78302	243858
24.79115	251563
24.79927	247860
24.80738	247633
24.81552	252027
24.82363	259970
24.83175	265830
24.83988	266838
24.84800	272490
24.85613	297703
24.86425	323135
24.87237	370362
24.88050	439636
24.88862	517377
24.89675	586662
24.90487	627951
24.91298	627032
24.92112	557038
24.92923	463123
24.93737	389268
24.94548	336062
24.95360	283282
24.96173	260547
24.96985	247658
24.97797	243922
24.98610	223817
24.99422	230370
25.00235	224557
25.01047	217152
25.01858	219233
25.02672	220179
25.03483	213526
25.04297	216619
25.05108	216428
25.05920	199274
25.06733	198054
25.07545	203751
25.08358	202873
25.09170	204555
25.09982	209873
25.10795	242536
25.11607	315293
25.12418	516664
25.13232	827895
25.14043	1321825
25.14857	1771106
25.15668	2124824
25.16480	2180017
25.17293	1887308
25.18105	1445176
25.18918	978804
25.19730	661380
25.20542	444560
25.21355	327963
25.22167	258254
25.22978	207854
25.23792	169983
25.24603	151915
25.25417	150460
25.26228	166153
25.27040	178973
25.27853	184437
25.28665	183658
25.29478	173770
25.30290	153206
25.31102	136201
25.31915	116559
25.32727	108158
25.33540	96808
25.34352	94081
25.35163	87157
25.35977	80715
25.36788	77766
25.37600	71106
25.38413	73457
25.39225	75579
25.40038	70892
25.40850	67754
25.41662	67942
25.42475	68813
25.43287	64932
25.44100	66170
25.44912	66456
25.45723	63888
25.46537	66859
25.47348	67000
25.48160	62914
25.48973	65646
25.49785	65225
25.50598	65290
25.51410	62398
25.52222	64329
25.53035	61258
25.53847	68578
25.54660	61005
25.55472	56339
25.56283	61428
25.57097	62505
25.57908	54306
25.58722	53763
25.59533	56490
25.60345	65414
25.61158	56856
25.61970	67177
25.62782	80525
25.63595	109781
25.64407	170686
25.65220	242409
25.66032	306012
25.66843	347761
25.67657	352388
25.68468	360800
25.69282	359377
25.70093	366491
25.70905	356564
25.71718	345337
25.72530	353268
25.73343	349657
25.74155	356421
25.74967	354878
25.75780	359590
25.76592	343230
25.77403	352332
25.78217	352404
25.79028	343898
25.79842	342895
25.80653	339048
25.81465	354146
25.82278	352814
25.83090	339407
25.83903	323681
25.84715	342674
25.85527	334973
25.86340	332660
25.87152	326025
25.87963	308219
25.88777	325485
25.89588	301490
25.90402	300390
25.91213	301091
25.92025	299781
25.92838	294735
25.93650	297427
25.94463	279341
25.95275	286605
25.96087	286585
25.96900	285919
25.97712	280283
25.98525	275199
25.99337	260956
26.00148	269676
26.00962	263051
26.01773	261303
26.02585	256625
26.03398	264667
26.04210	253471
26.05023	252175
26.05835	250033
26.06647	247036
26.07460	253021
26.08272	244496
26.09085	241556
26.09897	240108
26.10708	241215
26.11522	233837
26.12333	240387
26.13147	241087
26.13958	238433
26.14770	242059
26.15583	237567
26.16395	236207
26.17207	233759
26.18020	245840
26.18832	226565
26.19645	222098
26.20457	229412
26.21268	216811
26.22082	209792
26.22893	207687
26.23707	210817
26.24518	204859
26.25330	203345
26.26143	196939
26.26955	189063
26.27767	197558
26.28580	193436
26.29392	191279
26.30205	181907
26.31017	186031
26.31828	184337
26.32642	175404
26.33453	178314
26.34267	177505
26.35078	181116
26.35890	171651
26.36703	172305
26.37515	176645
26.38328	181746
26.39140	187382
26.39952	190443
26.40765	185953
26.41577	188899
26.42388	178611
26.43202	182994
26.44013	174132
26.44827	159534
26.45638	156430
26.46450	151289
26.47263	151374
26.48075	150840
26.48888	160944
26.49700	146555
26.50512	149352
26.51325	146755
26.52137	137218
26.52948	146305
26.53762	141079
26.54573	135781
26.55387	138306
26.56198	136298
26.57010	130334
26.57823	131416
26.58635	122476
26.59448	126594
26.60260	127835
26.61072	121901
26.61885	126101
26.62697	123301
26.63510	125023
26.64322	124054
26.65133	122436
26.65947	125426
26.66758	127939
26.67570	132980
26.68383	129894
26.69195	127503
26.70008	117409
26.70820	120459
26.71632	116431
26.72445	121956
26.73257	115996
26.74070	115806
26.74882	109097
26.75693	109204
26.76507	109224
26.77318	106147
26.78132	105554
26.78943	108135
26.79755	101537
26.80568	104069
26.81380	105546
26.82192	106411
26.83005	107180
26.83817	102489
26.84630	95044
26.85442	106231
26.86253	98131
26.87067	99054
26.87878	92864
26.88692	100340
26.89503	91987
26.90315	96932
26.91128	93577
26.91940	86824
26.92753	92779
26.93565	89623
26.94377	87125
26.95190	84992
26.96002	91064
26.96813	83032
26.97627	101071
26.98438	104143
26.99252	130652
27.00063	179622
27.00875	253531
27.01688	353561
27.02500	476724
27.03313	552343
27.04125	597921
27.04937	568995
27.05750	526802
27.06562	430725
27.07373	355843
27.08187	295625
27.08998	247341
27.09812	208812
27.10623	195609
27.11435	178017
27.12248	168917
27.13060	161483
27.13873	150544
27.14685	140646
27.15497	139480
27.16310	134108
27.17122	127682
27.17935	135331
27.18747	137339
27.19558	132973
27.20372	128077
27.21183	123548
27.21995	120797
27.22808	109810
27.23620	107990
27.24433	101380
27.25245	100354
27.26057	96509
27.26870	93088
27.27682	87638
27.28495	88213
27.29307	84650
27.30118	86537
27.30932	86523
27.31743	89871
27.32555	86269
27.33368	77518
27.34180	78817
27.34993	85541
27.35805	78458
27.36617	79186
27.37430	73969
27.38242	75311
27.39055	77755
27.39867	79594
27.40678	81439
27.41492	76439
27.42303	74426
27.43117	69463
27.43928	75008
27.44740	69390
27.45553	73582
27.46365	76360
27.47177	70146
27.47990	65813
27.48802	68386
27.49615	69264
27.50427	70768
27.51238	69073
27.52052	71266
27.52863	72437
27.53677	69367
27.54488	70032
27.55300	71866
27.56113	67286
27.56925	64127
27.57738	66776
27.58550	66865
27.59362	75051
27.60175	80480
27.60987	78761
27.61798	80647
27.62612	81918
27.63423	74101
27.64237	68163
27.65048	67606
27.65860	61063
27.66673	61038
27.67485	60383
27.68298	63714
27.69110	62706
27.69922	64099
27.70735	61584
27.71547	63693
27.72358	67440
27.73172	60393
27.73983	54193
27.74797	55354
27.75608	57704
27.76420	56622
27.77233	58337
27.78045	60036
27.78858	60322
27.79670	59592
27.80482	61353
27.81295	59315
27.82107	65575
27.82920	63012
27.83732	59606
27.84543	62499
27.85357	62104
27.86168	62907
27.86980	62858
27.87793	61060
27.88605	51767
27.89418	58534
27.90230	55217
27.91042	55716
27.91855	52299
27.92667	53739
27.93480	53064
27.94292	55086
27.95103	57610
27.95917	50514
27.96728	51332
27.97542	52645
27.98353	49731
27.99165	53466
27.99978	51463
28.00790	57694
28.01602	53797
28.02415	51800
28.03227	55131
28.04040	55709
28.04852	52785
28.05663	57460
28.06477	55820
28.07288	59282
28.08102	54262
28.08913	53643
28.09725	52258
28.10538	54507
28.11350	49948
28.12162	48788
28.12975	49583
28.13787	50217
28.14600	49707
28.15412	48928
28.16223	46485
28.17037	53442
28.17848	52472
28.18662	47719
28.19473	52538
28.20285	59494
28.21098	71598
28.21910	73592
28.22723	79444
28.23535	85091
28.24347	78986
28.25160	77091
28.25972	74858
28.26783	66034
28.27597	57531
28.28408	59257
28.29222	54693
28.30033	52698
28.30845	53272
28.31658	56278
28.32470	53151
28.33283	61807
28.34095	67308
28.34907	76596
28.35720	89722
28.36532	97777
28.37343	110253
28.38157	129021
28.38968	134625
28.39782	134998
28.40593	143419
28.41405	132552
28.42218	130699
28.43030	126868
28.43843	120027
28.44655	111686
28.45467	97705
28.46280	97001
28.47092	95914
28.47905	86753
28.48717	80764
28.49528	81974
28.50342	76744
28.51153	79512
28.51965	75689
28.52778	77096
28.53590	72507
28.54403	67034
28.55215	69098
28.56027	65035
28.56840	68667
28.57652	62708
28.58465	65291
28.59277	61678
28.60088	59863
28.60902	62955
28.61713	63072
28.62527	60562
28.63338	61361
28.64150	62917
28.64963	62815
28.65775	70395
28.66587	61321
28.67400	66508
28.68212	71025
28.69025	65799
28.69837	60110
28.70648	68643
28.71462	56884
28.72273	59541
28.73087	58002
28.73898	52931
28.74710	58393
28.75523	59745
28.76335	54153
28.77147	59078
28.77960	62074
28.78772	68950
28.79585	67707
28.80397	71417
28.81208	69462
28.82022	70803
28.82833	66153
28.83647	64812
28.84458	61424
28.85270	62931
28.86083	59340
28.86895	57954
28.87708	56187
28.88520	59881
28.89332	65772
28.90145	62372
28.90957	69130
28.91768	70122
28.92582	68708
28.93393	61166
28.94207	66832
28.95018	65501
28.95830	69085
28.96643	75630
28.97455	71001
28.98268	73860
28.99080	70267
28.99892	62123
29.00705	57445
29.01517	57872
29.02330	59455
29.03142	57717
29.03953	52239
29.04767	47935
29.05578	52755
29.06390	51883
29.07203	56932
29.08015	58358
29.08828	62076
29.09640	56140
29.10452	55544
29.11265	53385
29.12077	54143
29.12890	51986
29.13702	52545
29.14513	53118
29.15327	57578
29.16138	50040
29.16950	51103
29.17763	56370
29.18575	58079
29.19388	64177
29.20200	77642
29.21012	76332
29.21825	91778
29.22637	98086
29.23450	102180
29.24262	85165
29.25073	79679
29.25887	73086
29.26698	60124
29.27512	56826
29.28323	53675
29.29135	51861
29.29948	52330
29.30760	52902
29.31572	50136
29.32385	51835
29.33197	54194
29.34010	51831
29.34822	52140
29.35633	51846
29.36447	45823
29.37258	49744
29.38072	51746
29.38883	47617
29.39695	49266
29.40508	51944
29.41320	52446
29.42132	52929
29.42945	57355
29.43757	58871
29.44570	54622
29.45382	56791
29.46193	58315
29.47007	49407
29.47818	52699
29.48632	48776
29.49443	51021
29.50255	53918
29.51068	53242
29.51880	53940
29.52693	54427
29.53505	53818
29.54317	52921
29.55130	55269
29.55942	49384
29.56753	50810
29.57567	49512
29.58378	49770
29.59192	45931
29.60003	48996
29.60815	43846
29.61628	43555
29.62440	42793
29.63253	47927
29.64065	48570
29.64877	44643
29.65690	48192
29.66502	49505
29.67315	49939
29.68127	45320
29.68938	46035
29.69752	49717
29.70563	49134
29.71375	50990
29.72188	52515
29.73000	49132
29.73813	50552
29.74625	45909
29.75437	46588
29.76250	44442
29.77062	47458
29.77875	45593
29.78687	44177
29.79498	45671
29.80312	41775
29.81123	46433
29.81935	39481
29.82748	43765
29.83560	42438
29.84373	46791
29.85185	45815
29.85997	58513
29.86810	86901
29.87622	166109
29.88435	306236
29.89247	589672
29.90058	932434
29.90872	1180733
29.91683	1249692
29.92497	1079131
29.93308	831072
29.94120	513001
29.94933	299820
29.95745	174698
29.96557	115585
29.97370	90090
29.98182	84656
29.98995	81702
29.99807	78882
30.00618	84490
30.01432	84855
30.02243	88502
30.03057	95246
30.03868	88576
30.04680	93494
30.05493	96405
30.06305	94788
30.07118	92811
30.07930	92607
30.08742	92326
30.09555	92695
30.10367	88383
30.11178	87925
30.11992	84280
30.12803	82530
30.13617	78121
30.14428	79126
30.15240	73634
30.16053	77059
30.16865	72223
30.17678	69408
30.18490	70326
30.19302	73144
30.20115	66373
30.20927	72324
30.21738	64234
30.22552	67987
30.23363	61736
30.24177	63463
30.24988	61829
30.25800	61118
30.26613	58634
30.27425	57962
30.28238	61331
30.29050	58740
30.29862	55481
30.30675	58961
30.31487	58967
30.32300	59631
30.33112	52124
30.33923	56477
30.34737	55446
30.35548	53384
30.36360	50707
30.37173	52912
30.37985	57061
30.38798	50850
30.39610	52103
30.40422	50917
30.41235	54412
30.42047	49469
30.42860	48372
30.43672	54258
30.44483	53071
30.45297	56884
30.46108	50306
30.46922	54769
30.47733	54802
30.48545	55053
30.49358	56678
30.50170	53432
30.50982	54322
30.51795	58239
30.52607	55377
30.53420	55189
30.54232	54008
30.55043	58260
30.55857	58158
30.56668	54805
30.57482	58065
30.58293	54385
30.59105	57200
30.59918	60307
30.60730	57205
30.61542	55957
30.62355	54061
30.63167	55149
30.63980	55272
30.64792	53201
30.65603	55636
30.66417	55253
30.67228	54958
30.68042	57004
30.68853	54150
30.69665	53292
30.70478	56948
30.71290	50754
30.72103	56627
30.72915	54793
30.73727	53997
30.74540	55906
30.75352	56562
30.76163	55575
30.76977	55964
30.77788	61698
30.78602	67738
30.79413	101432
30.80225	127514
30.81038	159377
30.81850	179547
30.82663	191102
30.83475	174025
30.84287	148812
30.85100	112522
30.85912	89639
30.86723	69407
30.87537	65387
30.88348	60694
30.89162	58603
30.89973	56430
30.90785	53372
30.91598	52129
30.92410	54824
30.93223	51434
30.94035	49437
30.94847	53380
30.95660	49569
30.96472	52824
30.97285	52833
30.98097	48028
30.98908	49049
30.99722	56302
31.00533	48750
31.01345	49602
31.02158	52310
31.02970	54758
31.03783	51488
31.04595	52007
31.05407	50124
31.06220	56905
31.07032	55739
31.07845	59456
31.08657	76365
31.09468	99648
31.10282	133855
31.11093	171312
31.11907	197310
31.12718	195980
31.13530	172519
31.14343	134436
31.15155	102118
31.15967	86657
31.16780	71224
31.17592	71595
31.18405	64917
31.19217	64093
31.20028	67820
31.20842	79167
31.21653	100421
31.22467	111197
31.23278	126622
31.24090	131810
31.24903	120496
31.25715	99591
31.26527	78039
31.27340	70266
31.28152	57744
31.28965	54109
31.29777	51618
31.30588	54890
31.31402	51771
31.32213	52568
31.33027	51444
31.33838	56075
31.34650	58062
31.35463	64614
31.36275	68439
31.37088	77423
31.37900	82219
31.38712	92803
31.39525	92046
31.40337	93585
31.41148	95737
31.41962	95267
31.42773	88215
31.43587	82712
31.44398	82390
31.45210	82868
31.46023	82003
31.46835	75549
31.47648	75954
31.48460	78926
31.49272	83489
31.50085	75409
31.50897	76866
31.51710	75884
31.52522	75384
31.53333	78241
31.54147	76293
31.54958	75679
31.55770	71329
31.56583	72346
31.57395	81920
31.58208	77322
31.59020	77022
31.59832	74060
31.60645	74607
31.61457	75137
31.62270	80746
31.63082	72359
31.63893	69095
31.64707	73937
31.65518	72441
31.66330	74334
31.67143	78154
31.67955	75702
31.68768	74859
31.69580	74934
31.70392	75807
31.71205	69216
31.72017	69825
31.72830	73764
31.73642	67861
31.74453	67970
31.75267	63246
31.76078	67058
31.76892	68354
31.77703	64927
31.78515	64895
31.79328	64200
31.80140	64878
31.80952	67975
31.81765	61134
31.82577	65919
31.83390	70088
31.84202	63807
31.85013	67996
31.85827	70383
31.86638	72249
31.87452	69530
31.88263	72924
31.89075	72761
31.89888	72403
31.90700	75972
31.91512	78194
31.92325	84945
31.93137	84531
31.93950	84193
31.94762	82697
31.95573	79966
31.96387	80927
31.97198	80701
31.98012	84546
31.98823	88100
31.99635	85210
32.00448	85998
32.01260	94729
32.02073	83136
32.02885	84256
32.03697	81204
32.04510	80849
32.05322	86428
32.06133	78303
32.06947	67338
32.07758	73133
32.08572	74992
32.09383	67082
32.10195	65939
32.11008	71350
32.11820	65398
32.12633	65562
32.13445	62967
32.14257	60188
32.15070	59874
32.15882	61038
32.16695	56919
32.17507	57285
32.18318	59247
32.19132	61769
32.19943	58687
32.20755	54317
32.21568	59164
32.22380	56665
32.23193	53121
32.24005	59677
32.24817	58973
32.25630	58075
32.26442	53065
32.27255	59851
32.28067	61887
32.28878	55178
32.29692	60321
32.30503	58453
32.31315	58803
32.32128	55689
32.32940	55384
32.33753	50746
32.34565	54446
32.35377	57965
32.36190	55950
32.37002	62397
32.37815	58093
32.38627	56398
32.39438	56290
32.40252	51999
32.41063	51644
32.41877	49399
32.42688	52590
32.43500	47848
32.44313	56040
32.45125	47705
32.45937	49545
32.46750	55285
32.47562	46068
32.48375	51441
32.49187	49359
32.49998	49786
32.50812	48751
32.51623	48549
32.52437	55301
32.53248	53135
32.54060	51468
32.54873	46803
32.55685	50965
32.56498	47932
32.57310	49911
32.58122	49171
32.58935	43531
32.59747	49865
32.60558	52292
32.61372	47610
32.62183	47580
32.62997	42457
32.63808	43304
32.64620	47291
32.65433	48869
32.66245	49478
32.67058	48944
32.67870	54993
32.68682	62766
32.69495	59047
32.70307	59221
32.71118	53589
32.71932	55007
32.72743	60477
32.73557	51634
32.74368	51455
32.75180	50163
32.75993	49156
32.76805	44870
32.77618	42922
32.78430	44452
32.79242	44279
32.80055	47054
32.80867	45685
32.81680	46981
32.82492	47023
32.83303	45422
32.84117	44937
32.84928	44453
32.85740	42500
32.86553	47070
32.87365	47236
32.88178	50797
32.88990	46602
32.89802	47672
32.90615	48732
32.91427	49466
32.92240	46396
32.93052	49040
32.93863	49302
32.94677	47413
32.95488	46930
32.96300	47800
32.97113	45145
32.97925	48432
32.98738	54879
32.99550	56490
33.00362	59786
33.01175	62800
33.01987	65119
33.02800	61956
33.03612	58864
33.04423	54908
33.05237	51755
33.06048	61417
33.06862	59410
33.07673	59373
33.08485	57659
33.09298	64732
33.10110	69969
33.10922	76315
33.11735	89831
33.12547	103546
33.13360	101847
33.14172	97214
33.14983	91884
33.15797	75656
33.16608	61267
33.17422	61155
33.18233	56979
33.19045	54148
33.19858	47022
33.20670	48477
33.21483	51876
33.22295	49757
33.23107	53512
33.23920	51144
33.24732	50209
33.25543	45977
33.26357	48357
33.27168	51000
33.27982	49692
33.28793	52144
33.29605	43833
33.30418	47647
33.31230	43400
33.32043	44471
33.32855	46834
33.33667	48030
33.34480	49589
33.35292	53547
33.36105	45702
33.36917	45422
33.37728	47927
33.38542	51462
33.39353	47595
33.40165	48879
33.40978	47052
33.41790	43693
33.42603	44106
33.43415	41201
33.44227	43676
33.45040	43854
33.45852	47276
33.46665	43600
33.47477	43421
33.48288	46289
33.49102	46644
33.49913	47208
33.50725	43456
33.51538	42590
33.52350	44020
33.53163	50768
33.53975	51246
33.54787	52254
33.55600	48577
33.56412	51557
33.57225	53196
33.58037	49402
33.58848	55779
33.59662	49074
33.60473	47420
33.61287	50616
33.62098	45140
33.62910	45008
33.63723	46767
33.64535	47704
33.65347	45482
33.66160	48750
33.66972	46986
33.67785	50315
33.68597	50400
33.69408	52515
33.70222	47514
33.71033	45706
33.71847	45023
33.72658	43328
33.73470	43656
33.74283	43852
33.75095	45178
33.75907	42563
33.76720	40972
33.77532	42099
33.78345	42180
33.79157	51028
33.79968	51104
33.80782	47210
33.81593	51282
33.82407	45004
33.83218	45460
33.84030	48040
33.84843	46716
33.85655	46248
33.86468	47200
33.87280	50064
33.88092	46580
33.88905	44499
33.89717	42383
33.90528	52371
33.91342	48712
33.92153	46862
33.92967	49146
33.93778	44478
33.94590	48105
33.95403	47015
33.96215	46585
33.97028	44787
33.97840	49534
33.98652	47752
33.99465	43932
34.00277	48811
34.01090	47481
34.01902	44030
34.02713	46300
34.03527	43322
34.04338	50324
34.05150	48231
34.05963	45195
34.06775	46951
34.07588	43241
34.08400	44160
34.09212	45689
34.10025	45364
34.10837	42798
34.11650	45826
34.12462	44531
34.13273	44441
34.14087	42383
34.14898	47005
34.15710	47687
34.16523	42718
34.17335	43555
34.18148	41876
34.18960	44571
34.19772	45692
34.20585	44962
34.21397	42009
34.22210	46254
34.23022	48009
34.23833	42143
34.24647	43410
34.25458	43391
34.26272	45222
34.27083	40889
34.27895	46169
34.28708	43082
34.29520	44663
34.30332	45316
34.31145	45916
34.31957	44726
34.32770	47325
34.33582	44002
34.34393	44656
34.35207	44847
34.36018	45534
34.36832	43756
34.37643	44954
34.38455	42573
34.39268	45168
34.40080	49946
34.40893	41608
34.41705	46707
34.42517	42974
34.43330	48426
34.44142	44573
34.44953	42716
34.45767	45214
34.46578	46697
34.47392	44290
34.48203	43319
34.49015	42809
34.49828	48287
34.50640	43306
34.51453	45664
34.52265	48007
34.53077	51229
34.53890	51384
34.54702	49305
34.55513	57417
34.56327	60852
34.57138	61706
34.57952	62182
34.58763	60131
34.59575	61262
34.60388	68540
34.61200	59761
34.62013	59343
34.62825	49143
34.63637	51385
34.64450	54430
34.65262	53293
34.66075	51134
34.66887	52024
34.67698	46856
34.68512	47283
34.69323	47960
34.70135	49997
34.70948	54486
34.71760	46336
34.72573	46488
34.73385	47173
34.74197	42129
34.75010	45269
34.75822	50011
34.76635	49160
34.77447	46962
34.78258	47776
34.79072	45697
34.79883	47210
34.80695	48458
34.81508	50028
34.82320	47231
34.83133	46794
34.83945	48258
34.84757	45804
34.85570	45808
34.86382	47626
34.87195	44869
34.88007	45349
34.88818	42622
34.89632	48444
34.90443	48741
34.91257	45909
34.92068	45033
34.92880	48898
34.93693	52818
34.94505	61849
34.95317	76766
34.96130	131333
34.96942	197089
34.97755	289271
34.98567	375054
34.99378	417403
35.00192	370320
35.01003	262231
35.01817	182152
35.02628	115587
35.03440	88474
35.04253	72953
35.05065	64039
35.05878	63643
35.06690	52236
35.07502	49919
35.08315	57673
35.09127	54153
35.09938	62393
35.10752	58994
35.11563	57192
35.12377	52087
35.13188	51329
35.14000	50734
35.14813	52954
35.15625	54172
35.16438	55004
35.17250	53415
35.18062	60790
35.18875	52018
35.19687	49860
35.20498	50328
35.21312	51038
35.22123	52006
35.22937	51529
35.23748	51594
35.24560	49206
35.25373	53450
35.26185	48565
35.26998	48691
35.27810	52867
35.28622	50856
35.29435	55975
35.30247	52828
35.31060	49045
35.31872	47606
35.32683	49747
35.33497	48809
35.34308	48722
35.35120	47412
35.35933	48951
35.36745	47614
35.37558	48746
35.38370	50561
35.39182	51106
35.39995	48106
35.40807	49805
35.41620	49338
35.42432	55147
35.43243	48189
35.44057	50479
35.44868	52299
35.45682	52065
35.46493	52115
35.47305	53261
35.48118	54475
35.48930	52711
35.49742	53133
35.50555	50479
35.51367	51858
35.52180	52286
35.52992	55407
35.53803	50423
35.54617	50294
35.55428	51770
35.56242	50687
35.57053	52639
35.57865	49644
35.58678	47414
35.59490	49422
35.60302	50180
35.61115	46014
35.61927	49636
35.62740	51268
35.63552	51649
35.64363	52042
35.65177	49501
35.65988	45570
35.66802	48675
35.67613	54627
35.68425	45078
35.69238	51826
35.70050	54119
35.70863	50529
35.71675	49865
35.72487	51544
35.73300	47359
35.74112	56415
35.74923	53544
35.75737	59131
35.76548	55990
35.77362	56681
35.78173	57118
35.78985	56032
35.79798	60230
35.80610	52686
35.81423	54131
35.82235	50446
35.83047	51275
35.83860	45260
35.84672	50221
35.85485	50513
35.86297	50779
35.87108	48129
35.87922	49189
35.88733	51361
35.89545	47588
35.90358	49901
35.91170	49321
35.91983	48375
35.92795	52566
35.93607	49626
35.94420	51625
35.95232	50253
35.96045	51010
35.96857	50317
35.97668	47770
35.98482	49884
35.99293	49478
36.00105	50136
36.00918	53095
36.01730	46413
36.02543	54215
36.03355	59210
36.04167	52526
36.04980	51537
36.05792	55894
36.06605	50727
36.07417	52343
36.08228	50775
36.09042	51256
36.09853	53070
36.10667	50291
36.11478	52310
36.12290	51523
36.13103	53565
36.13915	52376
36.14727	55155
36.15540	51461
36.16352	53394
36.17165	53059
36.17977	49330
36.18788	46925
36.19602	51418
36.20413	48947
36.21227	51152
36.22038	52541
36.22850	48168
36.23663	55575
36.24475	50915
36.25287	50712
36.26100	51270
36.26912	49516
36.27725	48292
36.28537	50155
36.29348	49264
36.30162	51265
36.30973	52364
36.31787	55374
36.32598	58834
36.33410	58702
36.34223	58457
36.35035	58247
36.35848	58322
36.36660	53524
36.37472	52834
36.38285	54185
36.39097	54733
36.39908	62460
36.40722	60313
36.41533	63535
36.42347	62136
36.43158	60430
36.43970	60040
36.44783	59812
36.45595	57088
36.46408	55602
36.47220	56598
36.48032	55464
36.48845	50476
36.49657	53567
36.50470	54004
36.51282	49185
36.52093	55013
36.52907	52925
36.53718	53918
36.54530	52061
36.55343	50775
36.56155	51620
36.56968	51484
36.57780	52502
36.58592	49938
36.59405	50942
36.60217	57632
36.61030	52394
36.61842	49489
36.62653	57932
36.63467	48397
36.64278	49465
36.65090	52907
36.65903	51215
36.66715	58777
36.67528	51727
36.68340	52604
36.69152	54165
36.69965	54675
36.70777	58388
36.71590	53254
36.72402	53051
36.73213	53208
36.74027	52019
36.74838	50660
36.75652	51647
36.76463	56976
36.77275	53705
36.78088	56418
36.78900	52841
36.79712	53142
36.80525	58795
36.81337	57700
36.82150	59155
36.82962	66744
36.83773	61994
36.84587	66595
36.85398	62484
36.86212	65797
36.87023	66588
36.87835	64255
36.88648	69264
36.89460	70486
36.90273	69126
36.91085	68750
36.91897	65432
36.92710	69058
36.93522	69020
36.94333	70303
36.95147	74371
36.95958	79951
36.96772	81206
36.97583	82772
36.98395	83396
36.99208	82018
37.00020	79919
37.00833	80687
37.01645	75448
37.02457	75586
37.03270	70035
37.04082	68657
37.04893	68629
37.05707	74735
37.06518	66366
37.07332	68850
37.08143	77569
37.08955	69631
37.09768	71507
37.10580	72429
37.11393	70437
37.12205	69385
37.13017	70571
37.13830	72111
37.14642	64368
37.15455	69181
37.16267	69502
37.17078	70836
37.17892	69798
37.18703	76312
37.19515	71342
37.20328	62170
37.21140	67777
37.21953	71315
37.22765	70366
37.23577	67889
37.24390	65587
37.25202	67749
37.26015	66742
37.26827	69888
37.27638	64392
37.28452	66310
37.29263	71110
37.30075	64538
37.30888	69737
37.31700	57846
37.32513	64586
37.33325	64335
37.34137	66200
37.34950	70234
37.35762	75569
37.36575	71379
37.37387	69930
37.38198	71095
37.39012	71771
37.39823	71984
37.40637	72235
37.41448	72028
37.42260	70284
37.43073	68790
37.43885	72701
37.44697	70025
37.45510	74043
37.46322	69294
37.47135	65331
37.47947	62946
37.48758	62416
