C:\MassHunter\GCMS\1\data\JTB-E18\JTB-E18-030-05.D Wed Oct 02 10:43:04 2019
Start of data points
2.09535,88329
2.10347,88445
2.11158,85149
2.11972,88903
2.12783,91146
2.13597,92201
2.14408,96056
2.15220,94501
2.16033,90938
2.16845,87190
2.17657,87796
2.18470,91613
2.19282,89639
2.20095,89206
2.20907,88443
2.21718,87564
2.22532,85788
2.23343,85157
2.24157,79232
2.24968,81987
2.25780,86116
2.26593,158968
2.27405,657989
2.28218,1070658
2.29030,808779
2.29842,430605
2.30655,304968
2.31467,266840
2.32278,231908
2.33092,209107
2.33903,195839
2.34717,182221
2.35528,168601
2.36340,164014
2.37153,164430
2.37965,199093
2.38778,252518
2.39590,200353
2.40402,157553
2.41215,147811
2.42027,148960
2.42838,143434
2.43652,143168
2.44463,142918
2.45277,141430
2.46088,135539
2.46900,137443
2.47713,125306
2.48525,122747
2.49338,134701
2.50150,135131
2.50962,126308
2.51775,124910
2.52587,124837
2.53400,119157
2.54212,121732
2.55023,138591
2.55837,158743
2.56648,168225
2.57460,144661
2.58273,130460
2.59085,128989
2.59898,138132
2.60710,261860
2.61522,511934
2.62335,514950
2.63147,331705
2.63960,228167
2.64772,191607
2.65583,171051
2.66397,161503
2.67208,180961
2.68022,220011
2.68833,200518
2.69645,162340
2.70458,143928
2.71270,130534
2.72082,122846
2.72895,122770
2.73707,124466
2.74520,124133
2.75332,120876
2.76143,115115
2.76957,117429
2.77768,134363
2.78582,164212
2.79393,176752
2.80205,171327
2.81018,178513
2.81830,230282
2.82642,493543
2.83455,866139
2.84267,766379
2.85080,432865
2.85892,322202
2.86703,301462
2.87517,251539
2.88328,190768
2.89142,165578
2.89953,150870
2.90765,142766
2.91578,133312
2.92390,126838
2.93203,120838
2.94015,116022
2.94827,120560
2.95640,115858
2.96452,124828
2.97263,120840
2.98077,124900
2.98888,122259
2.99702,133392
3.00513,149641
3.01325,163562
3.02138,262035
3.02950,610272
3.03763,1140500
3.04575,1962565
3.05387,5478313
3.06200,1.074412E+07
3.07012,1.049502E+07
3.07825,6094519
3.08637,3582391
3.09448,3147611
3.10262,3038526
3.11073,3030917
3.11885,2584411
3.12698,1755096
3.13510,1218190
3.14323,948098
3.15135,776540
3.15947,655889
3.16760,598445
3.17572,595346
3.18385,690368
3.19197,1037769
3.20008,1215792
3.20822,984278
3.21633,731684
3.22445,624916
3.23258,559623
3.24070,485556
3.24883,408156
3.25695,374652
3.26507,331200
3.27320,317993
3.28132,409832
3.28945,808854
3.29757,1672977
3.30568,2502519
3.31382,2507011
3.32193,1916915
3.33007,1318716
3.33818,984951
3.34630,799095
3.35443,690916
3.36255,681948
3.37067,838709
3.37880,1152703
3.38692,1214921
3.39505,1111867
3.40317,1615248
3.41128,3296437
3.41942,4493665
3.42753,3629684
3.43567,2109387
3.44378,1258816
3.45190,905071
3.46003,744315
3.46815,651953
3.47627,571790
3.48440,497100
3.49252,439452
3.50065,405358
3.50877,379819
3.51688,355719
3.52502,344273
3.53313,343513
3.54127,328161
3.54938,318059
3.55750,307060
3.56563,364078
3.57375,484868
3.58188,517748
3.59000,439375
3.59812,361190
3.60625,348046
3.61437,511449
3.62248,1169965
3.63062,2376891
3.63873,3022190
3.64687,2424689
3.65498,1498891
3.66310,1416966
3.67123,2742870
3.67935,4469566
3.68748,4222521
3.69560,2685649
3.70372,1635506
3.71185,1176595
3.71997,993525
3.72810,846391
3.73622,759230
3.74433,690748
3.75247,631442
3.76058,608800
3.76870,582923
3.77683,545171
3.78495,508339
3.79308,502247
3.80120,569373
3.80932,830602
3.81745,1073787
3.82557,975343
3.83370,729763
3.84182,581020
3.84993,490998
3.85807,456559
3.86618,414241
3.87430,383067
3.88243,376994
3.89055,363308
3.89868,358484
3.90680,348265
3.91492,389862
3.92305,491685
3.93117,551297
3.93930,574332
3.94742,801142
3.95553,1752939
3.96367,2931130
3.97178,2990261
3.97992,2075248
3.98803,1494402
3.99615,2767863
4.00428,7043672
4.01240,1.162693E+07
4.02052,1.164445E+07
4.02865,7562746
4.03677,3783674
4.04490,2022805
4.05302,1321498
4.06113,1006999
4.06927,817995
4.07738,681669
4.08552,588928
4.09363,516790
4.10175,471027
4.10988,436660
4.11800,406274
4.12613,389133
4.13425,400984
4.14237,446552
4.15050,475949
4.15862,462081
4.16673,413891
4.17487,369807
4.18298,339302
4.19112,314654
4.19923,317511
4.20735,621833
4.21548,2155223
4.22360,5843469
4.23173,1.023451E+07
4.23985,1.224536E+07
4.24797,1.047905E+07
4.25610,6808148
4.26422,4220774
4.27233,2821366
4.28047,2053372
4.28858,1595995
4.29672,1271036
4.30483,1059124
4.31295,915625
4.32108,800419
4.32920,725319
4.33733,675648
4.34545,639723
4.35357,623417
4.36170,593404
4.36982,563652
4.37795,500736
4.38607,466789
4.39418,430423
4.40232,412976
4.41043,380240
4.41855,379727
4.42668,368698
4.43480,355461
4.44293,357927
4.45105,361129
4.45917,360075
4.46730,350527
4.47542,335229
4.48355,314514
4.49167,299910
4.49978,294912
4.50792,284782
4.51603,270513
4.52415,272048
4.53228,266913
4.54040,259320
4.54853,265097
4.55665,254242
4.56477,252563
4.57290,241953
4.58102,245611
4.58915,236256
4.59727,238238
4.60538,237114
4.61352,245653
4.62163,294216
4.62977,407674
4.63788,542926
4.64600,557124
4.65413,459306
4.66225,351114
4.67037,299653
4.67850,275314
4.68662,263142
4.69475,244419
4.70287,234112
4.71098,224586
4.71912,212079
4.72723,215107
4.73537,209351
4.74348,203601
4.75160,201056
4.75973,196965
4.76785,201869
4.77598,200448
4.78410,205458
4.79222,236270
4.80035,288915
4.80847,320652
4.81658,295668
4.82472,263883
4.83283,246181
4.84097,244436
4.84908,243421
4.85720,248993
4.86533,253496
4.87345,238904
4.88158,219917
4.88970,206606
4.89782,211195
4.90595,205272
4.91407,221973
4.92220,288806
4.93032,435090
4.93843,650318
4.94657,767547
4.95468,781931
4.96280,684874
4.97093,573807
4.97905,477908
4.98718,431753
4.99530,374788
5.00342,347844
5.01155,351514
5.01967,406735
5.02780,590716
5.03592,817320
5.04403,903492
5.05217,800358
5.06028,625436
5.06840,516909
5.07653,459185
5.08465,420679
5.09278,419214
5.10090,439790
5.10902,491143
5.11715,507756
5.12527,479180
5.13340,434839
5.14152,386544
5.14963,379666
5.15777,391630
5.16588,438208
5.17402,483428
5.18213,508493
5.19025,519087
5.19838,502851
5.20650,445092
5.21462,392766
5.22275,351367
5.23087,332443
5.23900,306305
5.24712,292022
5.25523,279483
5.26337,265380
5.27148,263795
5.27962,250758
5.28773,249864
5.29585,248705
5.30398,249925
5.31210,233441
5.32022,228140
5.32835,234492
5.33647,242311
5.34460,236884
5.35272,222737
5.36083,219231
5.36897,216575
5.37708,206111
5.38522,210647
5.39333,205689
5.40145,212198
5.40958,204255
5.41770,199667
5.42583,190862
5.43395,186913
5.44207,198945
5.45020,192740
5.45832,192405
5.46643,186029
5.47457,185990
5.48268,174464
5.49082,187272
5.49893,180824
5.50705,179842
5.51518,176292
5.52330,176800
5.53143,178734
5.53955,181845
5.54767,182059
5.55580,192042
5.56392,220257
5.57205,224173
5.58017,216379
5.58828,213517
5.59642,198425
5.60453,181790
5.61265,179527
5.62078,192852
5.62890,189185
5.63703,194885
5.64515,195897
5.65327,200206
5.66140,186311
5.66952,185572
5.67765,192764
5.68577,195606
5.69388,212298
5.70202,217059
5.71013,229010
5.71825,242951
5.72638,260763
5.73450,257229
5.74263,243902
5.75075,234212
5.75887,249305
5.76700,260984
5.77512,260391
5.78325,248598
5.79137,249396
5.79948,292754
5.80762,471707
5.81573,820280
5.82387,1246171
5.83198,1460873
5.84010,1368625
5.84823,1026255
5.85635,703588
5.86447,482582
5.87260,370279
5.88072,292886
5.88885,249435
5.89697,251611
5.90508,299236
5.91322,414829
5.92133,546301
5.92947,665113
5.93758,655377
5.94570,536582
5.95383,420080
5.96195,341519
5.97008,311139
5.97820,310494
5.98632,309874
5.99445,289139
6.00257,249446
6.01068,205106
6.01882,180147
6.02693,162003
6.03507,154343
6.04318,145722
6.05130,138370
6.05943,143934
6.06755,130831
6.07568,130256
6.08380,124980
6.09192,129211
6.10005,121154
6.10817,126059
6.11628,141391
6.12442,187061
6.13253,272848
6.14067,358440
6.14878,378686
6.15690,319753
6.16503,246554
6.17315,206806
6.18128,194098
6.18940,208797
6.19752,223307
6.20565,218864
6.21377,202204
6.22190,184310
6.23002,168511
6.23813,161360
6.24627,163974
6.25438,167458
6.26250,168072
6.27063,169294
6.27875,164404
6.28688,159698
6.29500,163402
6.30312,165948
6.31125,168924
6.31937,176256
6.32750,194001
6.33562,209812
6.34373,212547
6.35187,211542
6.35998,202010
6.36810,197750
6.37623,190328
6.38435,190528
6.39248,196640
6.40060,194544
6.40872,191437
6.41685,193060
6.42497,192085
6.43310,196312
6.44122,195235
6.44933,203062
6.45747,206716
6.46558,214777
6.47372,204130
6.48183,206562
6.48995,207090
6.49808,212698
6.50620,213255
6.51432,209056
6.52245,209205
6.53057,215119
6.53870,231467
6.54682,227716
6.55493,223670
6.56307,225160
6.57118,243074
6.57932,254146
6.58743,256401
6.59555,237051
6.60368,234873
6.61180,225730
6.61993,227653
6.62805,226892
6.63617,229318
6.64430,240126
6.65242,297709
6.66053,366811
6.66867,380720
6.67678,376884
6.68492,335523
6.69303,328537
6.70115,315112
6.70928,281741
6.71740,231727
6.72553,188063
6.73365,153835
6.74177,139181
6.74990,128770
6.75802,119236
6.76613,119873
6.77427,108493
6.78238,119289
6.79052,137246
6.79863,201824
6.80675,339899
6.81488,564942
6.82300,811463
6.83113,939284
6.83925,890614
6.84737,728181
6.85550,525921
6.86362,401622
6.87175,311971
6.87987,237413
6.88798,175124
6.89612,132584
6.90423,113724
6.91235,97916
6.92048,90382
6.92860,92387
6.93673,90952
6.94485,109727
6.95297,145343
6.96110,201875
6.96922,308457
6.97735,370367
6.98547,386393
6.99358,360900
7.00172,276818
7.00983,206646
7.01797,158620
7.02608,125203
7.03420,104917
7.04233,92862
7.05045,88425
7.05857,90737
7.06670,90985
7.07482,87841
7.08295,84922
7.09107,81471
7.09918,83583
7.10732,74525
7.11543,74236
7.12357,81323
7.13168,81486
7.13980,91835
7.14793,111490
7.15605,122186
7.16417,131104
7.17230,128117
7.18042,177318
7.18855,342792
7.19667,676346
7.20478,1009041
7.21292,1177214
7.22103,929956
7.22917,638792
7.23728,390158
7.24540,241843
7.25353,163726
7.26165,147133
7.26978,138458
7.27790,133938
7.28602,130049
7.29415,125454
7.30227,113986
7.31038,112745
7.31852,116848
7.32663,148022
7.33477,194215
7.34288,251543
7.35100,295632
7.35913,288894
7.36725,252331
7.37538,200111
7.38350,151407
7.39162,117884
7.39975,102640
7.40787,92973
7.41598,97135
7.42412,101165
7.43223,113684
7.44037,140438
7.44848,166462
7.45660,192624
7.46473,195684
7.47285,179288
7.48098,151811
7.48910,118017
7.49722,98042
7.50535,89894
7.51347,82760
7.52160,86264
7.52972,97707
7.53783,112064
7.54597,152057
7.55408,186567
7.56220,224171
7.57033,227604
7.57845,207678
7.58658,176346
7.59470,137789
7.60282,111692
7.61095,95540
7.61907,83895
7.62720,75614
7.63532,76565
7.64343,69701
7.65157,69746
7.65968,68051
7.66782,69652
7.67593,71010
7.68405,70592
7.69218,63065
7.70030,68939
7.70842,69646
7.71655,72785
7.72467,66166
7.73280,68035
7.74092,63307
7.74903,62448
7.75717,67880
7.76528,65128
7.77342,65384
7.78153,61042
7.78965,63955
7.79778,70818
7.80590,72487
7.81402,69272
7.82215,67309
7.83027,65984
7.83840,64874
7.84652,63967
7.85463,62241
7.86277,60895
7.87088,64695
7.87902,66214
7.88713,67532
7.89525,68651
7.90338,66372
7.91150,63820
7.91963,68261
7.92775,77850
7.93587,87565
7.94400,91432
7.95212,89661
7.96023,83377
7.96837,75008
7.97648,68036
7.98462,62716
7.99273,65304
8.00085,54612
8.00898,57767
8.01710,57218
8.02523,54383
8.03335,57814
8.04147,59690
8.04960,56037
8.05772,57398
8.06585,54683
8.07397,49736
8.08208,49511
8.09022,55514
8.09833,52564
8.10645,52853
8.11458,54116
8.12270,56229
8.13083,64694
8.13895,72592
8.14707,73439
8.15520,74977
8.16332,67536
8.17145,62293
8.17957,60020
8.18768,58884
8.19582,53388
8.20393,53261
8.21205,55850
8.22018,53908
8.22830,54772
8.23643,57147
8.24455,51376
8.25267,53448
8.26080,54530
8.26892,50462
8.27705,51820
8.28517,51947
8.29328,51476
8.30142,56553
8.30953,56909
8.31767,59879
8.32578,64162
8.33390,62024
8.34203,61079
8.35015,56974
8.35827,50791
8.36640,53353
8.37452,51686
8.38265,47699
8.39077,47937
8.39888,48375
8.40702,50229
8.41513,50694
8.42327,47886
8.43138,48044
8.43950,49454
8.44763,50878
8.45575,49697
8.46388,52666
8.47200,48494
8.48012,45713
8.48825,50299
8.49637,54449
8.50448,58564
8.51262,78737
8.52073,110440
8.52887,146565
8.53698,149831
8.54510,127277
8.55323,106613
8.56135,76820
8.56948,65044
8.57760,56062
8.58572,57452
8.59385,57726
8.60197,57664
8.61008,58396
8.61822,56927
8.62633,53945
8.63447,58191
8.64258,56021
8.65070,50641
8.65883,55462
8.66695,56718
8.67508,51438
8.68320,54300
8.69132,53958
8.69945,59979
8.70757,60146
8.71570,65066
8.72382,82315
8.73193,129514
8.74007,188326
8.74818,255484
8.75630,270797
8.76443,248511
8.77255,195742
8.78068,143579
8.78880,123300
8.79692,107115
8.80505,108627
8.81317,106906
8.82130,103376
8.82942,97911
8.83753,97346
8.84567,95621
8.85378,94582
8.86190,88202
8.87003,93753
8.87815,86933
8.88628,83630
8.89440,84428
8.90252,84136
8.91065,85744
8.91877,84419
8.92690,90301
8.93502,93000
8.94313,95501
8.95127,86555
8.95938,79978
8.96752,81870
8.97563,77552
8.98375,80608
8.99188,74969
9.00000,79115
9.00812,76120
9.01625,70673
9.02437,69687
9.03250,71063
9.04062,67071
9.04873,71046
9.05687,69617
9.06498,64275
9.07312,66332
9.08123,66154
9.08935,69825
9.09748,75659
9.10560,78488
9.11373,86249
9.12185,83582
9.12997,81959
9.13810,74883
9.14622,66817
9.15433,66416
9.16247,64354
9.17058,66109
9.17872,61179
9.18683,59814
9.19495,63313
9.20308,62093
9.21120,59485
9.21933,54216
9.22745,61750
9.23557,63930
9.24370,61701
9.25182,60482
9.25993,60089
9.26807,61424
9.27618,62890
9.28432,64189
9.29243,65023
9.30055,64983
9.30868,62017
9.31680,63411
9.32493,63053
9.33305,67279
9.34117,67748
9.34930,64655
9.35742,67768
9.36555,61402
9.37367,57388
9.38178,55104
9.38992,56804
9.39803,58340
9.40615,67865
9.41428,74317
9.42240,76652
9.43053,79577
9.43865,83519
9.44677,75982
9.45490,68841
9.46302,64414
9.47115,59147
9.47927,58356
9.48738,55364
9.49552,60302
9.50363,57125
9.51177,60890
9.51988,62951
9.52800,60387
9.53613,54446
9.54425,49436
9.55237,47246
9.56050,47577
9.56862,43495
9.57675,49239
9.58487,50585
9.59298,50663
9.60112,49371
9.60923,47716
9.61737,43845
9.62548,45169
9.63360,44062
9.64173,45702
9.64985,43624
9.65797,39500
9.66610,38072
9.67422,34967
9.68235,36443
9.69047,37021
9.69858,39123
9.70672,34865
9.71483,35532
9.72297,37215
9.73108,36495
9.73920,33627
9.74733,32749
9.75545,34762
9.76358,33430
9.77170,34618
9.77982,31837
9.78795,34444
9.79607,31138
9.80418,34650
9.81232,34206
9.82043,34903
9.82857,32654
9.83668,33199
9.84480,32417
9.85293,43136
9.86105,36600
9.86918,36595
9.87730,33908
9.88542,32211
9.89355,30032
9.90167,31712
9.90978,36220
9.91792,39910
9.92603,49840
9.93417,65584
9.94228,86320
9.95040,93613
9.95853,93982
9.96665,82271
9.97478,72997
9.98290,58307
9.99102,50095
9.99915,41550
10.00727,40088
10.01540,38567
10.02352,33823
10.03163,36828
10.03977,36480
10.04788,37999
10.05600,38947
10.06413,35783
10.07225,38607
10.08038,33225
10.08850,36067
10.09662,35548
10.10475,36535
10.11287,35397
10.12100,36367
10.12912,34259
10.13723,36771
10.14537,36175
10.15348,36601
10.16162,34323
10.16973,34046
10.17785,31378
10.18598,32634
10.19410,31926
10.20222,30097
10.21035,32855
10.21847,32161
10.22660,37337
10.23472,41227
10.24283,48623
10.25097,80902
10.25908,179841
10.26722,358321
10.27533,630467
10.28345,987797
10.29158,1421883
10.29970,2086283
10.30783,3032791
10.31595,3949780
10.32407,4247866
10.33220,3503757
10.34032,2318960
10.34843,1382963
10.35657,850797
10.36468,618055
10.37282,482931
10.38093,391080
10.38905,305522
10.39718,218232
10.40530,173285
10.41343,141412
10.42155,129806
10.42967,115346
10.43780,109795
10.44592,93624
10.45403,95182
10.46217,88185
10.47028,83899
10.47842,79089
10.48653,74155
10.49465,72974
10.50278,76154
10.51090,75520
10.51903,71967
10.52715,71809
10.53527,67616
10.54340,66925
10.55152,63977
10.55965,63937
10.56777,66591
10.57588,61083
10.58402,63235
10.59213,57965
10.60025,58959
10.60838,50407
10.61650,56071
10.62463,52259
10.63275,50241
10.64087,48179
10.64900,54917
10.65712,46672
10.66525,53135
10.67337,47775
10.68148,47976
10.68962,54194
10.69773,54521
10.70585,53170
10.71398,56129
10.72210,51051
10.73023,46572
10.73835,51762
10.74647,46623
10.75460,46675
10.76272,46011
10.77085,45217
10.77897,44539
10.78708,46053
10.79522,43313
10.80333,40656
10.81147,43960
10.81958,43244
10.82770,43540
10.83583,40571
10.84395,37772
10.85207,37114
10.86020,35996
10.86832,37909
10.87645,39385
10.88457,34652
10.89268,35451
10.90082,35270
10.90893,35771
10.91707,37886
10.92518,35128
10.93330,35892
10.94143,36183
10.94955,40195
10.95768,38478
10.96580,42021
10.97392,40948
10.98205,38612
10.99017,38711
10.99828,36417
11.00642,35891
11.01453,38800
11.02267,35092
11.03078,35427
11.03890,33064
11.04703,32219
11.05515,35446
11.06328,35375
11.07140,35310
11.07952,39629
11.08765,39881
11.09577,39681
11.10388,39173
11.11202,37878
11.12013,39225
11.12827,39365
11.13638,36954
11.14450,36395
11.15263,31819
11.16075,37964
11.16888,36395
11.17700,37658
11.18512,39754
11.19325,36985
11.20137,38661
11.20950,39786
11.21762,38906
11.22573,36340
11.23387,33308
11.24198,34678
11.25010,41758
11.25823,44771
11.26635,56018
11.27448,78026
11.28260,98454
11.29072,114898
11.29885,131563
11.30697,142786
11.31510,174022
11.32322,222713
11.33133,264717
11.33947,308630
11.34758,298258
11.35572,246423
11.36383,197146
11.37195,154222
11.38008,127075
11.38820,99183
11.39632,91219
11.40445,76571
11.41257,68381
11.42070,58786
11.42882,58094
11.43693,50419
11.44507,46107
11.45318,51436
11.46132,49160
11.46943,52442
11.47755,59147
11.48568,72903
11.49380,69701
11.50192,70809
11.51005,65832
11.51817,67279
11.52630,66706
11.53442,68637
11.54253,62758
11.55067,60125
11.55878,57085
11.56692,53999
11.57503,55393
11.58315,54998
11.59128,65075
11.59940,71184
11.60753,79464
11.61565,79504
11.62377,67569
11.63190,56834
11.64002,52157
11.64813,47222
11.65627,43228
11.66438,43400
11.67252,45504
11.68063,48806
11.68875,52392
11.69688,61653
11.70500,63501
11.71313,66214
11.72125,67950
11.72937,61574
11.73750,60146
11.74562,55179
11.75373,54473
11.76187,48767
11.76998,49259
11.77812,48731
11.78623,45977
11.79435,50329
11.80248,46707
11.81060,40195
11.81873,38708
11.82685,36591
11.83497,38943
11.84310,35441
11.85122,39496
11.85935,35870
11.86747,35185
11.87558,35085
11.88372,34504
11.89183,33180
11.89995,35723
11.90808,43274
11.91620,46520
11.92433,50031
11.93245,54123
11.94057,55116
11.94870,55399
11.95682,50696
11.96495,41180
11.97307,40073
11.98118,44346
11.98932,46498
11.99743,50261
12.00557,52615
12.01368,52115
12.02180,50685
12.02993,42378
12.03805,39726
12.04617,39383
12.05430,36972
12.06242,34929
12.07055,36175
12.07867,37166
12.08678,34909
12.09492,36267
12.10303,31586
12.11117,33594
12.11928,35033
12.12740,37162
12.13553,35923
12.14365,36156
12.15177,33751
12.15990,30615
12.16802,31232
12.17615,30207
12.18427,28933
12.19238,27470
12.20052,31983
12.20863,30881
12.21677,30496
12.22488,32101
12.23300,30176
12.24113,32846
12.24925,29206
12.25738,29999
12.26550,27263
12.27362,29081
12.28175,27395
12.28987,31037
12.29798,28736
12.30612,26513
12.31423,27822
12.32237,28054
12.33048,27972
12.33860,26848
12.34673,28389
12.35485,30419
12.36298,29724
12.37110,28610
12.37922,33282
12.38735,35359
12.39547,41280
12.40360,52809
12.41172,57613
12.41983,55851
12.42797,52659
12.43608,42289
12.44420,40564
12.45233,39639
12.46045,33079
12.46858,30347
12.47670,32280
12.48482,30567
12.49295,29184
12.50107,30629
12.50920,27622
12.51732,29127
12.52543,39879
12.53357,47650
12.54168,53086
12.54980,66713
12.55793,74143
12.56605,67079
12.57418,55100
12.58230,47898
12.59042,44350
12.59855,36390
12.60667,30963
12.61480,34699
12.62292,33537
12.63103,32151
12.63917,32354
12.64728,31382
12.65542,32752
12.66353,27808
12.67165,31277
12.67978,35267
12.68790,28572
12.69602,30814
12.70415,31443
12.71227,34155
12.72040,33598
12.72852,36554
12.73663,35006
12.74477,34879
12.75288,34150
12.76102,29134
12.76913,32764
12.77725,34649
12.78538,35271
12.79350,35810
12.80162,36254
12.80975,33832
12.81787,33189
12.82600,31158
12.83412,30702
12.84223,30481
12.85037,32728
12.85848,30586
12.86662,30559
12.87473,29719
12.88285,32838
12.89098,30403
12.89910,27186
12.90723,26563
12.91535,29562
12.92347,33346
12.93160,41057
12.93972,51524
12.94783,64570
12.95597,84357
12.96408,101376
12.97222,105217
12.98033,97326
12.98845,91412
12.99658,77392
13.00470,74907
13.01283,73747
13.02095,64488
13.02907,64244
13.03720,63961
13.04532,52648
13.05345,52102
13.06157,44829
13.06968,42703
13.07782,42190
13.08593,36909
13.09405,33056
13.10218,32286
13.11030,32741
13.11843,35722
13.12655,32573
13.13467,33948
13.14280,32812
13.15092,34346
13.15905,36963
13.16717,36743
13.17528,34728
13.18342,32862
13.19153,33698
13.19965,39650
13.20778,34898
13.21590,36229
13.22403,37693
13.23215,41099
13.24027,40798
13.24840,45780
13.25652,44865
13.26465,48974
13.27277,46286
13.28088,50877
13.28902,50025
13.29713,49412
13.30527,49784
13.31338,57023
13.32150,55849
13.32963,52270
13.33775,50671
13.34587,46316
13.35400,43792
13.36212,43471
13.37025,45448
13.37837,43276
13.38648,46456
13.39462,35532
13.40273,39422
13.41087,38834
13.41898,39099
13.42710,35059
13.43523,37822
13.44335,34466
13.45148,35389
13.45960,39098
13.46772,33412
13.47585,33744
13.48397,35810
13.49208,35025
13.50022,35739
13.50833,36136
13.51647,36109
13.52458,37213
13.53270,38660
13.54083,46302
13.54895,44246
13.55708,44414
13.56520,45439
13.57332,49063
13.58145,53851
13.58957,67477
13.59768,75397
13.60582,93196
13.61393,107947
13.62207,108399
13.63018,97357
13.63830,86903
13.64643,77406
13.65455,67136
13.66268,61526
13.67080,59161
13.67892,55311
13.68705,52625
13.69517,50595
13.70330,48058
13.71142,46902
13.71953,49206
13.72767,44888
13.73578,47685
13.74390,53172
13.75203,61768
13.76015,77545
13.76828,86289
13.77640,96059
13.78452,102031
13.79265,103250
13.80077,110914
13.80890,117920
13.81702,127121
13.82513,138518
13.83327,140892
13.84138,123012
13.84952,101670
13.85763,80859
13.86575,68267
13.87388,61236
13.88200,57221
13.89012,52435
13.89825,53608
13.90637,52369
13.91450,54319
13.92262,49976
13.93073,48211
13.93887,47671
13.94698,45841
13.95512,50462
13.96323,47785
13.97135,46698
13.97948,51722
13.98760,49109
13.99572,48712
14.00385,45446
14.01197,48122
14.02010,44743
14.02822,45579
14.03633,44047
14.04447,44711
14.05258,43066
14.06072,41124
14.06883,40937
14.07695,39486
14.08508,39165
14.09320,39056
14.10133,37034
14.10945,37045
14.11757,39801
14.12570,51501
14.13382,63845
14.14193,94235
14.15007,123270
14.15818,140727
14.16632,146145
14.17443,129334
14.18255,119031
14.19068,98697
14.19880,89696
14.20693,81950
14.21505,74540
14.22317,70219
14.23130,65630
14.23942,65457
14.24753,62820
14.25567,61114
14.26378,58590
14.27192,53080
14.28003,52167
14.28815,48956
14.29628,46157
14.30440,42175
14.31253,39245
14.32065,33998
14.32877,31673
14.33690,31896
14.34502,31007
14.35315,28080
14.36127,28772
14.36938,31566
14.37752,36649
14.38563,44707
14.39375,65622
14.40188,91943
14.41000,116195
14.41813,127786
14.42625,116529
14.43437,96115
14.44250,72642
14.45062,59573
14.45875,51010
14.46687,47963
14.47498,43575
14.48312,38257
14.49123,40963
14.49937,37902
14.50748,38416
14.51560,37981
14.52373,37991
14.53185,35119
14.53997,37367
14.54810,34374
14.55622,34194
14.56435,32699
14.57247,33810
14.58058,31514
14.58872,32407
14.59683,31579
14.60497,30044
14.61308,29269
14.62120,28379
14.62933,26487
14.63745,27839
14.64557,30610
14.65370,28646
14.66182,29821
14.66995,29792
14.67807,29277
14.68618,26894
14.69432,24947
14.70243,26785
14.71057,27182
14.71868,28882
14.72680,29410
14.73493,29619
14.74305,30011
14.75118,29159
14.75930,29774
14.76742,29668
14.77555,38989
14.78367,65739
14.79178,134015
14.79992,272932
14.80803,506562
14.81617,773827
14.82428,900691
14.83240,814684
14.84053,631813
14.84865,423808
14.85678,266897
14.86490,177724
14.87302,132518
14.88115,109445
14.88927,90195
14.89740,80538
14.90552,76154
14.91363,68731
14.92177,65794
14.92988,59646
14.93800,57291
14.94613,54160
14.95425,56793
14.96238,51097
14.97050,52295
14.97862,45388
14.98675,46754
14.99487,46576
15.00300,43163
15.01112,42481
15.01923,40164
15.02737,41505
15.03548,38922
15.04360,44529
15.05173,39747
15.05985,35577
15.06798,35764
15.07610,33496
15.08422,35216
15.09235,33971
15.10047,35805
15.10860,34146
15.11672,39283
15.12483,42876
15.13297,41276
15.14108,38780
15.14922,38113
15.15733,37331
15.16545,32472
15.17358,37079
15.18170,31478
15.18982,33250
15.19795,29703
15.20607,31347
15.21420,28532
15.22232,29606
15.23043,28661
15.23857,28577
15.24668,26772
15.25482,29484
15.26293,25401
15.27105,28774
15.27918,25401
15.28730,28459
15.29542,28330
15.30355,25924
15.31167,25806
15.31980,24865
15.32792,26086
15.33603,26492
15.34417,23730
15.35228,23765
15.36042,26121
15.36853,23643
15.37665,26571
15.38478,25071
15.39290,26174
15.40103,26089
15.40915,24665
15.41727,26266
15.42540,26618
15.43352,23964
15.44163,26231
15.44977,25017
15.45788,29076
15.46602,35973
15.47413,42089
15.48225,53637
15.49038,58733
15.49850,61787
15.50663,69121
15.51475,59996
15.52287,55273
15.53100,54363
15.53912,45039
15.54725,39766
15.55537,35542
15.56348,35212
15.57162,30246
15.57973,32543
15.58785,24817
15.59598,27120
15.60410,28425
15.61223,27170
15.62035,25869
15.62847,26337
15.63660,23297
15.64472,24308
15.65285,26979
15.66097,30002
15.66908,23780
15.67722,25509
15.68533,24162
15.69345,24220
15.70158,24282
15.70970,26433
15.71783,24340
15.72595,24281
15.73407,28517
15.74220,31127
15.75032,40349
15.75845,55209
15.76657,70790
15.77468,85907
15.78282,85227
15.79093,82501
15.79907,65578
15.80718,51453
15.81530,45400
15.82343,39503
15.83155,38293
15.83967,32071
15.84780,31071
15.85592,31080
15.86405,28165
15.87217,31647
15.88028,30975
15.88842,29245
15.89653,28770
15.90467,30412
15.91278,26324
15.92090,27059
15.92903,28541
15.93715,29087
15.94528,28308
15.95340,26370
15.96152,29207
15.96965,27427
15.97777,28670
15.98588,31617
15.99402,40732
16.00213,34629
16.01027,39131
16.01838,37528
16.02650,40498
16.03463,38546
16.04275,34726
16.05088,31171
16.05900,29273
16.06712,31398
16.07525,26834
16.08337,26050
16.09148,25466
16.09962,27872
16.10773,26010
16.11587,29596
16.12398,28452
16.13210,34516
16.14023,27855
16.14835,27837
16.15648,30020
16.16460,27794
16.17272,27792
16.18085,26476
16.18897,23717
16.19710,25590
16.20522,26857
16.21333,27241
16.22147,27116
16.22958,26433
16.23770,22792
16.24583,25338
16.25395,25977
16.26208,27108
16.27020,26050
16.27832,33110
16.28645,27814
16.29457,29404
16.30270,29248
16.31082,28933
16.31893,31253
16.32707,29668
16.33518,32618
16.34332,28479
16.35143,28228
16.35955,29660
16.36768,31179
16.37580,28173
16.38392,31065
16.39205,29945
16.40017,27996
16.40830,27497
16.41642,27845
16.42453,28289
16.43267,31899
16.44078,37923
16.44892,61270
16.45703,76676
16.46515,97499
16.47328,117080
16.48140,115803
16.48952,102984
16.49765,77235
16.50577,59778
16.51390,48016
16.52202,38183
16.53013,40872
16.53827,34976
16.54638,36719
16.55452,33417
16.56263,32522
16.57075,34952
16.57888,32247
16.58700,32481
16.59513,32350
16.60325,33783
16.61137,28085
16.61950,28652
16.62762,28574
16.63573,28360
16.64387,25499
16.65198,27835
16.66012,26444
16.66823,26453
16.67635,25782
16.68448,26218
16.69260,24150
16.70073,26513
16.70885,24699
16.71697,26283
16.72510,27331
16.73322,25965
16.74135,28592
16.74947,28183
16.75758,26977
16.76572,27673
16.77383,26898
16.78195,28537
16.79008,24069
16.79820,22806
16.80633,23902
16.81445,25523
16.82257,25372
16.83070,23051
16.83882,22466
16.84695,21215
16.85507,23817
16.86318,23004
16.87132,25218
16.87943,23504
16.88755,21057
16.89568,26317
16.90380,23240
16.91193,21951
16.92005,24135
16.92817,24712
16.93630,24036
16.94442,23442
16.95255,26759
16.96067,27092
16.96878,24198
16.97692,26825
16.98503,23980
16.99317,23699
17.00128,23935
17.00940,22955
17.01753,24638
17.02565,25441
17.03377,27141
17.04190,31879
17.05002,26495
17.05815,27602
17.06627,27919
17.07438,24275
17.08252,23974
17.09063,26581
17.09877,24560
17.10688,24386
17.11500,24505
17.12313,21054
17.13125,25051
17.13937,25443
17.14750,25096
17.15562,29394
17.16375,26007
17.17187,24209
17.17998,26243
17.18812,23829
17.19623,23475
17.20437,24052
17.21248,22608
17.22060,22042
17.22873,25028
17.23685,25077
17.24498,25326
17.25310,23028
17.26122,22368
17.26935,20079
17.27747,21844
17.28558,23396
17.29372,24438
17.30183,24861
17.30997,28915
17.31808,27735
17.32620,26178
17.33433,26005
17.34245,27551
17.35058,28518
17.35870,29901
17.36682,33434
17.37495,31597
17.38307,29477
17.39120,29759
17.39932,30656
17.40743,35217
17.41557,33168
17.42368,33556
17.43180,30955
17.43993,29870
17.44805,30045
17.45618,28334
17.46430,26819
17.47242,26530
17.48055,25605
17.48867,28119
17.49680,25345
17.50492,30698
17.51303,30918
17.52117,38945
17.52928,45713
17.53740,44802
17.54553,51823
17.55365,59566
17.56178,69171
17.56990,84282
17.57802,99904
17.58615,117810
17.59427,128991
17.60240,126852
17.61052,111327
17.61863,90144
17.62677,72790
17.63488,61568
17.64302,56391
17.65113,44721
17.65925,44584
17.66738,42381
17.67550,40546
17.68362,41785
17.69175,39087
17.69987,33843
17.70800,37177
17.71612,36173
17.72423,36230
17.73237,32907
17.74048,35352
17.74862,37912
17.75673,32059
17.76485,31055
17.77298,32412
17.78110,35383
17.78923,38284
17.79735,46466
17.80547,56213
17.81360,67829
17.82172,77074
17.82983,78209
17.83797,68384
17.84608,63904
17.85422,58594
17.86233,55997
17.87045,48859
17.87858,45304
17.88670,42944
17.89483,37082
17.90295,33364
17.91107,33542
17.91920,33952
17.92732,31656
17.93543,32631
17.94357,29960
17.95168,29873
17.95982,28607
17.96793,27042
17.97605,28976
17.98418,24833
17.99230,26450
18.00043,32666
18.00855,35370
18.01667,37852
18.02480,42261
18.03292,46478
18.04105,53444
18.04917,74760
18.05728,129722
18.06542,250141
18.07353,439822
18.08165,666299
18.08978,838120
18.09790,826425
18.10603,698586
18.11415,560816
18.12227,454782
18.13040,389693
18.13852,362884
18.14665,335676
18.15477,322418
18.16288,303814
18.17102,305304
18.17913,298771
18.18727,278313
18.19538,268930
18.20350,262405
18.21163,252087
18.21975,247424
18.22787,237671
18.23600,226014
18.24412,230305
18.25225,225309
18.26037,213008
18.26848,206515
18.27662,195308
18.28473,186488
18.29287,189943
18.30098,171947
18.30910,168589
18.31723,167437
18.32535,167458
18.33347,158850
18.34160,154457
18.34972,149394
18.35785,145348
18.36597,144657
18.37408,150457
18.38222,139615
18.39033,135038
18.39847,138894
18.40658,135728
18.41470,136246
18.42283,132959
18.43095,137716
18.43908,138337
18.44720,136265
18.45532,157734
18.46345,148682
18.47157,155217
18.47968,157721
18.48782,142598
18.49593,131206
18.50407,117352
18.51218,115991
18.52030,101080
18.52843,108735
18.53655,101475
18.54468,96359
18.55280,98827
18.56092,92551
18.56905,96814
18.57717,94162
18.58528,90438
18.59342,89296
18.60153,92856
18.60967,90711
18.61778,95916
18.62590,90310
18.63403,86511
18.64215,82421
18.65028,84869
18.65840,81015
18.66652,72989
18.67465,72272
18.68277,72566
18.69090,68152
18.69902,68088
18.70713,61272
18.71527,65250
18.72338,63523
18.73150,57954
18.73963,63521
18.74775,63066
18.75588,59039
18.76400,60026
18.77212,60703
18.78025,59712
18.78837,62211
18.79650,56771
18.80462,54101
18.81273,54218
18.82087,51482
18.82898,52655
18.83712,50881
18.84523,52205
18.85335,51844
18.86148,48676
18.86960,53332
18.87772,51167
18.88585,51220
18.89397,52422
18.90210,47129
18.91022,49427
18.91833,49222
18.92647,51471
18.93458,47447
18.94272,52358
18.95083,50128
18.95895,46005
18.96708,47629
18.97520,45835
18.98332,43838
18.99145,45976
18.99957,46018
19.00770,44837
19.01582,44061
19.02393,44857
19.03207,44806
19.04018,45397
19.04832,39089
19.05643,41953
19.06455,42291
19.07268,49559
19.08080,53017
19.08893,56994
19.09705,53080
19.10517,56198
19.11330,55647
19.12142,57133
19.12953,58286
19.13767,55564
19.14578,63867
19.15392,57417
19.16203,61171
19.17015,58385
19.17828,54919
19.18640,51822
19.19453,47498
19.20265,45666
19.21077,42146
19.21890,41316
19.22702,41142
19.23515,40823
19.24327,38081
19.25138,39403
19.25952,41454
19.26763,39846
19.27575,46035
19.28388,45312
19.29200,39640
19.30013,45799
19.30825,43955
19.31637,47117
19.32450,45939
19.33262,51825
19.34075,51745
19.34887,63622
19.35698,69420
19.36512,77338
19.37323,72950
19.38135,68515
19.38948,64940
19.39760,59421
19.40573,54983
19.41385,54795
19.42197,55737
19.43010,61314
19.43822,79779
19.44635,102237
19.45447,115067
19.46258,121243
19.47072,103971
19.47883,87502
19.48697,66697
19.49508,53143
19.50320,47892
19.51133,46812
19.51945,44041
19.52757,41277
19.53570,38259
19.54382,42197
19.55195,43000
19.56007,41678
19.56818,34726
19.57632,38520
19.58443,34215
19.59257,38091
19.60068,35440
19.60880,36074
19.61693,32735
19.62505,39927
19.63317,47735
19.64130,57315
19.64942,66119
19.65755,78103
19.66567,76370
19.67378,69401
19.68192,69908
19.69003,59541
19.69817,55070
19.70628,53103
19.71440,48368
19.72253,42136
19.73065,40319
19.73878,35838
19.74690,37971
19.75502,39815
19.76315,38449
19.77127,41394
19.77938,45533
19.78752,47532
19.79563,53519
19.80377,51508
19.81188,45008
19.82000,44796
19.82813,40634
19.83625,45416
19.84438,54519
19.85250,86493
19.86062,160037
19.86875,308739
19.87687,525911
19.88500,768952
19.89312,943919
19.90123,958923
19.90937,819740
19.91748,592657
19.92560,407069
19.93373,276148
19.94185,206697
19.94998,169252
19.95810,144694
19.96622,126063
19.97435,122116
19.98247,117584
19.99060,112913
19.99872,108294
20.00683,99999
20.01497,101804
20.02308,93718
20.03120,86587
20.03933,81835
20.04745,74318
20.05558,75021
20.06370,71608
20.07182,72334
20.07995,70744
20.08807,66947
20.09620,66456
20.10432,58040
20.11243,56485
20.12057,49121
20.12868,54390
20.13682,49486
20.14493,52479
20.15305,60522
20.16118,59950
20.16930,62358
20.17742,68847
20.18555,72003
20.19367,70870
20.20180,62249
20.20992,62728
20.21803,62831
20.22617,61661
20.23428,68335
20.24242,77121
20.25053,74444
20.25865,84404
20.26678,84669
20.27490,82131
20.28303,81543
20.29115,63206
20.29927,55175
20.30740,48835
20.31552,42562
20.32363,38446
20.33177,37069
20.33988,38804
20.34802,32193
20.35613,35522
20.36425,36163
20.37238,35785
20.38050,37561
20.38863,37437
20.39675,36718
20.40487,38130
20.41300,39374
20.42112,42319
20.42923,39111
20.43737,41287
20.44548,36854
20.45362,36884
20.46173,37145
20.46985,33147
20.47798,36279
20.48610,31537
20.49423,34626
20.50235,30978
20.51047,30807
20.51860,30434
20.52672,29988
20.53485,31311
20.54297,30050
20.55108,26732
20.55922,29053
20.56733,31489
20.57545,26059
20.58358,28424
20.59170,29152
20.59983,27975
20.60795,25811
20.61607,26396
20.62420,30919
20.63232,30206
20.64045,30468
20.64857,28699
20.65668,30004
20.66482,31116
20.67293,28847
20.68105,29681
20.68918,25292
20.69730,24854
20.70543,29740
20.71355,29216
20.72167,27823
20.72980,31989
20.73792,31545
20.74605,31437
20.75417,32933
20.76228,32755
20.77042,38264
20.77853,48277
20.78667,61246
20.79478,82105
20.80290,98013
20.81103,96901
20.81915,97557
20.82727,81784
20.83540,63102
20.84352,52027
20.85165,42709
20.85977,35464
20.86788,34018
20.87602,34476
20.88413,35887
20.89227,33440
20.90038,33815
20.90850,32183
20.91663,29574
20.92475,32378
20.93288,29321
20.94100,29895
20.94912,30613
20.95725,26471
20.96537,27429
20.97348,30667
20.98162,36634
20.98973,26989
20.99787,30535
21.00598,27703
21.01410,28665
21.02223,30016
21.03035,28719
21.03848,30577
21.04660,31028
21.05472,29864
21.06285,27334
21.07097,36047
21.07910,34578
21.08722,34166
21.09533,38964
21.10347,34957
21.11158,38084
21.11970,41741
21.12783,46025
21.13595,52421
21.14408,50497
21.15220,62705
21.16032,56904
21.16845,55675
21.17657,49436
21.18470,45709
21.19282,45415
21.20093,44885
21.20907,41156
21.21718,44184
21.22530,42456
21.23343,40024
21.24155,42103
21.24968,42808
21.25780,38862
21.26592,39244
21.27405,39607
21.28217,40946
21.29030,35110
21.29842,34227
21.30653,34576
21.31467,38761
21.32278,39453
21.33092,32508
21.33903,34525
21.34715,35041
21.35528,39087
21.36340,36468
21.37152,34492
21.37965,39844
21.38777,44086
21.39590,42608
21.40402,42229
21.41213,42902
21.42027,41649
21.42838,41527
21.43652,41217
21.44463,35064
21.45275,40214
21.46088,34576
21.46900,36854
21.47712,31633
21.48525,36085
21.49337,34268
21.50150,31643
21.50962,33388
21.51773,32296
21.52587,33764
21.53398,32702
21.54212,33483
21.55023,33384
21.55835,32501
21.56648,33361
21.57460,34839
21.58273,44599
21.59085,43113
21.59897,45386
21.60710,43144
21.61522,43145
21.62333,42489
21.63147,35350
21.63958,35635
21.64772,34497
21.65583,37004
21.66395,36630
21.67208,38234
21.68020,38575
21.68833,35472
21.69645,34389
21.70457,34607
21.71270,33231
21.72082,33471
21.72895,35103
21.73707,34826
21.74518,34100
21.75332,32042
21.76143,33948
21.76955,34472
21.77768,35586
21.78580,40903
21.79393,40810
21.80205,39224
21.81017,37346
21.81830,38148
21.82642,40575
21.83455,47992
21.84267,59929
21.85078,78361
21.85892,93780
21.86703,98942
21.87515,100234
21.88328,100880
21.89140,102500
21.89953,108008
21.90765,104119
21.91577,108718
21.92390,109699
21.93202,105367
21.94015,109154
21.94827,104637
21.95638,102026
21.96452,101685
21.97263,98192
21.98077,106779
21.98888,98870
21.99700,89521
22.00513,89976
22.01325,88964
22.02137,87862
22.02950,86658
22.03762,84988
22.04575,79687
22.05387,79382
22.06198,77632
22.07012,75278
22.07823,74948
22.08637,74696
22.09448,72444
22.10260,64551
22.11073,71154
22.11885,67196
22.12698,67807
22.13510,60918
22.14322,57500
22.15135,59189
22.15947,56241
22.16758,53553
22.17572,53232
22.18383,54943
22.19197,53052
22.20008,51264
22.20820,54100
22.21633,49077
22.22445,45774
22.23258,45997
22.24070,43267
22.24882,45708
22.25695,47625
22.26507,46067
22.27318,50283
22.28132,46582
22.28943,50454
22.29757,46853
22.30568,47780
22.31380,46285
22.32193,41640
22.33005,42371
22.33818,43725
22.34630,42741
22.35442,44887
22.36255,39325
22.37067,39649
22.37880,43394
22.38692,47549
22.39503,54741
22.40317,59561
22.41128,62381
22.41940,63839
22.42753,58398
22.43565,48895
22.44378,46898
22.45190,48366
22.46002,42054
22.46815,42269
22.47627,44091
22.48440,51290
22.49252,51301
22.50063,50084
22.50877,49927
22.51688,46797
22.52500,46476
22.53313,43294
22.54125,41871
22.54938,38720
22.55750,38392
22.56562,37396
22.57375,37317
22.58187,36974
22.59000,34419
22.59812,35725
22.60623,32591
22.61437,34214
22.62248,31830
22.63062,31330
22.63873,34049
22.64685,30185
22.65498,32229
22.66310,33747
22.67122,32689
22.67935,32035
22.68747,34681
22.69560,36511
22.70372,38675
22.71183,37702
22.71997,39492
22.72808,35384
22.73622,31836
22.74433,32560
22.75245,33697
22.76058,36965
22.76870,32512
22.77683,37209
22.78495,38739
22.79307,38106
22.80120,38877
22.80932,41252
22.81743,38795
22.82557,37810
22.83368,38186
22.84182,35269
22.84993,39637
22.85805,37329
22.86618,40859
22.87430,41547
22.88243,46770
22.89055,52707
22.89867,66670
22.90680,74961
22.91492,93478
22.92303,92046
22.93117,93669
22.93928,86995
22.94742,70501
22.95553,64909
22.96365,55901
22.97178,49274
22.97990,49801
22.98803,42626
22.99615,43847
23.00427,39276
23.01240,35912
23.02052,35723
23.02865,35408
23.03677,37353
23.04488,31936
23.05302,34373
23.06113,36015
23.06925,32793
23.07738,33114
23.08550,32791
23.09363,33111
23.10175,31484
23.10987,29326
23.11800,29696
23.12612,30373
23.13425,30498
23.14237,28350
23.15048,26175
23.15862,29723
23.16673,30953
23.17487,29083
23.18298,26071
23.19110,29108
23.19923,25726
23.20735,29090
23.21547,30462
23.22360,30289
23.23172,26452
23.23985,33924
23.24797,32855
23.25608,32510
23.26422,30817
23.27233,34279
23.28047,32872
23.28858,29533
23.29670,29316
23.30483,30235
23.31295,33244
23.32107,35659
23.32920,40416
23.33732,49310
23.34545,60524
23.35357,72379
23.36168,92662
23.36982,100554
23.37793,114115
23.38607,125819
23.39418,137069
23.40230,132834
23.41043,130234
23.41855,127028
23.42668,119238
23.43480,115238
23.44292,110819
23.45105,105528
23.45917,98909
23.46728,96579
23.47542,91296
23.48353,88260
23.49167,80312
23.49978,78172
23.50790,70795
23.51603,69836
23.52415,68993
23.53228,66624
23.54040,66494
23.54852,72152
23.55665,75001
23.56477,81095
23.57290,78713
23.58102,93175
23.58913,104860
23.59727,113901
23.60538,137540
23.61350,147711
23.62163,155802
23.62975,162638
23.63788,154123
23.64600,169316
23.65412,171158
23.66225,175875
23.67037,174582
23.67850,169456
23.68662,170941
23.69473,164133
23.70287,159298
23.71098,161413
23.71910,156975
23.72723,163030
23.73535,213257
23.74348,309138
23.75160,526203
23.75972,895331
23.76785,1293864
23.77597,1651415
23.78410,1723106
23.79222,1578709
23.80033,1330779
23.80847,1001887
23.81658,792789
23.82472,591292
23.83283,468164
23.84095,382523
23.84908,320818
23.85720,271051
23.86532,249485
23.87345,229705
23.88157,204049
23.88970,193870
23.89782,180793
23.90593,168690
23.91407,152087
23.92218,152529
23.93032,140071
23.93843,125914
23.94655,123714
23.95468,119708
23.96280,112874
23.97092,110359
23.97905,99372
23.98717,99361
23.99530,95953
24.00342,94665
24.01153,95611
24.01967,96327
24.02778,97214
24.03592,96780
24.04403,84721
24.05215,91113
24.06028,79956
24.06840,80352
24.07653,79198
24.08465,80225
24.09277,72446
24.10090,72164
24.10902,73578
24.11713,67447
24.12527,73516
24.13338,74165
24.14152,74427
24.14963,71274
24.15775,74205
24.16588,76190
24.17400,76479
24.18213,72960
24.19025,73840
24.19837,76060
24.20650,65954
24.21462,62039
24.22275,58281
24.23087,56582
24.23898,57196
24.24712,53254
24.25523,55416
24.26335,53612
24.27148,53923
24.27960,53468
24.28773,53932
24.29585,50278
24.30397,57412
24.31210,61753
24.32022,76989
24.32835,95388
24.33647,107454
24.34458,109953
24.35272,99011
24.36083,83241
24.36895,65091
24.37708,55439
24.38520,51344
24.39333,44000
24.40145,45975
24.40957,46164
24.41770,45797
24.42582,52565
24.43395,51892
24.44207,47927
24.45018,55094
24.45832,54983
24.46643,63311
24.47457,57174
24.48268,63024
24.49080,56821
24.49893,52365
24.50705,50315
24.51517,47953
24.52330,54103
24.53142,57962
24.53955,63630
24.54767,65400
24.55578,65834
24.56392,63707
24.57203,50596
24.58017,51035
24.58828,44747
24.59640,43087
24.60453,42153
24.61265,42639
24.62078,38481
24.62890,40601
24.63702,38837
24.64515,37941
24.65327,34958
24.66138,37706
24.66952,39307
24.67763,35755
24.68577,36099
24.69388,33516
24.70200,35044
24.71013,34559
24.71825,35357
24.72638,35231
24.73450,35295
24.74262,35712
24.75075,42795
24.75887,38266
24.76698,37109
24.77512,40525
24.78323,38905
24.79137,40213
24.79948,40670
24.80760,41518
24.81573,41402
24.82385,45825
24.83198,58615
24.84010,74895
24.84822,94590
24.85635,122128
24.86447,148970
24.87260,186532
24.88072,199773
24.88883,211689
24.89697,205997
24.90508,180760
24.91320,159255
24.92133,145499
24.92945,143069
24.93758,129223
24.94570,126278
24.95382,123315
24.96195,121868
24.97007,122228
24.97820,120096
24.98632,116652
24.99443,112394
25.00257,110812
25.01068,109032
25.01880,110508
25.02693,107633
25.03505,102329
25.04318,100273
25.05130,96900
25.05942,102259
25.06755,95238
25.07567,95148
25.08380,103948
25.09192,124930
25.10003,161741
25.10817,246323
25.11628,375537
25.12442,554808
25.13253,726284
25.14065,791802
25.14878,701917
25.15690,535022
25.16502,361266
25.17315,243638
25.18127,170686
25.18940,127315
25.19752,107590
25.20563,94271
25.21377,87813
25.22188,87397
25.23002,87064
25.23813,97614
25.24625,108951
25.25438,116493
25.26250,119882
25.27063,119597
25.27875,108258
25.28687,91370
25.29500,87684
25.30312,80997
25.31123,75152
25.31937,66398
25.32748,68113
25.33562,59043
25.34373,63374
25.35185,60079
25.35998,53019
25.36810,54432
25.37623,51405
25.38435,52953
25.39247,52215
25.40060,52980
25.40872,52475
25.41683,56674
25.42497,50536
25.43308,49162
25.44122,46988
25.44933,47920
25.45745,46285
25.46558,44004
25.47370,44165
25.48183,45003
25.48995,46170
25.49807,45381
25.50620,43702
25.51432,46299
25.52245,41442
25.53057,42732
25.53868,44390
25.54682,41074
25.55493,44713
25.56305,40581
25.57118,39983
25.57930,43163
25.58743,41888
25.59555,42497
25.60367,37609
25.61180,39243
25.61992,38798
25.62805,37656
25.63617,40767
25.64428,38852
25.65242,38588
25.66053,36942
25.66867,38167
25.67678,38943
25.68490,41452
25.69303,38404
25.70115,40470
25.70927,36894
25.71740,34654
25.72552,35384
25.73365,34487
25.74177,36776
25.74988,36837
25.75802,34966
25.76613,37812
25.77427,41278
25.78238,39927
25.79050,39335
25.79863,36017
25.80675,37760
25.81487,39264
25.82300,37928
25.83112,39273
25.83925,38435
25.84737,35734
25.85548,34062
25.86362,34196
25.87173,35263
25.87987,35671
25.88798,35548
25.89610,31480
25.90423,33029
25.91235,31631
25.92048,33093
25.92860,31402
25.93672,33429
25.94485,32751
25.95297,34077
25.96108,33624
25.96922,32822
25.97733,33029
25.98547,31562
25.99358,31812
26.00170,33282
26.00983,33006
26.01795,31346
26.02608,31167
26.03420,33074
26.04232,32709
26.05045,30669
26.05857,32508
26.06668,30968
26.07482,34673
26.08293,31491
26.09107,32063
26.09918,37399
26.10730,33437
26.11543,36588
26.12355,40716
26.13168,38488
26.13980,39978
26.14792,42052
26.15605,40734
26.16417,39159
26.17230,38178
26.18042,36263
26.18853,35817
26.19667,35833
26.20478,31874
26.21290,34948
26.22103,34860
26.22915,34411
26.23728,35781
26.24540,30474
26.25352,29350
26.26165,28072
26.26977,30556
26.27790,30794
26.28602,29972
26.29413,28767
26.30227,31240
26.31038,30052
26.31852,32476
26.32663,32193
26.33475,29393
26.34288,32087
26.35100,30215
26.35912,32202
26.36725,35373
26.37537,37013
26.38350,39033
26.39162,36588
26.39973,32057
26.40787,36546
26.41598,31953
26.42412,33938
26.43223,31907
26.44035,31550
26.44848,29569
26.45660,29527
26.46473,34276
26.47285,30924
26.48097,32371
26.48910,31430
26.49722,29376
26.50533,30417
26.51347,31668
26.52158,31176
26.52972,32170
26.53783,29759
26.54595,26819
26.55408,28253
26.56220,29856
26.57033,29579
26.57845,29814
26.58657,30491
26.59470,24679
26.60282,27326
26.61093,31928
26.61907,29010
26.62718,26394
26.63532,29171
26.64343,32282
26.65155,29285
26.65968,33168
26.66780,28797
26.67593,29044
26.68405,29192
26.69217,29355
26.70030,30422
26.70842,29197
26.71655,29475
26.72467,26710
26.73278,29245
26.74092,31494
26.74903,31732
26.75715,28151
26.76528,28309
26.77340,30971
26.78153,34203
26.78965,35221
26.79777,35279
26.80590,33400
26.81402,33188
26.82215,31528
26.83027,30252
26.83838,34414
26.84652,28946
26.85463,31414
26.86275,27163
26.87088,33331
26.87900,28934
26.88713,29196
26.89525,29827
26.90337,27379
26.91150,28980
26.91962,28318
26.92775,32085
26.93587,33194
26.94398,40396
26.95212,54138
26.96023,73230
26.96837,102792
26.97648,140764
26.98460,176887
26.99273,198244
27.00085,204212
27.00897,191616
27.01710,163834
27.02522,139856
27.03335,113392
27.04147,92538
27.04958,79540
27.05772,73033
27.06583,63715
27.07397,55899
27.08208,51924
27.09020,48613
27.09833,46032
27.10645,46009
27.11458,44471
27.12270,45716
27.13082,51593
27.13895,44018
27.14707,45157
27.15518,45844
27.16332,45329
27.17143,43898
27.17957,45315
27.18768,44841
27.19580,43404
27.20393,39287
27.21205,38713
27.22018,35930
27.22830,35236
27.23642,37277
27.24455,34003
27.25267,38471
27.26078,32966
27.26892,35745
27.27703,33897
27.28517,33317
27.29328,31229
27.30140,32580
27.30953,33307
27.31765,32063
27.32578,34767
27.33390,31403
27.34202,34179
27.35015,33899
27.35827,30736
27.36640,31329
27.37452,30086
27.38263,32196
27.39077,31194
27.39888,32078
27.40700,33326
27.41513,32098
27.42325,32881
27.43138,34982
27.43950,34215
27.44762,31679
27.45575,32347
27.46387,33403
27.47200,32086
27.48012,31629
27.48823,30012
27.49637,27960
27.50448,30493
27.51262,30497
27.52073,30047
27.52885,34474
27.53698,29285
27.54510,30804
27.55322,34564
27.56135,31884
27.56947,34773
27.57760,36480
27.58572,33784
27.59383,37094
27.60197,31173
27.61008,39145
27.61822,36771
27.62633,35234
27.63445,33904
27.64258,30630
27.65070,29934
27.65882,34664
27.66695,32862
27.67507,32722
27.68320,37348
27.69132,34062
27.69943,34597
27.70757,34240
27.71568,31025
27.72382,34761
27.73193,39322
27.74005,39913
27.74818,38823
27.75630,36907
27.76443,35765
27.77255,33945
27.78067,31396
27.78880,33630
27.79692,29948
27.80503,29809
27.81317,29846
27.82128,31832
27.82942,30192
27.83753,30670
27.84565,29779
27.85378,30145
27.86190,27942
27.87003,28572
27.87815,26870
27.88627,28423
27.89440,26106
27.90252,26745
27.91063,29189
27.91877,25592
27.92688,29550
27.93502,29841
27.94313,29836
27.95125,25703
27.95938,31973
27.96750,29804
27.97563,33809
27.98375,32455
27.99187,37628
28.00000,34711
28.00812,37394
28.01625,38586
28.02437,39728
28.03248,49465
28.04062,54068
28.04873,48443
28.05685,46240
28.06498,42157
28.07310,42874
28.08123,46057
28.08935,47299
28.09747,53991
28.10560,50305
28.11372,50676
28.12185,51650
28.12997,46096
28.13808,45616
28.14622,33309
28.15433,35026
28.16247,37501
28.17058,31528
28.17870,28704
28.18683,32961
28.19495,35621
28.20307,34359
28.21120,40180
28.21932,39283
28.22745,36127
28.23557,36157
28.24368,37383
28.25182,42372
28.25993,50065
28.26807,53223
28.27618,67683
28.28430,83919
28.29243,93431
28.30055,113923
28.30867,117508
28.31680,122804
28.32492,119282
28.33305,119390
28.34117,107342
28.34928,99706
28.35742,95522
28.36553,85145
28.37367,78265
28.38178,63309
28.38990,68005
28.39803,56855
28.40615,51308
28.41428,47885
28.42240,48068
28.43052,48969
28.43865,40671
28.44677,44006
28.45488,46953
28.46302,41618
28.47113,41010
28.47927,41816
28.48738,37474
28.49550,36522
28.50363,37851
28.51175,39055
28.51988,36169
28.52800,34860
28.53612,33617
28.54425,33445
28.55237,35014
28.56050,37238
28.56862,31230
28.57673,30187
28.58487,31791
28.59298,33129
28.60110,32461
28.60923,31980
28.61735,32787
28.62548,31586
28.63360,37958
28.64172,35678
28.64985,34274
28.65797,35999
28.66610,38221
28.67422,37786
28.68233,42655
28.69047,44560
28.69858,56528
28.70670,61635
28.71483,57938
28.72295,53246
28.73108,49489
28.73920,40402
28.74732,40252
28.75545,33380
28.76357,29627
28.77170,29719
28.77982,29145
28.78793,31739
28.79607,32711
28.80418,33963
28.81232,29636
28.82043,32899
28.82855,32852
28.83668,28911
28.84480,32080
28.85292,30974
28.86105,31434
28.86917,31226
28.87730,35766
28.88542,34797
28.89353,35573
28.90167,35199
28.90978,33712
28.91792,31010
28.92603,33374
28.93415,32620
28.94228,33464
28.95040,28321
28.95853,32444
28.96665,34343
28.97477,33624
28.98290,33458
28.99102,29365
28.99913,25821
29.00727,29275
29.01538,27765
29.02352,28080
29.03163,31771
29.03975,31342
29.04788,31370
29.05600,32887
29.06413,31332
29.07225,31750
29.08037,28471
29.08850,29849
29.09662,28951
29.10473,30852
29.11287,28149
29.12098,31197
29.12912,27425
29.13723,25948
29.14535,26907
29.15348,28662
29.16160,30131
29.16973,30059
29.17785,30026
29.18597,34995
29.19410,36040
29.20222,37207
29.21035,39387
29.21847,43995
29.22658,39840
29.23472,38517
29.24283,39118
29.25095,41302
29.25908,38628
29.26720,37482
29.27533,37807
29.28345,33093
29.29157,34012
29.29970,32647
29.30782,31784
29.31595,31369
29.32407,29322
29.33218,29987
29.34032,30023
29.34843,30222
29.35655,30231
29.36468,29947
29.37280,26018
29.38093,31504
29.38905,27435
29.39717,25342
29.40530,28123
29.41342,28456
29.42155,31045
29.42967,30048
29.43778,30536
29.44592,29171
29.45403,29590
29.46217,25694
29.47028,28551
29.47840,29694
29.48653,28975
29.49465,29354
29.50277,31970
29.51090,31635
29.51902,29974
29.52715,28650
29.53527,29623
29.54338,33900
29.55152,30392
29.55963,31123
29.56777,34518
29.57588,33551
29.58400,40144
29.59213,35598
29.60025,38106
29.60838,35079
29.61650,32057
29.62462,34131
29.63275,30128
29.64087,30604
29.64898,27448
29.65712,30957
29.66523,28780
29.67337,26498
29.68148,29567
29.68960,30657
29.69773,29775
29.70585,28101
29.71398,27425
29.72210,28052
29.73022,30748
29.73835,28782
29.74647,24445
29.75458,29720
29.76272,28992
29.77083,27448
29.77897,26356
29.78708,27762
29.79520,28321
29.80333,26229
29.81145,27095
29.81958,27853
29.82770,25491
29.83582,26285
29.84395,28772
29.85207,29984
29.86020,31519
29.86832,34409
29.87643,44940
29.88457,48337
29.89268,62277
29.90080,67263
29.90893,79582
29.91705,83952
29.92518,86585
29.93330,91076
29.94142,98168
29.94955,98402
29.95767,102593
29.96580,97503
29.97392,95000
29.98203,92010
29.99017,85830
29.99828,83554
30.00642,79891
30.01453,73492
30.02265,74725
30.03078,64029
30.03890,65518
30.04702,62345
30.05515,54490
30.06327,57438
30.07140,55405
30.07952,52628
30.08763,48811
30.09577,46083
30.10388,48803
30.11202,48086
30.12013,43989
30.12825,45984
30.13638,47493
30.14450,39942
30.15262,43044
30.16075,42752
30.16887,40982
30.17700,43021
30.18512,41034
30.19323,41387
30.20137,41463
30.20948,40052
30.21762,39933
30.22573,34366
30.23385,38661
30.24198,36395
30.25010,34507
30.25823,34991
30.26635,36089
30.27447,34087
30.28260,31184
30.29072,36769
30.29883,32952
30.30697,35735
30.31508,34319
30.32322,33207
30.33133,36066
30.33945,34801
30.34758,33196
30.35570,33245
30.36383,31311
30.37195,36822
30.38007,29548
30.38820,32817
30.39632,32874
30.40443,33788
30.41257,29864
30.42068,29732
30.42882,31018
30.43693,31722
30.44505,33088
30.45318,30230
30.46130,31219
30.46943,31227
30.47755,30431
30.48567,33993
30.49380,32351
30.50192,30674
30.51005,28125
30.51817,32700
30.52628,32350
30.53442,28943
30.54253,30943
30.55065,26741
30.55878,30912
30.56690,31841
30.57503,29166
30.58315,30631
30.59127,30471
30.59940,31869
30.60752,29286
30.61565,29057
30.62377,31948
30.63188,31501
30.64002,27204
30.64813,32658
30.65627,30299
30.66438,29362
30.67250,27460
30.68063,30648
30.68875,28791
30.69687,28919
30.70500,28063
30.71312,29679
30.72125,31052
30.72937,34016
30.73748,30500
30.74562,32327
30.75373,34486
30.76187,33262
30.76998,33330
30.77810,37901
30.78623,41207
30.79435,43386
30.80248,45534
30.81060,43601
30.81872,45348
30.82685,35361
30.83497,35018
30.84308,31873
30.85122,33806
30.85933,32917
30.86747,32467
30.87558,31457
30.88370,32950
30.89183,31067
30.89995,33076
30.90808,30566
30.91620,31873
30.92432,31024
30.93245,31676
30.94057,34757
30.94868,35844
30.95682,30292
30.96493,31900
30.97307,27466
30.98118,29530
30.98930,26969
30.99743,26670
31.00555,30753
31.01368,31734
31.02180,29490
31.02992,29709
31.03805,28474
31.04617,31934
31.05430,30576
31.06242,30068
31.07053,32135
31.07867,34921
31.08678,37413
31.09490,37737
31.10303,40843
31.11115,41232
31.11928,35825
31.12740,34708
31.13552,35933
31.14365,37433
31.15177,35048
31.15990,37127
31.16802,41674
31.17613,52360
31.18427,57824
31.19238,66327
31.20050,84974
31.20863,83715
31.21675,87049
31.22488,72630
31.23300,60874
31.24112,52040
31.24925,44540
31.25737,38182
31.26550,35012
31.27362,32307
31.28173,32917
31.28987,30820
31.29798,33644
31.30612,34799
31.31423,30005
31.32235,35984
31.33048,31434
31.33860,32639
31.34672,31126
31.35485,29115
31.36297,31880
31.37110,32560
31.37922,32130
31.38733,31973
31.39547,31947
31.40358,32679
31.41172,31646
31.41983,31119
31.42795,31102
31.43608,27905
31.44420,26410
31.45233,28629
31.46045,31972
31.46857,29449
31.47670,29361
31.48482,30526
31.49293,31797
31.50107,32001
31.50918,31956
31.51732,30517
31.52543,31365
31.53355,30696
31.54168,36505
31.54980,31945
31.55793,36301
31.56605,33652
31.57417,31780
31.58230,29908
31.59042,29262
31.59853,31813
31.60667,30091
31.61478,30455
31.62292,30835
31.63103,30742
31.63915,30162
31.64728,34679
31.65540,34181
31.66353,35849
31.67165,37950
31.67977,41324
31.68790,41808
31.69602,41663
31.70415,38558
31.71227,37431
31.72038,37984
31.72852,33613
31.73663,33502
31.74475,33301
31.75288,31227
31.76100,31433
31.76913,32252
31.77725,32608
31.78537,33431
31.79350,34905
31.80162,32696
31.80975,31132
31.81787,39894
31.82598,43475
31.83412,51526
31.84223,52962
31.85037,58823
31.85848,74017
31.86660,80124
31.87473,79636
31.88285,87776
31.89097,88154
31.89910,90831
31.90722,84791
31.91535,80036
31.92347,79295
31.93158,69024
31.93972,66642
31.94783,63787
31.95597,59971
31.96408,60497
31.97220,53327
31.98033,53556
31.98845,56188
31.99657,52332
32.00470,51926
32.01282,52349
32.02095,46950
32.02907,46198
32.03718,47928
32.04532,38852
32.05343,43199
32.06157,41283
32.06968,39609
32.07780,37281
32.08593,37038
32.09405,37934
32.10218,37727
32.11030,42437
32.11842,38392
32.12655,35363
32.13467,33522
32.14278,37609
32.15092,34924
32.15903,34314
32.16717,32021
32.17528,35119
32.18340,36429
32.19153,34601
32.19965,36446
32.20778,35938
32.21590,36541
32.22402,32353
32.23215,40043
32.24027,34183
32.24838,32274
32.25652,33489
32.26463,37431
32.27277,35840
32.28088,32660
32.28900,33809
32.29713,36028
32.30525,35004
32.31338,35690
32.32150,34323
32.32962,33701
32.33775,37516
32.34587,34690
32.35400,32313
32.36212,33508
32.37023,33355
32.37837,37008
32.38648,38688
32.39460,32688
32.40273,34416
32.41085,32937
32.41898,34427
32.42710,35315
32.43522,36107
32.44335,33950
32.45147,31642
32.45960,33444
32.46772,32501
32.47583,33855
32.48397,33901
32.49208,31073
32.50022,32775
32.50833,35948
32.51645,32489
32.52458,34069
32.53270,35656
32.54082,34370
32.54895,36792
32.55707,34048
32.56520,36623
32.57332,42945
32.58143,43479
32.58957,49340
32.59768,55310
32.60582,52715
32.61393,49866
32.62205,44366
32.63018,39496
32.63830,38158
32.64642,33846
32.65455,34516
32.66267,33714
32.67080,35180
32.67892,32377
32.68703,34739
32.69517,36462
32.70328,35976
32.71142,37492
32.71953,36093
32.72765,35813
32.73578,35432
32.74390,34471
32.75203,35550
32.76015,33601
32.76827,35302
32.77640,33574
32.78452,32832
32.79263,33262
32.80077,35522
32.80888,33926
32.81702,32346
32.82513,32579
32.83325,35206
32.84138,34129
32.84950,33914
32.85763,33598
32.86575,31813
32.87387,34684
32.88200,34684
32.89012,34928
32.89825,37151
32.90637,37771
32.91448,33809
32.92262,37880
32.93073,36440
32.93885,34535
32.94698,32504
32.95510,34465
32.96323,37025
32.97135,39930
32.97947,39936
32.98760,45395
32.99572,41011
33.00385,39888
33.01197,39045
33.02008,38453
33.02822,37703
33.03633,34524
33.04445,36714
33.05258,37681
33.06070,37563
33.06883,39612
33.07695,40610
33.08507,42895
33.09320,45177
33.10132,45579
33.10945,46745
33.11757,47040
33.12568,47673
33.13382,44779
33.14193,40659
33.15007,38073
33.15818,36782
33.16630,35529
33.17443,36597
33.18255,36248
33.19067,34944
33.19880,30384
33.20692,34643
33.21505,33724
33.22317,32864
33.23128,36050
33.23942,39879
33.24753,35872
33.25567,33609
33.26378,35891
33.27190,35423
33.28003,35656
33.28815,35288
33.29627,33652
33.30440,36220
33.31252,34831
33.32065,36213
33.32877,33560
33.33688,35689
33.34502,37753
33.35313,34041
33.36127,37450
33.36938,36491
33.37750,36173
33.38563,39511
33.39375,35236
33.40188,33908
33.41000,34266
33.41812,38016
33.42625,33170
33.43437,35593
33.44248,39063
33.45062,33931
33.45873,34587
33.46687,36437
33.47498,34987
33.48310,32993
33.49123,32697
33.49935,38274
33.50748,34017
33.51560,37628
33.52372,35201
33.53185,41224
33.53997,38675
33.54810,39132
33.55622,39593
33.56433,35617
33.57247,38167
33.58058,38965
33.58870,35927
33.59683,37952
33.60495,38946
33.61308,38122
33.62120,38759
33.62932,36431
33.63745,37161
33.64557,36974
33.65370,38865
33.66182,39823
33.66993,38826
33.67807,36862
33.68618,37610
33.69430,38742
33.70243,37671
33.71055,42583
33.71868,40421
33.72680,42507
33.73492,42980
33.74305,40134
33.75117,42633
33.75930,38886
33.76742,42355
33.77553,44435
33.78367,40745
33.79178,39796
33.79992,42351
33.80803,44060
33.81615,42332
33.82428,41713
33.83240,40412
33.84052,43487
33.84865,39890
33.85677,41593
33.86490,48041
33.87302,45896
33.88113,45268
33.88927,44593
33.89738,40538
33.90552,41836
33.91363,37702
33.92175,38480
33.92988,43066
33.93800,41068
33.94613,45072
33.95425,34657
33.96237,38944
33.97050,41027
33.97862,41092
33.98673,39641
33.99487,36448
34.00298,41092
34.01112,40811
34.01923,38042
34.02735,38524
34.03548,35529
34.04360,39823
34.05173,40275
34.05985,36472
34.06797,39021
34.07610,37038
34.08422,42195
34.09233,40916
34.10047,40201
34.10858,41105
34.11672,38352
34.12483,38247
34.13295,39194
34.14108,39606
34.14920,36754
34.15733,36654
34.16545,39280
34.17357,40982
34.18170,40924
34.18982,39755
34.19795,40796
34.20607,40821
34.21418,40331
34.22232,39242
34.23043,37409
34.23855,36599
34.24668,36518
34.25480,41034
34.26293,37996
34.27105,40699
34.27917,34159
34.28730,39212
34.29542,42065
34.30355,35583
34.31167,40076
34.31978,41608
34.32792,40338
34.33603,43231
34.34417,39228
34.35228,40446
34.36040,37477
34.36853,37639
34.37665,38996
34.38477,37497
34.39290,43576
34.40102,39880
34.40915,40718
34.41727,41449
34.42538,45147
34.43352,48062
34.44163,60738
34.44977,61666
34.45788,79634
34.46600,96872
34.47413,102587
34.48225,112230
34.49037,118492
34.49850,109092
34.50662,100800
34.51475,100324
34.52287,90532
34.53098,83053
34.53912,79016
34.54723,76164
34.55537,70174
34.56348,64613
34.57160,60051
34.57973,62368
34.58785,59451
34.59598,55764
34.60410,61743
34.61222,61794
34.62035,56913
34.62847,53595
34.63658,56205
34.64472,58594
34.65283,54014
34.66097,54309
34.66908,53284
34.67720,55525
34.68533,51146
34.69345,46629
34.70158,48338
34.70970,47977
34.71782,46288
34.72595,48061
34.73407,43193
34.74218,45070
34.75032,49077
34.75843,46737
34.76657,49282
34.77468,46265
34.78280,44023
34.79093,45906
34.79905,44544
34.80718,44927
34.81530,45329
34.82342,44468
34.83155,44214
34.83967,41604
34.84780,40978
34.85592,44079
34.86403,43699
34.87217,47821
34.88028,42508
34.88840,43070
34.89653,48375
34.90465,47015
34.91278,46960
34.92090,46943
34.92902,45764
34.93715,46686
34.94527,47427
34.95340,44855
34.96152,49192
34.96963,44488
34.97777,48185
34.98588,47234
34.99402,45567
35.00213,43564
35.01025,40070
35.01838,44389
35.02650,45109
35.03462,44653
35.04275,43735
35.05087,46771
35.05900,44705
35.06712,46761
35.07523,42328
35.08337,45962
35.09148,45705
35.09962,40484
35.10773,43540
35.11585,43678
35.12398,45782
35.13210,48556
35.14022,46807
35.14835,46584
35.15647,46784
35.16460,46832
35.17272,47829
35.18083,45895
35.18897,44127
35.19708,46135
35.20522,46261
35.21333,42919
35.22145,46669
35.22958,47505
35.23770,50261
35.24583,46842
35.25395,44356
35.26207,48910
35.27020,43148
35.27832,46401
35.28643,49985
35.29457,45303
35.30268,47321
35.31082,47098
35.31893,44213
35.32705,44847
35.33518,44165
35.34330,44181
35.35143,45615
35.35955,44680
35.36767,44895
35.37580,48271
35.38392,51663
35.39205,53039
35.40017,51029
35.40828,55334
35.41642,55572
35.42453,55370
35.43265,57234
35.44078,59114
35.44890,55192
35.45703,54415
35.46515,54339
35.47327,55991
35.48140,55450
35.48952,53803
35.49765,54397
35.50577,56533
35.51388,55017
35.52202,54340
35.53013,56709
35.53825,57125
35.54638,53187
35.55450,54207
35.56263,49331
35.57075,50936
35.57887,51463
35.58700,50113
35.59512,55238
35.60325,53969
35.61137,49299
35.61948,55990
35.62762,52952
35.63573,54761
35.64387,49089
35.65198,53019
35.66010,51983
35.66823,46648
35.67635,50174
35.68447,48189
35.69260,48617
35.70072,50652
35.70885,52837
35.71697,52077
35.72508,48293
35.73322,49355
35.74133,48723
35.74947,50343
35.75758,47601
35.76570,51811
35.77383,52968
35.78195,52870
35.79007,54716
35.79820,47737
35.80632,46897
35.81445,49888
35.82257,48998
35.83068,46887
35.83882,49652
35.84693,47588
35.85507,47848
35.86318,47635
35.87130,50384
35.87943,52440
35.88755,51932
35.89568,45382
35.90380,49965
35.91192,48998
35.92005,51411
35.92817,47212
35.93628,47372
35.94442,52630
35.95253,49289
35.96067,47574
35.96878,52733
35.97690,48982
35.98503,51174
35.99315,52586
36.00128,52533
36.00940,48864
36.01752,56532
36.02565,51025
36.03377,53454
36.04190,54969
36.05002,51033
36.05813,53704
36.06627,58264
36.07438,54599
36.08250,51375
36.09063,54652
36.09875,53536
36.10688,54898
36.11500,54927
36.12312,58436
36.13125,52690
36.13937,55586
36.14750,52366
36.15562,53707
36.16373,61353
36.17187,54339
36.17998,50411
36.18810,50040
36.19623,51301
36.20435,53372
36.21248,54852
36.22060,62142
36.22872,67558
36.23685,71861
36.24497,75897
36.25310,76397
36.26122,72649
36.26933,67826
36.27747,58751
36.28558,58166
36.29372,56557
36.30183,56668
36.30995,51965
36.31808,55187
36.32620,53617
36.33432,55581
36.34245,54038
36.35057,56986
36.35870,53671
36.36682,55451
36.37493,56217
36.38307,56872
36.39118,63094
36.39932,60555
36.40743,65285
36.41555,61676
36.42368,63727
36.43180,68063
36.43993,69124
36.44805,74155
36.45617,72260
36.46430,77243
36.47242,78008
36.48053,80478
36.48867,83810
36.49678,80215
36.50492,82685
36.51303,84380
36.52115,79274
36.52928,89520
36.53740,88167
36.54553,82474
36.55365,77435
36.56177,79147
36.56990,74701
36.57802,76692
36.58613,73112
36.59427,73164
36.60238,71140
36.61052,70932
36.61863,65278
36.62675,62971
36.63488,66209
36.64300,62034
36.65113,61967
36.65925,63330
36.66737,65309
36.67550,59530
36.68362,63559
36.69175,60049
36.69987,55543
36.70798,53754
36.71612,54914
36.72423,57577
36.73235,58373
36.74048,59028
36.74860,57283
36.75673,57394
36.76485,58899
36.77297,61534
36.78110,59610
36.78922,62826
36.79735,60224
36.80547,57042
36.81358,58071
36.82172,54063
36.82983,56334
36.83795,57403
36.84608,58089
36.85420,52447
36.86233,58631
36.87045,60636
36.87857,58283
36.88670,56987
36.89482,55777
36.90295,58392
36.91107,59781
36.91918,59480
36.92732,60779
36.93543,61214
36.94357,62765
36.95168,65779
36.95980,67192
36.96793,62729
36.97605,65840
36.98417,68727
36.99230,63776
37.00042,69096
37.00855,86512
37.01667,82203
37.02478,90495
37.03292,84975
37.04103,83580
37.04917,83398
37.05728,72821
37.06540,68058
37.07353,63316
37.08165,65004
37.08978,63890
37.09790,64022
37.10602,64623
37.11415,62553
37.12227,62930
37.13038,65141
37.13852,63138
37.14663,63845
37.15477,63698
37.16288,59751
37.17100,62910
37.17913,62199
37.18725,60913
37.19538,64082
37.20350,62083
37.21162,60121
37.21975,66947
37.22787,63291
37.23600,72960
37.24412,73855
37.25223,89667
37.26037,97937
37.26848,120720
37.27660,133054
37.28473,138407
37.29285,138773
37.30098,132546
37.30910,123784
37.31722,111578
37.32535,98707
37.33347,94182
37.34160,92394
37.34972,80641
37.35783,81220
37.36597,82854
37.37408,81639
37.38220,80416
37.39033,76113
37.39845,79035
37.40658,74640
37.41470,77916
37.42282,73597
37.43095,72149
37.43907,72176
37.44720,74240
37.45532,74563
37.46343,69698
37.47157,73347
37.47968,76423
37.48782,72594
