D:\MassHunter\GCMS\1\data\JTB-E02\BACandSTRAW\JTB-E12-002-12.D Fri Mar 15 15:18:48 2019
Start of data points
2.09530	89531
2.10342	95950
2.11155	86260
2.11967	85686
2.12778	87509
2.13592	82215
2.14403	86438
2.15217	83360
2.16028	88292
2.16840	86026
2.17653	81134
2.18465	79138
2.19278	82088
2.20090	76708
2.20902	75841
2.21715	76091
2.22527	72975
2.23338	72295
2.24152	73401
2.24963	71105
2.25777	66984
2.26588	69425
2.27400	67027
2.28213	61777
2.29025	60213
2.29838	63329
2.30650	61379
2.31462	65282
2.32275	66864
2.33087	60358
2.33898	61992
2.34712	66836
2.35523	63082
2.36337	62562
2.37148	63004
2.37960	63849
2.38773	63071
2.39585	163826
2.40398	3724797
2.41210	1.231466E+07
2.42022	1.175047E+07
2.42835	5490062
2.43647	2846723
2.44460	2232382
2.45272	1873296
2.46083	1631741
2.46897	1386507
2.47708	1245847
2.48520	1126746
2.49333	1003911
2.50145	908103
2.50958	864900
2.51770	783979
2.52582	743433
2.53395	714874
2.54207	680588
2.55020	651212
2.55832	639938
2.56643	620624
2.57457	608846
2.58268	600040
2.59082	582436
2.59893	571830
2.60705	577830
2.61518	569028
2.62330	552419
2.63142	552150
2.63955	539513
2.64767	557501
2.65580	545422
2.66392	530885
2.67203	536705
2.68017	530565
2.68828	528785
2.69642	545529
2.70453	619161
2.71265	797654
2.72078	719486
2.72890	573843
2.73702	544909
2.74515	543147
2.75327	547714
2.76140	614811
2.76952	728379
2.77763	657735
2.78577	585112
2.79388	582039
2.80202	553004
2.81013	537838
2.81825	537299
2.82638	529982
2.83450	520540
2.84263	517721
2.85075	527151
2.85887	514530
2.86700	510309
2.87512	513941
2.88323	513315
2.89137	508519
2.89948	497717
2.90762	486219
2.91573	490165
2.92385	488534
2.93198	487930
2.94010	511541
2.94823	611658
2.95635	647494
2.96447	560422
2.97260	514972
2.98072	499992
2.98885	492759
2.99697	475527
3.00508	471753
3.01322	478702
3.02133	479101
3.02945	470015
3.03758	487898
3.04570	446527
3.05383	468012
3.06195	454571
3.07007	461958
3.07820	452481
3.08632	453194
3.09445	443911
3.10257	443905
3.11068	439156
3.11882	432534
3.12693	438971
3.13505	425768
3.14318	431245
3.15130	418135
3.15943	434135
3.16755	438113
3.17567	435584
3.18380	445100
3.19192	418904
3.20005	407236
3.20817	417654
3.21628	412600
3.22442	411591
3.23253	400981
3.24067	409799
3.24878	397624
3.25690	408699
3.26503	405623
3.27315	656144
3.28127	5207096
3.28940	1.88088E+07
3.29752	2.319931E+07
3.30565	1.809393E+07
3.31377	1.219263E+07
3.32188	9583118
3.33002	7926750
3.33813	6533282
3.34627	5497163
3.35438	4853273
3.36250	9431287
3.37063	3.004304E+07
3.37875	4.496979E+07
3.38688	4.402842E+07
3.39500	3.5485E+07
3.40312	2.997817E+07
3.41125	2.69779E+07
3.41937	2.428479E+07
3.42748	2.199241E+07
3.43562	2.00275E+07
3.44373	1.813818E+07
3.45187	1.650777E+07
3.45998	1.495401E+07
3.46810	1.38677E+07
3.47623	1.305714E+07
3.48435	1.254743E+07
3.49248	1.180949E+07
3.50060	1.078852E+07
3.50872	9950712
3.51685	9104017
3.52497	8415147
3.53310	7897275
3.54122	7265185
3.54933	6816413
3.55747	6307700
3.56558	5879757
3.57370	5541396
3.58183	5235952
3.58995	4909104
3.59808	4582515
3.60620	4384801
3.61432	4144081
3.62245	3925981
3.63057	3705451
3.63870	3561965
3.64682	3410299
3.65493	3237227
3.66307	3094721
3.67118	2964026
3.67930	2872716
3.68743	2737058
3.69555	2630811
3.70368	2519630
3.71180	2444168
3.71992	2341488
3.72805	2257710
3.73617	2181977
3.74430	2106817
3.75242	2023682
3.76053	1976616
3.76867	1896341
3.77678	1840895
3.78492	1788266
3.79303	1756336
3.80115	1706718
3.80928	1655345
3.81740	1599424
3.82552	1564145
3.83365	1529876
3.84177	1488837
3.84990	1466202
3.85802	1450148
3.86613	2087888
3.87427	6827322
3.88238	1.636396E+07
3.89052	1.891167E+07
3.89863	1.336679E+07
3.90675	8423603
3.91488	6418693
3.92300	5414393
3.93113	4769115
3.93925	4205563
3.94737	3859009
3.95550	3611170
3.96362	3686706
3.97173	3677375
3.97987	4445798
3.98798	1.328224E+07
3.99612	3.382708E+07
4.00423	4.883359E+07
4.01235	4.666255E+07
4.02048	3.135583E+07
4.02860	1.861033E+07
4.03673	1.282077E+07
4.04485	9981634
4.05297	8164053
4.06110	6882114
4.06922	5913841
4.07733	5219560
4.08547	5045381
4.09358	5710246
4.10172	6135916
4.10983	5323550
4.11795	4311116
4.12608	3776038
4.13420	3478449
4.14233	3205127
4.15045	3002994
4.15857	2815601
4.16670	2670526
4.17482	2585117
4.18295	2445891
4.19107	2326728
4.19918	2267992
4.20732	2140709
4.21543	2107410
4.22355	2023733
4.23168	1969233
4.23980	1914436
4.24793	1850177
4.25605	1784466
4.26417	1736480
4.27230	1719707
4.28042	1667213
4.28855	1618401
4.29667	1641491
4.30478	1739156
4.31292	1728813
4.32103	1626695
4.32917	1514148
4.33728	1465669
4.34540	1421859
4.35353	1361697
4.36165	1346205
4.36977	1419201
4.37790	2128253
4.38602	4538775
4.39415	6900952
4.40227	6542260
4.41038	4272698
4.41852	2739062
4.42663	2095178
4.43477	1814741
4.44288	1589402
4.45100	1489488
4.45913	1426535
4.46725	1631656
4.47537	2117352
4.48350	2451493
4.49162	2198281
4.49975	1805662
4.50787	1533197
4.51598	1399164
4.52412	1303293
4.53223	1218512
4.54037	1161724
4.54848	1123950
4.55660	1106892
4.56473	1056620
4.57285	1040707
4.58098	1004223
4.58910	1003485
4.59722	975370
4.60535	970690
4.61347	946102
4.62158	924540
4.62972	909184
4.63783	905930
4.64597	898270
4.65408	894562
4.66220	872009
4.67033	870526
4.67845	831690
4.68658	827479
4.69470	827865
4.70282	820089
4.71095	816352
4.71907	821000
4.72720	814186
4.73532	793530
4.74343	777239
4.75157	791544
4.75968	760564
4.76780	785380
4.77593	898800
4.78405	1096771
4.79218	1125647
4.80030	1003991
4.80842	871085
4.81655	804791
4.82467	806534
4.83280	875945
4.84092	1229848
4.84903	1767116
4.85717	1960306
4.86528	1558414
4.87342	1129279
4.88153	945197
4.88965	909535
4.89778	954455
4.90590	976150
4.91402	940804
4.92215	899271
4.93027	850849
4.93840	788808
4.94652	738683
4.95463	725497
4.96277	687688
4.97088	696354
4.97902	685790
4.98713	670713
4.99525	668407
5.00338	659135
5.01150	642639
5.01962	635152
5.02775	683841
5.03587	870263
5.04400	1294633
5.05212	1585194
5.06023	1402788
5.06837	1078700
5.07648	920724
5.08462	1063690
5.09273	1483797
5.10085	1738356
5.10898	1553882
5.11710	1157236
5.12523	931565
5.13335	829657
5.14147	800606
5.14960	867890
5.15772	1098467
5.16583	1452438
5.17397	1633612
5.18208	1573802
5.19022	1381577
5.19833	1278342
5.20645	2008578
5.21458	6920459
5.22270	2.067827E+07
5.23083	3.627221E+07
5.23895	3.958035E+07
5.24707	3.010838E+07
5.25520	1.759193E+07
5.26332	1.099999E+07
5.27145	8260143
5.27957	6475307
5.28768	5311684
5.29582	4577979
5.30393	4074230
5.31205	3751119
5.32018	3416890
5.32830	3239696
5.33643	3006688
5.34455	2818507
5.35267	2659462
5.36080	2552942
5.36892	2452791
5.37705	2323886
5.38517	2239091
5.39328	2140639
5.40142	2023083
5.40953	1940587
5.41765	1888146
5.42578	1811021
5.43390	1761198
5.44203	1683654
5.45015	1646420
5.45827	1608877
5.46640	1588957
5.47452	1548354
5.48265	1511182
5.49077	1492493
5.49888	1436348
5.50702	1424703
5.51513	1385487
5.52327	1334359
5.53138	1303000
5.53950	1291070
5.54763	1260935
5.55575	1259071
5.56387	1212449
5.57200	1203282
5.58012	1172342
5.58825	1167728
5.59637	1239428
5.60448	1364774
5.61262	1507858
5.62073	1477844
5.62887	1385044
5.63698	1529895
5.64510	3033305
5.65323	7652159
5.66135	1.488862E+07
5.66948	1.920115E+07
5.67760	1.699381E+07
5.68572	1.068089E+07
5.69385	5890779
5.70197	3769919
5.71008	3319570
5.71822	3590798
5.72633	3804993
5.73447	3392843
5.74258	2612535
5.75070	2009426
5.75883	1733535
5.76695	1586622
5.77508	1438544
5.78320	1407384
5.79132	1417608
5.79945	1442111
5.80757	1497935
5.81568	1700861
5.82382	2828662
5.83193	5709599
5.84007	9188771
5.84818	1.013062E+07
5.85630	7734834
5.86443	4699873
5.87255	2838685
5.88068	2066696
5.88880	1724543
5.89692	1517479
5.90505	1424162
5.91317	1326494
5.92130	1268811
5.92942	1209872
5.93753	1173987
5.94567	1104130
5.95378	1071364
5.96190	1047054
5.97003	1024949
5.97815	1037829
5.98628	1080505
5.99440	1109059
6.00252	1074346
6.01065	1006607
6.01877	947185
6.02690	889899
6.03502	869613
6.04313	836461
6.05127	826007
6.05938	797461
6.06752	774145
6.07563	736700
6.08375	744611
6.09188	703330
6.10000	711562
6.10812	682776
6.11625	678169
6.12437	666761
6.13250	665012
6.14062	651050
6.14873	637860
6.15687	638973
6.16498	655827
6.17312	856082
6.18123	1700282
6.18935	3666887
6.19748	6048628
6.20560	6625528
6.21373	5191901
6.22185	3234740
6.22997	2122868
6.23810	1647538
6.24622	1453477
6.25433	1499684
6.26247	2349721
6.27058	5615517
6.27872	1.2517E+07
6.28683	2.022902E+07
6.29495	2.253965E+07
6.30308	1.784043E+07
6.31120	1.048518E+07
6.31933	5597254
6.32745	3458720
6.33557	2593074
6.34370	2170641
6.35182	1949286
6.35993	1810939
6.36807	1691411
6.37618	1600191
6.38432	1497060
6.39243	1375423
6.40055	1334491
6.40868	1268235
6.41680	1275444
6.42493	1219754
6.43305	1217705
6.44117	1204036
6.44930	1233053
6.45742	1202217
6.46555	1142461
6.47367	1066161
6.48178	1017234
6.48992	979126
6.49803	950133
6.50615	916360
6.51428	970957
6.52240	1228639
6.53053	2366554
6.53865	4941357
6.54677	8238864
6.55490	9622045
6.56302	7901315
6.57115	4814837
6.57927	2755704
6.58738	1809794
6.59552	1436114
6.60363	1275879
6.61177	1163781
6.61988	1072015
6.62800	1036306
6.63613	1001613
6.64425	968148
6.65237	922757
6.66050	902938
6.66862	875663
6.67675	872062
6.68487	826434
6.69298	816869
6.70112	798451
6.70923	784724
6.71737	785179
6.72548	762553
6.73360	752095
6.74173	741554
6.74985	737937
6.75797	723467
6.76610	717667
6.77422	712027
6.78235	704510
6.79047	698883
6.79858	682265
6.80672	671541
6.81483	676708
6.82297	665763
6.83108	646416
6.83920	651636
6.84733	657282
6.85545	701798
6.86358	943860
6.87170	1603099
6.87982	2438316
6.88795	2831666
6.89607	2542180
6.90418	2134589
6.91232	1880709
6.92043	1599525
6.92857	1217810
6.93668	939147
6.94480	839630
6.95293	879983
6.96105	1092117
6.96918	1523866
6.97730	2487923
6.98542	4156810
6.99355	5669631
7.00167	5520743
7.00980	3801585
7.01792	2135129
7.02603	1294040
7.03417	1002787
7.04228	871057
7.05040	798488
7.05853	732023
7.06665	715288
7.07478	678247
7.08290	832737
7.09102	778212
7.09915	751399
7.10727	770522
7.11540	759012
7.12352	757448
7.13163	731129
7.13977	733192
7.14788	728427
7.15600	713885
7.16413	707455
7.17225	682305
7.18038	684167
7.18850	647527
7.19662	660877
7.20475	617743
7.21287	605011
7.22100	620749
7.22912	595521
7.23723	565668
7.24537	564785
7.25348	583375
7.26162	601854
7.26973	661149
7.27785	753980
7.28598	805303
7.29410	759389
7.30222	680798
7.31035	607796
7.31847	539662
7.32660	541558
7.33472	531456
7.34283	550209
7.35097	533299
7.35908	534500
7.36722	526667
7.37533	516795
7.38345	512393
7.39158	522748
7.39970	517976
7.40783	510936
7.41595	502159
7.42407	507857
7.43220	481789
7.44032	483522
7.44843	481868
7.45657	472648
7.46468	485879
7.47282	481146
7.48093	474356
7.48905	484243
7.49718	482718
7.50530	478665
7.51343	458119
7.52155	459146
7.52967	459810
7.53780	452762
7.54592	463234
7.55405	516959
7.56217	580331
7.57028	684481
7.57842	673159
7.58653	613764
7.59465	548572
7.60278	493952
7.61090	468432
7.61903	454849
7.62715	448487
7.63527	439076
7.64340	413414
7.65152	428550
7.65965	403296
7.66777	390464
7.67588	396375
7.68402	403591
7.69213	396050
7.70025	399116
7.70838	386975
7.71650	389009
7.72463	389117
7.73275	386891
7.74087	402981
7.74900	425266
7.75712	491779
7.76525	619807
7.77337	884439
7.78148	1303191
7.78962	1777266
7.79773	2002092
7.80587	1686363
7.81398	1229067
7.82210	904713
7.83023	742958
7.83835	677425
7.84647	601013
7.85460	560617
7.86272	517955
7.87085	497604
7.87897	482086
7.88708	460528
7.89522	448823
7.90333	447865
7.91147	471363
7.91958	482407
7.92770	507613
7.93583	539119
7.94395	565072
7.95208	581489
7.96020	569421
7.96832	513400
7.97645	468812
7.98457	420180
7.99268	368031
8.00082	324229
8.00893	289066
8.01707	282738
8.02518	287306
8.03330	277344
8.04143	275896
8.04955	266391
8.05768	252854
8.06580	247660
8.07392	243926
8.08205	252318
8.09017	249077
8.09828	245558
8.10642	254954
8.11453	244332
8.12267	253528
8.13078	269516
8.13890	308083
8.14703	464022
8.15515	935381
8.16328	1913679
8.17140	3194614
8.17952	4323287
8.18765	5208293
8.19577	6340938
8.20390	7629756
8.21202	7992855
8.22013	6724364
8.22827	4475550
8.23638	2536229
8.24450	1450221
8.25263	944936
8.26075	759555
8.26888	710847
8.27700	752416
8.28512	731896
8.29325	630092
8.30137	538544
8.30950	414681
8.31762	364579
8.32573	333674
8.33387	330120
8.34198	347423
8.35012	386705
8.35823	436047
8.36635	469426
8.37448	482117
8.38260	465614
8.39072	442782
8.39885	446163
8.40697	482715
8.41510	529261
8.42322	586595
8.43133	640804
8.43947	633253
8.44758	562973
8.45572	480001
8.46383	420857
8.47195	384177
8.48008	367923
8.48820	362414
8.49632	355937
8.50445	355185
8.51257	346896
8.52070	316007
8.52882	322566
8.53693	313391
8.54507	313891
8.55318	330321
8.56132	322677
8.56943	313522
8.57755	328247
8.58568	343362
8.59380	325295
8.60193	311462
8.61005	300563
8.61817	283463
8.62630	261738
8.63442	260332
8.64253	267818
8.65067	284314
8.65878	340236
8.66692	375682
8.67503	377745
8.68315	346488
8.69128	316075
8.69940	271241
8.70753	269735
8.71565	260892
8.72377	274610
8.73190	272505
8.74002	297983
8.74815	296728
8.75627	289578
8.76438	323479
8.77252	407313
8.78063	469918
8.78875	506850
8.79688	466691
8.80500	370109
8.81313	303113
8.82125	267981
8.82937	249091
8.83750	245043
8.84562	241094
8.85375	235105
8.86187	227476
8.86998	229464
8.87812	229818
8.88623	230525
8.89437	233106
8.90248	238565
8.91060	246604
8.91873	266540
8.92685	268416
8.93497	271369
8.94310	243852
8.95122	216372
8.95935	213975
8.96747	210283
8.97558	199939
8.98372	206062
8.99183	200761
8.99997	214914
9.00808	266541
9.01620	406151
9.02433	640376
9.03245	949897
9.04057	1078524
9.04870	1012006
9.05682	782713
9.06495	559926
9.07307	411954
9.08118	353117
9.08932	340649
9.09743	367467
9.10557	394089
9.11368	391578
9.12180	374350
9.12993	327421
9.13805	296213
9.14618	269688
9.15430	257708
9.16242	244200
9.17055	231156
9.17867	240305
9.18678	244579
9.19492	260017
9.20303	322761
9.21117	441667
9.21928	565062
9.22740	602207
9.23553	560844
9.24365	454144
9.25178	335330
9.25990	272675
9.26802	234920
9.27615	226703
9.28427	209819
9.29240	220372
9.30052	257056
9.30863	303866
9.31677	429873
9.32488	568609
9.33300	722512
9.34113	790382
9.34925	756062
9.35738	610384
9.36550	486797
9.37362	417862
9.38175	372528
9.38987	353947
9.39800	342519
9.40612	333813
9.41423	323379
9.42237	323237
9.43048	334554
9.43860	323184
9.44673	337338
9.45485	350144
9.46298	357260
9.47110	355124
9.47922	333772
9.48735	317364
9.49547	314697
9.50360	317779
9.51172	349200
9.51983	450113
9.52797	642500
9.53608	915059
9.54422	1126256
9.55233	1167824
9.56045	969375
9.56858	683548
9.57670	478525
9.58482	357366
9.59295	317184
9.60107	302079
9.60920	291167
9.61732	304505
9.62543	325021
9.63357	329629
9.64168	320216
9.64982	288419
9.65793	275855
9.66605	274890
9.67418	264467
9.68230	254379
9.69043	276061
9.69855	306819
9.70667	369431
9.71480	412199
9.72292	437238
9.73103	398178
9.73917	366246
9.74728	302150
9.75542	268328
9.76353	259033
9.77165	249478
9.77978	238728
9.78790	229053
9.79603	223885
9.80415	213530
9.81227	210718
9.82040	219804
9.82852	212835
9.83663	213402
9.84477	209758
9.85288	205792
9.86102	208732
9.86913	214900
9.87725	223985
9.88538	233656
9.89350	221602
9.90163	220843
9.90975	210744
9.91787	202328
9.92600	190861
9.93412	193261
9.94225	193263
9.95037	186617
9.95848	198823
9.96662	204280
9.97473	229089
9.98285	439999
9.99098	1171173
9.99910	3055284
10.00723	6498436
10.01535	1.055423E+07
10.02347	1.310425E+07
10.03160	1.214466E+07
10.03972	8579673
10.04785	4791320
10.05597	2264188
10.06408	1132750
10.07222	691510
10.08033	544341
10.08847	614924
10.09658	856386
10.10470	1261702
10.11283	1749131
10.12095	2059692
10.12907	2047523
10.13720	1791047
10.14532	1470597
10.15345	1151201
10.16157	943679
10.16968	812268
10.17782	728995
10.18593	654585
10.19407	636984
10.20218	623274
10.21030	599709
10.21843	589607
10.22655	590492
10.23468	577238
10.24280	594699
10.25092	601623
10.25905	620729
10.26717	617312
10.27528	577743
10.28342	547814
10.29153	526743
10.29967	515259
10.30778	495529
10.31590	493873
10.32403	498389
10.33215	469657
10.34028	454609
10.34840	438428
10.35652	434787
10.36465	416558
10.37277	394091
10.38088	397154
10.38902	399412
10.39713	383733
10.40527	377379
10.41338	389501
10.42150	390188
10.42963	379662
10.43775	374873
10.44588	344035
10.45400	330075
10.46212	331315
10.47025	308105
10.47837	295892
10.48650	292988
10.49462	279726
10.50273	272723
10.51087	277790
10.51898	274438
10.52710	252654
10.53523	262969
10.54335	255412
10.55148	269980
10.55960	265033
10.56772	275115
10.57585	289235
10.58397	306389
10.59210	315904
10.60022	314894
10.60833	292971
10.61647	268426
10.62458	255472
10.63272	233077
10.64083	231870
10.64895	230716
10.65708	253809
10.66520	334585
10.67332	535976
10.68145	866708
10.68957	1149853
10.69770	1264611
10.70582	1228079
10.71393	1383890
10.72207	1779955
10.73018	2120060
10.73832	2003102
10.74643	1456255
10.75455	896419
10.76268	528554
10.77080	360941
10.77893	296816
10.78705	285845
10.79517	265571
10.80330	258957
10.81142	279833
10.81953	293778
10.82767	313161
10.83578	320298
10.84392	328320
10.85203	335696
10.86015	357502
10.86828	363517
10.87640	338824
10.88453	307481
10.89265	270259
10.90077	258731
10.90890	230678
10.91702	223304
10.92513	222650
10.93327	222744
10.94138	223322
10.94952	225921
10.95763	239892
10.96575	249040
10.97388	245550
10.98200	226721
10.99013	184018
10.99825	145972
11.00637	132621
11.01450	120360
11.02262	113732
11.03075	112286
11.03887	107538
11.04698	111626
11.05512	105934
11.06323	115621
11.07135	116500
11.07948	111172
11.08760	100911
11.09573	94073
11.10385	104732
11.11197	101618
11.12010	109349
11.12822	118001
11.13635	129846
11.14447	147642
11.15258	156094
11.16072	144329
11.16883	133432
11.17697	124609
11.18508	106862
11.19320	105804
11.20133	103877
11.20945	94217
11.21757	105569
11.22570	97610
11.23382	93042
11.24195	89664
11.25007	88705
11.25818	92818
11.26632	87187
11.27443	90921
11.28257	91450
11.29068	111641
11.29880	139658
11.30693	171508
11.31505	189682
11.32317	178244
11.33130	166125
11.33942	126259
11.34755	109700
11.35567	105280
11.36378	108616
11.37192	156450
11.38003	300097
11.38817	693441
11.39628	1469238
11.40440	2644434
11.41253	3833695
11.42065	4497120
11.42878	4415912
11.43690	3779474
11.44502	3004034
11.45315	2223881
11.46127	1597893
11.46938	1134562
11.47752	865281
11.48563	843423
11.49377	966876
11.50188	1165728
11.51000	1388558
11.51813	1617048
11.52625	1771424
11.53438	1805884
11.54250	1754744
11.55062	1539636
11.55875	1373576
11.56687	1261066
11.57500	1215455
11.58312	1207269
11.59123	1193555
11.59937	1172651
11.60748	1170375
11.61560	1154548
11.62373	1118919
11.63185	1107223
11.63998	1094156
11.64810	1065912
11.65622	1055185
11.66435	1039843
11.67247	1026874
11.68060	1037434
11.68872	1031837
11.69683	1048770
11.70497	1002564
11.71308	977865
11.72122	955670
11.72933	945656
11.73745	903359
11.74558	919516
11.75370	909694
11.76182	892293
11.76995	885888
11.77807	875077
11.78620	859562
11.79432	863348
11.80243	853208
11.81057	865445
11.81868	935847
11.82682	1020018
11.83493	1071949
11.84305	1132810
11.85118	1083202
11.85930	979174
11.86742	885543
11.87555	818277
11.88367	825493
11.89180	811907
11.89992	816217
11.90803	823972
11.91617	832482
11.92428	826902
11.93242	829202
11.94053	790320
11.94865	811913
11.95678	804687
11.96490	771978
11.97303	757685
11.98115	735966
11.98927	723689
11.99740	692698
12.00552	696976
12.01363	690683
12.02177	707930
12.02988	710474
12.03802	740420
12.04613	713285
12.05425	698242
12.06238	718088
12.07050	763048
12.07863	876031
12.08675	1017733
12.09487	1106154
12.10300	1123220
12.11112	1024412
12.11925	942103
12.12737	864826
12.13548	871226
12.14362	900479
12.15173	914896
12.15985	949714
12.16798	917066
12.17610	837648
12.18423	741303
12.19235	662276
12.20047	612131
12.20860	584434
12.21672	564781
12.22485	545422
12.23297	536568
12.24108	547365
12.24922	536740
12.25733	530464
12.26545	514922
12.27358	483364
12.28170	478460
12.28983	461120
12.29795	458018
12.30607	468453
12.31420	457773
12.32232	441381
12.33045	456526
12.33857	455029
12.34668	479262
12.35482	489256
12.36293	493448
12.37107	492201
12.37918	477806
12.38730	465986
12.39543	489352
12.40355	560229
12.41167	744424
12.41980	997716
12.42792	1206906
12.43605	1261777
12.44417	1123376
12.45228	886751
12.46042	655953
12.46853	541255
12.47667	477762
12.48478	466772
12.49290	460418
12.50103	473566
12.50915	458328
12.51728	445419
12.52540	428671
12.53352	411523
12.54165	406285
12.54977	410301
12.55788	390427
12.56602	389374
12.57413	372104
12.58227	383796
12.59038	374577
12.59850	386489
12.60663	392094
12.61475	443141
12.62288	551782
12.63100	669668
12.63912	777923
12.64725	804773
12.65537	720519
12.66348	630448
12.67162	559908
12.67973	533838
12.68787	540383
12.69598	555637
12.70410	558493
12.71223	567014
12.72035	558164
12.72848	563948
12.73660	553678
12.74472	539634
12.75285	536620
12.76097	532000
12.76910	538667
12.77722	539358
12.78533	561250
12.79347	572874
12.80158	601936
12.80970	597109
12.81783	565205
12.82595	480599
12.83408	424317
12.84220	387044
12.85032	371915
12.85845	357426
12.86657	372238
12.87470	378795
12.88282	385495
12.89093	381239
12.89907	371969
12.90718	356750
12.91532	333333
12.92343	320723
12.93155	334761
12.93968	316603
12.94780	304488
12.95592	298983
12.96405	286733
12.97217	290429
12.98030	295249
12.98842	291737
12.99653	321036
13.00467	323414
13.01278	336129
13.02092	327419
13.02903	306039
13.03715	292851
13.04528	281196
13.05340	268444
13.06153	272919
13.06965	262046
13.07777	252937
13.08590	246089
13.09402	264930
13.10213	255755
13.11027	247349
13.11838	251142
13.12652	252585
13.13463	253377
13.14275	248712
13.15088	255314
13.15900	278536
13.16713	327310
13.17525	362814
13.18337	393483
13.19150	391457
13.19962	346263
13.20773	301117
13.21587	252528
13.22398	214444
13.23212	201401
13.24023	178124
13.24835	169176
13.25648	158555
13.26460	151389
13.27273	153772
13.28085	154112
13.28897	143413
13.29710	135069
13.30522	130250
13.31335	126942
13.32147	139091
13.32958	172610
13.33772	211251
13.34583	283314
13.35395	328141
13.36208	322322
13.37020	294873
13.37833	259147
13.38645	221321
13.39457	191134
13.40270	160953
13.41082	145833
13.41895	137931
13.42707	130661
13.43518	131808
13.44332	123574
13.45143	122139
13.45957	124147
13.46768	117721
13.47580	121961
13.48393	111557
13.49205	107425
13.50017	105547
13.50830	107228
13.51642	119662
13.52455	108303
13.53267	110510
13.54078	101951
13.54892	103260
13.55703	103115
13.56517	104367
13.57328	93340
13.58140	100182
13.58953	93854
13.59765	92256
13.60577	96105
13.61390	92850
13.62202	97449
13.63015	99200
13.63827	91913
13.64638	90751
13.65452	94055
13.66263	93200
13.67077	95430
13.67888	107473
13.68700	98704
13.69513	93579
13.70325	87627
13.71138	90568
13.71950	93103
13.72762	85433
13.73575	86769
13.74387	82375
13.75198	83033
13.76012	86363
13.76823	86693
13.77637	88092
13.78448	82431
13.79260	81860
13.80073	84894
13.80885	77787
13.81698	83231
13.82510	75061
13.83322	82154
13.84135	82356
13.84947	78283
13.85760	80549
13.86572	75030
13.87383	70467
13.88197	61716
13.89008	54489
13.89820	56766
13.90633	57064
13.91445	54265
13.92258	57504
13.93070	57134
13.93882	57508
13.94695	54466
13.95507	57857
13.96320	55687
13.97132	61831
13.97943	61685
13.98757	61114
13.99568	77584
14.00380	129617
14.01193	225165
14.02005	361017
14.02818	481647
14.03630	513399
14.04442	455617
14.05255	350111
14.06067	233909
14.06880	161031
14.07692	134897
14.08503	117315
14.09317	114061
14.10128	126007
14.10942	113577
14.11753	100015
14.12565	101227
14.13378	95259
14.14190	86887
14.15002	83746
14.15815	84738
14.16627	77014
14.17440	90217
14.18252	92549
14.19063	117267
14.19877	152540
14.20688	200930
14.21502	219857
14.22313	215846
14.23125	189993
14.23938	159602
14.24750	142941
14.25563	122406
14.26375	102709
14.27187	93027
14.28000	83522
14.28812	78501
14.29623	81144
14.30437	83319
14.31248	72383
14.32062	74899
14.32873	74488
14.33685	72165
14.34498	67550
14.35310	69029
14.36123	68947
14.36935	71058
14.37747	64241
14.38560	66711
14.39372	64603
14.40185	63746
14.40997	66764
14.41808	66987
14.42622	62820
14.43433	66945
14.44245	74697
14.45058	68471
14.45870	76599
14.46683	82407
14.47495	106908
14.48307	128746
14.49120	152835
14.49932	153297
14.50745	151119
14.51557	130544
14.52368	116273
14.53182	114422
14.53993	104894
14.54805	117764
14.55618	126361
14.56430	138103
14.57243	140631
14.58055	146011
14.58867	121921
14.59680	109266
14.60492	99273
14.61305	94211
14.62117	86519
14.62928	85207
14.63742	75440
14.64553	77393
14.65367	76718
14.66178	71358
14.66990	72707
14.67803	73726
14.68615	63797
14.69427	69042
14.70240	61845
14.71052	59969
14.71865	61934
14.72677	60099
14.73488	52730
14.74302	62673
14.75113	61599
14.75927	61256
14.76738	64055
14.77550	72046
14.78363	68385
14.79175	65829
14.79988	67653
14.80800	63847
14.81612	67763
14.82425	57681
14.83237	57236
14.84048	58523
14.84862	61251
14.85673	53454
14.86487	54410
14.87298	52282
14.88110	54475
14.88923	54213
14.89735	57570
14.90548	71695
14.91360	75967
14.92172	78512
14.92985	84726
14.93797	93760
14.94608	99987
14.95422	104508
14.96233	108280
14.97047	110377
14.97858	109108
14.98670	115006
14.99483	116602
15.00295	129817
15.01108	136914
15.01920	134469
15.02732	132400
15.03545	120117
15.04357	116100
15.05170	100902
15.05982	98485
15.06793	91977
15.07607	95089
15.08418	91649
15.09230	89372
15.10043	91085
15.10855	88195
15.11668	93898
15.12480	88291
15.13292	101175
15.14105	87165
15.14917	90453
15.15730	85845
15.16542	95516
15.17353	93151
15.18167	87629
15.18978	98032
15.19792	91928
15.20603	91031
15.21415	88154
15.22228	84544
15.23040	91799
15.23852	96526
15.24665	109051
15.25477	129678
15.26290	155035
15.27102	187325
15.27913	194614
15.28727	183997
15.29538	154551
15.30352	137476
15.31163	124231
15.31975	111529
15.32788	96399
15.33600	95286
15.34412	83454
15.35225	85900
15.36037	79567
15.36850	78988
15.37662	80312
15.38473	75994
15.39287	74971
15.40098	69135
15.40912	73365
15.41723	68418
15.42535	65762
15.43348	63273
15.44160	66629
15.44973	63873
15.45785	69672
15.46597	67411
15.47410	67037
15.48222	74236
15.49033	76623
15.49847	69119
15.50658	65902
15.51472	64694
15.52283	61139
15.53095	60372
15.53908	56129
15.54720	58578
15.55533	54556
15.56345	54547
15.57157	60937
15.57970	59910
15.58782	53498
15.59595	53262
15.60407	55356
15.61218	46191
15.62032	51401
15.62843	53298
15.63655	48492
15.64468	47244
15.65280	43011
15.66093	45282
15.66905	49070
15.67717	42429
15.68530	45103
15.69342	45326
15.70155	44667
15.70967	52945
15.71778	47184
15.72592	50140
15.73403	47739
15.74217	47355
15.75028	46512
15.75840	47580
15.76653	47188
15.77465	49301
15.78277	49608
15.79090	43655
15.79902	49200
15.80715	47531
15.81527	46015
15.82338	45034
15.83152	45182
15.83963	49961
15.84777	46448
15.85588	47235
15.86400	44973
15.87213	41415
15.88025	44392
15.88837	45202
15.89650	45823
15.90462	44950
15.91275	42910
15.92087	42318
15.92898	41710
15.93712	45030
15.94523	44015
15.95337	47206
15.96148	43523
15.96960	42411
15.97773	46351
15.98585	43375
15.99398	42342
16.00210	40899
16.01022	41907
16.01835	44625
16.02647	45952
16.03458	42889
16.04272	44357
16.05083	45212
16.05897	48528
16.06708	41222
16.07520	45175
16.08333	44246
16.09145	39302
16.09958	39185
16.10770	41527
16.11582	39543
16.12395	39369
16.13207	40242
16.14020	46200
16.14832	38489
16.15643	38762
16.16457	38829
16.17268	41803
16.18080	42636
16.18893	44782
16.19705	52638
16.20518	71230
16.21330	124263
16.22142	226900
16.22955	360494
16.23767	469426
16.24580	471937
16.25392	389906
16.26203	269885
16.27017	181832
16.27828	130363
16.28640	101531
16.29453	92424
16.30265	84129
16.31078	102054
16.31890	95072
16.32702	114629
16.33515	121939
16.34327	130713
16.35140	140790
16.35952	121598
16.36763	102371
16.37577	93226
16.38388	88509
16.39202	86247
16.40013	82123
16.40825	75492
16.41638	66499
16.42450	64632
16.43262	76313
16.44075	75444
16.44887	73670
16.45700	71544
16.46512	70006
16.47323	64209
16.48137	60624
16.48948	56430
16.49762	58243
16.50573	63128
16.51385	52058
16.52198	52154
16.53010	51941
16.53823	48870
16.54635	55290
16.55447	52803
16.56260	49309
16.57072	53331
16.57883	49610
16.58697	56841
16.59508	56815
16.60322	54724
16.61133	53995
16.61945	60857
16.62758	54794
16.63570	53250
16.64383	49539
16.65195	58031
16.66007	55955
16.66820	56010
16.67632	66934
16.68443	59021
16.69257	57687
16.70068	59553
16.70882	55549
16.71693	52167
16.72505	52778
16.73318	49258
16.74130	48686
16.74943	50544
16.75755	53099
16.76567	60812
16.77380	54535
16.78192	54203
16.79005	55227
16.79817	57539
16.80628	57140
16.81442	60831
16.82253	60181
16.83065	58350
16.83878	62367
16.84690	67520
16.85503	76565
16.86315	74343
16.87127	72720
16.87940	62031
16.88752	56697
16.89565	51991
16.90377	51046
16.91188	59898
16.92002	56433
16.92813	54920
16.93627	52907
16.94438	56142
16.95250	57735
16.96063	52318
16.96875	51621
16.97687	51861
16.98500	47862
16.99312	52957
17.00125	48514
17.00937	43922
17.01748	52004
17.02562	45950
17.03373	46291
17.04187	41873
17.04998	42384
17.05810	45089
17.06623	45998
17.07435	46081
17.08248	42950
17.09060	44077
17.09872	46585
17.10685	45802
17.11497	45869
17.12308	47788
17.13122	47199
17.13933	44003
17.14747	48125
17.15558	60652
17.16370	57039
17.17183	59696
17.17995	69949
17.18808	66390
17.19620	65122
17.20432	65040
17.21245	64018
17.22057	59957
17.22868	59426
17.23682	58038
17.24493	60447
17.25307	55316
17.26118	52369
17.26930	55312
17.27743	52131
17.28555	57708
17.29368	51120
17.30180	54664
17.30992	51359
17.31805	49061
17.32617	47656
17.33430	50779
17.34242	55688
17.35053	54531
17.35867	48181
17.36678	47461
17.37490	47895
17.38303	47213
17.39115	46784
17.39928	45361
17.40740	48803
17.41552	44973
17.42365	42501
17.43177	40598
17.43990	39350
17.44802	40091
17.45613	47277
17.46427	36735
17.47238	46878
17.48052	39363
17.48863	39297
17.49675	39341
17.50488	41696
17.51300	46274
17.52112	45758
17.52925	46590
17.53737	53638
17.54550	48587
17.55362	53193
17.56173	59430
17.56987	47657
17.57798	47956
17.58612	44552
17.59423	46130
17.60235	45547
17.61048	43565
17.61860	52996
17.62672	52072
17.63485	43706
17.64297	45691
17.65110	49305
17.65922	50583
17.66733	56670
17.67547	52898
17.68358	49320
17.69172	58161
17.69983	49877
17.70795	48580
17.71608	47633
17.72420	46999
17.73233	45481
17.74045	41584
17.74857	44111
17.75670	47038
17.76482	51254
17.77293	60518
17.78107	67641
17.78918	78632
17.79732	83689
17.80543	92528
17.81355	88734
17.82168	86981
17.82980	81631
17.83793	79172
17.84605	74459
17.85417	73673
17.86230	71504
17.87042	68617
17.87855	63738
17.88667	73830
17.89478	68922
17.90292	60072
17.91103	64774
17.91915	57226
17.92728	59310
17.93540	58871
17.94353	57333
17.95165	55480
17.95977	56488
17.96790	55290
17.97602	56300
17.98415	55906
17.99227	47839
18.00038	48574
18.00852	45225
18.01663	41275
18.02475	48137
18.03288	50115
18.04100	44659
18.04913	48380
18.05725	48370
18.06537	57619
18.07350	64672
18.08162	75794
18.08975	67697
18.09787	68086
18.10598	67511
18.11412	68330
18.12223	63601
18.13037	59094
18.13848	57637
18.14660	54440
18.15473	53015
18.16285	53416
18.17097	54630
18.17910	55176
18.18722	51126
18.19535	49572
18.20347	50634
18.21158	53207
18.21972	47576
18.22783	44868
18.23597	49335
18.24408	45348
18.25220	48673
18.26033	49148
18.26845	52221
18.27658	52303
18.28470	57960
18.29282	64305
18.30095	72563
18.30907	72773
18.31718	67405
18.32532	59415
18.33343	52422
18.34157	45565
18.34968	44919
18.35780	45822
18.36593	44328
18.37405	38069
18.38218	51648
18.39030	42420
18.39842	43358
18.40655	44007
18.41467	41104
18.42280	36869
18.43092	42050
18.43903	39370
18.44717	40112
18.45528	40566
18.46340	40994
18.47153	40847
18.47965	39474
18.48778	50432
18.49590	47531
18.50402	59682
18.51215	60537
18.52027	66969
18.52840	67968
18.53652	68237
18.54463	69577
18.55277	67094
18.56088	67457
18.56900	68971
18.57713	67548
18.58525	59778
18.59338	58000
18.60150	60902
18.60962	55134
18.61775	61770
18.62587	124402
18.63400	162089
18.64212	198843
18.65023	208343
18.65837	221381
18.66648	218945
18.67462	220971
18.68273	219881
18.69085	208157
18.69898	205118
18.70710	199947
18.71522	211490
18.72335	188520
18.73147	180195
18.73960	184733
18.74772	171762
18.75583	169566
18.76397	165353
18.77208	151688
18.78022	146085
18.78833	141902
18.79645	137242
18.80458	133777
18.81270	134794
18.82083	137141
18.82895	133075
18.83707	129181
18.84520	125774
18.85332	126812
18.86143	120132
18.86957	116557
18.87768	111498
18.88582	104351
18.89393	106842
18.90205	104003
18.91018	102007
18.91830	110278
18.92643	111167
18.93455	118249
18.94267	130816
18.95080	137966
18.95892	149576
18.96703	150245
18.97517	132144
18.98328	125861
18.99142	109418
18.99953	107136
19.00765	95523
19.01578	92451
19.02390	92279
19.03203	97519
19.04015	101983
19.04827	109598
19.05640	100339
19.06452	94149
19.07265	94660
19.08077	91969
19.08888	87607
19.09702	84120
19.10513	78495
19.11325	80110
19.12138	77629
19.12950	72478
19.13763	75059
19.14575	78389
19.15387	68613
19.16200	70572
19.17012	70322
19.17825	65686
19.18637	68493
19.19448	77199
19.20262	82348
19.21073	91759
19.21887	90736
19.22698	88273
19.23510	82672
19.24323	72771
19.25135	67822
19.25947	60970
19.26760	58659
19.27572	55289
19.28385	62893
19.29197	57005
19.30008	51706
19.30822	50990
19.31633	58793
19.32447	50964
19.33258	50941
19.34070	53221
19.34883	61494
19.35695	56014
19.36507	57255
19.37320	57942
19.38132	52870
19.38945	52484
19.39757	55040
19.40568	49600
19.41382	53639
19.42193	57855
19.43007	60326
19.43818	58871
19.44630	60721
19.45443	58917
19.46255	51487
19.47068	46928
19.47880	50475
19.48692	46529
19.49505	50341
19.50317	46311
19.51128	46334
19.51942	43038
19.52753	52116
19.53567	50685
19.54378	61887
19.55190	74006
19.56003	71067
19.56815	76599
19.57628	70343
19.58440	66337
19.59252	82330
19.60065	63698
19.60877	64421
19.61690	59403
19.62502	66755
19.63313	54857
19.64127	55552
19.64938	53377
19.65750	50916
19.66563	58591
19.67375	56002
19.68188	50378
19.69000	45135
19.69812	45772
19.70625	55877
19.71437	52382
19.72250	51008
19.73062	53268
19.73873	47892
19.74687	46837
19.75498	48685
19.76312	49078
19.77123	49570
19.77935	55493
19.78748	71841
19.79560	80260
19.80372	95627
19.81185	105696
19.81997	104534
19.82810	92529
19.83622	78895
19.84433	63201
19.85247	56434
19.86058	48261
19.86872	46866
19.87683	52464
19.88495	43173
19.89308	49665
19.90120	41941
19.90932	45975
19.91745	41967
19.92557	43539
19.93370	43639
19.94182	42614
19.94993	49953
19.95807	44147
19.96618	41756
19.97432	43581
19.98243	42283
19.99055	47915
19.99868	45901
20.00680	48484
20.01493	54076
20.02305	67949
20.03117	100150
20.03930	153711
20.04742	203770
20.05553	257818
20.06367	286095
20.07178	257650
20.07992	211056
20.08803	162020
20.09615	133062
20.10428	116946
20.11240	93661
20.12053	79702
20.12865	76910
20.13677	65483
20.14490	63687
20.15302	59268
20.16115	55100
20.16927	57051
20.17738	52680
20.18552	54670
20.19363	50804
20.20175	58052
20.20988	58778
20.21800	49925
20.22613	50312
20.23425	49604
20.24237	47470
20.25050	55774
20.25862	48470
20.26675	44178
20.27487	43694
20.28298	46164
20.29112	45674
20.29923	39073
20.30735	46248
20.31548	44472
20.32360	41630
20.33173	43623
20.33985	40029
20.34797	46927
20.35610	55876
20.36422	73904
20.37235	86085
20.38047	108916
20.38858	122025
20.39672	122716
20.40483	117108
20.41297	109540
20.42108	109627
20.42920	98674
20.43733	97548
20.44545	92570
20.45357	87286
20.46170	91786
20.46982	80460
20.47795	78894
20.48607	74340
20.49418	81143
20.50232	72990
20.51043	69144
20.51857	64506
20.52668	60181
20.53480	53676
20.54293	50618
20.55105	46979
20.55918	47519
20.56730	46697
20.57542	50203
20.58355	57073
20.59167	64719
20.59978	83867
20.60792	125618
20.61603	165628
20.62417	198895
20.63228	190322
20.64040	183153
20.64853	145174
20.65665	124432
20.66478	101825
20.67290	83188
20.68102	78394
20.68915	62930
20.69727	59726
20.70538	55744
20.71352	55092
20.72163	49748
20.72977	47421
20.73788	47513
20.74600	48494
20.75413	46715
20.76225	53819
20.77038	56051
20.77850	72940
20.78662	78171
20.79475	78497
20.80287	75810
20.81100	73945
20.81912	66392
20.82723	63501
20.83537	57120
20.84348	53788
20.85160	51887
20.85973	46107
20.86785	45582
20.87598	41659
20.88410	42931
20.89222	44538
20.90035	37417
20.90847	41812
20.91660	41125
20.92472	42293
20.93283	42790
20.94097	40728
20.94908	42552
20.95722	44739
20.96533	40760
20.97345	36991
20.98158	37036
20.98970	37184
20.99782	37633
21.00595	38567
21.01407	42220
21.02220	40072
21.03032	41181
21.03843	42135
21.04657	50329
21.05468	46557
21.06282	42382
21.07093	47492
21.07905	41933
21.08718	39457
21.09530	39804
21.10343	39820
21.11155	39256
21.11967	36018
21.12780	40709
21.13592	42744
21.14403	38630
21.15217	43430
21.16028	40457
21.16842	43751
21.17653	43614
21.18465	41410
21.19278	42570
21.20090	38260
21.20903	36319
21.21715	38075
21.22527	37900
21.23340	42000
21.24152	54634
21.24963	71890
21.25777	84860
21.26588	90738
21.27402	99148
21.28213	87787
21.29025	73262
21.29838	65759
21.30650	56069
21.31463	47407
21.32275	48370
21.33087	49142
21.33900	48956
21.34712	42136
21.35525	40316
21.36337	39848
21.37148	41723
21.37962	38949
21.38773	43254
21.39585	39163
21.40398	37831
21.41210	39690
21.42023	44761
21.42835	40510
21.43647	38521
21.44460	34231
21.45272	39988
21.46085	43012
21.46897	42036
21.47708	45328
21.48522	39416
21.49333	44570
21.50147	38177
21.50958	41475
21.51770	41165
21.52583	40957
21.53395	43243
21.54207	37779
21.55020	40486
21.55832	39146
21.56645	37340
21.57457	38015
21.58268	36484
21.59082	36087
21.59893	42612
21.60707	42938
21.61518	45615
21.62330	47766
21.63143	46753
21.63955	47337
21.64767	51540
21.65580	44939
21.66392	44036
21.67205	46493
21.68017	45085
21.68828	47095
21.69642	41622
21.70453	39604
21.71267	44239
21.72078	44519
21.72890	43370
21.73703	47770
21.74515	41432
21.75328	45113
21.76140	40507
21.76952	53646
21.77765	39943
21.78577	40264
21.79388	40774
21.80202	39302
21.81013	39325
21.81827	39045
21.82638	42321
21.83450	47953
21.84263	40546
21.85075	39519
21.85888	40444
21.86700	40311
21.87512	42223
21.88325	40091
21.89137	36203
21.89950	38207
21.90762	36960
21.91573	41599
21.92387	40313
21.93198	47260
21.94010	53367
21.94823	60147
21.95635	69500
21.96448	76705
21.97260	77087
21.98072	68673
21.98885	58740
21.99697	53532
22.00510	43606
22.01322	44923
22.02133	43247
22.02947	41998
22.03758	45980
22.04570	43442
22.05383	45309
22.06195	44142
22.07008	47472
22.07820	49097
22.08632	43820
22.09445	42681
22.10257	49322
22.11070	45925
22.11882	42298
22.12693	47878
22.13507	45558
22.14318	64436
22.15132	73160
22.15943	80822
22.16755	74290
22.17568	77604
22.18380	63828
22.19192	66181
22.20005	56052
22.20817	50979
22.21630	44279
22.22442	45807
22.23253	42964
22.24067	50976
22.24878	45091
22.25692	43786
22.26503	41803
22.27315	44435
22.28128	48137
22.28940	43719
22.29753	41873
22.30565	40942
22.31377	40389
22.32190	44186
22.33002	38866
22.33813	39534
22.34627	41192
22.35438	44181
22.36252	40151
22.37063	45109
22.37875	44583
22.38688	40217
22.39500	42662
22.40313	43092
22.41125	41086
22.41937	38431
22.42750	39893
22.43562	39549
22.44375	41082
22.45187	39952
22.45998	44859
22.46812	42888
22.47623	39877
22.48435	41352
22.49248	35156
22.50060	39965
22.50873	37305
22.51685	37698
22.52497	41040
22.53310	50213
22.54122	67254
22.54935	115947
22.55747	239732
22.56558	450173
22.57372	769598
22.58183	1043056
22.58995	1154917
22.59808	1023101
22.60620	786407
22.61433	520847
22.62245	328941
22.63057	221319
22.63870	164304
22.64682	141046
22.65495	117345
22.66307	96860
22.67118	89537
22.67932	91684
22.68743	87757
22.69557	72117
22.70368	69392
22.71180	67959
22.71993	67454
22.72805	64137
22.73617	56695
22.74430	66027
22.75242	54777
22.76055	55604
22.76867	51998
22.77678	49173
22.78492	51650
22.79303	52556
22.80117	60805
22.80928	50061
22.81740	52588
22.82553	53372
22.83365	57272
22.84178	51970
22.84990	49799
22.85802	55289
22.86615	48693
22.87427	52305
22.88238	48529
22.89052	46885
22.89863	44356
22.90677	46626
22.91488	48589
22.92300	43180
22.93113	43492
22.93925	42693
22.94738	41294
22.95550	43531
22.96362	41069
22.97175	44346
22.97987	42113
22.98800	44344
22.99612	40651
23.00423	36827
23.01237	40749
23.02048	40959
23.02860	40331
23.03673	35860
23.04485	38093
23.05298	37030
23.06110	50407
23.06922	40933
23.07735	38499
23.08547	38378
23.09360	40630
23.10172	47013
23.10983	38496
23.11797	39226
23.12608	42858
23.13420	39600
23.14233	42840
23.15045	45921
23.15858	46163
23.16670	53735
23.17482	49691
23.18295	59415
23.19107	53390
23.19920	50774
23.20732	52066
23.21543	47732
23.22357	48058
23.23168	46498
23.23982	42162
23.24793	41506
23.25605	41364
23.26418	43279
23.27230	40390
23.28042	38888
23.28855	37820
23.29667	48315
23.30480	35703
23.31292	39120
23.32103	43825
23.32917	43855
23.33728	44208
23.34542	50071
23.35353	54561
23.36165	64105
23.36978	72906
23.37790	78729
23.38603	79583
23.39415	89495
23.40227	86760
23.41040	88920
23.41852	85564
23.42663	89242
23.43477	90585
23.44288	94990
23.45102	88541
23.45913	82392
23.46725	92209
23.47538	87727
23.48350	88909
23.49163	83385
23.49975	86334
23.50787	77999
23.51600	74774
23.52412	68447
23.53223	63606
23.54037	72444
23.54848	58489
23.55662	57935
23.56473	56035
23.57285	58266
23.58098	65442
23.58910	73280
23.59723	81915
23.60535	77953
23.61347	74267
23.62160	75152
23.62972	65642
23.63785	61612
23.64597	58848
23.65408	53650
23.66222	51545
23.67033	46780
23.67845	46883
23.68658	43588
23.69470	47826
23.70283	44133
23.71095	42242
23.71907	42170
23.72720	43058
23.73532	45611
23.74345	45905
23.75157	44236
23.75968	41902
23.76782	40631
23.77593	38356
23.78407	45441
23.79218	48692
23.80030	39881
23.80843	38402
23.81655	45829
23.82467	38870
23.83280	39748
23.84092	40125
23.84905	37467
23.85717	36238
23.86528	45239
23.87342	37812
23.88153	39912
23.88967	39992
23.89778	41810
23.90590	46828
23.91403	37549
23.92215	37885
23.93028	41888
23.93840	37131
23.94652	41521
23.95465	37272
23.96277	39281
23.97088	37255
23.97902	37142
23.98713	45848
23.99527	39158
24.00338	38850
24.01150	40283
24.01963	42831
24.02775	44561
24.03588	45013
24.04400	51148
24.05212	55922
24.06025	53959
24.06837	68717
24.07648	57569
24.08462	56166
24.09273	65411
24.10087	59093
24.10898	59879
24.11710	52972
24.12523	58062
24.13335	60561
24.14148	64742
24.14960	70679
24.15772	67166
24.16585	78319
24.17397	92256
24.18210	91134
24.19022	94662
24.19833	96906
24.20647	90356
24.21458	91353
24.22270	96538
24.23083	137692
24.23895	251738
24.24708	630839
24.25520	1467453
24.26332	2743528
24.27145	4050969
24.27957	4670351
24.28770	4583779
24.29582	3851028
24.30393	3035840
24.31207	2311474
24.32018	1737190
24.32832	1298025
24.33643	1041457
24.34455	801869
24.35268	638430
24.36080	530330
24.36892	443233
24.37705	393548
24.38517	365477
24.39330	351891
24.40142	336032
24.40953	298627
24.41767	265316
24.42578	227582
24.43392	190159
24.44203	170169
24.45015	161243
24.45828	145568
24.46640	127027
24.47452	113759
24.48265	107454
24.49077	95859
24.49890	97658
24.50702	89952
24.51513	91913
24.52327	91378
24.53138	92217
24.53952	92827
24.54763	90673
24.55575	82088
24.56388	79041
24.57200	77405
24.58013	69614
24.58825	68294
24.59637	68791
24.60450	64884
24.61262	71235
24.62073	70223
24.62887	66841
24.63698	70569
24.64512	69130
24.65323	74496
24.66135	91890
24.66948	130305
24.67760	173068
24.68573	229093
24.69385	272480
24.70197	298303
24.71010	298918
24.71822	290039
24.72635	261437
24.73447	212973
24.74258	181755
24.75072	157726
24.75883	130157
24.76695	121473
24.77508	111111
24.78320	97911
24.79133	88892
24.79945	85740
24.80757	95176
24.81570	88268
24.82382	87811
24.83195	89610
24.84007	74961
24.84818	75971
24.85632	64609
24.86443	58851
24.87255	54096
24.88068	53466
24.88880	50932
24.89693	49218
24.90505	54720
24.91317	55869
24.92130	47386
24.92942	50557
24.93755	52798
24.94567	51944
24.95378	51988
24.96192	47618
24.97003	51480
24.97817	48644
24.98628	50306
24.99440	56970
25.00253	46333
25.01065	42326
25.01877	45135
25.02690	55536
25.03502	45181
25.04315	54652
25.05127	47925
25.05938	48936
25.06752	43938
25.07563	50201
25.08377	56914
25.09188	46202
25.10000	56806
25.10813	44848
25.11625	45514
25.12438	55395
25.13250	47913
25.14062	47637
25.14875	54996
25.15687	47227
25.16498	53060
25.17312	62501
25.18123	51833
25.18937	48222
25.19748	46073
25.20560	45790
25.21373	45145
25.22185	42519
25.22998	47629
25.23810	45326
25.24622	48513
25.25435	52990
25.26247	59220
25.27060	63149
25.27872	66787
25.28683	80094
25.29497	71259
25.30308	76928
25.31120	70404
25.31933	82037
25.32745	78503
25.33558	69155
25.34370	66721
25.35182	71006
25.35995	60678
25.36807	74659
25.37620	66446
25.38432	63490
25.39243	60423
25.40057	59713
25.40868	68461
25.41680	65739
25.42493	63761
25.43305	59479
25.44118	53874
25.44930	55466
25.45742	61142
25.46555	51459
25.47367	53552
25.48180	50648
25.48992	46227
25.49803	45732
25.50617	44587
25.51428	42339
25.52242	47184
25.53053	51408
25.53865	55153
25.54678	49812
25.55490	45640
25.56302	47384
25.57115	44009
25.57927	44599
25.58740	45304
25.59552	42322
25.60363	49807
25.61177	58878
25.61988	56832
25.62802	60572
25.63613	74356
25.64425	84720
25.65238	95352
25.66050	83287
25.66863	81049
25.67675	72436
25.68487	68532
25.69300	56148
25.70112	58105
25.70923	48057
25.71737	47129
25.72548	47742
25.73362	45742
25.74173	48808
25.74985	44895
25.75798	42973
25.76610	49595
25.77423	48598
25.78235	49172
25.79047	51833
25.79860	55017
25.80672	52476
25.81483	60199
25.82297	58765
25.83108	57846
25.83922	53141
25.84733	58603
25.85545	61525
25.86358	52396
25.87170	50792
25.87983	53165
25.88795	43267
25.89607	49363
25.90420	47558
25.91232	51390
25.92045	50603
25.92857	46767
25.93668	45317
25.94482	41509
25.95293	46240
25.96105	40754
25.96918	45294
25.97730	42128
25.98543	40570
25.99355	46888
26.00167	46050
26.00980	42993
26.01792	47716
26.02605	45910
26.03417	43616
26.04228	47148
26.05042	40017
26.05853	40112
26.06667	47322
26.07478	38213
26.08290	50497
26.09103	41804
26.09915	38980
26.10727	39219
26.11540	36922
26.12352	42488
26.13165	42868
26.13977	41043
26.14788	41044
26.15602	49089
26.16413	40720
26.17227	49555
26.18038	46403
26.18850	41630
26.19663	43065
26.20475	39177
26.21287	48733
26.22100	45690
26.22912	40714
26.23725	44407
26.24537	49344
26.25348	47967
26.26162	39705
26.26973	44725
26.27787	42786
26.28598	41087
26.29410	44408
26.30223	46571
26.31035	53670
26.31848	58816
26.32660	74958
26.33472	92841
26.34285	114532
26.35097	150016
26.35908	181214
26.36722	199395
26.37533	193565
26.38347	162927
26.39158	135761
26.39970	114225
26.40783	96496
26.41595	88372
26.42408	94479
26.43220	101336
26.44032	107638
26.44845	111283
26.45657	93230
26.46470	83518
26.47282	67662
26.48093	69670
26.48907	49660
26.49718	48369
26.50530	49817
26.51343	44468
26.52155	46735
26.52968	45599
26.53780	43944
26.54592	45174
26.55405	43765
26.56217	44523
26.57030	43038
26.57842	44762
26.58653	41313
26.59467	43784
26.60278	43896
26.61092	42103
26.61903	41066
26.62715	48953
26.63528	44942
26.64340	47738
26.65152	49412
26.65965	52450
26.66777	59434
26.67590	59807
26.68402	61251
26.69213	65122
26.70027	63931
26.70838	54358
26.71652	55250
26.72463	52579
26.73275	56761
26.74088	46458
26.74900	47666
26.75712	44710
26.76525	45559
26.77337	43923
26.78150	42944
26.78962	41233
26.79773	43252
26.80587	42563
26.81398	40286
26.82212	40951
26.83023	44392
26.83835	41476
26.84648	43204
26.85460	41960
26.86273	39733
26.87085	38401
26.87897	47395
26.88710	49209
26.89522	40442
26.90333	40903
26.91147	39728
26.91958	38724
26.92772	48527
26.93583	38280
26.94395	37229
26.95208	37978
26.96020	41552
26.96833	41534
26.97645	39376
26.98457	42784
26.99270	51960
27.00082	50425
27.00895	41414
27.01707	46055
27.02518	43809
27.03332	45878
27.04143	44678
27.04955	40256
27.05768	41474
27.06580	39806
27.07393	43528
27.08205	43966
27.09017	42742
27.09830	53287
27.10642	44852
27.11455	43343
27.12267	42507
27.13078	42063
27.13892	50350
27.14703	45652
27.15515	42828
27.16328	45833
27.17140	46761
27.17953	45974
27.18765	46960
27.19577	55532
27.20390	50089
27.21202	55017
27.22015	44441
27.22827	47912
27.23638	50306
27.24452	44294
27.25263	50948
27.26077	45648
27.26888	51110
27.27700	48997
27.28513	58629
27.29325	48794
27.30137	49886
27.30950	50098
27.31762	49883
27.32575	48380
27.33387	47253
27.34198	45976
27.35012	50562
27.35823	45243
27.36637	43895
27.37448	46164
27.38260	45531
27.39073	47951
27.39885	45889
27.40698	55354
27.41510	73123
27.42322	117685
27.43135	203313
27.43947	313984
27.44758	461321
27.45572	605997
27.46383	715723
27.47197	744918
27.48008	714796
27.48820	642449
27.49633	557805
27.50445	484980
27.51258	388722
27.52070	308338
27.52882	256367
27.53695	218901
27.54507	182622
27.55318	159235
27.56132	149719
27.56943	121704
27.57757	109491
27.58568	94550
27.59380	93011
27.60193	85529
27.61005	82603
27.61818	72392
27.62630	71129
27.63442	67746
27.64255	66829
27.65067	72009
27.65880	76532
27.66692	87654
27.67503	98559
27.68317	110352
27.69128	131148
27.69940	130377
27.70753	128788
27.71565	121817
27.72378	98207
27.73190	80802
27.74002	77979
27.74815	71129
27.75627	72851
27.76440	62365
27.77252	61963
27.78063	64927
27.78877	61879
27.79688	61474
27.80502	58530
27.81313	54328
27.82125	53819
27.82938	55114
27.83750	54985
27.84562	57505
27.85375	55932
27.86187	51575
27.87000	53430
27.87812	52462
27.88623	51328
27.89437	48545
27.90248	52251
27.91062	51650
27.91873	48250
27.92685	52290
27.93498	51360
27.94310	48986
27.95123	49789
27.95935	47937
27.96747	47906
27.97560	46704
27.98372	48161
27.99183	47584
27.99997	50004
28.00808	41571
28.01622	45672
28.02433	45042
28.03245	42971
28.04058	42952
28.04870	43206
28.05683	43608
28.06495	46794
28.07307	45488
28.08120	42854
28.08932	39973
28.09743	40970
28.10557	45365
28.11368	46323
28.12182	49367
28.12993	50746
28.13805	46199
28.14618	46976
28.15430	56693
28.16243	49549
28.17055	46888
28.17867	50030
28.18680	52290
28.19492	45290
28.20305	45980
28.21117	45906
28.21928	42612
28.22742	43170
28.23553	43661
28.24365	42415
28.25178	43073
28.25990	47483
28.26803	46270
28.27615	50650
28.28427	51379
28.29240	60254
28.30052	68632
28.30865	78180
28.31677	72521
28.32488	70011
28.33302	70609
28.34113	56766
28.34927	58533
28.35738	53510
28.36550	50376
28.37363	45544
28.38175	45481
28.38987	43423
28.39800	41973
28.40612	46739
28.41425	44137
28.42237	42364
28.43048	45500
28.43862	50398
28.44673	47169
28.45487	58110
28.46298	61650
28.47110	56318
28.47923	61651
28.48735	52209
28.49547	53540
28.50360	53112
28.51172	58716
28.51985	56069
28.52797	49100
28.53608	54043
28.54422	52236
28.55233	47692
28.56047	48923
28.56858	53132
28.57670	50901
28.58483	49226
28.59295	47763
28.60108	48058
28.60920	47355
28.61732	48010
28.62545	49610
28.63357	49751
28.64168	52741
28.64982	50142
28.65793	54155
28.66607	50789
28.67418	50776
28.68230	48947
28.69043	58053
28.69855	53885
28.70668	63856
28.71480	86880
28.72292	94178
28.73105	112193
28.73917	130092
28.74730	156646
28.75542	161368
28.76353	170510
28.77167	177745
28.77978	175844
28.78790	185964
28.79603	176045
28.80415	173037
28.81228	176623
28.82040	174965
28.82852	167352
28.83665	155388
28.84477	144253
28.85290	131446
28.86102	128744
28.86913	118222
28.87727	110363
28.88538	101027
28.89350	96863
28.90163	92346
28.90975	89601
28.91788	84025
28.92600	82371
28.93412	79106
28.94225	77989
28.95037	72231
28.95850	71568
28.96662	64884
28.97473	63368
28.98287	61441
28.99098	61263
28.99912	59981
29.00723	59084
29.01535	59930
29.02348	60615
29.03160	61611
29.03972	57633
29.04785	55224
29.05597	58305
29.06410	57020
29.07222	60210
29.08033	65940
29.08847	65710
29.09658	72305
29.10472	67080
29.11283	65004
29.12095	55170
29.12908	54301
29.13720	51479
29.14533	50152
29.15345	59955
29.16157	53881
29.16970	53411
29.17782	62824
29.18593	61399
29.19407	58332
29.20218	59937
29.21032	58431
29.21843	60417
29.22655	54585
29.23468	49802
29.24280	53199
29.25093	52998
29.25905	49516
29.26717	48025
29.27530	50136
29.28342	47996
29.29155	49074
29.29967	51468
29.30778	52719
29.31592	53179
29.32403	52857
29.33215	48198
29.34028	48258
29.34840	44067
29.35653	39515
29.36465	44561
29.37277	48773
29.38090	46057
29.38902	43699
29.39715	54058
29.40527	48685
29.41338	43715
29.42152	42223
29.42963	43872
29.43775	45492
29.44588	52184
29.45400	47166
29.46213	42410
29.47025	49180
29.47837	53397
29.48650	47574
29.49462	55948
29.50275	50898
29.51087	48022
29.51898	46134
29.52712	46837
29.53523	43890
29.54337	46962
29.55148	46282
29.55960	42124
29.56773	42311
29.57585	46465
29.58397	44966
29.59210	41840
29.60022	48220
29.60835	42190
29.61647	44166
29.62458	43882
29.63272	47184
29.64083	46699
29.64897	46142
29.65708	46759
29.66520	53081
29.67333	47364
29.68145	49916
29.68958	48792
29.69770	48556
29.70582	50719
29.71395	52778
29.72207	55983
29.73018	44036
29.73832	44130
29.74643	46733
29.75457	43161
29.76268	45044
29.77080	46200
29.77893	48652
29.78705	47868
29.79518	54879
29.80330	50097
29.81142	48999
29.81955	48733
29.82767	47387
29.83578	44639
29.84392	42672
29.85203	46287
29.86017	42719
29.86828	45767
29.87640	44826
29.88453	44472
29.89265	42519
29.90078	47040
29.90890	42652
29.91702	44458
29.92515	42614
29.93327	49592
29.94140	51782
29.94952	47064
29.95763	50222
29.96577	47598
29.97388	49157
29.98200	47530
29.99013	48583
29.99825	44257
30.00638	42837
30.01450	44609
30.02262	45367
30.03075	50592
30.03887	49794
30.04700	50949
30.05512	57144
30.06323	49655
30.07137	46541
30.07948	47894
30.08762	51247
30.09573	49646
30.10385	44876
30.11198	51329
30.12010	44420
30.12822	45230
30.13635	51917
30.14447	48524
30.15260	52516
30.16072	52911
30.16883	63563
30.17697	55306
30.18508	54130
30.19322	49865
30.20133	55865
30.20945	61985
30.21758	52163
30.22570	53951
30.23382	54340
30.24195	49869
30.25007	54809
30.25820	49450
30.26632	47581
30.27443	49606
30.28257	51148
30.29068	46046
30.29882	55149
30.30693	53687
30.31505	65182
30.32318	71024
30.33130	79684
30.33943	90105
30.34755	90569
30.35567	103144
30.36380	109720
30.37192	110808
30.38003	113919
30.38817	114919
30.39628	109641
30.40442	115790
30.41253	123277
30.42065	137884
30.42878	142650
30.43690	158110
30.44503	160305
30.45315	144979
30.46127	130037
30.46940	119169
30.47752	108492
30.48565	93807
30.49377	82019
30.50188	82960
30.51002	84978
30.51813	83430
30.52625	71771
30.53438	68944
30.54250	71791
30.55063	72284
30.55875	64004
30.56687	69678
30.57500	65042
30.58312	61911
30.59125	67321
30.59937	58066
30.60748	57663
30.61562	60507
30.62373	62168
30.63187	60636
30.63998	58233
30.64810	55438
30.65623	55891
30.66435	59066
30.67247	56980
30.68060	54550
30.68872	51170
30.69685	54625
30.70497	55255
30.71308	49689
30.72122	52239
30.72933	53164
30.73747	48335
30.74558	48791
30.75370	47725
30.76183	57404
30.76995	49315
30.77807	51428
30.78620	58401
30.79432	60620
30.80245	55283
30.81057	56299
30.81868	48237
30.82682	50103
30.83493	51605
30.84307	49975
30.85118	53261
30.85930	48761
30.86743	58876
30.87555	45069
30.88368	48847
30.89180	50117
30.89992	46264
30.90805	47712
30.91617	44566
30.92428	48994
30.93242	47489
30.94053	45887
30.94867	49134
30.95678	48121
30.96490	45330
30.97303	46166
30.98115	45845
30.98928	47669
30.99740	52125
31.00552	47504
31.01365	51714
31.02177	47304
31.02990	46375
31.03802	46998
31.04613	44303
31.05427	48161
31.06238	46153
31.07050	42505
31.07863	48103
31.08675	47453
31.09488	51656
31.10300	43685
31.11112	45564
31.11925	46583
31.12737	45702
31.13550	44761
31.14362	43832
31.15173	52590
31.15987	44922
31.16798	45575
31.17610	43242
31.18423	49015
31.19235	54831
31.20048	50557
31.20860	46224
31.21672	51063
31.22485	50128
31.23297	46082
31.24110	46240
31.24922	44349
31.25733	45378
31.26547	49036
31.27358	44521
31.28172	53588
31.28983	44694
31.29795	48236
31.30608	50522
31.31420	54109
31.32232	71566
31.33045	101137
31.33857	159905
31.34670	217738
31.35482	266611
31.36293	268785
31.37107	231834
31.37918	180185
31.38732	128445
31.39543	94251
31.40355	71089
31.41168	64894
31.41980	68663
31.42793	59336
31.43605	52613
31.44417	57834
31.45230	55082
31.46042	49042
31.46853	50037
31.47667	49803
31.48478	54165
31.49292	51971
31.50103	47309
31.50915	50191
31.51728	49076
31.52540	51327
31.53353	52650
31.54165	52888
31.54977	56573
31.55790	50064
31.56602	58897
31.57413	57521
31.58227	58485
31.59038	54226
31.59852	51775
31.60663	53992
31.61475	64299
31.62288	82672
31.63100	115823
31.63913	162158
31.64725	218350
31.65537	280215
31.66350	292430
31.67162	275959
31.67975	242274
31.68787	169392
31.69598	117505
31.70412	86228
31.71223	66781
31.72035	63984
31.72848	67629
31.73660	58090
31.74473	62637
31.75285	56113
31.76097	61112
31.76910	54839
31.77722	52491
31.78535	51995
31.79347	52001
31.80158	50903
31.80972	54319
31.81783	48798
31.82597	62281
31.83408	48182
31.84220	49014
31.85033	49251
31.85845	46187
31.86657	50769
31.87470	56842
31.88282	52600
31.89095	51119
31.89907	46615
31.90718	46703
31.91532	48795
31.92343	50403
31.93157	58023
31.93968	49383
31.94780	48791
31.95593	50003
31.96405	45843
31.97218	51102
31.98030	47766
31.98842	52000
31.99655	48319
32.00467	50270
32.01278	47090
32.02092	49227
32.02903	49902
32.03717	52746
32.04528	49911
32.05340	57313
32.06153	55307
32.06965	54448
32.07778	48417
32.08590	49253
32.09402	50001
32.10215	53173
32.11027	58055
32.11838	51367
32.12652	54727
32.13463	50994
32.14277	51569
32.15088	56818
32.15900	53967
32.16713	46196
32.17525	50908
32.18338	49979
32.19150	47139
32.19962	51291
32.20775	52809
32.21587	50196
32.22400	52464
32.23212	56025
32.24023	53609
32.24837	56983
32.25648	62544
32.26460	81126
32.27273	87129
32.28085	95504
32.28898	98051
32.29710	100681
32.30522	100021
32.31335	97914
32.32147	101131
32.32960	93001
32.33772	99196
32.34583	89876
32.35397	90394
32.36208	86583
32.37022	86085
32.37833	85021
32.38645	89246
32.39458	91152
32.40270	90240
32.41082	87803
32.41895	90822
32.42707	94772
32.43520	95539
32.44332	92917
32.45143	97188
32.45957	84897
32.46768	77446
32.47582	73978
32.48393	68372
32.49205	65486
32.50018	62063
32.50830	58793
32.51642	55882
32.52455	58234
32.53267	63169
32.54080	63870
32.54892	57024
32.55703	63511
32.56517	57816
32.57328	51802
32.58142	55375
32.58953	49880
32.59765	54354
32.60578	48914
32.61390	54579
32.62203	52228
32.63015	54707
32.63827	53183
32.64640	55312
32.65452	50435
32.66263	50974
32.67077	50343
32.67888	57866
32.68702	61075
32.69513	52518
32.70325	54390
32.71138	52809
32.71950	49438
32.72763	53069
32.73575	49775
32.74387	52076
32.75200	47281
32.76012	57882
32.76825	51425
32.77637	54503
32.78448	56886
32.79262	49957
32.80073	51351
32.80885	55932
32.81698	52884
32.82510	56115
32.83323	53732
32.84135	50478
32.84947	53355
32.85760	52397
32.86572	55509
32.87385	55872
32.88197	53626
32.89008	50650
32.89822	52178
32.90633	60064
32.91445	56545
32.92258	58685
32.93070	50159
32.93883	61144
32.94695	54476
32.95507	56909
32.96320	59226
32.97132	63823
32.97945	60756
32.98757	63985
32.99568	58864
33.00382	57813
33.01193	56886
33.02007	58015
33.02818	60549
33.03630	53686
33.04443	52693
33.05255	55951
33.06067	49531
33.06880	52263
33.07692	59350
33.08505	51534
33.09317	58260
33.10128	52345
33.10942	51015
33.11753	55700
33.12567	53520
33.13378	55776
33.14190	55979
33.15003	54490
33.15815	51726
33.16628	50254
33.17440	57656
33.18252	54858
33.19065	53079
33.19877	50713
33.20688	51188
33.21502	54793
33.22313	59625
33.23127	55123
33.23938	52462
33.24750	54675
33.25563	54533
33.26375	59403
33.27188	57999
33.28000	51698
33.28812	62558
33.29625	54090
33.30437	56084
33.31250	50110
33.32062	52290
33.32873	60941
33.33687	49687
33.34498	52135
33.35310	46258
33.36123	51362
33.36935	58458
33.37748	54258
33.38560	62559
33.39372	52998
33.40185	58224
33.40997	54946
33.41810	49830
33.42622	49842
33.43433	56374
33.44247	60470
33.45058	49954
33.45870	54315
33.46683	52603
33.47495	51890
33.48308	51027
33.49120	55898
33.49932	53827
33.50745	56441
33.51557	65308
33.52370	58317
33.53182	62448
33.53993	61863
33.54807	53208
33.55618	53520
33.56432	55275
33.57243	56564
33.58055	53726
33.58868	50604
33.59680	58804
33.60492	56068
33.61305	49769
33.62117	62599
33.62930	59604
33.63742	72763
33.64553	69257
33.65367	71774
33.66178	83096
33.66992	74163
33.67803	71433
33.68615	68408
33.69428	62878
33.70240	61529
33.71053	61523
33.71865	59125
33.72677	56777
33.73490	57784
33.74302	54074
33.75113	55690
33.75927	56418
33.76738	53078
33.77552	47829
33.78363	61487
33.79175	52940
33.79988	57792
33.80800	55245
33.81613	68183
33.82425	58893
33.83237	60991
33.84050	57245
33.84862	55649
33.85675	55262
33.86487	53296
33.87298	55093
33.88112	54260
33.88923	55113
33.89735	55599
33.90548	52705
33.91360	53233
33.92173	52039
33.92985	53628
33.93797	53837
33.94610	51563
33.95422	63661
33.96235	54861
33.97047	54253
33.97858	53996
33.98672	54567
33.99483	51969
34.00295	60175
34.01108	53331
34.01920	54023
34.02733	59536
34.03545	55754
34.04357	53413
34.05170	56313
34.05982	58266
34.06795	57158
34.07607	53719
34.08418	57599
34.09232	56080
34.10043	62973
34.10857	54456
34.11668	50392
34.12480	59573
34.13293	55432
34.14105	59901
34.14917	54863
34.15730	56134
34.16542	58313
34.17355	55085
34.18167	59521
34.18978	52791
34.19792	53000
34.20603	58644
34.21417	59658
34.22228	60116
34.23040	57799
34.23853	59554
34.24665	59796
34.25478	65470
34.26290	58146
34.27102	55040
34.27915	55130
34.28727	63016
34.29538	57021
34.30352	56338
34.31163	56302
34.31977	56354
34.32788	57194
34.33600	62833
34.34413	55192
34.35225	58617
34.36038	55147
34.36850	52505
34.37662	57803
34.38475	61329
34.39287	60246
34.40098	64302
34.40912	59203
34.41723	69538
34.42537	60243
34.43348	60964
34.44160	60928
34.44973	60826
34.45785	59764
34.46598	66185
34.47410	55088
34.48222	56982
34.49035	60172
34.49847	59136
34.50660	60814
34.51472	59097
34.52283	57815
34.53097	56968
34.53908	59300
34.54720	55237
34.55533	58804
34.56345	61039
34.57158	56691
34.57970	54818
34.58782	55859
34.59595	63515
34.60407	58085
34.61220	57341
34.62032	56106
34.62843	68008
34.63657	58597
34.64468	61933
34.65282	60939
34.66093	60100
34.66905	54853
34.67718	57988
34.68530	56614
34.69342	60762
34.70155	63238
34.70967	61027
34.71780	57118
34.72592	68455
34.73403	58650
34.74217	57944
34.75028	67500
34.75842	57754
34.76653	53126
34.77465	55495
34.78278	59240
34.79090	63526
34.79903	59967
34.80715	58341
34.81527	56965
34.82340	55684
34.83152	63353
34.83963	66310
34.84777	61727
34.85588	66553
34.86402	82710
34.87213	93644
34.88025	103387
34.88838	109654
34.89650	111328
34.90463	110338
34.91275	104089
34.92087	101605
34.92900	88536
34.93712	86756
34.94523	80118
34.95337	78741
34.96148	83192
34.96962	71801
34.97773	76030
34.98585	69039
34.99398	66984
35.00210	72979
35.01023	63580
35.01835	65326
35.02647	68430
35.03460	66357
35.04272	67793
35.05085	66633
35.05897	63565
35.06708	71573
35.07522	65053
35.08333	63465
35.09145	65177
35.09958	62346
35.10770	61249
35.11583	68726
35.12395	62400
35.13207	61626
35.14020	56391
35.14832	59573
35.15645	66233
35.16457	64627
35.17268	64764
35.18082	61639
35.18893	63964
35.19707	63851
35.20518	60811
35.21330	63840
35.22143	61444
35.22955	59487
35.23767	65759
35.24580	62461
35.25392	59910
35.26205	68510
35.27017	68254
35.27828	67660
35.28642	61446
35.29453	62400
35.30267	63417
35.31078	60854
35.31890	62002
35.32703	62058
35.33515	62713
35.34327	65666
35.35140	64027
35.35952	64299
35.36765	64002
35.37577	62970
35.38388	65958
35.39202	62596
35.40013	66136
35.40827	73936
35.41638	63603
35.42450	72991
35.43263	61480
35.44075	60821
35.44888	65612
35.45700	72581
35.46512	66381
35.47325	72631
35.48137	72115
35.48948	72628
35.49762	73743
35.50573	84467
35.51387	74368
35.52198	71729
35.53010	69018
35.53823	68855
35.54635	68422
35.55448	64740
35.56260	73095
35.57072	69623
35.57885	69209
35.58697	76390
35.59510	80314
35.60322	72033
35.61133	69189
35.61947	74169
35.62758	68793
35.63570	69585
35.64383	79271
35.65195	68430
35.66008	77980
35.66820	70889
35.67632	69366
35.68445	68152
35.69257	67442
35.70070	73072
35.70882	68771
35.71693	76216
35.72507	63914
35.73318	65187
35.74130	65117
35.74943	65708
35.75755	68990
35.76568	63592
35.77380	67036
35.78192	70031
35.79005	69286
35.79817	76504
35.80630	70225
35.81442	71025
35.82253	69158
35.83067	66083
35.83878	67245
35.84692	68517
35.85503	65536
35.86315	63666
35.87128	61355
35.87940	65456
35.88752	66035
35.89565	75737
35.90377	64926
35.91190	67321
35.92002	65851
35.92813	64687
35.93627	66962
35.94438	66289
35.95252	73673
35.96063	74350
35.96875	63979
35.97688	70973
35.98500	71636
35.99313	75459
36.00125	79684
36.00937	76618
36.01750	84964
36.02562	78283
36.03373	72598
36.04187	74716
36.04998	75573
36.05812	71442
36.06623	78831
36.07435	72733
36.08248	72544
36.09060	71175
36.09873	77302
36.10685	70316
36.11497	69830
36.12310	71703
36.13122	75465
36.13935	66909
36.14747	69800
36.15558	72872
36.16372	78708
36.17183	68235
36.17995	67439
36.18808	71010
36.19620	71378
36.20433	71547
36.21245	71725
36.22057	70197
36.22870	70995
36.23682	72482
36.24495	74346
36.25307	79762
36.26118	81187
36.26932	74493
36.27743	70300
36.28555	71901
36.29368	70918
36.30180	68015
36.30993	73592
36.31805	76254
36.32617	71235
36.33430	69444
36.34242	77365
36.35055	70869
36.35867	72304
36.36678	69201
36.37492	73975
36.38303	80638
36.39117	73637
36.39928	69302
36.40740	71469
36.41553	72417
36.42365	71092
36.43177	69112
36.43990	70842
36.44802	70415
36.45615	74570
36.46427	71986
36.47238	66200
36.48052	68833
36.48863	73263
36.49677	78180
36.50488	67955
36.51300	68910
36.52113	76270
36.52925	80298
36.53738	72317
36.54550	72445
36.55362	78815
36.56175	81026
36.56987	76620
36.57798	80684
36.58612	84176
36.59423	84854
36.60237	86544
36.61048	85296
36.61860	77679
36.62673	85573
36.63485	81916
36.64298	84462
36.65110	86254
36.65922	88343
36.66735	90234
36.67547	89706
36.68358	94468
36.69172	86138
36.69983	82564
36.70797	84857
36.71608	81382
36.72420	76807
36.73233	79038
36.74045	75823
36.74858	79682
36.75670	79051
36.76482	73407
36.77295	69617
36.78107	75944
36.78920	73868
36.79732	76887
36.80543	79392
36.81357	73687
36.82168	77122
36.82980	78893
36.83793	79142
36.84605	87053
36.85418	76077
36.86230	77938
36.87042	74454
36.87855	76534
36.88667	79222
36.89480	85890
36.90292	83374
36.91103	76285
36.91917	77647
36.92728	89252
36.93542	77436
36.94353	78602
36.95165	77078
36.95978	85951
36.96790	87407
36.97602	88878
36.98415	94342
36.99227	92330
37.00040	94388
37.00852	92714
37.01663	90142
37.02477	86246
37.03288	77683
37.04102	77459
37.04913	89439
37.05725	79075
37.06538	77989
37.07350	77782
37.08162	84269
37.08975	88121
37.09787	81032
37.10600	83615
37.11412	79164
37.12223	83612
37.13037	74914
37.13848	83615
37.14662	89735
37.15473	80765
37.16285	80879
37.17098	80329
37.17910	80261
37.18723	81725
37.19535	77449
37.20347	78055
37.21160	82387
37.21972	81365
37.22783	81006
37.23597	78258
37.24408	81216
37.25222	78327
37.26033	80538
37.26845	80652
37.27658	82012
37.28470	87768
37.29283	82020
37.30095	81606
37.30907	79995
37.31720	86736
37.32532	81925
37.33345	82367
37.34157	77668
37.34968	83505
37.35782	83223
37.36593	77670
37.37405	81847
37.38218	87084
37.39030	83892
37.39843	78656
37.40655	80905
37.41467	91228
37.42280	86352
37.43092	93462
37.43905	85839
37.44717	85589
37.45528	81705
37.46342	84613
37.47153	83308
37.47967	85572
37.48778	84844
