C:\MassHunter\GCMS\1\data\JTB-E18\JTB-E18-027-05.D Wed Sep 18 09:56:05 2019
Start of data points
2.09527	80002
2.10338	78952
2.11150	79709
2.11963	84191
2.12775	86483
2.13588	84548
2.14400	91647
2.15212	87469
2.16025	83942
2.16837	92512
2.17650	87829
2.18462	87699
2.19273	83468
2.20087	80367
2.20898	82415
2.21710	85627
2.22523	87496
2.23335	77694
2.24148	74608
2.24960	80346
2.25772	82852
2.26585	104398
2.27397	585663
2.28210	1798671
2.29022	1406893
2.29833	581452
2.30647	348003
2.31458	274673
2.32272	255196
2.33083	231371
2.33895	208655
2.34708	191009
2.35520	165405
2.36332	152457
2.37145	144355
2.37957	170562
2.38770	275735
2.39582	234096
2.40393	165642
2.41207	149828
2.42018	147834
2.42832	159071
2.43643	143163
2.44455	151855
2.45268	157177
2.46080	140030
2.46893	128825
2.47705	117071
2.48517	129090
2.49330	131456
2.50142	145528
2.50953	132059
2.51767	123497
2.52578	121808
2.53392	117787
2.54203	117113
2.55015	130609
2.55828	131825
2.56640	125922
2.57453	112040
2.58265	107892
2.59077	116724
2.59890	117048
2.60702	111040
2.61513	130339
2.62327	140405
2.63138	135025
2.63952	121664
2.64763	110950
2.65575	117039
2.66388	124995
2.67200	140985
2.68013	186077
2.68825	192475
2.69637	139624
2.70450	115654
2.71262	111329
2.72075	108096
2.72887	107253
2.73698	109809
2.74512	111261
2.75323	109133
2.76135	109305
2.76948	108099
2.77760	102176
2.78573	100036
2.79385	103329
2.80197	110272
2.81010	122749
2.81822	143014
2.82635	342896
2.83447	888991
2.84258	950310
2.85072	501371
2.85883	317783
2.86695	292366
2.87508	253734
2.88320	188804
2.89133	154520
2.89945	140060
2.90757	134610
2.91570	130883
2.92382	119712
2.93195	112849
2.94007	107834
2.94818	102928
2.95632	104801
2.96443	104428
2.97257	99392
2.98068	101471
2.98880	106136
2.99693	116567
3.00505	146597
3.01317	158465
3.02130	199345
3.02942	475978
3.03755	974242
3.04567	1518670
3.05378	4338001
3.06192	1.076925E+07
3.07003	1.233629E+07
3.07817	7451146
3.08628	3565773
3.09440	1991234
3.10253	1298402
3.11065	896781
3.11878	683427
3.12690	527217
3.13502	429106
3.14315	366758
3.15127	318641
3.15938	277593
3.16752	267044
3.17563	256898
3.18377	239545
3.19188	213945
3.20000	194318
3.20813	185760
3.21625	176891
3.22438	195036
3.23250	204624
3.24062	194513
3.24875	166029
3.25687	158668
3.26498	151899
3.27312	150764
3.28123	255925
3.28937	867405
3.29748	2643867
3.30560	5083988
3.31373	5705265
3.32185	4109133
3.32998	2329125
3.33810	1289396
3.34622	870417
3.35435	682512
3.36247	587279
3.37060	706232
3.37872	1092621
3.38683	1292328
3.39497	1131252
3.40308	1437324
3.41120	3404694
3.41933	5574453
3.42745	4905678
3.43558	2814919
3.44370	1489274
3.45182	955674
3.45995	755728
3.46807	650799
3.47620	556055
3.48432	470303
3.49243	418843
3.50057	388929
3.50868	350182
3.51682	325790
3.52493	301395
3.53305	291845
3.54118	281432
3.54930	270486
3.55742	254751
3.56555	248156
3.57367	247961
3.58180	245516
3.58992	227563
3.59803	225913
3.60617	235959
3.61428	358662
3.62242	927264
3.63053	2252740
3.63865	3325571
3.64678	2886405
3.65490	1732102
3.66302	958831
3.67115	618200
3.67927	487266
3.68740	399038
3.69552	348295
3.70363	312408
3.71177	287511
3.71988	263036
3.72802	260615
3.73613	268791
3.74425	259488
3.75238	268860
3.76050	271984
3.76863	253123
3.77675	233488
3.78487	211927
3.79300	210872
3.80112	208703
3.80923	201766
3.81737	207296
3.82548	209591
3.83362	215912
3.84173	215412
3.84985	203878
3.85798	190647
3.86610	177683
3.87423	177693
3.88235	178796
3.89047	181272
3.89860	188130
3.90672	186441
3.91483	170686
3.92297	173411
3.93108	175044
3.93922	170388
3.94733	169733
3.95545	163751
3.96358	162227
3.97170	161854
3.97983	155698
3.98795	160172
3.99607	153308
4.00420	157438
4.01232	156998
4.02045	155602
4.02857	159973
4.03668	152977
4.04482	156303
4.05293	162795
4.06105	176008
4.06918	190585
4.07730	171312
4.08543	164785
4.09355	162979
4.10167	161743
4.10980	152030
4.11792	155688
4.12605	162663
4.13417	168418
4.14228	175832
4.15042	181245
4.15853	174326
4.16667	172374
4.17478	158533
4.18290	152097
4.19103	146142
4.19915	144080
4.20727	143051
4.21540	150954
4.22352	152381
4.23165	177213
4.23977	171737
4.24788	170496
4.25602	155579
4.26413	153943
4.27227	146548
4.28038	148403
4.28850	142987
4.29663	139938
4.30475	138324
4.31288	149859
4.32100	148113
4.32912	150200
4.33725	148496
4.34537	142501
4.35348	141904
4.36162	142411
4.36973	145004
4.37787	146075
4.38598	139325
4.39410	133420
4.40223	137061
4.41035	131825
4.41848	128497
4.42660	136712
4.43472	138930
4.44285	151829
4.45097	168833
4.45908	177173
4.46722	183419
4.47533	171329
4.48347	157475
4.49158	145915
4.49970	144926
4.50783	144129
4.51595	137949
4.52408	134772
4.53220	144941
4.54032	139451
4.54845	133595
4.55657	137386
4.56470	130456
4.57282	134737
4.58093	132891
4.58907	131489
4.59718	124350
4.60530	127877
4.61343	125981
4.62155	129302
4.62968	128174
4.63780	127560
4.64592	129989
4.65405	125886
4.66217	126359
4.67030	124667
4.67842	126187
4.68653	126297
4.69467	126766
4.70278	121167
4.71090	124938
4.71903	124879
4.72715	125683
4.73528	130198
4.74340	126996
4.75152	123824
4.75965	129935
4.76777	124548
4.77590	119100
4.78402	124667
4.79213	120228
4.80027	126759
4.80838	131479
4.81652	128123
4.82463	132045
4.83275	129484
4.84088	128466
4.84900	127775
4.85712	139505
4.86525	139589
4.87337	143983
4.88150	132947
4.88962	129010
4.89773	126579
4.90587	131653
4.91398	144704
4.92212	184524
4.93023	298347
4.93835	513104
4.94648	735076
4.95460	810502
4.96273	711330
4.97085	556655
4.97897	422218
4.98710	343019
4.99522	290034
5.00333	261793
5.01147	245303
5.01958	250793
5.02772	227478
5.03583	216947
5.04395	216662
5.05208	211658
5.06020	209273
5.06833	191377
5.07645	199717
5.08457	202308
5.09270	215805
5.10082	263273
5.10893	340393
5.11707	402259
5.12518	392975
5.13332	338213
5.14143	291328
5.14955	245482
5.15768	232354
5.16580	262760
5.17393	310523
5.18205	382109
5.19017	408732
5.19830	385751
5.20642	312833
5.21455	266106
5.22267	240225
5.23078	231381
5.23892	247375
5.24703	259205
5.25515	242055
5.26328	222546
5.27140	202584
5.27953	201296
5.28765	203935
5.29577	194782
5.30390	187376
5.31202	179905
5.32015	171097
5.32827	183626
5.33638	187068
5.34452	183909
5.35263	183225
5.36077	175605
5.36888	165679
5.37700	156739
5.38513	151073
5.39325	148399
5.40137	145808
5.40950	147531
5.41762	153541
5.42575	150662
5.43387	151644
5.44198	149428
5.45012	150314
5.45823	149013
5.46637	148615
5.47448	148343
5.48260	140643
5.49073	142562
5.49885	142042
5.50697	143535
5.51510	145109
5.52322	155275
5.53135	146185
5.53947	149577
5.54758	144130
5.55572	142147
5.56383	143722
5.57197	148114
5.58008	146241
5.58820	150284
5.59633	153685
5.60445	151617
5.61258	150989
5.62070	162314
5.62882	170382
5.63695	180927
5.64507	183029
5.65318	178191
5.66132	167287
5.66943	162923
5.67757	168045
5.68568	156926
5.69380	166152
5.70193	172502
5.71005	183963
5.71818	213807
5.72630	231682
5.73442	244338
5.74255	228562
5.75067	227722
5.75878	239568
5.76692	248581
5.77503	258198
5.78317	241247
5.79128	232283
5.79940	269801
5.80753	440884
5.81565	808899
5.82378	1303054
5.83190	1711240
5.84002	1702704
5.84815	1332340
5.85627	917265
5.86440	596553
5.87252	406207
5.88063	302749
5.88877	261064
5.89688	252804
5.90500	286362
5.91313	401725
5.92125	579938
5.92938	749594
5.93750	772361
5.94562	659088
5.95375	473186
5.96187	335753
5.97000	264801
5.97812	227279
5.98623	218215
5.99437	188992
6.00248	166185
6.01062	147259
6.01873	135914
6.02685	128589
6.03498	122520
6.04310	121393
6.05122	117707
6.05935	111971
6.06747	111036
6.07560	109494
6.08372	104731
6.09183	106440
6.09997	101059
6.10808	105196
6.11622	94757
6.12433	101651
6.13245	104598
6.14058	98894
6.14870	102297
6.15682	102848
6.16495	114982
6.17307	123199
6.18120	141880
6.18932	157777
6.19743	178273
6.20557	191463
6.21368	182165
6.22182	153538
6.22993	146250
6.23805	135562
6.24618	133297
6.25430	134710
6.26243	142218
6.27055	140504
6.27867	130005
6.28680	139756
6.29492	137247
6.30303	139924
6.31117	145580
6.31928	145206
6.32742	157764
6.33553	155976
6.34365	157491
6.35178	167221
6.35990	172805
6.36803	177407
6.37615	165199
6.38427	167561
6.39240	167575
6.40052	164424
6.40865	170728
6.41677	168300
6.42488	166307
6.43302	175958
6.44113	180846
6.44925	175752
6.45738	179720
6.46550	186116
6.47363	196370
6.48175	194482
6.48987	152368
6.49800	136856
6.50612	126092
6.51425	119596
6.52237	113760
6.53048	116399
6.53862	113115
6.54673	111357
6.55485	112530
6.56298	114410
6.57110	112246
6.57923	105056
6.58735	102215
6.59547	98780
6.60360	100710
6.61172	107743
6.61985	100775
6.62797	99682
6.63608	94497
6.64422	104740
6.65233	97545
6.66047	93154
6.66858	93959
6.67670	99058
6.68483	97254
6.69295	92400
6.70107	95247
6.70920	90214
6.71732	101186
6.72545	117132
6.73357	140381
6.74168	171985
6.74982	216902
6.75793	233409
6.76607	218770
6.77418	187226
6.78230	154837
6.79043	129319
6.79855	111618
6.80667	97054
6.81480	96259
6.82292	93759
6.83105	86927
6.83917	86965
6.84728	85439
6.85542	102711
6.86353	150369
6.87167	250601
6.87978	444744
6.88790	668966
6.89603	901998
6.90415	984081
6.91228	877362
6.92040	683760
6.92852	445652
6.93665	280263
6.94477	176409
6.95288	131708
6.96102	102069
6.96913	87894
6.97727	76476
6.98538	73160
6.99350	75265
7.00163	73645
7.00975	70138
7.01788	90023
7.02600	115570
7.03412	165608
7.04225	259515
7.05037	348725
7.05850	441507
7.06662	450159
7.07473	389358
7.08287	299382
7.09098	224431
7.09910	169537
7.10723	135615
7.11535	112239
7.12348	110460
7.13160	101439
7.13972	102658
7.14785	96946
7.15597	97834
7.16410	92407
7.17222	88784
7.18033	81337
7.18847	84997
7.19658	81600
7.20470	98454
7.21283	92897
7.22095	92147
7.22908	93080
7.23720	91037
7.24532	92743
7.25345	94061
7.26157	99162
7.26970	105801
7.27782	117895
7.28593	133369
7.29407	143784
7.30218	157604
7.31032	155420
7.31843	137277
7.32655	121997
7.33468	110864
7.34280	112196
7.35092	115801
7.35905	119126
7.36717	120806
7.37530	112468
7.38342	113593
7.39153	130759
7.39967	165828
7.40778	229415
7.41592	300188
7.42403	314069
7.43215	317404
7.44028	271273
7.44840	201840
7.45653	155974
7.46465	125385
7.47277	109166
7.48090	100083
7.48902	97040
7.49713	111994
7.50527	133034
7.51338	170365
7.52152	215106
7.52963	242048
7.53775	231966
7.54588	195274
7.55400	152699
7.56213	125190
7.57025	107438
7.57837	89757
7.58650	85098
7.59462	77153
7.60273	76065
7.61087	73386
7.61898	76742
7.62712	79189
7.63523	80666
7.64335	83510
7.65148	77871
7.65960	78350
7.66773	71289
7.67585	71748
7.68397	72168
7.69210	67258
7.70022	67103
7.70835	67743
7.71647	67165
7.72458	61102
7.73272	64699
7.74083	60500
7.74895	58307
7.75708	60054
7.76520	60211
7.77333	59817
7.78145	54575
7.78957	62080
7.79770	60046
7.80582	61236
7.81395	61754
7.82207	56869
7.83018	62911
7.83832	57488
7.84643	56940
7.85457	53805
7.86268	56951
7.87080	56744
7.87893	55530
7.88705	52683
7.89517	55724
7.90330	52655
7.91142	58092
7.91955	56545
7.92767	56088
7.93578	50589
7.94392	51800
7.95203	53847
7.96017	52271
7.96828	57057
7.97640	57506
7.98453	60791
7.99265	60065
8.00077	57102
8.00890	63594
8.01702	53078
8.02515	55019
8.03327	49536
8.04138	52546
8.04952	52421
8.05763	52826
8.06577	52805
8.07388	54199
8.08200	50905
8.09013	48338
8.09825	54126
8.10638	56371
8.11450	51641
8.12262	51810
8.13075	50158
8.13887	53691
8.14698	53047
8.15512	53683
8.16323	56026
8.17137	59768
8.17948	58186
8.18760	58662
8.19573	52878
8.20385	51041
8.21198	53066
8.22010	57623
8.22822	54221
8.23635	56619
8.24447	50958
8.25258	54485
8.26072	51778
8.26883	51080
8.27697	51449
8.28508	50933
8.29320	52413
8.30133	53024
8.30945	58725
8.31758	51046
8.32570	57671
8.33382	62482
8.34195	65423
8.35007	70416
8.35820	74721
8.36632	70817
8.37443	63270
8.38257	56735
8.39068	52393
8.39880	51432
8.40693	53102
8.41505	46878
8.42318	50437
8.43130	51402
8.43942	53180
8.44755	49270
8.45567	51137
8.46380	51302
8.47192	49581
8.48003	45196
8.48817	52910
8.49628	58883
8.50442	66601
8.51253	67010
8.52065	67950
8.52878	63879
8.53690	53455
8.54502	54508
8.55315	52952
8.56127	57458
8.56940	59822
8.57752	57854
8.58563	55884
8.59377	50918
8.60188	51134
8.61002	51580
8.61813	48767
8.62625	50749
8.63438	47835
8.64250	47861
8.65062	56112
8.65875	49422
8.66687	49689
8.67500	46954
8.68312	49200
8.69123	51341
8.69937	51311
8.70748	52477
8.71562	50883
8.72373	53598
8.73185	60465
8.73998	84138
8.74810	122472
8.75623	171709
8.76435	220319
8.77247	225970
8.78060	199206
8.78872	157795
8.79683	138609
8.80497	125768
8.81308	110695
8.82122	109790
8.82933	96638
8.83745	99901
8.84558	90351
8.85370	90306
8.86183	86891
8.86995	82636
8.87807	87593
8.88620	82916
8.89432	82465
8.90245	74171
8.91057	74340
8.91868	76218
8.92682	72959
8.93493	72840
8.94305	73531
8.95118	70423
8.95930	71338
8.96743	73503
8.97555	66586
8.98367	66492
8.99180	64865
8.99992	67060
9.00805	66977
9.01617	64592
9.02428	63512
9.03242	63725
9.04053	63761
9.04865	61145
9.05678	61345
9.06490	62362
9.07303	61755
9.08115	60562
9.08927	63808
9.09740	60945
9.10552	59954
9.11365	64974
9.12177	60731
9.12988	58753
9.13802	64792
9.14613	61331
9.15427	64476
9.16238	57483
9.17050	56638
9.17863	56102
9.18675	58522
9.19487	55652
9.20300	56386
9.21112	55557
9.21925	53522
9.22737	49727
9.23548	54997
9.24362	51363
9.25173	56637
9.25987	54869
9.26798	58767
9.27610	58887
9.28423	58431
9.29235	63018
9.30047	65607
9.30860	59770
9.31672	55837
9.32485	59321
9.33297	65894
9.34108	65505
9.34922	63375
9.35733	63253
9.36547	61719
9.37358	60628
9.38170	55904
9.38983	56050
9.39795	51309
9.40608	49551
9.41420	51742
9.42232	48905
9.43045	48722
9.43857	51651
9.44668	48352
9.45482	46204
9.46293	45836
9.47107	49273
9.47918	50225
9.48730	49659
9.49543	47410
9.50355	45182
9.51168	47227
9.51980	50316
9.52792	49265
9.53605	45525
9.54417	43964
9.55230	49874
9.56042	47951
9.56853	47947
9.57667	42327
9.58478	43495
9.59290	42311
9.60103	44646
9.60915	43750
9.61728	38494
9.62540	41999
9.63352	40551
9.64165	39574
9.64977	43711
9.65790	43015
9.66602	42295
9.67413	41235
9.68227	35747
9.69038	35375
9.69852	32246
9.70663	34479
9.71475	32686
9.72288	34518
9.73100	30936
9.73912	35487
9.74725	32501
9.75537	29844
9.76350	29254
9.77162	32115
9.77973	30325
9.78787	32585
9.79598	29438
9.80412	27872
9.81223	32731
9.82035	33771
9.82848	32282
9.83660	30671
9.84472	32250
9.85285	30558
9.86097	29028
9.86910	28964
9.87722	32744
9.88533	31331
9.89347	31923
9.90158	28730
9.90972	31115
9.91783	29313
9.92595	30363
9.93408	27941
9.94220	30561
9.95033	30111
9.95845	31646
9.96657	32591
9.97470	38148
9.98282	40069
9.99093	44600
9.99907	41669
10.00718	38898
10.01532	37363
10.02343	39791
10.03155	32540
10.03968	32316
10.04780	35718
10.05593	36856
10.06405	32358
10.07217	34746
10.08030	30884
10.08842	28969
10.09653	28950
10.10467	29590
10.11278	29386
10.12092	29579
10.12903	29014
10.13715	31289
10.14528	33699
10.15340	29859
10.16153	29602
10.16965	30097
10.17777	30818
10.18590	28767
10.19402	31797
10.20215	29243
10.21027	27384
10.21838	30694
10.22652	35235
10.23463	35823
10.24275	33235
10.25088	34712
10.25900	34215
10.26713	35484
10.27525	36674
10.28337	36906
10.29150	40372
10.29962	42660
10.30775	40353
10.31587	33070
10.32398	31073
10.33212	29845
10.34023	32434
10.34837	32122
10.35648	34636
10.36460	31467
10.37273	34273
10.38085	36826
10.38897	39266
10.39710	45720
10.40522	41214
10.41335	43907
10.42147	38310
10.42958	37150
10.43772	30577
10.44583	30239
10.45397	29341
10.46208	30754
10.47020	31803
10.47833	31136
10.48645	29316
10.49457	31646
10.50270	30134
10.51082	32073
10.51895	31363
10.52707	33943
10.53518	37214
10.54332	34603
10.55143	37717
10.55957	35108
10.56768	33562
10.57580	33996
10.58393	34444
10.59205	35196
10.60018	32852
10.60830	31207
10.61642	30902
10.62455	33002
10.63267	29364
10.64078	30302
10.64892	27265
10.65703	32361
10.66517	32588
10.67328	29671
10.68140	30648
10.68953	35468
10.69765	35622
10.70578	36450
10.71390	34904
10.72202	34914
10.73015	40409
10.73827	37987
10.74640	39954
10.75452	39912
10.76263	41957
10.77077	37548
10.77888	39869
10.78700	36159
10.79513	34711
10.80325	35071
10.81138	31659
10.81950	29217
10.82762	30968
10.83575	29077
10.84387	28787
10.85200	29010
10.86012	29629
10.86823	27859
10.87637	29535
10.88448	31478
10.89260	28719
10.90073	24265
10.90885	27842
10.91698	31271
10.92510	26446
10.93322	27040
10.94135	26933
10.94947	28397
10.95760	29432
10.96572	31885
10.97383	30008
10.98197	33416
10.99008	29674
10.99822	32710
11.00633	30535
11.01445	30473
11.02258	29266
11.03070	28713
11.03882	29447
11.04695	26067
11.05507	27785
11.06320	25609
11.07132	25739
11.07943	27038
11.08757	23900
11.09568	26940
11.10382	27086
11.11193	28923
11.12005	27735
11.12818	30506
11.13630	35196
11.14442	32573
11.15255	33314
11.16067	32099
11.16880	33979
11.17692	35036
11.18503	33869
11.19317	33162
11.20128	34474
11.20942	35105
11.21753	30674
11.22565	33462
11.23378	37392
11.24190	33314
11.25003	32569
11.25815	33269
11.26627	33570
11.27440	39568
11.28252	44443
11.29063	57233
11.29877	74935
11.30688	93633
11.31502	107775
11.32313	118112
11.33125	122855
11.33938	120165
11.34750	115649
11.35563	107556
11.36375	93776
11.37187	86220
11.38000	71620
11.38812	59210
11.39625	50788
11.40437	46051
11.41248	42770
11.42062	41986
11.42873	36381
11.43685	35434
11.44498	30797
11.45310	33268
11.46123	32941
11.46935	27180
11.47747	27887
11.48560	29819
11.49372	33015
11.50185	33190
11.50997	31764
11.51808	35270
11.52622	38993
11.53433	38280
11.54245	43037
11.55058	47580
11.55870	48156
11.56683	49215
11.57495	49538
11.58307	48209
11.59120	49835
11.59932	46621
11.60745	46145
11.61557	40879
11.62368	38030
11.63182	35143
11.63993	33754
11.64807	30741
11.65618	30537
11.66430	29745
11.67243	33058
11.68055	36769
11.68867	36676
11.69680	46590
11.70492	48039
11.71305	53840
11.72117	55342
11.72928	54446
11.73742	58158
11.74553	52942
11.75367	60422
11.76178	57169
11.76990	54237
11.77803	49921
11.78615	52544
11.79428	51155
11.80240	49085
11.81052	42192
11.81865	43630
11.82677	41306
11.83488	36778
11.84302	41901
11.85113	40174
11.85927	41412
11.86738	42308
11.87550	34472
11.88363	33943
11.89175	38736
11.89988	32736
11.90800	32358
11.91612	29437
11.92425	32008
11.93237	33613
11.94048	42786
11.94862	48768
11.95673	51785
11.96487	55654
11.97298	59778
11.98110	54916
11.98923	52499
11.99735	52714
12.00548	46285
12.01360	43810
12.02172	35612
12.02985	37683
12.03797	33031
12.04610	28011
12.05422	32092
12.06233	29269
12.07047	27962
12.07858	28932
12.08670	28491
12.09483	27924
12.10295	29328
12.11108	26006
12.11920	28335
12.12732	29664
12.13545	30014
12.14357	29536
12.15170	31387
12.15982	29151
12.16793	26962
12.17607	27584
12.18418	31213
12.19232	33499
12.20043	32294
12.20855	27325
12.21668	25982
12.22480	27716
12.23292	25234
12.24105	27118
12.24917	28156
12.25730	27238
12.26542	24329
12.27353	23139
12.28167	25199
12.28978	27013
12.29792	26684
12.30603	28469
12.31415	31071
12.32228	31507
12.33040	27078
12.33852	26626
12.34665	27587
12.35477	24319
12.36290	23510
12.37102	25787
12.37913	27297
12.38727	24171
12.39538	26168
12.40352	27350
12.41163	25347
12.41975	25837
12.42788	28261
12.43600	26775
12.44413	27028
12.45225	31363
12.46037	33671
12.46850	35803
12.47662	29165
12.48473	28753
12.49287	26862
12.50098	28199
12.50912	23898
12.51723	28847
12.52535	26202
12.53348	29046
12.54160	25579
12.54973	26936
12.55785	24844
12.56597	24513
12.57410	24016
12.58222	20899
12.59033	24034
12.59847	24571
12.60658	23554
12.61472	24382
12.62283	24287
12.63095	24233
12.63908	22175
12.64720	23407
12.65533	21304
12.66345	23213
12.67157	23468
12.67970	26498
12.68782	23836
12.69595	24157
12.70407	26547
12.71218	24920
12.72032	26958
12.72843	28915
12.73655	31072
12.74468	29190
12.75280	29230
12.76093	33023
12.76905	28726
12.77717	27532
12.78530	26115
12.79342	27499
12.80155	30591
12.80967	36585
12.81778	38393
12.82592	35617
12.83403	38767
12.84217	34556
12.85028	33086
12.85840	34857
12.86653	33738
12.87465	32701
12.88277	29353
12.89090	29601
12.89902	27440
12.90715	29065
12.91527	24222
12.92338	21576
12.93152	26156
12.93963	29616
12.94777	32943
12.95588	37981
12.96400	52502
12.97213	69381
12.98025	84929
12.98837	101229
12.99650	116031
13.00462	122647
13.01275	115890
13.02087	112171
13.02898	95182
13.03712	76955
13.04523	63937
13.05337	58441
13.06148	47809
13.06960	42603
13.07773	41259
13.08585	36594
13.09398	38017
13.10210	34295
13.11022	31969
13.11835	31104
13.12647	30659
13.13458	29554
13.14272	28936
13.15083	28378
13.15897	34216
13.16708	30040
13.17520	27811
13.18333	27192
13.19145	28989
13.19958	31346
13.20770	31960
13.21582	34070
13.22395	34505
13.23207	31949
13.24020	33163
13.24832	33336
13.25643	33246
13.26457	38504
13.27268	41871
13.28080	45293
13.28893	51788
13.29705	52820
13.30518	55670
13.31330	56824
13.32142	55556
13.32955	57352
13.33767	53399
13.34580	52647
13.35392	50228
13.36203	55084
13.37017	51765
13.37828	45248
13.38640	43361
13.39453	37540
13.40265	34507
13.41078	32175
13.41890	32189
13.42702	33031
13.43515	28842
13.44327	30440
13.45140	29014
13.45952	29261
13.46763	31295
13.47577	28466
13.48388	29116
13.49202	26377
13.50013	27299
13.50825	33054
13.51638	31776
13.52450	29497
13.53262	32820
13.54075	34927
13.54887	37782
13.55700	38219
13.56512	42636
13.57323	52325
13.58137	52099
13.58948	51299
13.59762	56671
13.60573	60725
13.61385	57795
13.62198	60656
13.63010	65303
13.63822	65509
13.64635	71039
13.65447	71247
13.66260	73932
13.67072	67955
13.67883	62570
13.68697	63219
13.69508	58264
13.70322	48153
13.71133	47909
13.71945	48707
13.72758	44634
13.73570	46012
13.74383	45338
13.75195	48796
13.76007	45937
13.76820	43001
13.77632	46095
13.78443	42951
13.79257	42387
13.80068	41076
13.80882	38567
13.81693	39956
13.82505	40556
13.83318	41834
13.84130	41451
13.84943	38272
13.85755	38902
13.86567	38893
13.87380	42169
13.88192	42499
13.89005	39776
13.89817	45081
13.90628	49031
13.91442	51804
13.92253	59570
13.93065	57389
13.93878	57461
13.94690	58167
13.95503	54946
13.96315	51296
13.97127	50354
13.97940	49552
13.98752	48515
13.99565	44998
14.00377	45762
14.01188	47224
14.02002	49818
14.02813	49494
14.03627	51339
14.04438	47983
14.05250	46661
14.06063	47671
14.06875	45319
14.07687	42909
14.08500	41437
14.09312	38808
14.10125	39093
14.10937	37396
14.11748	39219
14.12562	39121
14.13373	48906
14.14187	58699
14.14998	78985
14.15810	111774
14.16623	139558
14.17435	153372
14.18247	148923
14.19060	127919
14.19872	116358
14.20685	98219
14.21497	88688
14.22308	82385
14.23122	73626
14.23933	70468
14.24747	64590
14.25558	59178
14.26370	59171
14.27183	53652
14.27995	53409
14.28808	51240
14.29620	51726
14.30432	48477
14.31245	39919
14.32057	38389
14.32868	36734
14.33682	32335
14.34493	29442
14.35307	27434
14.36118	25855
14.36930	25942
14.37743	28435
14.38555	33659
14.39368	27595
14.40180	29938
14.40992	27812
14.41805	29098
14.42617	27995
14.43428	29181
14.44242	27702
14.45053	24982
14.45867	25477
14.46678	25921
14.47490	25702
14.48303	26611
14.49115	25961
14.49928	26668
14.50740	24734
14.51552	25973
14.52365	26449
14.53177	23714
14.53990	24173
14.54802	24519
14.55613	25987
14.56427	27339
14.57238	24684
14.58050	22634
14.58863	24761
14.59675	21114
14.60488	22471
14.61300	29896
14.62112	28038
14.62925	22546
14.63737	22900
14.64550	24449
14.65362	23269
14.66173	24811
14.66987	26657
14.67798	26111
14.68612	25228
14.69423	23831
14.70235	25136
14.71048	23161
14.71860	23935
14.72672	19942
14.73485	23930
14.74297	22048
14.75110	26805
14.75922	25352
14.76733	23294
14.77547	22961
14.78358	21661
14.79172	26577
14.79983	24881
14.80795	23911
14.81608	23245
14.82420	24157
14.83232	27345
14.84045	23547
14.84857	23689
14.85670	26284
14.86482	25690
14.87293	27342
14.88107	26112
14.88918	26329
14.89732	26866
14.90543	23938
14.91355	25868
14.92168	26352
14.92980	28981
14.93793	26672
14.94605	25975
14.95417	23460
14.96230	25489
14.97042	25407
14.97853	28562
14.98667	23170
14.99478	24989
15.00292	24555
15.01103	24715
15.01915	24712
15.02728	25284
15.03540	23135
15.04353	22892
15.05165	23627
15.05977	21934
15.06790	24377
15.07602	21992
15.08415	23270
15.09227	23141
15.10038	21166
15.10852	20760
15.11663	21906
15.12475	22862
15.13288	21704
15.14100	22187
15.14913	21780
15.15725	21701
15.16537	22176
15.17350	22919
15.18162	22682
15.18975	23635
15.19787	26206
15.20598	25654
15.21412	27368
15.22223	24391
15.23035	20493
15.23848	23778
15.24660	24973
15.25473	22200
15.26285	20950
15.27097	20420
15.27910	23085
15.28722	19017
15.29535	21632
15.30347	21127
15.31158	19152
15.31972	21214
15.32783	21040
15.33597	18932
15.34408	20176
15.35220	19851
15.36033	20821
15.36845	22875
15.37657	20201
15.38470	19925
15.39282	19091
15.40095	19767
15.40907	22590
15.41718	20895
15.42532	21638
15.43343	22864
15.44157	20003
15.44968	19647
15.45780	20330
15.46593	22133
15.47405	19288
15.48217	22231
15.49030	20381
15.49842	21680
15.50655	22176
15.51467	22172
15.52278	21952
15.53092	17455
15.53903	17804
15.54717	19316
15.55528	20942
15.56340	19822
15.57153	21558
15.57965	19041
15.58778	21630
15.59590	21427
15.60402	21284
15.61215	20780
15.62027	20364
15.62838	16428
15.63652	20733
15.64463	26076
15.65277	20540
15.66088	19630
15.66900	18809
15.67713	20258
15.68525	22173
15.69338	21192
15.70150	20062
15.70962	18244
15.71775	20070
15.72587	21078
15.73400	21361
15.74212	23655
15.75023	21881
15.75837	25624
15.76648	26289
15.77460	27804
15.78273	27044
15.79085	28516
15.79898	24786
15.80710	21822
15.81522	24189
15.82335	19776
15.83147	20748
15.83960	22672
15.84772	21814
15.85583	21619
15.86397	20478
15.87208	20671
15.88020	22093
15.88833	21922
15.89645	22121
15.90458	20331
15.91270	20715
15.92082	21710
15.92895	20454
15.93707	23425
15.94520	19238
15.95332	19768
15.96143	21581
15.96957	19669
15.97768	20711
15.98582	21523
15.99393	18800
16.00205	22016
16.01018	25551
16.01830	25936
16.02642	32850
16.03455	26976
16.04267	27847
16.05080	28341
16.05892	23342
16.06703	23755
16.07517	25588
16.08328	22362
16.09142	23593
16.09953	20660
16.10765	22918
16.11578	22511
16.12390	23312
16.13203	20813
16.14015	21252
16.14827	21138
16.15640	20400
16.16452	23688
16.17263	22012
16.18077	20538
16.18888	21907
16.19702	19024
16.20513	20432
16.21325	20893
16.22138	19849
16.22950	20260
16.23763	22030
16.24575	23381
16.25387	20932
16.26200	20709
16.27012	20779
16.27823	21816
16.28637	19935
16.29448	22312
16.30262	21138
16.31073	24516
16.31885	28679
16.32698	39023
16.33510	36848
16.34323	39279
16.35135	37944
16.35947	38374
16.36760	36342
16.37572	33859
16.38385	31752
16.39197	34558
16.40008	28454
16.40822	26768
16.41633	28019
16.42445	30600
16.43258	27584
16.44070	26343
16.44883	26698
16.45695	25760
16.46507	30291
16.47320	22938
16.48132	26428
16.48945	25689
16.49757	23854
16.50568	27154
16.51382	24255
16.52193	23922
16.53005	21955
16.53818	24872
16.54630	25892
16.55443	23060
16.56255	24460
16.57067	22629
16.57880	21153
16.58692	24882
16.59505	27418
16.60317	26969
16.61128	24879
16.61942	25360
16.62753	23271
16.63567	23109
16.64378	20838
16.65190	22416
16.66003	20795
16.66815	19930
16.67627	21666
16.68440	20286
16.69252	21746
16.70065	21097
16.70877	20423
16.71688	23263
16.72502	20968
16.73313	20625
16.74127	23681
16.74938	20449
16.75750	21922
16.76563	22374
16.77375	20639
16.78188	23469
16.79000	22228
16.79812	21424
16.80625	22195
16.81437	18763
16.82248	21626
16.83062	24008
16.83873	20947
16.84687	20237
16.85498	23458
16.86310	24623
16.87123	22811
16.87935	22254
16.88748	24119
16.89560	23578
16.90372	20472
16.91185	20394
16.91997	21089
16.92808	23676
16.93622	20700
16.94433	21370
16.95247	22143
16.96058	21796
16.96870	19483
16.97683	24500
16.98495	21202
16.99308	21485
17.00120	18647
17.00932	25503
17.01745	22500
17.02557	21527
17.03370	21910
17.04182	23111
17.04993	23094
17.05807	22983
17.06618	21796
17.07430	23449
17.08243	22163
17.09055	23257
17.09868	22175
17.10680	21666
17.11492	24898
17.12305	25469
17.13117	23639
17.13930	22978
17.14742	22466
17.15553	20683
17.16367	18367
17.17178	22551
17.17992	20481
17.18803	24853
17.19615	21912
17.20428	22397
17.21240	20352
17.22052	21055
17.22865	19756
17.23677	20194
17.24490	22274
17.25302	20126
17.26113	20482
17.26927	21254
17.27738	20589
17.28552	25533
17.29363	22253
17.30175	18342
17.30988	18596
17.31800	24914
17.32612	22437
17.33425	22901
17.34237	22236
17.35050	23695
17.35862	23460
17.36673	27226
17.37487	28702
17.38298	26102
17.39112	26918
17.39923	29978
17.40735	28225
17.41548	25577
17.42360	29861
17.43173	27241
17.43985	25532
17.44797	23768
17.45610	24987
17.46422	24698
17.47233	25269
17.48047	25190
17.48858	25717
17.49672	24307
17.50483	27694
17.51295	28960
17.52108	29877
17.52920	36560
17.53733	39106
17.54545	44110
17.55357	53082
17.56170	59559
17.56982	51625
17.57795	45974
17.58607	42921
17.59418	35237
17.60232	31031
17.61043	26658
17.61855	26333
17.62668	26547
17.63480	23551
17.64293	20506
17.65105	23706
17.65917	25113
17.66730	23743
17.67542	29630
17.68355	29864
17.69167	26620
17.69978	26327
17.70792	24608
17.71603	31381
17.72415	25809
17.73228	27092
17.74040	27195
17.74853	23099
17.75665	24912
17.76477	23248
17.77290	23889
17.78102	23218
17.78915	24433
17.79727	22780
17.80538	22071
17.81352	24680
17.82163	24635
17.82977	28042
17.83788	27420
17.84600	25789
17.85413	29273
17.86225	28011
17.87037	28430
17.87850	28018
17.88662	26713
17.89475	25731
17.90287	26154
17.91098	21800
17.91912	21501
17.92723	23212
17.93537	21842
17.94348	22051
17.95160	22563
17.95973	22896
17.96785	21548
17.97597	19036
17.98410	20408
17.99222	23719
18.00035	25304
18.00847	23712
18.01658	21117
18.02472	26239
18.03283	26779
18.04097	26830
18.04908	26136
18.05720	28592
18.06533	25574
18.07345	26113
18.08158	28612
18.08970	23469
18.09782	26012
18.10595	28008
18.11407	24011
18.12218	26117
18.13032	24236
18.13843	24699
18.14657	25770
18.15468	25068
18.16280	23527
18.17093	24356
18.17905	26192
18.18718	24326
18.19530	22962
18.20342	22092
18.21155	24346
18.21967	23414
18.22780	23896
18.23592	23994
18.24403	23179
18.25217	23959
18.26028	24932
18.26840	24573
18.27653	25784
18.28465	21302
18.29278	20372
18.30090	21248
18.30902	22580
18.31715	22281
18.32527	19296
18.33340	19163
18.34152	20045
18.34963	20221
18.35777	19797
18.36588	22073
18.37402	22071
18.38213	20795
18.39025	21166
18.39838	25246
18.40650	23574
18.41462	24364
18.42275	24048
18.43087	25358
18.43900	24338
18.44712	21961
18.45523	26879
18.46337	24633
18.47148	25645
18.47962	26371
18.48773	27459
18.49585	29156
18.50398	29171
18.51210	28817
18.52022	25819
18.52835	30423
18.53647	26997
18.54460	27374
18.55272	27933
18.56083	31799
18.56897	27556
18.57708	28516
18.58522	30553
18.59333	30327
18.60145	30784
18.60958	31282
18.61770	32178
18.62583	30676
18.63395	29739
18.64207	34138
18.65020	28389
18.65832	28012
18.66643	26995
18.67457	28748
18.68268	25148
18.69082	27946
18.69893	27444
18.70705	24249
18.71518	25603
18.72330	23912
18.73143	25602
18.73955	24083
18.74767	27307
18.75580	24993
18.76392	25690
18.77203	26925
18.78017	24697
18.78828	21838
18.79642	24261
18.80453	23961
18.81265	22261
18.82078	22133
18.82890	21623
18.83703	22166
18.84515	23969
18.85327	21841
18.86140	22289
18.86952	22687
18.87765	24645
18.88577	26078
18.89388	25516
18.90202	25751
18.91013	25229
18.91825	27704
18.92638	29410
18.93450	26803
18.94263	24369
18.95075	23330
18.95887	20845
18.96700	21710
18.97512	21247
18.98325	23385
18.99137	24331
18.99948	26952
19.00762	25465
19.01573	27554
19.02385	25908
19.03198	24924
19.04010	28658
19.04823	26698
19.05635	26471
19.06447	29255
19.07260	29323
19.08072	34439
19.08885	36337
19.09697	38272
19.10508	39989
19.11322	36141
19.12133	36386
19.12947	38211
19.13758	37409
19.14570	42502
19.15383	44361
19.16195	45254
19.17007	40465
19.17820	42057
19.18632	37484
19.19445	37086
19.20257	32630
19.21068	29652
19.21882	25645
19.22693	25246
19.23507	25117
19.24318	25362
19.25130	24928
19.25943	22579
19.26755	22915
19.27568	25833
19.28380	27946
19.29192	28682
19.30005	26970
19.30817	29359
19.31628	24771
19.32442	25797
19.33253	28677
19.34067	27492
19.34878	22284
19.35690	24454
19.36503	27300
19.37315	29275
19.38128	32498
19.38940	35415
19.39752	37224
19.40565	40972
19.41377	40656
19.42190	47843
19.43002	52707
19.43813	53122
19.44627	64828
19.45438	84996
19.46250	98234
19.47063	100062
19.47875	101199
19.48688	78180
19.49500	62852
19.50312	50287
19.51125	37717
19.51937	34332
19.52750	31555
19.53562	30800
19.54373	30974
19.55187	30624
19.55998	27178
19.56810	27852
19.57623	24048
19.58435	25517
19.59248	23119
19.60060	26137
19.60872	24862
19.61685	25744
19.62497	28927
19.63310	30944
19.64122	34898
19.64933	37416
19.65747	41792
19.66558	40507
19.67372	40471
19.68183	40426
19.68995	40272
19.69808	34554
19.70620	31124
19.71432	29357
19.72245	28974
19.73057	26812
19.73870	25932
19.74682	27801
19.75493	26424
19.76307	25567
19.77118	25345
19.77932	22370
19.78743	24412
19.79555	21118
19.80368	24353
19.81180	24333
19.81992	23351
19.82805	24721
19.83617	25307
19.84430	25405
19.85242	27585
19.86053	31506
19.86867	33112
19.87678	40914
19.88492	52054
19.89303	67583
19.90115	75435
19.90928	87751
19.91740	91304
19.92553	91818
19.93365	89185
19.94177	90520
19.94990	86811
19.95802	80030
19.96613	83005
19.97427	76236
19.98238	78336
19.99052	76272
19.99863	69749
20.00675	73869
20.01488	70211
20.02300	65662
20.03113	61079
20.03925	57157
20.04737	52193
20.05550	45155
20.06362	41201
20.07175	34938
20.07987	34778
20.08798	35101
20.09612	34058
20.10423	35304
20.11235	35971
20.12048	35493
20.12860	35815
20.13673	37532
20.14485	36862
20.15297	34616
20.16110	36373
20.16922	37363
20.17735	37946
20.18547	35017
20.19358	40696
20.20172	37888
20.20983	34539
20.21795	34881
20.22608	37320
20.23420	43022
20.24233	45595
20.25045	46510
20.25857	49007
20.26670	53889
20.27482	51002
20.28295	44742
20.29107	46595
20.29918	42639
20.30732	37938
20.31543	34943
20.32357	32484
20.33168	29850
20.33980	29137
20.34793	28282
20.35605	24138
20.36417	23948
20.37230	27082
20.38042	25249
20.38855	23521
20.39667	25110
20.40478	28762
20.41292	28183
20.42103	27047
20.42917	28593
20.43728	28031
20.44540	25665
20.45353	26676
20.46165	23918
20.46978	27498
20.47790	24307
20.48602	26399
20.49415	23959
20.50227	22141
20.51038	24798
20.51852	22271
20.52663	22589
20.53477	21790
20.54288	24655
20.55100	20654
20.55913	22411
20.56725	23329
20.57538	23197
20.58350	18831
20.59162	19486
20.59975	20021
20.60787	24901
20.61598	18987
20.62412	21506
20.63223	28479
20.64037	21485
20.64848	18336
20.65660	19642
20.66473	17046
20.67285	19426
20.68098	18761
20.68910	17625
20.69722	20757
20.70535	18713
20.71347	18981
20.72160	19569
20.72972	20491
20.73783	25056
20.74597	22260
20.75408	21546
20.76220	21912
20.77033	21750
20.77845	23440
20.78658	20569
20.79470	21866
20.80282	24253
20.81095	20274
20.81907	22169
20.82720	23742
20.83532	20265
20.84343	21627
20.85157	17530
20.85968	21264
20.86780	22832
20.87593	20016
20.88405	20058
20.89218	19244
20.90030	19124
20.90842	20360
20.91655	18585
20.92467	18579
20.93280	21455
20.94092	19751
20.94903	19217
20.95717	20007
20.96528	20473
20.97342	18699
20.98153	18861
20.98965	21200
20.99778	21874
21.00590	19775
21.01402	20265
21.02215	17090
21.03027	19936
21.03840	19957
21.04652	24467
21.05463	24054
21.06277	21158
21.07088	20321
21.07902	19978
21.08713	21441
21.09525	20546
21.10338	19334
21.11150	20446
21.11963	19731
21.12775	21446
21.13587	20481
21.14400	21805
21.15212	22251
21.16023	22765
21.16837	24312
21.17648	20679
21.18462	21060
21.19273	20613
21.20085	22627
21.20898	19943
21.21710	21565
21.22523	20319
21.23335	22311
21.24147	22302
21.24960	22424
21.25772	20190
21.26583	21860
21.27397	20924
21.28208	22864
21.29022	22216
21.29833	24331
21.30645	22997
21.31458	22503
21.32270	24934
21.33083	19764
21.33895	23288
21.34707	23088
21.35520	20731
21.36332	19192
21.37145	19936
21.37957	19320
21.38768	25316
21.39582	21195
21.40393	22432
21.41205	19731
21.42018	19546
21.42830	21221
21.43643	21297
21.44455	21083
21.45267	24014
21.46080	21290
21.46892	20686
21.47705	19703
21.48517	20496
21.49328	18158
21.50142	20915
21.50953	22010
21.51767	23361
21.52578	24298
21.53390	22105
21.54203	21726
21.55015	20603
21.55827	22642
21.56640	21487
21.57452	19741
21.58265	24484
21.59077	27949
21.59888	29292
21.60702	28097
21.61513	29472
21.62327	26875
21.63138	30195
21.63950	28574
21.64763	23162
21.65575	22187
21.66387	21304
21.67200	22414
21.68012	23013
21.68825	19524
21.69637	23634
21.70448	23379
21.71262	20698
21.72073	22114
21.72887	20169
21.73698	19888
21.74510	23368
21.75323	23197
21.76135	24677
21.76948	25245
21.77760	24387
21.78572	31439
21.79385	28856
21.80197	30008
21.81008	30006
21.81822	29946
21.82633	29066
21.83447	26525
21.84258	25668
21.85070	22049
21.85883	22102
21.86695	20582
21.87508	19896
21.88320	21039
21.89132	19715
21.89945	19432
21.90757	18965
21.91570	21089
21.92382	23397
21.93193	19364
21.94007	17220
21.94818	18059
21.95630	19642
21.96443	19206
21.97255	18922
21.98068	20923
21.98880	21802
21.99692	18376
22.00505	20498
22.01317	20875
22.02130	20686
22.02942	25104
22.03753	21051
22.04567	21730
22.05378	22342
22.06190	22897
22.07003	24850
22.07815	23367
22.08628	23409
22.09440	25891
22.10252	24863
22.11065	20309
22.11877	22968
22.12690	23650
22.13502	21008
22.14313	21108
22.15127	23442
22.15938	21148
22.16752	22021
22.17563	22079
22.18375	22048
22.19188	22242
22.20000	21649
22.20812	20194
22.21625	27306
22.22437	20119
22.23250	22398
22.24062	20236
22.24873	19954
22.25687	23193
22.26498	22015
22.27312	19621
22.28123	20919
22.28935	19732
22.29748	20601
22.30560	21271
22.31372	21761
22.32185	22944
22.32997	23686
22.33810	22627
22.34622	20093
22.35433	21078
22.36247	22737
22.37058	23923
22.37872	22325
22.38683	21261
22.39495	20236
22.40308	21222
22.41120	21382
22.41933	22189
22.42745	21360
22.43557	19904
22.44370	22864
22.45182	27733
22.45993	19162
22.46807	20462
22.47618	20722
22.48432	20116
22.49243	24411
22.50055	19110
22.50868	22370
22.51680	19720
22.52493	22047
22.53305	19605
22.54117	20260
22.54930	22137
22.55742	24612
22.56555	18724
22.57367	20461
22.58178	22467
22.58992	19240
22.59803	18713
22.60615	21346
22.61428	18786
22.62240	22330
22.63053	19880
22.63865	19328
22.64677	18384
22.65490	18493
22.66302	18803
22.67115	19085
22.67927	19808
22.68738	17816
22.69552	19976
22.70363	18933
22.71175	20408
22.71988	21852
22.72800	19350
22.73613	23700
22.74425	18388
22.75237	19809
22.76050	19922
22.76862	19159
22.77675	19069
22.78487	21731
22.79298	21165
22.80112	22877
22.80923	25789
22.81737	19439
22.82548	20540
22.83360	20675
22.84173	21519
22.84985	22759
22.85797	24299
22.86610	23127
22.87422	23420
22.88235	26052
22.89047	25284
22.89858	31279
22.90672	33644
22.91483	35520
22.92297	34408
22.93108	40246
22.93920	40559
22.94733	41691
22.95545	41682
22.96358	37099
22.97170	37001
22.97982	35908
22.98795	30641
22.99607	32426
23.00418	29912
23.01232	29319
23.02043	28070
23.02857	27006
23.03668	25788
23.04480	22726
23.05293	23973
23.06105	24321
23.06918	23873
23.07730	25784
23.08542	22902
23.09355	20121
23.10167	23602
23.10978	23375
23.11792	20910
23.12603	24349
23.13417	22960
23.14228	21531
23.15040	21189
23.15853	20657
23.16665	23462
23.17478	21549
23.18290	23225
23.19102	23324
23.19915	24519
23.20727	23392
23.21540	23025
23.22352	20482
23.23163	20637
23.23977	20308
23.24788	21648
23.25600	21543
23.26413	23271
23.27225	21844
23.28038	25591
23.28850	24033
23.29662	21767
23.30475	23968
23.31287	22358
23.32100	21562
23.32912	21351
23.33723	22176
23.34537	22080
23.35348	20913
23.36160	25770
23.36973	25706
23.37785	26212
23.38598	25445
23.39410	25097
23.40222	24946
23.41035	25141
23.41847	22239
23.42660	20167
23.43472	23881
23.44283	22918
23.45097	24206
23.45908	22434
23.46722	23680
23.47533	23909
23.48345	21898
23.49158	24449
23.49970	22300
23.50782	21667
23.51595	24209
23.52407	24535
23.53220	24314
23.54032	23993
23.54843	25676
23.55657	28434
23.56468	29662
23.57282	28676
23.58093	26038
23.58905	28785
23.59718	25891
23.60530	27562
23.61343	29338
23.62155	29951
23.62967	27900
23.63780	32483
23.64592	33081
23.65403	35005
23.66217	34192
23.67028	37209
23.67842	38918
23.68653	40141
23.69465	37467
23.70278	39206
23.71090	37521
23.71903	36658
23.72715	42754
23.73527	55928
23.74340	78514
23.75152	133358
23.75965	221113
23.76777	346883
23.77588	453796
23.78402	539525
23.79213	568312
23.80025	501488
23.80838	397873
23.81650	316066
23.82463	237147
23.83275	201030
23.84087	158114
23.84900	124803
23.85712	108287
23.86525	97274
23.87337	79767
23.88148	80585
23.88962	71950
23.89773	64421
23.90585	61833
23.91398	59990
23.92210	53930
23.93023	51287
23.93835	48856
23.94647	47950
23.95460	46835
23.96272	43112
23.97085	42219
23.97897	43489
23.98708	40975
23.99522	37860
24.00333	33932
24.01147	37855
24.01958	34514
24.02770	36351
24.03583	38164
24.04395	34172
24.05207	31947
24.06020	34644
24.06832	34800
24.07645	38286
24.08457	38300
24.09268	36631
24.10082	36284
24.10893	33188
24.11707	32071
24.12518	33871
24.13330	32428
24.14143	32169
24.14955	34474
24.15767	37296
24.16580	40462
24.17392	41197
24.18205	39196
24.19017	43161
24.19828	43515
24.20642	40896
24.21453	38512
24.22267	34077
24.23078	31366
24.23890	28214
24.24703	27044
24.25515	30612
24.26328	29452
24.27140	29549
24.27952	28669
24.28765	27093
24.29577	27529
24.30388	24927
24.31202	28726
24.32013	31777
24.32827	43109
24.33638	61650
24.34450	75255
24.35263	83115
24.36075	86560
24.36888	70282
24.37700	52776
24.38512	47221
24.39325	32269
24.40137	31883
24.40950	27024
24.41762	29920
24.42573	30473
24.43387	31375
24.44198	29049
24.45010	32492
24.45823	32751
24.46635	34907
24.47448	33746
24.48260	32712
24.49072	31623
24.49885	27323
24.50697	26416
24.51510	29218
24.52322	26262
24.53133	26862
24.53947	26902
24.54758	24823
24.55570	23612
24.56383	25733
24.57195	23994
24.58008	29008
24.58820	25143
24.59632	25221
24.60445	25124
24.61257	26276
24.62070	22905
24.62882	24639
24.63693	23417
24.64507	23457
24.65318	26647
24.66132	24427
24.66943	22526
24.67755	26061
24.68568	25580
24.69380	23253
24.70192	24762
24.71005	24441
24.71817	23472
24.72630	22631
24.73442	22299
24.74253	24176
24.75067	23776
24.75878	24006
24.76692	21223
24.77503	22765
24.78315	23027
24.79128	20976
24.79940	23122
24.80753	27280
24.81565	21701
24.82377	21084
24.83190	22081
24.84002	20726
24.84813	22865
24.85627	21936
24.86438	21191
24.87252	22796
24.88063	21514
24.88875	23538
24.89688	21857
24.90500	21669
24.91313	22162
24.92125	22692
24.92937	20741
24.93750	22957
24.94562	23421
24.95373	23701
24.96187	22725
24.96998	24361
24.97812	22193
24.98623	20981
24.99435	23251
25.00248	22823
25.01060	23397
25.01873	21976
25.02685	23075
25.03497	23110
25.04310	23741
25.05122	22431
25.05935	20478
25.06747	21814
25.07558	24265
25.08372	23281
25.09183	21171
25.09995	22053
25.10808	19356
25.11620	23052
25.12433	21985
25.13245	22260
25.14057	26392
25.14870	23773
25.15682	22593
25.16495	24400
25.17307	26052
25.18118	19953
25.18932	21530
25.19743	21260
25.20555	20572
25.21368	23507
25.22180	20291
25.22993	23965
25.23805	23175
25.24617	21822
25.25430	23201
25.26242	20705
25.27055	23236
25.27867	24853
25.28678	24915
25.29492	27129
25.30303	29633
25.31117	31232
25.31928	30459
25.32740	32183
25.33553	30842
25.34365	24457
25.35177	24725
25.35990	26337
25.36802	21823
25.37615	20437
25.38427	18542
25.39238	22763
25.40052	22001
25.40863	22428
25.41677	24464
25.42488	25930
25.43300	23375
25.44113	24310
25.44925	25445
25.45738	24022
25.46550	21371
25.47362	23601
25.48175	24007
25.48987	23887
25.49798	23399
25.50612	21747
25.51423	20437
25.52237	21747
25.53048	22258
25.53860	20831
25.54673	23140
25.55485	24207
25.56298	23500
25.57110	19611
25.57922	21696
25.58735	22064
25.59547	23295
25.60358	21432
25.61172	19179
25.61983	20501
25.62797	22318
25.63608	21863
25.64420	20519
25.65233	21197
25.66045	22861
25.66858	19766
25.67670	21869
25.68482	20624
25.69295	20612
25.70107	21799
25.70920	20442
25.71732	23140
25.72543	19669
25.73357	22708
25.74168	20602
25.74980	22194
25.75793	24815
25.76605	20115
25.77418	21609
25.78230	20945
25.79042	21708
25.79855	20327
25.80667	22833
25.81480	19735
25.82292	20442
25.83103	21535
25.83917	24101
25.84728	20981
25.85542	21728
25.86353	21843
25.87165	23609
25.87978	19031
25.88790	19714
25.89602	20714
25.90415	20599
25.91227	20628
25.92040	21186
25.92852	20452
25.93663	18076
25.94477	20004
25.95288	21780
25.96102	20329
25.96913	20626
25.97725	21147
25.98538	19858
25.99350	22158
26.00162	21812
26.00975	19018
26.01787	21538
26.02600	20491
26.03412	19667
26.04223	18758
26.05037	19936
26.05848	21289
26.06662	20878
26.07473	20079
26.08285	21148
26.09098	21817
26.09910	22729
26.10723	22172
26.11535	23888
26.12347	26796
26.13160	29673
26.13972	26949
26.14783	27782
26.15597	31383
26.16408	27190
26.17222	27743
26.18033	27506
26.18845	25041
26.19658	24298
26.20470	25184
26.21283	23158
26.22095	24784
26.22907	22918
26.23720	19557
26.24532	23644
26.25343	19290
26.26157	21334
26.26968	22318
26.27782	20140
26.28593	20071
26.29405	22342
26.30218	21869
26.31030	20489
26.31843	21313
26.32655	21219
26.33467	20725
26.34280	22420
26.35092	20115
26.35905	22584
26.36717	18451
26.37528	21399
26.38342	23568
26.39153	22890
26.39965	21173
26.40778	23756
26.41590	23154
26.42403	24699
26.43215	22300
26.44027	27067
26.44840	21104
26.45652	25261
26.46465	23497
26.47277	22918
26.48088	22139
26.48902	22396
26.49713	19996
26.50527	22044
26.51338	20302
26.52150	25508
26.52963	18655
26.53775	19664
26.54587	22114
26.55400	21439
26.56212	22025
26.57025	22494
26.57837	21306
26.58648	20600
26.59462	20862
26.60273	22368
26.61087	18732
26.61898	18720
26.62710	22856
26.63523	19884
26.64335	21924
26.65147	20781
26.65960	20372
26.66772	22343
26.67585	20890
26.68397	24514
26.69208	20999
26.70022	22002
26.70833	23514
26.71647	23754
26.72458	23420
26.73270	24337
26.74083	22961
26.74895	20249
26.75708	23306
26.76520	21510
26.77332	21892
26.78145	22774
26.78957	23331
26.79768	24451
26.80582	28519
26.81393	26037
26.82207	24509
26.83018	21851
26.83830	22797
26.84643	24971
26.85455	21065
26.86268	21603
26.87080	22992
26.87892	21868
26.88705	23228
26.89517	20679
26.90330	23189
26.91142	20263
26.91953	21064
26.92767	25707
26.93578	23457
26.94390	25349
26.95203	29154
26.96015	37886
26.96828	49657
26.97640	66913
26.98452	82636
26.99265	87107
27.00077	92823
27.00890	85874
27.01702	81712
27.02513	75723
27.03327	59452
27.04138	47991
27.04950	44060
27.05763	41471
27.06575	37792
27.07388	34240
27.08200	28848
27.09012	30562
27.09825	29594
27.10637	29144
27.11450	27513
27.12262	28983
27.13073	28044
27.13887	30429
27.14698	29463
27.15512	31896
27.16323	26751
27.17135	26795
27.17948	26131
27.18760	26004
27.19572	27104
27.20385	28283
27.21197	21746
27.22010	23951
27.22822	24842
27.23633	27350
27.24447	25560
27.25258	23421
27.26072	26646
27.26883	25332
27.27695	25249
27.28508	24423
27.29320	23306
27.30133	23847
27.30945	25043
27.31757	24803
27.32570	22691
27.33382	23857
27.34193	21425
27.35007	23199
27.35818	23684
27.36632	25523
27.37443	25793
27.38255	21935
27.39068	23163
27.39880	21290
27.40693	23934
27.41505	24912
27.42317	22413
27.43130	23212
27.43942	23838
27.44753	21080
27.45567	24757
27.46378	23837
27.47192	25640
27.48003	24623
27.48815	22450
27.49628	23647
27.50440	24042
27.51253	22811
27.52065	24915
27.52877	18321
27.53690	21467
27.54502	24735
27.55315	23547
27.56127	26145
27.56938	24988
27.57752	28482
27.58563	25484
27.59375	27078
27.60188	27118
27.61000	23161
27.61813	20932
27.62625	22416
27.63437	21319
27.64250	20260
27.65062	21708
27.65875	23665
27.66687	23089
27.67498	22084
27.68312	22774
27.69123	21794
27.69935	23687
27.70748	24454
27.71560	27326
27.72373	30777
27.73185	31081
27.73997	32576
27.74810	31699
27.75622	33253
27.76435	28222
27.77247	28410
27.78058	23595
27.78872	23890
27.79683	22341
27.80497	25514
27.81308	22179
27.82120	22327
27.82933	24577
27.83745	21685
27.84557	24106
27.85370	22871
27.86182	23149
27.86995	20076
27.87807	21477
27.88618	22800
27.89432	23194
27.90243	21319
27.91057	23034
27.91868	21664
27.92680	21626
27.93493	28832
27.94305	21970
27.95118	23702
27.95930	24374
27.96742	26800
27.97555	26413
27.98367	30612
27.99178	31363
27.99992	27525
28.00803	28193
28.01617	27309
28.02428	24882
28.03240	24338
28.04053	23951
28.04865	24985
28.05678	25938
28.06490	25012
28.07302	32654
28.08115	40537
28.08927	44406
28.09738	53201
28.10552	63914
28.11363	59335
28.12177	60174
28.12988	50963
28.13800	45593
28.14613	36418
28.15425	38258
28.16238	36019
28.17050	30257
28.17862	29123
28.18675	28435
28.19487	25390
28.20300	24570
28.21112	24477
28.21923	23133
28.22737	23598
28.23548	28604
28.24360	24875
28.25173	25122
28.25985	29843
28.26798	36348
28.27610	45618
28.28422	55275
28.29235	62863
28.30047	77224
28.30860	83500
28.31672	77099
28.32483	88568
28.33297	84913
28.34108	76941
28.34922	70549
28.35733	71837
28.36545	61344
28.37358	60267
28.38170	53939
28.38982	47332
28.39795	44699
28.40607	41428
28.41420	39612
28.42232	34991
28.43043	33463
28.43857	36703
28.44668	34317
28.45482	31975
28.46293	31871
28.47105	29554
28.47918	30818
28.48730	30165
28.49542	27880
28.50355	32300
28.51167	29465
28.51980	28739
28.52792	28879
28.53603	31749
28.54417	27976
28.55228	29607
28.56042	31322
28.56853	32388
28.57665	29256
28.58478	28271
28.59290	25020
28.60103	24016
28.60915	26768
28.61727	27481
28.62540	29610
28.63352	30526
28.64163	28852
28.64977	34344
28.65788	30337
28.66602	31340
28.67413	30897
28.68225	33326
28.69038	32045
28.69850	36133
28.70663	37861
28.71475	48676
28.72287	53508
28.73100	53394
28.73912	48281
28.74723	43744
28.75537	33887
28.76348	30093
28.77162	30821
28.77973	27827
28.78785	24957
28.79598	26134
28.80410	28371
28.81223	28335
28.82035	26473
28.82847	24930
28.83660	27834
28.84472	25823
28.85285	27018
28.86097	24360
28.86908	24168
28.87722	26146
28.88533	30874
28.89345	29216
28.90158	27839
28.90970	25001
28.91783	28730
28.92595	26588
28.93407	31079
28.94220	24315
28.95032	25414
28.95845	29209
28.96657	28056
28.97468	27034
28.98282	28541
28.99093	23961
28.99907	24520
29.00718	28050
29.01530	25395
29.02343	30082
29.03155	26923
29.03967	26180
29.04780	26917
29.05592	24606
29.06405	24642
29.07217	26722
29.08028	22998
29.08842	23198
29.09653	19598
29.10467	25658
29.11278	22732
29.12090	23039
29.12903	30254
29.13715	26077
29.14528	24132
29.15340	24662
29.16152	23673
29.16965	26041
29.17777	27026
29.18588	24344
29.19402	25769
29.20213	28867
29.21027	24636
29.21838	26324
29.22650	27729
29.23463	30707
29.24275	30992
29.25088	31812
29.25900	27220
29.26712	30993
29.27525	27576
29.28337	27013
29.29148	30029
29.29962	28845
29.30773	28870
29.31587	26558
29.32398	23610
29.33210	25161
29.34023	24647
29.34835	23528
29.35648	25268
29.36460	24513
29.37272	22862
29.38085	23255
29.38897	26173
29.39710	24824
29.40522	23442
29.41333	24499
29.42147	25038
29.42958	27041
29.43770	23176
29.44583	24768
29.45395	24790
29.46208	24433
29.47020	31427
29.47832	27414
29.48645	26203
29.49457	28328
29.50270	31057
29.51082	27414
29.51893	30875
29.52707	28204
29.53518	25046
29.54330	25402
29.55143	23177
29.55955	24930
29.56768	26836
29.57580	30484
29.58392	31857
29.59205	40379
29.60017	32867
29.60830	34451
29.61642	29551
29.62453	33628
29.63267	30877
29.64078	27560
29.64892	23809
29.65703	25317
29.66515	23796
29.67328	25128
29.68140	25602
29.68952	26746
29.69765	25849
29.70577	28135
29.71390	26614
29.72202	26420
29.73013	27342
29.73827	25484
29.74638	25078
29.75452	25661
29.76263	24528
29.77075	21287
29.77888	24467
29.78700	24010
29.79513	25895
29.80325	24320
29.81137	23451
29.81950	24133
29.82762	24181
29.83573	26298
29.84387	22903
29.85198	25760
29.86012	29406
29.86823	30695
29.87635	31546
29.88448	36516
29.89260	41275
29.90073	47299
29.90885	55612
29.91697	57674
29.92510	61603
29.93322	71239
29.94133	77461
29.94947	80178
29.95758	91009
29.96572	88094
29.97383	82903
29.98195	88620
29.99008	76684
29.99820	70602
30.00633	66660
30.01445	58863
30.02257	62601
30.03070	54856
30.03882	51308
30.04695	48664
30.05507	45364
30.06318	45161
30.07132	40247
30.07943	36718
30.08755	42168
30.09568	40445
30.10380	36792
30.11193	41991
30.12005	32600
30.12817	33919
30.13630	37854
30.14442	32262
30.15255	39076
30.16067	32694
30.16878	30279
30.17692	30070
30.18503	30946
30.19317	33960
30.20128	32195
30.20940	30632
30.21753	34879
30.22565	25879
30.23377	30929
30.24190	27615
30.25002	27772
30.25815	33723
30.26627	30820
30.27438	32701
30.28252	33710
30.29063	32433
30.29877	26779
30.30688	31034
30.31500	28514
30.32313	28501
30.33125	29756
30.33937	27567
30.34750	30152
30.35562	31693
30.36375	28231
30.37187	26574
30.37998	28609
30.38812	27358
30.39623	27356
30.40437	27740
30.41248	26879
30.42060	27706
30.42873	30694
30.43685	27670
30.44498	28499
30.45310	28557
30.46122	32458
30.46935	30572
30.47747	29275
30.48558	29714
30.49372	29807
30.50183	27267
30.50997	28162
30.51808	26294
30.52620	26761
30.53433	28908
30.54245	24202
30.55058	24882
30.55870	26969
30.56682	25401
30.57495	27507
30.58307	27557
30.59118	27487
30.59932	29917
30.60743	26938
30.61557	25008
30.62368	25948
30.63180	25767
30.63993	27503
30.64805	24535
30.65618	24171
30.66430	28667
30.67242	28918
30.68055	23470
30.68867	28086
30.69680	25760
30.70492	23713
30.71303	30033
30.72117	28602
30.72928	25843
30.73740	29596
30.74553	25784
30.75365	27115
30.76178	28442
30.76990	29109
30.77802	28663
30.78615	30349
30.79427	29156
30.80240	29094
30.81052	28713
30.81863	28079
30.82677	28421
30.83488	27768
30.84302	25323
30.85113	28071
30.85925	27287
30.86738	25893
30.87550	26145
30.88362	32160
30.89175	28633
30.89987	27879
30.90800	26782
30.91612	27153
30.92423	26182
30.93237	28319
30.94048	25640
30.94862	27141
30.95673	27209
30.96485	26931
30.97298	24857
30.98110	29731
30.98922	25896
30.99735	29792
31.00547	26524
31.01360	26769
31.02172	28629
31.02983	30266
31.03797	27884
31.04608	25239
31.05422	28749
31.06233	29287
31.07045	27835
31.07858	31692
31.08670	30148
31.09483	33859
31.10295	32205
31.11107	32439
31.11920	32501
31.12732	29104
31.13543	31684
31.14357	29782
31.15168	28101
31.15982	33962
31.16793	33534
31.17605	41163
31.18418	47917
31.19230	56509
31.20043	68402
31.20855	73073
31.21667	69455
31.22480	67487
31.23292	57132
31.24105	46765
31.24917	38586
31.25728	35919
31.26542	32422
31.27353	30469
31.28165	31980
31.28978	27187
31.29790	26904
31.30603	30164
31.31415	27344
31.32227	32505
31.33040	29309
31.33852	28385
31.34665	31126
31.35477	27766
31.36288	29357
31.37102	32586
31.37913	30171
31.38725	30911
31.39538	27020
31.40350	28666
31.41163	25814
31.41975	29008
31.42787	26290
31.43600	29279
31.44412	28192
31.45225	27437
31.46037	30721
31.46848	29202
31.47662	29844
31.48473	31462
31.49287	28277
31.50098	29477
31.50910	31181
31.51723	29219
31.52535	27004
31.53347	27190
31.54160	26017
31.54972	29402
31.55785	29378
31.56597	30031
31.57408	30361
31.58222	28282
31.59033	28116
31.59847	29082
31.60658	29051
31.61470	29539
31.62283	30107
31.63095	27486
31.63908	29561
31.64720	27755
31.65532	28056
31.66345	28594
31.67157	30279
31.67968	31813
31.68782	31360
31.69593	33973
31.70407	34943
31.71218	34457
31.72030	33017
31.72843	30470
31.73655	32927
31.74468	28078
31.75280	24879
31.76092	28080
31.76905	29343
31.77717	30965
31.78528	28816
31.79342	32971
31.80153	34265
31.80967	32532
31.81778	28326
31.82590	34941
31.83403	38388
31.84215	46616
31.85028	54748
31.85840	61073
31.86652	70195
31.87465	69943
31.88277	80293
31.89090	79401
31.89902	81796
31.90713	78970
31.91527	77377
31.92338	73446
31.93150	72229
31.93963	65631
31.94775	64550
31.95588	62570
31.96400	58235
31.97212	54620
31.98025	57893
31.98837	52099
31.99650	50844
32.00462	47266
32.01273	44625
32.02087	50161
32.02898	46117
32.03710	45623
32.04523	39902
32.05335	42363
32.06148	38767
32.06960	36448
32.07772	36003
32.08585	36620
32.09397	36803
32.10210	36292
32.11022	35180
32.11833	33003
32.12647	32548
32.13458	32066
32.14272	35504
32.15083	32882
32.15895	36678
32.16708	34724
32.17520	37420
32.18332	33788
32.19145	32891
32.19957	32361
32.20770	33256
32.21582	34128
32.22393	30770
32.23207	31359
32.24018	31735
32.24832	29789
32.25643	33302
32.26455	33493
32.27268	31833
32.28080	33472
32.28893	31599
32.29705	32470
32.30517	32590
32.31330	33421
32.32142	35006
32.32953	36381
32.33767	30935
32.34578	33132
32.35392	33660
32.36203	33571
32.37015	33154
32.37828	33109
32.38640	29245
32.39453	29021
32.40265	29385
32.41077	31331
32.41890	31733
32.42702	32052
32.43513	31504
32.44327	31309
32.45138	32583
32.45952	30450
32.46763	31077
32.47575	30201
32.48388	34406
32.49200	37573
32.50013	36194
32.50825	33080
32.51637	35413
32.52450	32121
32.53262	34009
32.54075	32102
32.54887	31588
32.55698	35105
32.56512	33044
32.57323	34444
32.58135	35326
32.58948	38556
32.59760	45877
32.60573	48543
32.61385	52887
32.62197	49430
32.63010	51015
32.63822	44811
32.64635	40314
32.65447	37233
32.66258	32414
32.67072	33860
32.67883	38771
32.68697	34898
32.69508	36739
32.70320	31615
32.71133	34020
32.71945	34946
32.72757	35468
32.73570	31781
32.74382	35367
32.75195	37251
32.76007	33768
32.76818	29705
32.77632	30719
32.78443	33767
32.79257	30951
32.80068	28959
32.80880	32171
32.81693	33631
32.82505	31783
32.83317	28440
32.84130	36277
32.84942	33464
32.85755	33050
32.86567	34452
32.87378	34171
32.88192	31107
32.89003	33915
32.89817	32165
32.90628	32431
32.91440	29521
32.92253	33006
32.93065	29594
32.93878	28407
32.94690	33071
32.95502	33190
32.96315	30550
32.97127	30848
32.97938	36501
32.98752	34727
32.99563	32836
33.00377	30238
33.01188	31479
33.02000	33549
33.02813	31485
33.03625	33504
33.04438	32611
33.05250	34812
33.06062	31419
33.06875	31039
33.07687	34279
33.08498	38844
33.09312	42092
33.10123	44652
33.10937	51518
33.11748	50575
33.12560	51137
33.13373	46038
33.14185	41833
33.14998	38714
33.15810	40386
33.16622	40578
33.17435	34094
33.18247	36587
33.19060	32567
33.19872	33093
33.20683	31531
33.21497	31618
33.22308	30321
33.23120	34327
33.23933	31658
33.24745	32668
33.25558	33049
33.26370	33627
33.27182	31867
33.27995	37938
33.28807	34649
33.29620	33437
33.30432	34311
33.31243	35773
33.32057	33528
33.32868	31761
33.33682	33373
33.34493	34656
33.35305	34252
33.36118	34216
33.36930	34592
33.37742	34066
33.38555	35204
33.39367	31805
33.40180	32828
33.40992	32699
33.41803	34920
33.42617	34056
33.43428	34342
33.44242	35215
33.45053	36023
33.45865	31174
33.46678	33037
33.47490	34212
33.48303	32167
33.49115	33703
33.49927	32453
33.50740	33256
33.51552	30918
33.52363	33718
33.53177	31652
33.53988	31858
33.54802	33104
33.55613	33168
33.56425	35806
33.57238	33526
33.58050	34230
33.58863	31618
33.59675	33273
33.60487	31573
33.61300	31128
33.62112	32442
33.62923	34903
33.63737	33059
33.64548	34546
33.65362	31863
33.66173	33501
33.66985	34639
33.67798	35145
33.68610	38633
33.69423	36060
33.70235	35822
33.71047	35858
33.71860	35556
33.72672	38709
33.73485	35028
33.74297	34122
33.75108	34909
33.75922	39796
33.76733	38307
33.77545	36537
33.78358	38692
33.79170	40248
33.79983	37289
33.80795	37472
33.81607	39164
33.82420	37634
33.83232	39368
33.84045	39608
33.84857	42282
33.85668	40202
33.86482	43431
33.87293	42752
33.88105	42402
33.88918	40642
33.89730	44062
33.90543	41099
33.91355	38200
33.92167	39455
33.92980	39343
33.93792	39760
33.94605	40266
33.95417	42528
33.96228	40526
33.97042	41323
33.97853	39279
33.98667	38784
33.99478	42198
34.00290	39110
34.01103	37749
34.01915	36061
34.02727	38221
34.03540	38718
34.04352	36455
34.05165	39416
34.05977	39191
34.06788	37697
34.07602	37741
34.08413	38375
34.09227	38565
34.10038	38681
34.10850	38935
34.11663	38390
34.12475	36300
34.13288	41631
34.14100	35868
34.14912	39760
34.15725	43375
34.16537	34493
34.17348	38132
34.18162	38809
34.18973	36098
34.19787	36002
34.20598	37583
34.21410	40085
34.22223	42057
34.23035	41856
34.23848	38880
34.24660	43837
34.25472	37686
34.26285	37792
34.27097	36449
34.27908	37585
34.28722	40088
34.29533	41398
34.30347	40134
34.31158	41062
34.31970	40476
34.32783	41833
34.33595	38819
34.34408	44833
34.35220	40224
34.36032	40238
34.36845	38148
34.37657	36497
34.38470	36954
34.39282	42304
34.40093	37144
34.40907	34726
34.41718	38002
34.42530	40708
34.43343	42073
34.44155	44387
34.44968	50252
34.45780	56122
34.46592	72734
34.47405	83832
34.48217	96944
34.49030	103813
34.49842	105770
34.50653	102640
34.51467	96620
34.52278	96499
34.53092	84615
34.53903	75050
34.54715	74048
34.55528	68272
34.56340	64609
34.57152	61106
34.57965	59169
34.58777	59310
34.59590	59422
34.60402	57010
34.61213	54999
34.62027	53880
34.62838	50701
34.63652	53066
34.64463	50946
34.65275	52647
34.66088	54797
34.66900	53187
34.67712	53198
34.68525	53900
34.69337	48754
34.70150	48372
34.70962	51841
34.71773	51890
34.72587	49800
34.73398	51309
34.74212	51062
34.75023	49148
34.75835	50998
34.76648	52752
34.77460	49823
34.78273	47727
34.79085	48044
34.79897	50364
34.80710	46202
34.81522	43299
34.82333	49747
34.83147	44348
34.83958	46041
34.84772	44167
34.85583	50869
34.86395	43011
34.87208	50390
34.88020	45307
34.88833	44931
34.89645	44447
34.90457	44433
34.91270	44536
34.92082	45559
34.92893	44680
34.93707	43747
34.94518	44135
34.95332	47425
34.96143	46343
34.96955	45066
34.97768	44172
34.98580	41961
34.99393	42273
35.00205	46621
35.01017	45994
35.01830	45269
35.02642	44073
35.03455	44929
35.04267	40986
35.05078	44222
35.05892	41585
35.06703	41659
35.07515	43516
35.08328	45060
35.09140	44775
35.09953	46637
35.10765	48855
35.11577	44104
35.12390	46584
35.13202	49575
35.14015	47284
35.14827	44595
35.15638	45686
35.16452	45938
35.17263	48462
35.18077	48015
35.18888	43260
35.19700	45085
35.20513	41107
35.21325	45654
35.22137	47193
35.22950	43713
35.23762	46381
35.24575	47925
35.25387	43703
35.26198	44594
35.27012	47657
35.27823	47762
35.28637	45567
35.29448	46472
35.30260	44479
35.31073	44533
35.31885	42982
35.32697	46971
35.33510	45474
35.34322	48191
35.35135	49723
35.35947	44627
35.36758	45326
35.37572	46989
35.38383	45558
35.39197	45121
35.40008	48280
35.40820	50045
35.41633	53011
35.42445	49800
35.43258	47625
35.44070	45395
35.44882	49189
35.45695	49832
35.46507	50904
35.47318	47466
35.48132	53071
35.48943	52469
35.49757	50749
35.50568	50564
35.51380	56814
35.52193	49903
35.53005	54677
35.53818	51829
35.54630	47500
35.55442	44795
35.56255	49182
35.57067	53718
35.57880	48970
35.58692	50576
35.59503	51302
35.60317	50574
35.61128	54111
35.61940	56131
35.62753	50168
35.63565	48829
35.64378	51234
35.65190	47804
35.66002	50373
35.66815	49645
35.67627	51295
35.68440	44471
35.69252	48649
35.70063	44634
35.70877	47840
35.71688	49218
35.72500	44288
35.73313	45610
35.74125	43210
35.74938	45877
35.75750	47788
35.76562	50823
35.77375	45042
35.78187	48846
35.79000	49826
35.79812	51812
35.80623	49192
35.81437	48536
35.82248	48097
35.83062	47978
35.83873	47035
35.84685	49330
35.85498	51326
35.86310	50393
35.87122	45911
35.87935	47845
35.88747	48589
35.89560	48722
35.90372	47728
35.91183	47391
35.91997	49411
35.92808	46866
35.93622	48582
35.94433	49172
35.95245	48412
35.96058	50146
35.96870	48208
35.97682	47631
35.98495	49135
35.99307	51195
36.00120	48043
36.00932	50784
36.01743	55532
36.02557	48389
36.03368	51787
36.04182	50624
36.04993	55046
36.05805	55437
36.06618	55715
36.07430	50002
36.08243	52067
36.09055	50713
36.09867	53251
36.10680	52288
36.11492	48734
36.12303	48460
36.13117	53450
36.13928	50511
36.14742	54387
36.15553	49652
36.16365	49809
36.17178	54089
36.17990	50481
36.18803	51853
36.19615	51217
36.20427	48626
36.21240	53143
36.22052	54365
36.22865	56197
36.23677	59553
36.24488	67494
36.25302	74742
36.26113	77868
36.26925	76437
36.27738	72435
36.28550	69076
36.29363	59715
36.30175	56359
36.30987	57016
36.31800	55889
36.32612	56718
36.33425	52252
36.34237	51756
36.35048	54598
36.35862	54202
36.36673	56167
36.37485	56249
36.38298	55602
36.39110	58878
36.39923	59987
36.40735	56648
36.41547	54504
36.42360	52536
36.43172	57401
36.43985	50899
36.44797	50743
36.45608	55022
36.46422	50408
36.47233	52579
36.48047	54311
36.48858	56825
36.49670	55199
36.50483	53750
36.51295	57444
36.52107	56961
36.52920	59800
36.53732	60613
36.54545	56886
36.55357	59393
36.56168	59220
36.56982	59479
36.57793	62994
36.58607	65763
36.59418	65428
36.60230	66977
36.61043	70315
36.61855	72749
36.62668	69695
36.63480	68559
36.64292	65598
36.65105	65419
36.65917	66377
36.66728	68103
36.67542	68522
36.68353	68889
36.69167	65970
36.69978	64002
36.70790	65005
36.71603	66169
36.72415	61495
36.73228	60661
36.74040	62964
36.74852	54951
36.75665	59268
36.76477	59320
36.77288	59602
36.78102	60679
36.78913	54790
36.79727	60452
36.80538	59665
36.81350	56411
36.82163	57883
36.82975	57240
36.83788	54449
36.84600	59251
36.85412	54985
36.86225	57578
36.87037	61258
36.87850	58645
36.88662	57284
36.89473	57098
36.90287	59580
36.91098	59139
36.91910	56730
36.92723	55798
36.93535	55390
36.94348	56345
36.95160	54563
36.95972	61174
36.96785	56364
36.97597	61569
36.98410	64554
36.99222	69805
37.00033	79317
37.00847	87555
37.01658	97764
37.02472	99457
37.03283	100082
37.04095	98995
37.04908	87951
37.05720	78192
37.06532	71915
37.07345	70711
37.08157	63456
37.08970	64873
37.09782	68151
37.10593	63646
37.11407	60011
37.12218	57382
37.13032	63271
37.13843	64344
37.14655	65520
37.15468	66326
37.16280	63462
37.17092	59180
37.17905	63143
37.18717	61810
37.19530	63251
37.20342	62769
37.21153	61510
37.21967	60012
37.22778	61049
37.23592	65045
37.24403	68721
37.25215	71580
37.26028	83052
37.26840	96872
37.27653	113151
37.28465	126619
37.29277	136731
37.30090	138480
37.30902	133700
37.31713	125870
37.32527	112650
37.33338	102107
37.34152	94716
37.34963	92878
37.35775	91313
37.36588	83609
37.37400	83049
37.38213	81689
37.39025	83201
37.39837	81851
37.40650	76771
37.41462	79136
37.42273	79660
37.43087	77279
37.43898	71979
37.44712	73596
37.45523	72565
37.46335	73146
37.47148	73164
37.47960	70028
37.48773	75018
