C:\MassHunter\GCMS\1\data\JTB-E18\JTB-E18-023-06.D Tue Sep 10 13:26:50 2019
Start of data points
2.09513,364597
2.10325,375779
2.11137,373243
2.11950,382338
2.12762,369508
2.13575,374062
2.14387,368065
2.15198,365489
2.16012,359665
2.16823,345919
2.17635,335922
2.18448,323112
2.19260,317303
2.20073,295483
2.20885,297785
2.21697,283156
2.22510,275080
2.23322,271369
2.24135,266226
2.24947,254314
2.25758,257203
2.26572,260668
2.27383,452314
2.28195,2048738
2.29008,2761325
2.29820,1332259
2.30633,715169
2.31445,562444
2.32257,488990
2.33070,451161
2.33882,423978
2.34695,408220
2.35507,372257
2.36318,343614
2.37132,348451
2.37943,339676
2.38757,403510
2.39568,416986
2.40380,340482
2.41193,309650
2.42005,306047
2.42817,321032
2.43630,315248
2.44442,291758
2.45255,305266
2.46067,291316
2.46878,295382
2.47692,283471
2.48503,272415
2.49317,281995
2.50128,356453
2.50940,326438
2.51753,289059
2.52565,289651
2.53378,277899
2.54190,278161
2.55002,289760
2.55815,288073
2.56627,273728
2.57438,256010
2.58252,261291
2.59063,262496
2.59877,256805
2.60688,263233
2.61500,276601
2.62313,292314
2.63125,291207
2.63938,272884
2.64750,266898
2.65562,256656
2.66375,265863
2.67187,264813
2.67998,284997
2.68812,286923
2.69623,273273
2.70437,254209
2.71248,245832
2.72060,250407
2.72873,242770
2.73685,241245
2.74498,243733
2.75310,240903
2.76122,246136
2.76935,236901
2.77747,232733
2.78560,235890
2.79372,239421
2.80183,236028
2.80997,252901
2.81808,255613
2.82620,295593
2.83433,536511
2.84245,709378
2.85058,495573
2.85870,346911
2.86682,330671
2.87495,311815
2.88307,280687
2.89120,256526
2.89932,246089
2.90743,249261
2.91557,247253
2.92368,234104
2.93180,231431
2.93993,228452
2.94805,237006
2.95618,223926
2.96430,235583
2.97242,221559
2.98055,222210
2.98867,220456
2.99680,238363
3.00492,234559
3.01303,231729
3.02117,246873
3.02928,310806
3.03742,483190
3.04553,624715
3.05365,1170023
3.06178,3428262
3.06990,5215061
3.07802,3846119
3.08615,1926398
3.09427,1065903
3.10240,731383
3.11052,565510
3.11863,482505
3.12677,404566
3.13488,363597
3.14302,330713
3.15113,308348
3.15925,288148
3.16738,282864
3.17550,292426
3.18363,277399
3.19175,259870
3.19987,249075
3.20800,250961
3.21612,245200
3.22423,242695
3.23237,250950
3.24048,247629
3.24862,240685
3.25673,239017
3.26485,229192
3.27298,233837
3.28110,268752
3.28923,645394
3.29735,2411041
3.30547,6237592
3.31360,9295542
3.32172,8647685
3.32983,6010951
3.33797,3833826
3.34608,2638560
3.35422,1951031
3.36233,1541304
3.37045,1300872
3.37858,1269424
3.38670,1289829
3.39483,1158395
3.40295,1073097
3.41107,1656238
3.41920,2798138
3.42732,3039630
3.43545,2107898
3.44357,1258673
3.45168,879660
3.45982,742016
3.46793,662400
3.47605,614548
3.48418,562407
3.49230,546220
3.50043,510236
3.50855,483609
3.51667,466985
3.52480,453911
3.53292,436991
3.54105,425692
3.54917,413249
3.55728,406020
3.56542,400515
3.57353,397338
3.58167,389972
3.58978,386653
3.59790,381924
3.60603,377396
3.61415,390591
3.62227,522120
3.63040,969496
3.63852,1506785
3.64665,1568435
3.65477,1128386
3.66288,741995
3.67102,536474
3.67913,465760
3.68727,422254
3.69538,404568
3.70350,378883
3.71163,376021
3.71975,362282
3.72787,356277
3.73600,349179
3.74412,355153
3.75225,359882
3.76037,355184
3.76848,363759
3.77662,342157
3.78473,347572
3.79287,332840
3.80098,325230
3.80910,324709
3.81723,334090
3.82535,327545
3.83348,325423
3.84160,332064
3.84972,317487
3.85785,315373
3.86597,309771
3.87408,306386
3.88222,306681
3.89033,318712
3.89847,313297
3.90658,314908
3.91470,309766
3.92283,300624
3.93095,295100
3.93908,309824
3.94720,297296
3.95532,297955
3.96345,300669
3.97157,301990
3.97970,294145
3.98782,294534
3.99593,298639
4.00407,283974
4.01218,293853
4.02030,290082
4.02843,286698
4.03655,284660
4.04468,289391
4.05280,289458
4.06092,294613
4.06905,299520
4.07717,290847
4.08530,290104
4.09342,294958
4.10153,289489
4.10967,292502
4.11778,289279
4.12590,289954
4.13403,321475
4.14215,427229
4.15028,698987
4.15840,896839
4.16652,820623
4.17465,584970
4.18277,426981
4.19090,347783
4.19902,329545
4.20713,324438
4.21527,370116
4.22338,694403
4.23152,1568761
4.23963,2529277
4.24775,2529682
4.25588,1813057
4.26400,1167855
4.27212,836527
4.28025,640875
4.28837,542024
4.29650,476513
4.30462,425943
4.31273,392760
4.32087,383554
4.32898,361690
4.33712,337364
4.34523,334696
4.35335,325107
4.36148,323135
4.36960,316170
4.37772,318889
4.38585,312771
4.39397,306786
4.40210,304733
4.41022,295844
4.41833,300646
4.42647,299291
4.43458,292461
4.44272,290827
4.45083,292120
4.45895,310997
4.46708,311781
4.47520,316199
4.48333,300698
4.49145,291648
4.49957,284843
4.50770,276596
4.51582,274656
4.52393,266969
4.53207,282870
4.54018,271553
4.54832,278795
4.55643,276110
4.56455,265184
4.57268,271900
4.58080,262645
4.58893,264321
4.59705,263416
4.60517,268398
4.61330,266349
4.62142,270173
4.62955,258610
4.63767,269562
4.64578,258334
4.65392,267685
4.66203,273622
4.67015,271030
4.67828,262242
4.68640,258689
4.69453,262328
4.70265,265833
4.71077,268639
4.71890,267421
4.72702,267297
4.73515,258197
4.74327,268480
4.75138,259057
4.75952,264061
4.76763,259253
4.77575,265744
4.78388,260547
4.79200,261487
4.80013,269298
4.80825,266030
4.81637,266777
4.82450,266755
4.83262,259803
4.84075,257902
4.84887,260212
4.85698,264938
4.86512,255266
4.87323,263931
4.88137,259517
4.88948,257194
4.89760,261011
4.90573,261005
4.91385,279935
4.92197,375837
4.93010,778493
4.93822,1786350
4.94635,3342149
4.95447,4700300
4.96258,4829413
4.97072,3998612
4.97883,2862049
4.98697,1968525
4.99508,1424486
5.00320,1099620
5.01133,904333
5.01945,759813
5.02758,688558
5.03570,621920
5.04382,571216
5.05195,547491
5.06007,509651
5.06818,485505
5.07632,469497
5.08443,450588
5.09257,441485
5.10068,440417
5.10880,486443
5.11693,537482
5.12505,555420
5.13318,516545
5.14130,469285
5.14942,434715
5.15755,413406
5.16567,415424
5.17378,439107
5.18192,480585
5.19003,507139
5.19817,509167
5.20628,471679
5.21440,428275
5.22253,386018
5.23065,380928
5.23878,379710
5.24690,373015
5.25502,364368
5.26315,356815
5.27127,344249
5.27940,335626
5.28752,332981
5.29563,334124
5.30377,325012
5.31188,321753
5.32000,322864
5.32813,314121
5.33625,311555
5.34438,321920
5.35250,317703
5.36062,317555
5.36875,304459
5.37687,296887
5.38500,301717
5.39312,295985
5.40123,288377
5.40937,288684
5.41748,287927
5.42560,285885
5.43373,287709
5.44185,288764
5.44998,284874
5.45810,288313
5.46622,279095
5.47435,290993
5.48247,289325
5.49060,280424
5.49872,281908
5.50683,280282
5.51497,276686
5.52308,285287
5.53122,283362
5.53933,282318
5.54745,285217
5.55558,274223
5.56370,273703
5.57182,274878
5.57995,284258
5.58807,284901
5.59620,292175
5.60432,286454
5.61243,282068
5.62057,281691
5.62868,282595
5.63682,297427
5.64493,294173
5.65305,290243
5.66118,287251
5.66930,284388
5.67743,283252
5.68555,277869
5.69367,289596
5.70180,295322
5.70992,296310
5.71803,305604
5.72617,329102
5.73428,343946
5.74242,328369
5.75053,323130
5.75865,331312
5.76678,333359
5.77490,334483
5.78303,339944
5.79115,319416
5.79927,335962
5.80740,399851
5.81552,591575
5.82365,904991
5.83177,1190496
5.83988,1317096
5.84802,1187759
5.85613,877237
5.86425,631306
5.87238,475356
5.88050,384282
5.88863,340074
5.89675,324302
5.90487,329589
5.91300,368593
5.92112,468728
5.92925,591963
5.93737,675883
5.94548,624346
5.95362,512763
5.96173,388765
5.96985,305579
5.97798,275877
5.98610,261981
5.99423,244381
6.00235,229433
6.01047,212260
6.01860,207944
6.02672,204587
6.03485,197681
6.04297,193458
6.05108,188563
6.05922,186578
6.06733,196656
6.07547,185399
6.08358,187709
6.09170,190316
6.09983,184882
6.10795,180332
6.11607,182830
6.12420,177820
6.13232,179908
6.14045,179780
6.14857,183855
6.15668,183878
6.16482,185273
6.17293,197563
6.18107,203882
6.18918,219573
6.19730,244519
6.20543,248651
6.21355,250193
6.22167,241862
6.22980,227905
6.23792,229630
6.24605,223565
6.25417,223753
6.26228,225028
6.27042,228691
6.27853,225014
6.28667,242249
6.29478,235289
6.30290,239209
6.31103,236605
6.31915,247196
6.32728,254908
6.33540,242862
6.34352,255391
6.35165,266679
6.35977,269145
6.36788,273590
6.37602,281513
6.38413,279066
6.39227,270548
6.40038,286808
6.40850,274477
6.41663,284737
6.42475,283197
6.43288,288784
6.44100,292881
6.44912,292452
6.45725,303781
6.46537,301272
6.47350,302302
6.48162,310231
6.48973,307702
6.49787,303318
6.50598,309750
6.51410,308462
6.52223,307725
6.53035,312241
6.53848,310400
6.54660,268817
6.55472,250150
6.56285,232988
6.57097,215492
6.57910,223892
6.58722,214134
6.59533,207259
6.60347,210237
6.61158,204126
6.61970,201841
6.62783,202391
6.63595,190957
6.64408,192603
6.65220,188808
6.66032,181025
6.66845,191573
6.67657,194927
6.68470,179370
6.69282,180321
6.70093,186776
6.70907,195302
6.71718,209764
6.72532,229487
6.73343,271438
6.74155,293518
6.74968,289769
6.75780,280642
6.76592,244461
6.77405,217033
6.78217,192987
6.79030,182112
6.79842,178522
6.80653,167680
6.81467,175963
6.82278,166605
6.83092,170519
6.83903,182239
6.84715,221456
6.85528,294521
6.86340,437914
6.87153,647412
6.87965,848902
6.88777,919828
6.89590,860673
6.90402,663390
6.91213,473969
6.92027,306542
6.92838,214309
6.93652,166367
6.94463,148394
6.95275,134651
6.96088,121306
6.96900,133970
6.97713,117877
6.98525,114436
6.99337,117734
7.00150,125130
7.00962,160239
7.01773,221774
7.02587,311111
7.03398,398698
7.04212,459432
7.05023,441289
7.05835,385478
7.06648,301989
7.07460,240163
7.08273,193137
7.09085,170973
7.09897,165413
7.10710,152810
7.11522,148081
7.12335,147671
7.13147,144805
7.13958,136448
7.14772,132300
7.15583,126954
7.16395,120566
7.17208,117860
7.18020,124912
7.18833,119445
7.19645,115121
7.20457,121157
7.21270,122200
7.22082,130617
7.22895,132661
7.23707,131480
7.24518,141390
7.25332,150241
7.26143,161190
7.26955,176804
7.27768,199799
7.28580,210649
7.29393,205427
7.30205,182587
7.31017,174381
7.31830,167251
7.32642,157842
7.33455,164129
7.34267,174636
7.35078,171592
7.35892,161290
7.36703,151394
7.37517,158175
7.38328,176614
7.39140,225370
7.39953,269359
7.40765,314041
7.41577,312646
7.42390,281353
7.43202,229916
7.44015,183702
7.44827,157345
7.45638,144224
7.46452,132792
7.47263,131277
7.48077,134594
7.48888,155568
7.49700,181773
7.50513,217619
7.51325,237749
7.52138,242799
7.52950,226098
7.53762,194907
7.54575,164317
7.55387,141564
7.56198,132344
7.57012,131060
7.57823,120781
7.58637,119918
7.59448,115453
7.60260,113410
7.61073,121410
7.61885,114867
7.62698,113623
7.63510,117710
7.64322,120138
7.65135,118468
7.65947,113485
7.66758,119892
7.67572,105923
7.68383,112486
7.69197,118222
7.70008,116874
7.70820,113249
7.71633,111505
7.72445,107569
7.73258,108318
7.74070,109239
7.74882,109516
7.75695,110149
7.76507,106300
7.77320,104057
7.78132,102598
7.78943,112306
7.79757,101786
7.80568,103043
7.81380,105535
7.82193,103554
7.83005,106444
7.83818,107804
7.84630,106081
7.85442,99048
7.86255,101951
7.87067,105392
7.87880,98709
7.88692,104014
7.89503,101204
7.90317,101317
7.91128,105330
7.91942,101307
7.92753,103774
7.93565,105756
7.94378,101494
7.95190,103341
7.96002,102920
7.96815,104463
7.97627,108843
7.98440,105497
7.99252,104307
8.00063,103008
8.00877,103036
8.01688,105050
8.02502,103305
8.03313,105343
8.04125,105937
8.04938,101576
8.05750,100244
8.06562,100557
8.07375,109223
8.08187,101028
8.09000,98264
8.09812,98155
8.10623,99520
8.11437,101597
8.12248,99694
8.13062,100567
8.13873,100300
8.14685,99198
8.15498,101657
8.16310,105513
8.17123,104454
8.17935,105612
8.18747,105131
8.19560,105532
8.20372,102459
8.21183,98217
8.21997,105759
8.22808,100099
8.23622,103301
8.24433,98582
8.25245,99706
8.26058,100157
8.26870,102935
8.27683,100428
8.28495,99307
8.29307,101451
8.30120,98507
8.30932,94405
8.31743,97651
8.32557,96632
8.33368,101576
8.34182,107911
8.34993,111825
8.35805,105185
8.36618,109453
8.37430,98268
8.38243,99817
8.39055,99545
8.39867,97912
8.40680,102605
8.41492,104764
8.42305,98728
8.43117,104854
8.43928,96242
8.44742,97019
8.45553,98212
8.46365,92970
8.47178,97059
8.47990,95393
8.48803,91381
8.49615,98427
8.50427,100505
8.51240,103668
8.52052,106855
8.52865,110580
8.53677,106454
8.54488,105530
8.55302,98707
8.56113,104449
8.56927,99949
8.57738,102272
8.58550,101354
8.59363,92089
8.60175,103329
8.60987,99238
8.61800,100436
8.62612,96932
8.63425,93105
8.64237,92209
8.65048,97938
8.65862,96693
8.66673,95308
8.67487,96569
8.68298,94844
8.69110,96875
8.69923,96495
8.70735,95195
8.71547,102516
8.72360,109339
8.73172,159371
8.73985,310563
8.74797,710598
8.75608,1407113
8.76422,2251387
8.77233,2730570
8.78047,2590697
8.78858,1936819
8.79670,1279046
8.80483,818851
8.81295,584542
8.82108,453706
8.82920,377565
8.83732,323814
8.84545,282761
8.85357,261437
8.86168,246925
8.86982,223273
8.87793,211232
8.88607,205690
8.89418,193136
8.90230,195000
8.91043,185901
8.91855,180390
8.92668,180211
8.93480,185049
8.94292,168397
8.95105,172592
8.95917,167851
8.96730,159742
8.97542,155848
8.98353,159916
8.99167,155369
8.99978,162455
9.00790,154956
9.01603,150376
9.02415,155030
9.03228,150253
9.04040,146039
9.04852,152435
9.05665,145601
9.06477,151741
9.07290,146580
9.08102,143633
9.08913,142480
9.09727,146283
9.10538,141184
9.11350,148372
9.12163,141732
9.12975,145294
9.13788,142928
9.14600,137833
9.15412,132193
9.16225,139548
9.17037,137915
9.17850,138487
9.18662,141296
9.19473,131570
9.20287,132865
9.21098,136833
9.21912,131205
9.22723,126139
9.23535,125029
9.24348,126728
9.25160,130148
9.25972,125676
9.26785,129821
9.27597,127573
9.28410,124280
9.29222,126022
9.30033,123269
9.30847,119178
9.31658,123212
9.32472,127304
9.33283,123770
9.34095,124648
9.34908,120354
9.35720,117846
9.36533,122816
9.37345,122360
9.38157,121219
9.38970,121859
9.39782,118427
9.40593,112831
9.41407,108803
9.42218,118185
9.43032,109495
9.43843,109362
9.44655,118696
9.45468,114301
9.46280,110662
9.47093,106776
9.47905,102565
9.48717,104561
9.49530,108339
9.50342,104280
9.51153,106496
9.51967,106023
9.52778,102663
9.53592,99810
9.54403,94550
9.55215,82468
9.56028,78190
9.56840,82511
9.57653,77593
9.58465,71342
9.59277,73422
9.60090,73123
9.60902,74735
9.61715,72181
9.62527,69841
9.63338,70133
9.64152,69017
9.64963,72699
9.65775,70415
9.66588,69687
9.67400,72006
9.68213,68173
9.69025,72704
9.69837,72757
9.70650,73659
9.71462,70595
9.72275,67334
9.73087,68884
9.73898,65494
9.74712,67882
9.75523,68039
9.76335,67956
9.77148,61553
9.77960,65213
9.78773,66567
9.79585,69266
9.80397,65932
9.81210,68309
9.82022,64109
9.82835,65431
9.83647,69125
9.84458,71528
9.85272,70138
9.86083,68940
9.86897,74776
9.87708,68547
9.88520,66966
9.89333,67863
9.90145,69697
9.90957,62791
9.91770,69990
9.92582,65647
9.93395,67177
9.94207,68109
9.95018,66293
9.95832,67979
9.96643,69076
9.97457,72375
9.98268,76504
9.99080,78836
9.99893,75597
10.00705,83998
10.01518,76396
10.02330,80211
10.03142,72727
10.03955,78845
10.04767,71257
10.05578,68021
10.06392,68482
10.07203,68074
10.08017,73039
10.08828,70709
10.09640,68298
10.10453,67723
10.11265,67301
10.12078,67309
10.12890,64919
10.13702,64062
10.14515,68287
10.15327,66943
10.16138,69378
10.16952,67253
10.17763,62672
10.18577,62398
10.19388,63964
10.20200,64346
10.21013,68012
10.21825,68485
10.22638,74245
10.23450,73733
10.24262,77114
10.25075,75763
10.25887,70634
10.26700,69477
10.27512,71350
10.28323,76294
10.29137,73850
10.29948,72848
10.30760,73590
10.31573,67925
10.32385,69866
10.33198,75086
10.34010,66967
10.34822,71730
10.35635,66632
10.36447,72699
10.37260,70313
10.38072,72122
10.38883,75087
10.39697,75382
10.40508,72089
10.41322,72419
10.42133,71393
10.42945,71808
10.43758,67898
10.44570,69087
10.45382,64460
10.46195,68285
10.47007,66103
10.47820,64428
10.48632,65550
10.49443,69624
10.50257,65059
10.51068,70005
10.51882,73014
10.52693,76967
10.53505,76490
10.54318,85978
10.55130,82572
10.55942,74589
10.56755,75932
10.57567,73655
10.58380,72639
10.59192,71427
10.60003,74122
10.60817,68211
10.61628,69096
10.62442,72387
10.63253,62804
10.64065,66948
10.64878,68185
10.65690,68909
10.66503,68344
10.67315,66835
10.68127,69207
10.68940,69376
10.69752,67646
10.70563,68642
10.71377,74102
10.72188,75386
10.73002,76589
10.73813,73112
10.74625,72344
10.75438,79091
10.76250,73782
10.77063,72052
10.77875,71390
10.78687,72043
10.79500,67312
10.80312,67607
10.81123,64759
10.81937,66589
10.82748,66137
10.83562,63442
10.84373,64870
10.85185,66900
10.85998,63091
10.86810,62666
10.87623,65252
10.88435,61982
10.89247,62006
10.90060,68451
10.90872,62334
10.91685,59985
10.92497,65634
10.93308,65578
10.94122,62587
10.94933,66329
10.95745,60691
10.96558,66195
10.97370,62297
10.98183,58162
10.98995,61543
10.99807,58253
11.00620,58114
11.01432,58971
11.02245,63914
11.03057,58119
11.03868,59620
11.04682,56414
11.05493,60957
11.06307,61579
11.07118,53771
11.07930,54944
11.08743,57878
11.09555,61051
11.10367,59128
11.11180,59742
11.11992,61987
11.12805,63478
11.13617,69154
11.14428,73068
11.15242,71255
11.16053,75576
11.16867,75813
11.17678,72920
11.18490,70559
11.19303,71413
11.20115,69201
11.20927,70515
11.21740,73859
11.22552,74541
11.23365,69932
11.24177,69217
11.24988,66878
11.25802,68196
11.26613,68100
11.27427,72434
11.28238,93205
11.29050,112450
11.29863,149792
11.30675,193730
11.31488,215856
11.32300,225204
11.33112,206569
11.33925,199203
11.34737,185779
11.35548,178683
11.36362,164300
11.37173,148913
11.37987,133156
11.38798,111225
11.39610,101029
11.40423,90045
11.41235,80593
11.42048,76601
11.42860,71769
11.43672,70521
11.44485,66695
11.45297,63960
11.46110,58804
11.46922,62056
11.47733,62211
11.48547,56713
11.49358,60346
11.50170,55092
11.50983,59396
11.51795,61198
11.52608,66478
11.53420,69981
11.54232,78749
11.55045,89107
11.55857,92059
11.56670,93672
11.57482,94892
11.58293,93344
11.59107,89382
11.59918,83546
11.60730,80940
11.61543,79143
11.62355,75114
11.63168,66370
11.63980,65930
11.64792,67809
11.65605,59473
11.66417,59994
11.67230,64337
11.68042,60892
11.68853,61814
11.69667,68946
11.70478,72880
11.71292,74921
11.72103,81176
11.72915,85248
11.73728,93844
11.74540,101894
11.75352,110533
11.76165,105539
11.76977,107864
11.77790,102987
11.78602,99216
11.79413,91272
11.80227,89267
11.81038,86780
11.81852,80737
11.82663,77538
11.83475,74277
11.84288,74983
11.85100,66414
11.85913,68635
11.86725,65031
11.87537,66889
11.88350,66191
11.89162,57862
11.89973,59620
11.90787,58312
11.91598,65272
11.92412,72392
11.93223,71241
11.94035,80790
11.94848,90784
11.95660,101527
11.96473,104081
11.97285,100915
11.98097,97126
11.98910,96224
11.99722,95578
12.00533,88560
12.01347,83566
12.02158,80894
12.02972,77705
12.03783,73522
12.04595,72757
12.05408,66838
12.06220,67496
12.07033,65498
12.07845,63292
12.08657,63316
12.09470,62721
12.10282,60542
12.11095,63463
12.11907,59435
12.12718,60446
12.13532,57379
12.14343,60461
12.15155,59532
12.15968,60935
12.16780,66097
12.17593,62264
12.18405,57045
12.19217,59213
12.20030,60127
12.20842,59408
12.21655,60865
12.22467,61949
12.23278,61383
12.24092,55261
12.24903,58192
12.25717,57313
12.26528,58684
12.27340,57903
12.28153,59386
12.28965,57365
12.29777,60218
12.30590,57975
12.31402,65726
12.32215,72941
12.33027,67510
12.33838,61891
12.34652,58981
12.35463,57887
12.36277,57417
12.37088,64871
12.37900,60416
12.38713,63636
12.39525,69943
12.40337,74317
12.41150,79885
12.41962,88270
12.42775,83068
12.43587,76045
12.44398,73066
12.45212,67356
12.46023,62847
12.46837,64814
12.47648,62646
12.48460,59210
12.49273,58560
12.50085,59997
12.50898,59073
12.51710,55846
12.52522,58057
12.53335,57057
12.54147,56851
12.54958,58488
12.55772,60073
12.56583,56539
12.57397,55937
12.58208,57722
12.59020,57256
12.59833,56638
12.60645,55555
12.61458,54499
12.62270,53922
12.63082,56125
12.63895,59155
12.64707,50574
12.65518,52823
12.66332,55767
12.67143,58865
12.67957,54877
12.68768,53086
12.69580,53239
12.70393,57313
12.71205,56386
12.72018,53177
12.72830,54601
12.73642,61160
12.74455,55520
12.75267,55550
12.76080,56374
12.76892,60957
12.77703,58723
12.78517,61163
12.79328,63544
12.80140,67677
12.80953,68823
12.81765,76865
12.82578,74736
12.83390,76708
12.84202,77486
12.85015,76973
12.85827,68497
12.86640,65094
12.87452,64782
12.88263,64294
12.89077,61476
12.89888,57830
12.90702,60703
12.91513,59634
12.92325,58202
12.93138,66334
12.93950,55432
12.94762,71376
12.95575,80610
12.96387,104289
12.97200,132543
12.98012,156505
12.98823,185787
12.99637,205251
13.00448,201981
13.01262,197405
13.02073,185664
13.02885,172897
13.03698,146617
13.04510,127935
13.05322,106182
13.06135,92657
13.06947,85146
13.07760,80894
13.08572,75484
13.09383,70202
13.10197,67295
13.11008,66493
13.11822,66076
13.12633,63898
13.13445,65416
13.14258,63459
13.15070,62926
13.15883,62815
13.16695,62682
13.17507,60322
13.18320,65539
13.19132,66030
13.19943,65372
13.20757,62026
13.21568,61014
13.22382,57276
13.23193,62302
13.24005,60855
13.24818,64653
13.25630,72896
13.26443,73586
13.27255,86530
13.28067,87428
13.28880,99377
13.29692,97673
13.30505,101595
13.31317,102123
13.32128,100340
13.32942,97708
13.33753,100465
13.34565,99047
13.35378,98246
13.36190,94588
13.37003,95499
13.37815,91179
13.38627,80988
13.39440,75188
13.40252,74603
13.41065,67238
13.41877,65985
13.42688,63432
13.43502,60838
13.44313,62526
13.45125,62535
13.45938,60650
13.46750,61548
13.47563,61045
13.48375,59213
13.49187,58640
13.50000,59082
13.50812,56831
13.51625,55872
13.52437,53851
13.53248,57916
13.54062,64605
13.54873,63734
13.55687,70505
13.56498,77017
13.57310,83192
13.58123,88689
13.58935,89401
13.59747,96543
13.60560,92350
13.61372,95836
13.62185,98427
13.62997,106021
13.63808,104690
13.64622,109001
13.65433,118454
13.66247,114790
13.67058,109679
13.67870,103356
13.68683,105505
13.69495,84213
13.70307,72521
13.71120,71926
13.71932,71930
13.72745,67368
13.73557,66968
13.74368,71200
13.75182,66804
13.75993,67340
13.76807,69204
13.77618,71979
13.78430,70773
13.79243,73049
13.80055,71181
13.80868,67762
13.81680,67212
13.82492,64864
13.83305,62111
13.84117,68721
13.84928,67936
13.85742,67042
13.86553,66884
13.87367,65866
13.88178,69358
13.88990,69567
13.89803,74901
13.90615,83077
13.91428,84567
13.92240,95984
13.93052,95210
13.93865,93397
13.94677,93083
13.95490,94985
13.96302,94759
13.97113,88428
13.97927,93378
13.98738,90849
13.99550,90572
14.00363,91965
14.01175,101215
14.01988,98799
14.02800,97903
14.03612,96522
14.04425,104747
14.05237,101757
14.06050,97206
14.06862,95689
14.07673,93421
14.08487,95713
14.09298,97539
14.10110,94426
14.10923,91018
14.11735,85040
14.12548,91811
14.13360,111425
14.14172,162354
14.14985,297999
14.15797,530174
14.16610,836049
14.17422,1044270
14.18233,1033068
14.19047,870512
14.19858,609635
14.20672,431377
14.21483,316543
14.22295,250296
14.23108,223056
14.23920,195449
14.24732,181889
14.25545,169163
14.26357,163416
14.27170,163399
14.27982,147297
14.28793,137578
14.29607,138095
14.30418,126676
14.31232,124265
14.32043,106551
14.32855,100778
14.33668,84180
14.34480,77551
14.35293,72685
14.36105,67278
14.36917,63458
14.37730,68341
14.38542,64388
14.39353,65965
14.40167,67475
14.40978,65895
14.41792,67194
14.42603,60687
14.43415,69653
14.44228,63193
14.45040,65664
14.45853,65820
14.46665,60069
14.47477,61341
14.48290,60487
14.49102,57412
14.49913,57845
14.50727,58706
14.51538,58722
14.52352,61174
14.53163,59991
14.53975,57794
14.54788,57685
14.55600,60033
14.56413,59120
14.57225,59158
14.58037,58918
14.58850,54775
14.59662,54648
14.60475,59126
14.61287,58215
14.62098,56728
14.62912,55746
14.63723,57867
14.64535,57100
14.65348,57658
14.66160,59801
14.66973,55897
14.67785,55746
14.68597,58104
14.69410,60683
14.70222,57054
14.71035,54165
14.71847,55936
14.72658,56650
14.73472,60288
14.74283,52297
14.75097,56313
14.75908,54043
14.76720,55274
14.77533,53035
14.78345,56212
14.79157,52038
14.79970,55889
14.80782,56739
14.81595,58934
14.82407,61356
14.83218,61030
14.84032,61899
14.84843,64754
14.85657,60263
14.86468,59823
14.87280,60552
14.88093,62003
14.88905,60560
14.89717,61303
14.90530,58847
14.91342,60248
14.92155,54538
14.92967,63917
14.93778,62646
14.94592,60149
14.95403,61429
14.96217,59610
14.97028,58918
14.97840,56820
14.98653,56791
14.99465,58082
15.00278,59854
15.01090,56193
15.01902,58264
15.02715,61019
15.03527,59689
15.04338,58811
15.05152,58859
15.05963,55123
15.06777,57018
15.07588,55332
15.08400,53408
15.09213,55288
15.10025,57038
15.10838,58195
15.11650,59656
15.12462,54798
15.13275,55210
15.14087,55017
15.14898,53527
15.15712,56893
15.16523,53719
15.17337,52544
15.18148,55176
15.18960,53705
15.19773,53114
15.20585,55686
15.21398,52417
15.22210,50538
15.23022,51195
15.23835,51048
15.24647,53753
15.25460,52293
15.26272,55164
15.27083,51016
15.27897,48645
15.28708,52290
15.29520,47220
15.30333,52398
15.31145,50749
15.31958,59064
15.32770,50072
15.33582,52276
15.34395,50047
15.35207,51188
15.36020,51909
15.36832,50486
15.37643,52461
15.38457,47597
15.39268,50458
15.40082,48905
15.40893,50286
15.41705,50715
15.42518,52883
15.43330,51932
15.44142,50397
15.44955,49615
15.45767,51117
15.46580,49343
15.47392,50886
15.48203,54620
15.49017,56935
15.49828,51861
15.50642,51572
15.51453,52705
15.52265,55195
15.53078,50974
15.53890,51030
15.54702,54050
15.55515,48927
15.56327,46754
15.57140,51864
15.57952,51048
15.58763,50936
15.59577,53056
15.60388,48968
15.61202,53780
15.62013,54050
15.62825,51938
15.63638,52146
15.64450,53027
15.65263,53581
15.66075,51800
15.66887,55447
15.67700,53549
15.68512,50094
15.69323,48311
15.70137,53130
15.70948,53097
15.71762,51867
15.72573,52673
15.73385,51457
15.74198,49196
15.75010,51713
15.75823,50772
15.76635,50054
15.77447,50120
15.78260,53979
15.79072,51081
15.79885,51947
15.80697,56535
15.81508,50857
15.82322,53489
15.83133,52908
15.83945,52441
15.84758,51593
15.85570,53792
15.86383,49626
15.87195,53103
15.88007,53234
15.88820,50717
15.89632,50014
15.90445,52421
15.91257,46854
15.92068,52116
15.92882,55375
15.93693,56604
15.94505,51191
15.95318,56073
15.96130,56993
15.96943,53385
15.97755,52216
15.98567,52861
15.99380,54414
16.00192,57673
16.01005,61694
16.01817,61500
16.02628,65244
16.03442,68191
16.04253,68710
16.05067,64156
16.05878,61296
16.06690,64507
16.07503,58083
16.08315,61232
16.09127,57542
16.09940,52260
16.10752,57185
16.11565,57844
16.12377,52787
16.13188,53557
16.14002,54967
16.14813,50865
16.15627,54935
16.16438,58749
16.17250,52994
16.18063,52538
16.18875,53302
16.19687,55335
16.20500,58263
16.21312,55020
16.22125,61950
16.22937,60210
16.23748,56728
16.24562,57357
16.25373,59472
16.26187,58557
16.26998,57404
16.27810,56721
16.28623,57709
16.29435,55629
16.30248,56171
16.31060,58046
16.31872,61583
16.32685,59693
16.33497,63437
16.34308,61735
16.35122,65283
16.35933,63307
16.36747,61784
16.37558,64177
16.38370,58975
16.39183,55280
16.39995,57326
16.40808,55000
16.41620,55941
16.42432,60180
16.43245,51059
16.44057,55907
16.44870,55555
16.45682,56667
16.46493,60495
16.47307,58796
16.48118,53893
16.48930,52285
16.49743,54226
16.50555,53191
16.51368,56962
16.52180,57746
16.52992,53349
16.53805,51938
16.54617,58244
16.55430,53182
16.56242,55356
16.57053,58288
16.57867,61148
16.58678,54059
16.59492,58100
16.60303,56166
16.61115,58119
16.61928,55297
16.62740,55647
16.63552,54195
16.64365,54873
16.65177,57510
16.65990,59639
16.66802,52677
16.67613,56205
16.68427,53097
16.69238,56767
16.70052,55943
16.70863,53079
16.71675,55288
16.72488,56443
16.73300,61641
16.74112,55765
16.74925,56862
16.75737,53761
16.76550,52791
16.77362,55526
16.78173,54414
16.78987,51264
16.79798,56046
16.80612,55506
16.81423,55086
16.82235,50909
16.83048,51353
16.83860,56246
16.84673,53658
16.85485,53893
16.86297,52823
16.87110,57274
16.87922,53431
16.88733,52451
16.89547,51934
16.90358,51945
16.91172,55538
16.91983,53975
16.92795,53269
16.93608,56037
16.94420,54638
16.95233,61537
16.96045,55247
16.96857,55556
16.97670,53028
16.98482,54471
16.99293,51592
17.00107,53382
17.00918,54715
17.01732,55262
17.02543,55401
17.03355,54241
17.04168,55067
17.04980,56093
17.05793,56315
17.06605,55030
17.07417,56339
17.08230,58410
17.09042,55972
17.09855,62334
17.10667,53951
17.11478,58154
17.12292,56758
17.13103,61277
17.13915,54037
17.14728,57948
17.15540,55582
17.16353,58790
17.17165,57029
17.17977,59037
17.18790,56280
17.19602,57579
17.20415,56337
17.21227,56461
17.22038,53245
17.22852,55961
17.23663,56534
17.24477,51792
17.25288,58757
17.26100,55761
17.26913,52883
17.27725,60012
17.28537,55008
17.29350,56989
17.30162,57651
17.30975,53833
17.31787,55518
17.32598,58776
17.33412,58532
17.34223,63065
17.35037,63309
17.35848,66294
17.36660,68943
17.37473,70867
17.38285,69137
17.39097,66321
17.39910,71511
17.40722,68556
17.41535,68941
17.42347,67806
17.43158,71855
17.43972,67010
17.44783,65186
17.45597,60931
17.46408,65039
17.47220,63349
17.48033,65199
17.48845,64843
17.49658,68038
17.50470,66582
17.51282,67973
17.52095,64154
17.52907,68962
17.53718,69618
17.54532,77520
17.55343,80820
17.56157,86521
17.56968,86086
17.57780,77556
17.58593,80734
17.59405,70996
17.60218,69388
17.61030,64119
17.61842,57258
17.62655,58495
17.63467,57277
17.64280,56896
17.65092,58357
17.65903,57576
17.66717,67709
17.67528,61312
17.68340,65695
17.69153,73197
17.69965,69384
17.70778,63193
17.71590,65530
17.72402,67438
17.73215,63999
17.74027,62779
17.74840,63546
17.75652,58633
17.76463,63662
17.77277,62358
17.78088,60174
17.78900,60397
17.79713,58689
17.80525,60529
17.81338,61853
17.82150,56288
17.82962,60978
17.83775,61640
17.84587,61917
17.85400,66657
17.86212,66075
17.87023,64792
17.87837,60226
17.88648,65090
17.89462,57298
17.90273,59610
17.91085,58787
17.91898,57659
17.92710,54814
17.93522,55784
17.94335,55650
17.95147,53920
17.95960,57926
17.96772,57551
17.97583,56399
17.98397,55829
17.99208,54583
18.00022,57315
18.00833,56610
18.01645,59993
18.02458,57909
18.03270,62205
18.04082,66071
18.04895,72483
18.05707,71110
18.06520,65050
18.07332,65717
18.08143,67927
18.08957,68810
18.09768,68710
18.10582,64062
18.11393,65893
18.12205,69192
18.13018,63490
18.13830,68205
18.14643,69686
18.15455,66435
18.16267,68634
18.17080,64833
18.17892,60327
18.18703,64137
18.19517,63956
18.20328,64884
18.21142,66099
18.21953,70898
18.22765,62324
18.23578,65781
18.24390,64872
18.25203,69571
18.26015,71315
18.26827,77856
18.27640,73915
18.28452,85274
18.29265,81166
18.30077,82868
18.30888,77177
18.31702,77931
18.32513,81437
18.33325,82822
18.34138,83193
18.34950,81244
18.35763,81186
18.36575,81672
18.37387,87797
18.38200,80304
18.39012,84977
18.39825,83563
18.40637,84851
18.41448,82722
18.42262,75779
18.43073,82301
18.43885,78314
18.44698,79246
18.45510,82356
18.46323,77911
18.47135,79674
18.47947,73525
18.48760,77369
18.49572,77826
18.50385,77351
18.51197,68900
18.52008,70792
18.52822,71103
18.53633,71237
18.54447,69712
18.55258,72604
18.56070,69147
18.56883,69709
18.57695,68072
18.58507,63318
18.59320,67593
18.60132,72044
18.60945,69859
18.61757,72315
18.62568,69033
18.63382,69453
18.64193,72566
18.65007,70069
18.65818,68370
18.66630,66586
18.67443,65415
18.68255,64541
18.69068,64529
18.69880,65697
18.70692,64371
18.71505,61001
18.72317,58834
18.73128,66879
18.73942,62796
18.74753,60054
18.75567,60453
18.76378,58947
18.77190,59629
18.78003,60222
18.78815,61356
18.79628,60338
18.80440,63440
18.81252,60646
18.82065,60224
18.82877,59578
18.83688,61170
18.84502,56855
18.85313,58152
18.86127,57954
18.86938,59492
18.87750,56882
18.88563,62286
18.89375,60450
18.90188,61187
18.91000,61422
18.91812,67698
18.92625,64600
18.93437,62028
18.94250,59107
18.95062,61112
18.95873,59387
18.96687,59200
18.97498,58752
18.98310,57052
18.99123,60153
18.99935,61371
19.00748,60590
19.01560,57955
19.02372,58865
19.03185,64012
19.03997,59552
19.04810,58545
19.05622,67226
19.06433,63683
19.07247,65493
19.08058,64124
19.08872,65908
19.09683,68928
19.10495,71166
19.11308,73764
19.12120,71608
19.12932,74557
19.13745,76671
19.14557,74214
19.15370,77801
19.16182,76978
19.16993,80324
19.17807,74371
19.18618,77114
19.19432,76701
19.20243,69856
19.21055,69196
19.21868,64382
19.22680,62819
19.23492,60833
19.24305,62647
19.25117,57511
19.25930,60128
19.26742,61775
19.27553,65338
19.28367,68018
19.29178,67576
19.29992,71175
19.30803,75436
19.31615,75550
19.32428,71086
19.33240,73314
19.34053,71901
19.34865,71050
19.35677,69801
19.36490,66416
19.37302,70064
19.38113,69285
19.38927,71872
19.39738,65843
19.40552,72286
19.41363,66906
19.42175,71106
19.42988,78081
19.43800,106893
19.44613,155225
19.45425,253959
19.46237,382403
19.47050,502879
19.47862,542761
19.48673,482877
19.49487,360222
19.50298,230523
19.51112,152595
19.51923,109074
19.52735,94350
19.53548,79955
19.54360,76159
19.55173,73696
19.55985,81450
19.56797,75980
19.57610,76005
19.58422,68758
19.59235,76019
19.60047,72101
19.60858,76058
19.61672,78805
19.62483,83374
19.63295,97339
19.64108,122154
19.64920,158512
19.65733,191125
19.66545,207513
19.67357,212274
19.68170,195045
19.68982,165582
19.69795,148351
19.70607,128952
19.71418,118179
19.72232,106035
19.73043,103170
19.73857,97879
19.74668,87107
19.75480,83415
19.76293,78676
19.77105,80010
19.77917,71125
19.78730,78303
19.79542,73592
19.80355,68974
19.81167,73998
19.81978,69692
19.82792,70814
19.83603,68889
19.84417,69199
19.85228,70696
19.86040,72098
19.86853,75537
19.87665,81130
19.88477,95779
19.89290,123749
19.90102,145739
19.90915,179272
19.91727,196329
19.92538,201195
19.93352,202796
19.94163,203158
19.94977,201178
19.95788,195479
19.96600,187392
19.97413,177711
19.98225,172506
19.99038,179489
19.99850,173549
20.00662,158381
20.01475,157006
20.02287,146028
20.03098,148497
20.03912,136775
20.04723,126924
20.05537,116719
20.06348,107811
20.07160,94936
20.07973,88099
20.08785,86031
20.09598,85976
20.10410,83888
20.11222,80442
20.12035,81411
20.12847,85231
20.13660,83947
20.14472,86067
20.15283,81358
20.16097,80239
20.16908,85066
20.17720,87155
20.18533,86818
20.19345,90354
20.20158,93852
20.20970,92930
20.21782,100690
20.22595,104485
20.23407,120229
20.24220,142964
20.25032,162520
20.25843,198269
20.26657,209495
20.27468,216355
20.28280,198976
20.29093,187847
20.29905,171097
20.30718,155686
20.31530,135070
20.32342,118877
20.33155,112921
20.33967,100253
20.34780,95593
20.35592,95144
20.36403,91563
20.37217,85295
20.38028,90949
20.38842,92608
20.39653,93232
20.40465,100982
20.41278,102422
20.42090,110746
20.42902,113870
20.43715,116641
20.44527,111753
20.45340,104209
20.46152,107949
20.46963,97642
20.47777,101745
20.48588,90887
20.49402,94140
20.50213,91992
20.51025,90288
20.51838,86005
20.52650,93012
20.53462,88119
20.54275,91028
20.55087,89994
20.55900,85639
20.56712,88046
20.57523,94237
20.58337,88540
20.59148,90294
20.59962,91189
20.60773,90666
20.61585,88229
20.62398,89815
20.63210,88400
20.64023,89480
20.64835,89450
20.65647,88581
20.66460,88828
20.67272,90561
20.68083,87641
20.68897,96896
20.69708,93974
20.70522,89765
20.71333,97936
20.72145,88627
20.72958,95140
20.73770,91206
20.74583,98038
20.75395,92537
20.76207,97810
20.77020,99651
20.77832,96405
20.78645,97985
20.79457,104583
20.80268,94140
20.81082,101724
20.81893,101412
20.82705,105045
20.83518,108078
20.84330,107932
20.85143,107512
20.85955,107040
20.86767,108901
20.87580,110673
20.88392,107980
20.89205,113844
20.90017,110355
20.90828,116516
20.91642,120621
20.92453,113442
20.93265,118276
20.94078,114494
20.94890,120315
20.95703,122259
20.96515,121637
20.97327,125839
20.98140,125132
20.98952,125718
20.99765,124768
21.00577,132656
21.01388,131026
21.02202,130545
21.03013,131890
21.03827,131869
21.04638,129150
21.05450,136066
21.06263,139775
21.07075,131809
21.07887,131782
21.08700,129914
21.09512,132627
21.10325,136447
21.11137,127828
21.11948,128835
21.12762,137471
21.13573,127956
21.14387,138110
21.15198,133996
21.16010,130813
21.16823,126599
21.17635,127189
21.18448,135203
21.19260,126338
21.20072,123910
21.20885,125803
21.21697,128752
21.22508,126584
21.23322,131633
21.24133,127324
21.24947,132056
21.25758,133654
21.26570,134750
21.27383,132132
21.28195,122342
21.29008,125271
21.29820,125736
21.30632,120132
21.31445,123690
21.32257,120360
21.33068,118123
21.33882,118288
21.34693,115201
21.35507,119716
21.36318,120374
21.37130,116968
21.37943,116395
21.38755,112952
21.39568,117362
21.40380,111251
21.41192,117543
21.42005,113739
21.42817,116604
21.43630,115603
21.44442,114965
21.45253,117854
21.46067,115351
21.46878,118033
21.47690,114479
21.48503,112693
21.49315,111493
21.50128,116540
21.50940,118785
21.51752,121867
21.52565,119050
21.53377,118947
21.54190,111470
21.55002,113285
21.55813,112557
21.56627,115557
21.57438,119768
21.58250,128732
21.59063,127419
21.59875,136614
21.60688,155124
21.61500,158798
21.62312,155554
21.63125,152373
21.63937,147507
21.64750,137288
21.65562,122858
21.66373,121486
21.67187,110373
21.67998,108685
21.68812,105974
21.69623,96763
21.70435,101190
21.71248,100249
21.72060,101247
21.72872,96345
21.73685,94713
21.74497,97372
21.75310,94609
21.76122,98723
21.76933,103067
21.77747,103078
21.78558,106195
21.79372,120804
21.80183,126046
21.80995,128608
21.81808,131258
21.82620,128124
21.83433,115807
21.84245,110271
21.85057,97730
21.85870,94590
21.86682,89935
21.87493,86467
21.88307,82667
21.89118,90284
21.89932,87192
21.90743,89711
21.91555,86381
21.92368,84419
21.93180,79239
21.93993,79631
21.94805,77545
21.95617,77836
21.96430,77625
21.97242,75684
21.98055,79554
21.98867,78551
21.99678,74262
22.00492,72337
22.01303,74448
22.02115,75100
22.02928,74741
22.03740,76427
22.04553,74860
22.05365,79823
22.06177,77755
22.06990,77285
22.07802,79752
22.08615,80713
22.09427,76777
22.10238,79920
22.11052,82383
22.11863,79754
22.12675,78732
22.13488,73293
22.14300,78145
22.15113,78663
22.15925,81525
22.16737,75404
22.17550,72449
22.18362,80124
22.19175,79711
22.19987,84220
22.20798,85950
22.21612,80320
22.22423,80715
22.23237,74266
22.24048,71429
22.24860,72031
22.25673,68885
22.26485,66895
22.27297,66516
22.28110,69242
22.28922,70463
22.29735,70871
22.30547,73574
22.31358,78411
22.32172,73854
22.32983,73341
22.33797,73173
22.34608,75718
22.35420,67832
22.36233,72858
22.37045,74761
22.37857,65824
22.38670,69820
22.39482,69189
22.40295,72656
22.41107,70855
22.41918,72506
22.42732,71055
22.43543,69580
22.44357,72013
22.45168,72614
22.45980,69259
22.46793,68835
22.47605,73316
22.48418,70141
22.49230,66478
22.50042,68716
22.50855,66487
22.51667,67524
22.52478,70802
22.53292,67690
22.54103,72848
22.54917,74797
22.55728,70652
22.56540,69374
22.57353,69566
22.58165,74207
22.58978,71718
22.59790,70048
22.60602,67192
22.61415,68443
22.62227,66698
22.63040,65036
22.63852,74415
22.64663,65608
22.65477,75571
22.66288,66406
22.67100,72686
22.67913,72988
22.68725,69467
22.69538,69290
22.70350,73566
22.71162,74870
22.71975,74407
22.72787,73986
22.73600,73293
22.74412,68180
22.75223,67751
22.76037,72012
22.76848,68872
22.77660,71139
22.78473,71694
22.79285,70339
22.80098,73823
22.80910,71864
22.81722,72480
22.82535,71422
22.83347,70697
22.84160,77051
22.84972,77250
22.85783,74115
22.86597,77640
22.87408,75062
22.88222,79298
22.89033,76707
22.89845,85682
22.90658,90874
22.91470,97875
22.92282,104954
22.93095,111743
22.93907,120195
22.94720,118927
22.95532,115580
22.96343,119602
22.97157,109152
22.97968,106918
22.98782,103863
22.99593,97132
23.00405,90998
23.01218,89773
23.02030,86387
23.02843,87279
23.03655,85304
23.04467,83711
23.05280,81330
23.06092,77366
23.06903,80126
23.07717,79498
23.08528,74893
23.09342,71773
23.10153,75821
23.10965,73408
23.11778,75416
23.12590,70668
23.13403,72228
23.14215,76045
23.15027,73859
23.15840,74426
23.16652,72079
23.17463,69844
23.18277,76551
23.19088,72927
23.19902,67668
23.20713,66432
23.21525,70125
23.22338,66530
23.23150,68355
23.23963,69902
23.24775,69542
23.25587,69424
23.26400,72035
23.27212,70323
23.28025,70534
23.28837,71660
23.29648,77007
23.30462,71750
23.31273,76314
23.32085,74144
23.32898,74694
23.33710,69980
23.34523,70787
23.35335,70953
23.36147,70651
23.36960,71373
23.37772,71889
23.38585,77472
23.39397,76395
23.40208,71772
23.41022,79723
23.41833,80546
23.42645,80213
23.43458,77125
23.44270,72696
23.45083,73067
23.45895,75196
23.46707,70139
23.47520,70564
23.48332,70795
23.49145,76819
23.49957,71401
23.50768,74550
23.51582,74148
23.52393,77789
23.53207,75751
23.54018,74145
23.54830,74023
23.55643,79738
23.56455,76916
23.57267,81415
23.58080,81585
23.58892,82539
23.59705,86954
23.60517,78628
23.61328,82937
23.62142,86679
23.62953,83871
23.63767,86085
23.64578,83784
23.65390,93433
23.66203,97867
23.67015,98694
23.67828,100352
23.68640,99146
23.69452,98994
23.70265,98488
23.71077,94612
23.71888,98985
23.72702,109434
23.73513,132725
23.74327,218727
23.75138,438225
23.75950,926963
23.76763,1743437
23.77575,2592221
23.78388,3308539
23.79200,3480081
23.80012,3160322
23.80825,2508252
23.81637,1948632
23.82448,1433844
23.83262,1031709
23.84073,800028
23.84887,621730
23.85698,514301
23.86510,437822
23.87323,372688
23.88135,337499
23.88948,297468
23.89760,272731
23.90572,251300
23.91385,236964
23.92197,222522
23.93010,209502
23.93822,200223
23.94633,193970
23.95447,184947
23.96258,172831
23.97070,169464
23.97883,157442
23.98695,160048
23.99508,152389
24.00320,153960
24.01132,143269
24.01945,148182
24.02757,148444
24.03570,137772
24.04382,138480
24.05193,142512
24.06007,131407
24.06818,128515
24.07632,132413
24.08443,134457
24.09255,135722
24.10068,136028
24.10880,130171
24.11692,137864
24.12505,129784
24.13317,125039
24.14130,123060
24.14942,118415
24.15753,120542
24.16567,120686
24.17378,128992
24.18192,131828
24.19003,138864
24.19815,135565
24.20628,124496
24.21440,129980
24.22252,115849
24.23065,113764
24.23877,109345
24.24690,111755
24.25502,101017
24.26313,103843
24.27127,102836
24.27938,102099
24.28752,99366
24.29563,103939
24.30375,98077
24.31188,103381
24.32000,110348
24.32813,123469
24.33625,158702
24.34437,225178
24.35250,304649
24.36062,362924
24.36873,366733
24.37687,314334
24.38498,241646
24.39312,168771
24.40123,122737
24.40935,111853
24.41748,96979
24.42560,100565
24.43373,101398
24.44185,103673
24.44997,101325
24.45810,112226
24.46622,118860
24.47433,118985
24.48247,113050
24.49058,112119
24.49872,111680
24.50683,106599
24.51495,99590
24.52308,94977
24.53120,91977
24.53933,93081
24.54745,89902
24.55557,93855
24.56370,88812
24.57182,87985
24.57995,84088
24.58807,91427
24.59618,88244
24.60432,93736
24.61243,86231
24.62055,88278
24.62868,96199
24.63680,89823
24.64493,88406
24.65305,86478
24.66117,92231
24.66930,89832
24.67742,88724
24.68555,89624
24.69367,85999
24.70178,87479
24.70992,87358
24.71803,85982
24.72617,87968
24.73428,89783
24.74240,83832
24.75053,84588
24.75865,87295
24.76677,86788
24.77490,83476
24.78302,83609
24.79115,81565
24.79927,78981
24.80738,84666
24.81552,80128
24.82363,82513
24.83177,80954
24.83988,82107
24.84800,82577
24.85613,81554
24.86425,80791
24.87237,82629
24.88050,82397
24.88862,84992
24.89675,80910
24.90487,79596
24.91298,77399
24.92112,81944
24.92923,79517
24.93737,79338
24.94548,80382
24.95360,79234
24.96173,78842
24.96985,82785
24.97798,79415
24.98610,79659
24.99422,78874
25.00235,74708
25.01047,77972
25.01858,79037
25.02672,83783
25.03483,79043
25.04297,78458
25.05108,75587
25.05920,84097
25.06733,80686
25.07545,79242
25.08358,79176
25.09170,74989
25.09982,79526
25.10795,81578
25.11607,83322
25.12420,81827
25.13232,86556
25.14043,87857
25.14857,90049
25.15668,90966
25.16480,90068
25.17293,90917
25.18105,88680
25.18918,77216
25.19730,83511
25.20542,84372
25.21355,77210
25.22167,77982
25.22980,78651
25.23792,76991
25.24603,81811
25.25417,75092
25.26228,81822
25.27040,80702
25.27853,87763
25.28665,84486
25.29478,90871
25.30290,99355
25.31102,107465
25.31915,105305
25.32727,104315
25.33540,102486
25.34352,97768
25.35163,93182
25.35977,91162
25.36788,80374
25.37602,82459
25.38413,78473
25.39225,76213
25.40038,80020
25.40850,80544
25.41662,81083
25.42475,78887
25.43287,80256
25.44100,82392
25.44912,81555
25.45723,81829
25.46537,80579
25.47348,79198
25.48162,75754
25.48973,76806
25.49785,75685
25.50598,72958
25.51410,78733
25.52223,77088
25.53035,80118
25.53847,77433
25.54660,78556
25.55472,75064
25.56283,74634
25.57097,75630
25.57908,74768
25.58722,72316
25.59533,76790
25.60345,74413
25.61158,73500
25.61970,75070
25.62783,73585
25.63595,74402
25.64407,75915
25.65220,77113
25.66032,72789
25.66843,75324
25.67657,72627
25.68468,75521
25.69282,71544
25.70093,74065
25.70905,73037
25.71718,72453
25.72530,74565
25.73343,72516
25.74155,75172
25.74967,73748
25.75780,76178
25.76592,79592
25.77405,75249
25.78217,79875
25.79028,77436
25.79842,72621
25.80653,70950
25.81465,74382
25.82278,76467
25.83090,74071
25.83903,76217
25.84715,71810
25.85527,72190
25.86340,76497
25.87152,75968
25.87965,73522
25.88777,70802
25.89588,74985
25.90402,70674
25.91213,80148
25.92025,75055
25.92838,70241
25.93650,72964
25.94463,76875
25.95275,74300
25.96087,77468
25.96900,76177
25.97712,73155
25.98525,69489
25.99337,74083
26.00148,73368
26.00962,74676
26.01773,75922
26.02587,76992
26.03398,75866
26.04210,69344
26.05023,76537
26.05835,75161
26.06647,72865
26.07460,72692
26.08272,79151
26.09085,77551
26.09897,77409
26.10708,77157
26.11522,87715
26.12333,90067
26.13147,92919
26.13958,99164
26.14770,106011
26.15583,106480
26.16395,101872
26.17208,96856
26.18020,93387
26.18832,85235
26.19645,86952
26.20457,85339
26.21268,87225
26.22082,81282
26.22893,78765
26.23707,82970
26.24518,80029
26.25330,73524
26.26143,75532
26.26955,79347
26.27768,73627
26.28580,78143
26.29392,74914
26.30205,74317
26.31017,75389
26.31828,74863
26.32642,76857
26.33453,76577
26.34267,79957
26.35078,75686
26.35890,80906
26.36703,76095
26.37515,74176
26.38328,73493
26.39140,78689
26.39952,75055
26.40765,74928
26.41577,82328
26.42390,74286
26.43202,75568
26.44013,77536
26.44827,76827
26.45638,75753
26.46450,75613
26.47263,78011
26.48075,73926
26.48888,80565
26.49700,73616
26.50512,70794
26.51325,73836
26.52137,73686
26.52950,71529
26.53762,75179
26.54573,74807
26.55387,75578
26.56198,76258
26.57012,78291
26.57823,79191
26.58635,72291
26.59448,75686
26.60260,73593
26.61072,71166
26.61885,75363
26.62697,73855
26.63510,77520
26.64322,77722
26.65133,69787
26.65947,75884
26.66758,77883
26.67572,75398
26.68383,80192
26.69195,79216
26.70008,78155
26.70820,75133
26.71632,76648
26.72445,77934
26.73257,82377
26.74070,78741
26.74882,77029
26.75693,81665
26.76507,76272
26.77318,77915
26.78132,76020
26.78943,81861
26.79755,86090
26.80568,84766
26.81380,84851
26.82193,93486
26.83005,89779
26.83817,82386
26.84630,83495
26.85442,80144
26.86253,81039
26.87067,79927
26.87878,82118
26.88692,76291
26.89503,83633
26.90315,82179
26.91128,81044
26.91940,84724
26.92753,84977
26.93565,92430
26.94377,108419
26.95190,137458
26.96002,199118
26.96813,342918
26.97627,555854
26.98438,897118
26.99252,1276617
27.00063,1645450
27.00875,1855717
27.01688,1809456
27.02500,1541568
27.03313,1197954
27.04125,910905
27.04937,676677
27.05750,501143
27.06562,395800
27.07375,347069
27.08187,293693
27.08998,249651
27.09812,212679
27.10623,201336
27.11435,184903
27.12248,176231
27.13060,163389
27.13873,155172
27.14685,153481
27.15497,150777
27.16310,137661
27.17122,135357
27.17935,131310
27.18747,128742
27.19558,126096
27.20372,122204
27.21183,123029
27.21997,121718
27.22808,116911
27.23620,104000
27.24433,110204
27.25245,106154
27.26057,108642
27.26870,106761
27.27682,105518
27.28495,104568
27.29307,103479
27.30118,106496
27.30932,96298
27.31743,99039
27.32557,95172
27.33368,98480
27.34180,102339
27.34993,99861
27.35805,100555
27.36618,99329
27.37430,97363
27.38242,101262
27.39055,99563
27.39867,97453
27.40678,103334
27.41492,99799
27.42303,90980
27.43117,96672
27.43928,93094
27.44740,97233
27.45553,90842
27.46365,97566
27.47178,101173
27.47990,96061
27.48802,99516
27.49615,97967
27.50427,91519
27.51238,90226
27.52052,85760
27.52863,88743
27.53677,90861
27.54488,85289
27.55300,83714
27.56113,89511
27.56925,87848
27.57738,87725
27.58550,94380
27.59362,92460
27.60175,86862
27.60987,83490
27.61800,84309
27.62612,81975
27.63423,86977
27.64237,83008
27.65048,84437
27.65860,85107
27.66673,83191
27.67485,79476
27.68298,79946
27.69110,82313
27.69922,84953
27.70735,87937
27.71547,85748
27.72360,85886
27.73172,91045
27.73983,93664
27.74797,92627
27.75608,96998
27.76420,92111
27.77233,88476
27.78045,86935
27.78858,83353
27.79670,82722
27.80482,88278
27.81295,85311
27.82107,84966
27.82920,84231
27.83732,83725
27.84543,85763
27.85357,86793
27.86168,94119
27.86982,88427
27.87793,87493
27.88605,92081
27.89418,86699
27.90230,83839
27.91042,83857
27.91855,79620
27.92667,81978
27.93480,82585
27.94292,86352
27.95103,81077
27.95917,83229
27.96728,88490
27.97542,89954
27.98353,85533
27.99165,87014
27.99978,88228
28.00790,89199
28.01603,85706
28.02415,86064
28.03227,88589
28.04040,89315
28.04852,87329
28.05663,90242
28.06477,84198
28.07288,88434
28.08102,94593
28.08913,102029
28.09725,108313
28.10538,119278
28.11350,125775
28.12163,123444
28.12975,121683
28.13787,113733
28.14600,105426
28.15412,99077
28.16223,98627
28.17037,100872
28.17848,94046
28.18662,89676
28.19473,83581
28.20285,90891
28.21098,92281
28.21910,89666
28.22723,85848
28.23535,90598
28.24347,92352
28.25160,96960
28.25972,110050
28.26785,129378
28.27597,160076
28.28408,203614
28.29222,271578
28.30033,345591
28.30845,412301
28.31658,461337
28.32470,503953
28.33283,504367
28.34095,490221
28.34907,449008
28.35720,422493
28.36532,390916
28.37345,346858
28.38157,306454
28.38968,276833
28.39782,243795
28.40593,215394
28.41407,195802
28.42218,181806
28.43030,173986
28.43843,161200
28.44655,150330
28.45467,146218
28.46280,143308
28.47092,132378
28.47905,136399
28.48717,128434
28.49528,124208
28.50342,121889
28.51153,124645
28.51967,120841
28.52778,118933
28.53590,120220
28.54403,114739
28.55215,117386
28.56027,108447
28.56840,107169
28.57652,110910
28.58465,107832
28.59277,110265
28.60088,105129
28.60902,101576
28.61713,105553
28.62527,111515
28.63338,108424
28.64150,120151
28.64963,123346
28.65775,131449
28.66588,131995
28.67400,122661
28.68212,124952
28.69025,125555
28.69837,124067
28.70648,147628
28.71462,169036
28.72273,203205
28.73087,212381
28.73898,210012
28.74710,199286
28.75523,152781
28.76335,137501
28.77148,116366
28.77960,109310
28.78772,108185
28.79585,104553
28.80397,99189
28.81208,101565
28.82022,104355
28.82833,96515
28.83647,95828
28.84458,96452
28.85270,98580
28.86083,95393
28.86895,95727
28.87708,103161
28.88520,99521
28.89332,95981
28.90145,98199
28.90957,96317
28.91770,94512
28.92582,98807
28.93393,94579
28.94207,102241
28.95018,103585
28.95830,103947
28.96643,108999
28.97455,105005
28.98268,103016
28.99080,103408
28.99892,100286
29.00705,97521
29.01517,100112
29.02330,101186
29.03142,98168
29.03953,98175
29.04767,103724
29.05578,93491
29.06392,98306
29.07203,102546
29.08015,94079
29.08828,102554
29.09640,95840
29.10452,98563
29.11265,98122
29.12077,102953
29.12890,98706
29.13702,97748
29.14513,100570
29.15327,98302
29.16138,102394
29.16952,99674
29.17763,104766
29.18575,103177
29.19388,108237
29.20200,103370
29.21012,102962
29.21825,99810
29.22637,103486
29.23450,105881
29.24262,108676
29.25073,111563
29.25887,112171
29.26698,114672
29.27512,110212
29.28323,125611
29.29135,116327
29.29948,110803
29.30760,110540
29.31573,108580
29.32385,111604
29.33197,108050
29.34010,109802
29.34822,106697
29.35633,109615
29.36447,106713
29.37258,103983
29.38072,108476
29.38883,103893
29.39695,105472
29.40508,104114
29.41320,108244
29.42133,112730
29.42945,115692
29.43757,107877
29.44570,117294
29.45382,110604
29.46195,108421
29.47007,112804
29.47818,118405
29.48632,120075
29.49443,121514
29.50255,126125
29.51068,129355
29.51880,127076
29.52693,119672
29.53505,120116
29.54317,114929
29.55130,114523
29.55942,118234
29.56755,121718
29.57567,129666
29.58378,130997
29.59192,138405
29.60003,141926
29.60815,137084
29.61628,130350
29.62440,132995
29.63253,124356
29.64065,116101
29.64877,121311
29.65690,116207
29.66502,117681
29.67315,109744
29.68127,109814
29.68938,115829
29.69752,117608
29.70563,118020
29.71377,116171
29.72188,116561
29.73000,113788
29.73813,118769
29.74625,123503
29.75437,112007
29.76250,113417
29.77062,123003
29.77875,113040
29.78687,123572
29.79498,120093
29.80312,119689
29.81123,116632
29.81937,119871
29.82748,118139
29.83560,121378
29.84373,126213
29.85185,119149
29.85998,123715
29.86810,126223
29.87622,130240
29.88435,135157
29.89247,150247
29.90058,167945
29.90872,179611
29.91683,207941
29.92497,227811
29.93308,245564
29.94120,267063
29.94933,282375
29.95745,313670
29.96558,308231
29.97370,325223
29.98182,311916
29.98995,315991
29.99807,289605
30.00618,287196
30.01432,263121
30.02243,254614
30.03057,238478
30.03868,230618
30.04680,219863
30.05493,210855
30.06305,209871
30.07118,204714
30.07930,198446
30.08742,199813
30.09555,199751
30.10367,188708
30.11180,196511
30.11992,194828
30.12803,193159
30.13617,201773
30.14428,202798
30.15240,202391
30.16053,200954
30.16865,208119
30.17678,218803
30.18490,213755
30.19302,217636
30.20115,216280
30.20927,225489
30.21740,225116
30.22552,227950
30.23363,234700
30.24177,237849
30.24988,239824
30.25800,241297
30.26613,248197
30.27425,249368
30.28238,255677
30.29050,249684
30.29862,259149
30.30675,247237
30.31487,261732
30.32300,271229
30.33112,278388
30.33923,271823
30.34737,270717
30.35548,272021
30.36362,263016
30.37173,268623
30.37985,264651
30.38798,275305
30.39610,280645
30.40422,271260
30.41235,262559
30.42047,260511
30.42860,266214
30.43672,265738
30.44483,258211
30.45297,266961
30.46108,274841
30.46922,256396
30.47733,262283
30.48545,266038
30.49358,265464
30.50170,270304
30.50983,276227
30.51795,277643
30.52607,274290
30.53420,276160
30.54232,284067
30.55043,280628
30.55857,281918
30.56668,272256
30.57482,278477
30.58293,293268
30.59105,282163
30.59918,276581
30.60730,271969
30.61543,280807
30.62355,284024
30.63167,284311
30.63980,284082
30.64792,271355
30.65603,281072
30.66417,269596
30.67228,266783
30.68042,271741
30.68853,254526
30.69665,246262
30.70478,250902
30.71290,239944
30.72103,234008
30.72915,230204
30.73727,228932
30.74540,221961
30.75352,214678
30.76165,210240
30.76977,202788
30.77788,199965
30.78602,201144
30.79413,197518
30.80225,196729
30.81038,193215
30.81850,190685
30.82663,182262
30.83475,176317
30.84287,167224
30.85100,172898
30.85912,153953
30.86725,155803
30.87537,153715
30.88348,153297
30.89162,145491
30.89973,149182
30.90787,140368
30.91598,142169
30.92410,141887
30.93223,134597
30.94035,137651
30.94847,136139
30.95660,137360
30.96472,134713
30.97285,128951
30.98097,134805
30.98908,121829
30.99722,127520
31.00533,135547
31.01347,128137
31.02158,125967
31.02970,132759
31.03783,130776
31.04595,129053
31.05407,130436
31.06220,129578
31.07032,125282
31.07845,132586
31.08657,139971
31.09468,148123
31.10282,151033
31.11093,154963
31.11907,151595
31.12718,141716
31.13530,137053
31.14343,129509
31.15155,144120
31.15968,159445
31.16780,175176
31.17592,232438
31.18405,314171
31.19217,439294
31.20028,577347
31.20842,666282
31.21653,712752
31.22467,645410
31.23278,530969
31.24090,405119
31.24903,297991
31.25715,218306
31.26528,169374
31.27340,149639
31.28152,142106
31.28965,138812
31.29777,128532
31.30588,129916
31.31402,130115
31.32213,126093
31.33027,126862
31.33838,130515
31.34650,127404
31.35463,129421
31.36275,133267
31.37088,132639
31.37900,136321
31.38712,132098
31.39525,125962
31.40337,124716
31.41150,121053
31.41962,126053
31.42773,135302
31.43587,124088
31.44398,130202
31.45210,129317
31.46023,132620
31.46835,129453
31.47648,129552
31.48460,127924
31.49272,126797
31.50085,127351
31.50897,129956
31.51710,126211
31.52522,129352
31.53333,134404
31.54147,129813
31.54958,130888
31.55772,124868
31.56583,132929
31.57395,126080
31.58208,130142
31.59020,126716
31.59832,135864
31.60645,129084
31.61457,125122
31.62270,134154
31.63082,133158
31.63893,128548
31.64707,129388
31.65518,136125
31.66332,140816
31.67143,130252
31.67955,136822
31.68768,138900
31.69580,142820
31.70392,140433
31.71205,143147
31.72017,143851
31.72830,137883
31.73642,144700
31.74453,140185
31.75267,140726
31.76078,129517
31.76892,140596
31.77703,139071
31.78515,141679
31.79328,140594
31.80140,150513
31.80953,146997
31.81765,150572
31.82577,146469
31.83390,151807
31.84202,153502
31.85013,161841
31.85827,174439
31.86638,196199
31.87452,198954
31.88263,214305
31.89075,228483
31.89888,233883
31.90700,240657
31.91513,240264
31.92325,241023
31.93137,234490
31.93950,226003
31.94762,223510
31.95575,214259
31.96387,207346
31.97198,206784
31.98012,204013
31.98823,191873
31.99635,193449
32.00448,181515
32.01260,183021
32.02073,176797
32.02885,182371
32.03697,172685
32.04510,174135
32.05322,163553
32.06135,169836
32.06947,167598
32.07758,165597
32.08572,161507
32.09383,162656
32.10195,159725
32.11008,157899
32.11820,155355
32.12633,156046
32.13445,156637
32.14257,152270
32.15070,149591
32.15882,150618
32.16695,152149
32.17507,146540
32.18318,150472
32.19132,148845
32.19943,151000
32.20757,148752
32.21568,145415
32.22380,152620
32.23193,148367
32.24005,143030
32.24817,149597
32.25630,149001
32.26442,152183
32.27255,149151
32.28067,156725
32.28878,148788
32.29692,149465
32.30503,146572
32.31317,153759
32.32128,156519
32.32940,152821
32.33753,153391
32.34565,158800
32.35377,155334
32.36190,155289
32.37002,157182
32.37815,155974
32.38627,151038
32.39438,154032
32.40252,143862
32.41063,145350
32.41877,146462
32.42688,150033
32.43500,138617
32.44313,146272
32.45125,153321
32.45938,148498
32.46750,151372
32.47562,146519
32.48375,148980
32.49187,149181
32.49998,144077
32.50812,147130
32.51623,145199
32.52437,143520
32.53248,143432
32.54060,148243
32.54873,144905
32.55685,147872
32.56498,141587
32.57310,149843
32.58122,153357
32.58935,155780
32.59747,167398
32.60560,189144
32.61372,213003
32.62183,221417
32.62997,220528
32.63808,207052
32.64620,193363
32.65433,167755
32.66245,164727
32.67058,154553
32.67870,157026
32.68682,152370
32.69495,158022
32.70307,159984
32.71120,155804
32.71932,158726
32.72743,155226
32.73557,154892
32.74368,151635
32.75182,154455
32.75993,143459
32.76805,145859
32.77618,147140
32.78430,144799
32.79242,145378
32.80055,144846
32.80867,144332
32.81680,143064
32.82492,143783
32.83303,149790
32.84117,140258
32.84928,149109
32.85742,149150
32.86553,145699
32.87365,149245
32.88178,149288
32.88990,149534
32.89802,144294
32.90615,144998
32.91427,155767
32.92240,155597
32.93052,150505
32.93863,144756
32.94677,150269
32.95488,153424
32.96302,149550
32.97113,150515
32.97925,149784
32.98738,150976
32.99550,153191
33.00363,151617
33.01175,155524
33.01987,154170
33.02800,146508
33.03612,146140
33.04423,152557
33.05237,150156
33.06048,154964
33.06862,149855
33.07673,152605
33.08485,156736
33.09298,160936
33.10110,164341
33.10923,171548
33.11735,180876
33.12547,181116
33.13360,185187
33.14172,176559
33.14983,166877
33.15797,159182
33.16608,156231
33.17422,164321
33.18233,149892
33.19045,155869
33.19858,156877
33.20670,158321
33.21483,148963
33.22295,155595
33.23107,157486
33.23920,157970
33.24732,158697
33.25545,159830
33.26357,159889
33.27168,163083
33.27982,159399
33.28793,160906
33.29605,159125
33.30418,168834
33.31230,167493
33.32043,165793
33.32855,163939
33.33667,162397
33.34480,166671
33.35292,167572
33.36105,173011
33.36917,171674
33.37728,179419
33.38542,178786
33.39353,186184
33.40167,183802
33.40978,187706
33.41790,189739
33.42603,191490
33.43415,193094
33.44227,193662
33.45040,204788
33.45852,200309
33.46665,206556
33.47477,214641
33.48288,213584
33.49102,215294
33.49913,223074
33.50727,222800
33.51538,214645
33.52350,224867
33.53163,229504
33.53975,239270
33.54787,236966
33.55600,235993
33.56412,254388
33.57225,241345
33.58037,250825
33.58848,236269
33.59662,243371
33.60473,245955
33.61287,245612
33.62098,248640
33.62910,244313
33.63723,245645
33.64535,246605
33.65348,251512
33.66160,248214
33.66972,236438
33.67785,236754
33.68597,245009
33.69408,237025
33.70222,240259
33.71033,233001
33.71847,238788
33.72658,236703
33.73470,232063
33.74283,235708
33.75095,240748
33.75908,240450
33.76720,237635
33.77532,236030
33.78345,246572
33.79157,245782
33.79970,238722
33.80782,239063
33.81593,246641
33.82407,238743
33.83218,241312
33.84030,236742
33.84843,239159
33.85655,243986
33.86468,247811
33.87280,252771
33.88092,255604
33.88905,260859
33.89717,269516
33.90530,278056
33.91342,290694
33.92153,297819
33.92967,306126
33.93778,308966
33.94590,321792
33.95403,316341
33.96215,323116
33.97028,321130
33.97840,325941
33.98652,329550
33.99465,324383
34.00277,321590
34.01090,305924
34.01902,305261
34.02713,298469
34.03527,296037
34.04338,283562
34.05152,284307
34.05963,277964
34.06775,272603
34.07588,267332
34.08400,263662
34.09212,258843
34.10025,259779
34.10837,245247
34.11650,237902
34.12462,233974
34.13273,229382
34.14087,226916
34.14898,223225
34.15712,223418
34.16523,227923
34.17335,219952
34.18148,220809
34.18960,218848
34.19772,219616
34.20585,214453
34.21397,207865
34.22210,204493
34.23022,210422
34.23833,219784
34.24647,211471
34.25458,209819
34.26272,215781
34.27083,203559
34.27895,210083
34.28708,208221
34.29520,206890
34.30333,207218
34.31145,213083
34.31957,211586
34.32770,216244
34.33582,213403
34.34393,211350
34.35207,211668
34.36018,211105
34.36832,210014
34.37643,205620
34.38455,211184
34.39268,210665
34.40080,216953
34.40893,212354
34.41705,215768
34.42517,217264
34.43330,214876
34.44142,218904
34.44955,229694
34.45767,228017
34.46578,242672
34.47392,268486
34.48203,284202
34.49015,298671
34.49828,325950
34.50640,329065
34.51453,334929
34.52265,330134
34.53077,313443
34.53890,300568
34.54702,284423
34.55515,277146
34.56327,263101
34.57138,268436
34.57952,256564
34.58763,255115
34.59575,249221
34.60388,247758
34.61200,261519
34.62013,254179
34.62825,270295
34.63637,273691
34.64450,260919
34.65262,267339
34.66075,269684
34.66887,265152
34.67698,269374
34.68512,264990
34.69323,266336
34.70137,273629
34.70948,268965
34.71760,265557
34.72573,268858
34.73385,266456
34.74197,263412
34.75010,269900
34.75822,258144
34.76635,262894
34.77447,256862
34.78258,264283
34.79072,258148
34.79883,255758
34.80697,246820
34.81508,252117
34.82320,255459
34.83133,242945
34.83945,241735
34.84758,243081
34.85570,248853
34.86382,244362
34.87195,248562
34.88007,238460
34.88818,244465
34.89632,251574
34.90443,243002
34.91257,247029
34.92068,241737
34.92880,245708
34.93693,251334
34.94505,247133
34.95318,241737
34.96130,246746
34.96942,240233
34.97755,249432
34.98567,250942
34.99378,244145
35.00192,237027
35.01003,237457
35.01817,242930
35.02628,242506
35.03440,236326
35.04253,233364
35.05065,235098
35.05878,242591
35.06690,238441
35.07502,240079
35.08315,236426
35.09127,234757
35.09940,243360
35.10752,236681
35.11563,245891
35.12377,244735
35.13188,231209
35.14000,246908
35.14813,249227
35.15625,238325
35.16438,246050
35.17250,250002
35.18062,239797
35.18875,238940
35.19687,243335
35.20500,237200
35.21312,237343
35.22123,245606
35.22937,236771
35.23748,238038
35.24562,244585
35.25373,244556
35.26185,240313
35.26998,243810
35.27810,249626
35.28622,237705
35.29435,253360
35.30247,243805
35.31060,243572
35.31872,234834
35.32683,242786
35.33497,238567
35.34308,240164
35.35122,240249
35.35933,238373
35.36745,244479
35.37558,251181
35.38370,243927
35.39182,247969
35.39995,246637
35.40807,254175
35.41620,257472
35.42432,254812
35.43243,254349
35.44057,257663
35.44868,267703
35.45682,261977
35.46493,266419
35.47305,267417
35.48118,271686
35.48930,275264
35.49743,261409
35.50555,260072
35.51367,271260
35.52180,259284
35.52992,262071
35.53803,260985
35.54617,262704
35.55428,268586
35.56242,253622
35.57053,254149
35.57865,261087
35.58678,259130
35.59490,264823
35.60303,261785
35.61115,269631
35.61927,263110
35.62740,272458
35.63552,267266
35.64363,259591
35.65177,264419
35.65988,268735
35.66802,264096
35.67613,263809
35.68425,267647
35.69238,263356
35.70050,265108
35.70863,273168
35.71675,265594
35.72487,260827
35.73300,269132
35.74112,268573
35.74925,281400
35.75737,285386
35.76548,281672
35.77362,287384
35.78173,285784
35.78985,300885
35.79798,291678
35.80610,291634
35.81423,309309
35.82235,299712
35.83047,303693
35.83860,303050
35.84672,312638
35.85485,311448
35.86297,320782
35.87108,317797
35.87922,312688
35.88733,324594
35.89547,336099
35.90358,325184
35.91170,334403
35.91983,320420
35.92795,338458
35.93607,344804
35.94420,348453
35.95232,346110
35.96045,337130
35.96857,344765
35.97668,330090
35.98482,329812
35.99293,343271
36.00107,346221
36.00918,327876
36.01730,334955
36.02543,333967
36.03355,329676
36.04167,329588
36.04980,324447
36.05792,322552
36.06605,312538
36.07417,308130
36.08228,297387
36.09042,291370
36.09853,290423
36.10667,297274
36.11478,293523
36.12290,292755
36.13103,290505
36.13915,281182
36.14728,283638
36.15540,280689
36.16352,283289
36.17165,287904
36.17977,289171
36.18788,292812
36.19602,284012
36.20413,286777
36.21227,280422
36.22038,280709
36.22850,285459
36.23663,302875
36.24475,319277
36.25288,347100
36.26100,381116
36.26912,382385
36.27725,385053
36.28537,377222
36.29350,349688
36.30162,329787
36.30973,318535
36.31787,305251
36.32598,302991
36.33410,297321
36.34223,296749
36.35035,297563
36.35848,294484
36.36660,299836
36.37472,303257
36.38285,314965
36.39097,306882
36.39910,299468
36.40722,303210
36.41533,302105
36.42347,305127
36.43158,314826
36.43970,304066
36.44783,306667
36.45595,309164
36.46408,308845
36.47220,310817
36.48032,318361
36.48845,311618
36.49657,317285
36.50470,318112
36.51282,318673
36.52093,322545
36.52907,322322
36.53718,324634
36.54532,338266
36.55343,325742
36.56155,322258
36.56968,333015
36.57780,339706
36.58592,336197
36.59405,337135
36.60217,337560
36.61030,347124
36.61842,348385
36.62653,345984
36.63467,346620
36.64278,337236
36.65092,345089
36.65903,333664
36.66715,338779
36.67528,336265
36.68340,349202
36.69152,343220
36.69965,346515
36.70777,354213
36.71590,343504
36.72402,353104
36.73213,346255
36.74027,347487
36.74838,351165
36.75652,343445
36.76463,360962
36.77275,370841
36.78088,365947
36.78900,376221
36.79713,382182
36.80525,382238
36.81337,391723
36.82150,394840
36.82962,383579
36.83773,405080
36.84587,408261
36.85398,409207
36.86212,409032
36.87023,407139
36.87835,409150
36.88648,418268
36.89460,415617
36.90273,405594
36.91085,404606
36.91897,392433
36.92710,393792
36.93522,396037
36.94335,390491
36.95147,391904
36.95958,388460
36.96772,373109
36.97583,382334
36.98395,376014
36.99208,370619
37.00020,370792
37.00833,383537
37.01645,380292
37.02457,382832
37.03270,386091
37.04082,387331
37.04895,375094
37.05707,366161
37.06518,360903
37.07332,349756
37.08143,349746
37.08957,352863
37.09768,341708
37.10580,347874
37.11393,347389
37.12205,352175
37.13017,341416
37.13830,349926
37.14642,349565
37.15455,339647
37.16267,350929
37.17078,343974
37.17892,348442
37.18703,347621
37.19517,345874
37.20328,339199
37.21140,352464
37.21953,350023
37.22765,353809
37.23577,352388
37.24390,361404
37.25202,367493
37.26015,368231
37.26827,387239
37.27638,409594
37.28452,431386
37.29263,458493
37.30077,485542
37.30888,482668
37.31700,485643
37.32513,473641
37.33325,470395
37.34138,459748
37.34950,464822
37.35762,455373
37.36575,453122
37.37387,450657
37.38198,452424
37.39012,470084
37.39823,468629
37.40637,479616
37.41448,486778
37.42260,507135
37.43073,529963
37.43885,519171
37.44698,531098
37.45510,536119
37.46322,537097
37.47135,527968
37.47947,527671
37.48758,529656
