C:\MassHunter\GCMS\1\data\JTB-E18\JTB-E18-028-13.D Thu Sep 19 09:11:26 2019
Start of data points
2.09522	51788
2.10335	44360
2.11147	45196
2.11958	49409
2.12772	50460
2.13583	52809
2.14395	58628
2.15208	51555
2.16020	56122
2.16833	57293
2.17645	57793
2.18457	56495
2.19270	57882
2.20082	49287
2.20895	53441
2.21707	50606
2.22518	49185
2.23332	45693
2.24143	53614
2.24957	45619
2.25768	54909
2.26580	247598
2.27393	1790142
2.28205	2834598
2.29017	1420972
2.29830	661629
2.30642	455269
2.31455	359035
2.32267	321706
2.33078	267021
2.33892	254704
2.34703	225421
2.35517	191764
2.36328	172850
2.37140	169832
2.37953	163755
2.38765	162003
2.39577	147181
2.40390	144775
2.41202	139554
2.42015	138013
2.42827	137332
2.43638	129046
2.44452	137388
2.45263	132695
2.46077	134080
2.46888	119882
2.47700	118238
2.48513	112872
2.49325	124912
2.50138	124990
2.50950	113955
2.51762	109930
2.52575	109725
2.53387	106440
2.54198	106498
2.55012	105568
2.55823	100776
2.56637	101391
2.57448	99537
2.58260	93789
2.59073	99380
2.59885	93202
2.60698	102562
2.61510	102614
2.62322	105261
2.63135	98029
2.63947	96342
2.64758	92865
2.65572	94869
2.66383	88724
2.67197	89940
2.68008	90424
2.68820	85949
2.69633	86213
2.70445	84022
2.71258	87860
2.72070	84338
2.72882	82756
2.73695	83116
2.74507	84494
2.75320	83380
2.76132	80392
2.76943	78428
2.77757	78384
2.78568	84330
2.79380	82212
2.80193	81554
2.81005	79787
2.81818	80416
2.82630	79876
2.83442	80177
2.84255	74510
2.85067	79495
2.85880	75717
2.86692	78960
2.87503	75216
2.88317	72495
2.89128	71167
2.89942	73521
2.90753	74885
2.91565	73063
2.92378	72186
2.93190	66391
2.94002	66209
2.94815	70448
2.95627	71266
2.96440	73646
2.97252	71798
2.98063	70079
2.98877	71342
2.99688	70971
3.00502	69112
3.01313	70890
3.02125	72771
3.02938	73170
3.03750	72884
3.04562	67511
3.05375	70283
3.06187	74995
3.07000	68554
3.07812	67094
3.08623	70977
3.09437	70532
3.10248	75231
3.11062	95221
3.11873	91027
3.12685	80946
3.13498	78035
3.14310	80850
3.15123	75795
3.15935	78791
3.16747	72327
3.17560	73657
3.18372	71425
3.19183	71832
3.19997	67888
3.20808	67315
3.21622	70954
3.22433	64987
3.23245	62220
3.24058	65640
3.24870	67422
3.25683	62983
3.26495	66758
3.27307	74333
3.28120	244021
3.28932	1332161
3.29745	4995333
3.30557	1.08847E+07
3.31368	1.352687E+07
3.32182	1.100759E+07
3.32993	7347681
3.33805	4981977
3.34618	3625515
3.35430	2807546
3.36243	2254803
3.37055	1840936
3.37867	1580087
3.38680	1359845
3.39492	1174839
3.40305	1050548
3.41117	942415
3.41928	875594
3.42742	790073
3.43553	753476
3.44365	673152
3.45178	645425
3.45990	618208
3.46803	588913
3.47615	565429
3.48427	525483
3.49240	494160
3.50052	480851
3.50865	473148
3.51677	448723
3.52488	425347
3.53302	416176
3.54113	391626
3.54927	391230
3.55738	373340
3.56550	355403
3.57363	358088
3.58175	354696
3.58987	335855
3.59800	328554
3.60612	314669
3.61425	314137
3.62237	313897
3.63048	303360
3.63862	292527
3.64673	294076
3.65487	288155
3.66298	271442
3.67110	271105
3.67923	270219
3.68735	263493
3.69547	258222
3.70360	260453
3.71172	248804
3.71985	242984
3.72797	248611
3.73608	237362
3.74422	244986
3.75233	236718
3.76047	236273
3.76858	225187
3.77670	226446
3.78483	221484
3.79295	229682
3.80108	219885
3.80920	223353
3.81732	215199
3.82545	216473
3.83357	211021
3.84168	206071
3.84982	200002
3.85793	199150
3.86607	195039
3.87418	190501
3.88230	195773
3.89043	199643
3.89855	197361
3.90668	193059
3.91480	189317
3.92292	187057
3.93105	179801
3.93917	182613
3.94730	180096
3.95542	182473
3.96353	181847
3.97167	177043
3.97978	180667
3.98790	176391
3.99603	164962
4.00415	173935
4.01228	168741
4.02040	169705
4.02852	169615
4.03665	168554
4.04477	167656
4.05290	159544
4.06102	167622
4.06913	168245
4.07727	170325
4.08538	161097
4.09352	157150
4.10163	161453
4.10975	160501
4.11788	161475
4.12600	159467
4.13412	151237
4.14225	169641
4.15037	171155
4.15850	180746
4.16662	176681
4.17473	164390
4.18287	162732
4.19098	153736
4.19912	165411
4.20723	155623
4.21535	151740
4.22348	154976
4.23160	159612
4.23972	154833
4.24785	148883
4.25597	150677
4.26410	151078
4.27222	152081
4.28033	147070
4.28847	147711
4.29658	144854
4.30472	144030
4.31283	142354
4.32095	145530
4.32908	147919
4.33720	140782
4.34533	144631
4.35345	142430
4.36157	146764
4.36970	138638
4.37782	142799
4.38593	140462
4.39407	143674
4.40218	138274
4.41032	143227
4.41843	137105
4.42655	138616
4.43468	136094
4.44280	137476
4.45093	134160
4.45905	132606
4.46717	134457
4.47530	133275
4.48342	136416
4.49153	130862
4.49967	132846
4.50778	135735
4.51592	132450
4.52403	126415
4.53215	129748
4.54028	135074
4.54840	127496
4.55653	127551
4.56465	129485
4.57277	126170
4.58090	121408
4.58902	127266
4.59715	124731
4.60527	123486
4.61338	127393
4.62152	122064
4.62963	127710
4.63775	132009
4.64588	120299
4.65400	126320
4.66213	124185
4.67025	120069
4.67837	119515
4.68650	118936
4.69462	120074
4.70275	125637
4.71087	118518
4.71898	118675
4.72712	120701
4.73523	124022
4.74337	120678
4.75148	119436
4.75960	121717
4.76773	119976
4.77585	118395
4.78397	116959
4.79210	117604
4.80022	117052
4.80835	116812
4.81647	117872
4.82458	121026
4.83272	118504
4.84083	122217
4.84897	117826
4.85708	116264
4.86520	122651
4.87333	112584
4.88145	117566
4.88957	118208
4.89770	121677
4.90582	125065
4.91395	159248
4.92207	350293
4.93018	1004957
4.93832	2484882
4.94643	4528371
4.95457	6017220
4.96268	5782199
4.97080	4375126
4.97893	2963145
4.98705	2005575
4.99518	1418873
5.00330	1068749
5.01142	876309
5.01955	751646
5.02767	669640
5.03578	584438
5.04392	528503
5.05203	482950
5.06017	441472
5.06828	430475
5.07640	408535
5.08453	386654
5.09265	366331
5.10078	349980
5.10890	330468
5.11702	317113
5.12515	318755
5.13327	313435
5.14140	297293
5.14952	282874
5.15763	284440
5.16577	281521
5.17388	274487
5.18200	262327
5.19013	261885
5.19825	258886
5.20638	255395
5.21450	247503
5.22262	257775
5.23075	288735
5.23887	325352
5.24700	356793
5.25512	335015
5.26323	299531
5.27137	266837
5.27948	245708
5.28760	226544
5.29573	224507
5.30385	221809
5.31198	211344
5.32010	206241
5.32822	199187
5.33635	211241
5.34447	202546
5.35260	201452
5.36072	197845
5.36883	182801
5.37697	191080
5.38508	187695
5.39322	185538
5.40133	186155
5.40945	182804
5.41758	178969
5.42570	183562
5.43382	178925
5.44195	174127
5.45007	180192
5.45820	177205
5.46632	182539
5.47443	170465
5.48257	176444
5.49068	167522
5.49882	175445
5.50693	178995
5.51505	172960
5.52318	166979
5.53130	171181
5.53942	174085
5.54755	166215
5.55567	163015
5.56380	166845
5.57192	164340
5.58003	169311
5.58817	164321
5.59628	162459
5.60442	168370
5.61253	167408
5.62065	162111
5.62878	170135
5.63690	165252
5.64503	160101
5.65315	163898
5.66127	157931
5.66940	175442
5.67752	185181
5.68563	214314
5.69377	244153
5.70188	231543
5.71002	214688
5.71813	196888
5.72625	172149
5.73438	169343
5.74250	163720
5.75063	150928
5.75875	153673
5.76687	153235
5.77500	151073
5.78312	151755
5.79125	154287
5.79937	153117
5.80748	149880
5.81562	145666
5.82373	151163
5.83185	153323
5.83998	145122
5.84810	144525
5.85623	144294
5.86435	146478
5.87247	153434
5.88060	145156
5.88872	142941
5.89685	135251
5.90497	130283
5.91308	119232
5.92122	112214
5.92933	104739
5.93745	106446
5.94558	107285
5.95370	101262
5.96183	109161
5.96995	106749
5.97807	109269
5.98620	109217
5.99432	110279
6.00245	107058
6.01057	103204
6.01868	97935
6.02682	100780
6.03493	101982
6.04307	99396
6.05118	102453
6.05930	102382
6.06743	96913
6.07555	100920
6.08367	99367
6.09180	96657
6.09992	101195
6.10805	103163
6.11617	95372
6.12428	97898
6.13242	101479
6.14053	100409
6.14867	100382
6.15678	103574
6.16490	106121
6.17303	104840
6.18115	108160
6.18928	107063
6.19740	114514
6.20552	116517
6.21365	112399
6.22177	117795
6.22988	121295
6.23802	125683
6.24613	121626
6.25427	121674
6.26238	125322
6.27050	132065
6.27863	135082
6.28675	134183
6.29488	134785
6.30300	140679
6.31112	144733
6.31925	141327
6.32737	146341
6.33548	146947
6.34362	145723
6.35173	153276
6.35987	155939
6.36798	155373
6.37610	156833
6.38423	162438
6.39235	166817
6.40048	165856
6.40860	166595
6.41672	175246
6.42485	171024
6.43297	181411
6.44110	180672
6.44922	184104
6.45733	187685
6.46547	180445
6.47358	183534
6.48170	180210
6.48983	188866
6.49795	192149
6.50608	191594
6.51420	194579
6.52232	192899
6.53045	189804
6.53857	193847
6.54670	207513
6.55482	194022
6.56293	200898
6.57107	195428
6.57918	204375
6.58732	199971
6.59543	193163
6.60355	147582
6.61168	132585
6.61980	125956
6.62792	121186
6.63605	116743
6.64417	111675
6.65230	116237
6.66042	113419
6.66853	113654
6.67667	108897
6.68478	108513
6.69292	106434
6.70103	96182
6.70915	102998
6.71728	101680
6.72540	92645
6.73352	97545
6.74165	102158
6.74977	99925
6.75790	95070
6.76602	99003
6.77413	96445
6.78227	92949
6.79038	91373
6.79852	93049
6.80663	91823
6.81475	94337
6.82288	91489
6.83100	91115
6.83913	87806
6.84725	87679
6.85537	77520
6.86350	70198
6.87162	67832
6.87973	64300
6.88787	62132
6.89598	65655
6.90412	64616
6.91223	63645
6.92035	65360
6.92848	60054
6.93660	58947
6.94473	58876
6.95285	59115
6.96097	58960
6.96910	61247
6.97722	56406
6.98533	60309
6.99347	59077
7.00158	57689
7.00972	58301
7.01783	59609
7.02595	61020
7.03408	57605
7.04220	54464
7.05033	56964
7.05845	57157
7.06657	54543
7.07470	57163
7.08282	57571
7.09095	57071
7.09907	57448
7.10718	56165
7.11532	58022
7.12343	55537
7.13155	59113
7.13968	56264
7.14780	55691
7.15593	56430
7.16405	59470
7.17217	51551
7.18030	53459
7.18842	59911
7.19655	57116
7.20467	57192
7.21278	57803
7.22092	51828
7.22903	53745
7.23717	59465
7.24528	53879
7.25340	56663
7.26153	55084
7.26965	53196
7.27777	54674
7.28590	52416
7.29402	55084
7.30215	55345
7.31027	51332
7.31838	55097
7.32652	56568
7.33463	54790
7.34277	51136
7.35088	51910
7.35900	56881
7.36713	52052
7.37525	55932
7.38337	57244
7.39150	55735
7.39962	53380
7.40775	56260
7.41587	57813
7.42398	59613
7.43212	58893
7.44023	61163
7.44837	59694
7.45648	60116
7.46460	54981
7.47273	54180
7.48085	56026
7.48898	59864
7.49710	57235
7.50522	56121
7.51335	52354
7.52147	52164
7.52958	53489
7.53772	50892
7.54583	54085
7.55397	49402
7.56208	57516
7.57020	47601
7.57833	52086
7.58645	51528
7.59458	52084
7.60270	51381
7.61082	55934
7.61895	49452
7.62707	54324
7.63520	51174
7.64332	53044
7.65143	49789
7.65957	49223
7.66768	50694
7.67580	55637
7.68393	52433
7.69205	52324
7.70018	47269
7.70830	48900
7.71642	50722
7.72455	49074
7.73267	51568
7.74080	46950
7.74892	51255
7.75703	46988
7.76517	47373
7.77328	50780
7.78140	45643
7.78953	45823
7.79765	49573
7.80578	50475
7.81390	48817
7.82202	46852
7.83015	46386
7.83827	46051
7.84640	45850
7.85452	45080
7.86263	49421
7.87077	45561
7.87888	44502
7.88702	49006
7.89513	46703
7.90325	47298
7.91138	52310
7.91950	46887
7.92762	45974
7.93575	44012
7.94387	48046
7.95200	46926
7.96012	44539
7.96823	47379
7.97637	47593
7.98448	49505
7.99262	49316
8.00073	50934
8.00885	48591
8.01698	45476
8.02510	41553
8.03322	44064
8.04135	46225
8.04947	45251
8.05760	45447
8.06572	46079
8.07383	48152
8.08197	43789
8.09008	47281
8.09822	47975
8.10633	45649
8.11445	45600
8.12258	47597
8.13070	45972
8.13883	44765
8.14695	46164
8.15507	44270
8.16320	44572
8.17132	47757
8.17943	47833
8.18757	46173
8.19568	47620
8.20382	41612
8.21193	43218
8.22005	46534
8.22818	44435
8.23630	43651
8.24443	43979
8.25255	45268
8.26067	41481
8.26880	44780
8.27692	41536
8.28505	43167
8.29317	44197
8.30128	44912
8.30942	45892
8.31753	47568
8.32565	47042
8.33378	45192
8.34190	45027
8.35003	44093
8.35815	46286
8.36627	43843
8.37440	42551
8.38252	45569
8.39065	43694
8.39877	49593
8.40688	170547
8.41502	516048
8.42313	367877
8.43127	138981
8.43938	89563
8.44750	70933
8.45563	64414
8.46375	60564
8.47187	64635
8.48000	59715
8.48812	55232
8.49625	57157
8.50437	60652
8.51248	57039
8.52062	57377
8.52873	61391
8.53687	62547
8.54498	54200
8.55310	55154
8.56123	55806
8.56935	56253
8.57747	55706
8.58560	54435
8.59372	52753
8.60185	52385
8.60997	55025
8.61808	55363
8.62622	50893
8.63433	48953
8.64247	48877
8.65058	52850
8.65870	50670
8.66683	52692
8.67495	51646
8.68308	53244
8.69120	52562
8.69932	51252
8.70745	48755
8.71557	53841
8.72368	69853
8.73182	108919
8.73993	222262
8.74807	465983
8.75618	817046
8.76430	1107116
8.77243	1176299
8.78055	989840
8.78868	713709
8.79680	458590
8.80492	332887
8.81305	413584
8.82117	1753380
8.82928	3568471
8.83742	2548280
8.84553	1398733
8.85367	942619
8.86178	695974
8.86990	568699
8.87803	461380
8.88615	384915
8.89428	332369
8.90240	297390
8.91052	265198
8.91865	242639
8.92677	215738
8.93490	202103
8.94302	194262
8.95113	180417
8.95927	173226
8.96738	160939
8.97550	154289
8.98363	149643
8.99175	143064
8.99988	142744
9.00800	137316
9.01612	133862
9.02425	127130
9.03237	123750
9.04050	125562
9.04862	118787
9.05673	118832
9.06487	115822
9.07298	111711
9.08112	114437
9.08923	116031
9.09735	106332
9.10548	103742
9.11360	103277
9.12172	103844
9.12985	102907
9.13797	98377
9.14610	100804
9.15422	97627
9.16233	100633
9.17047	96572
9.17858	94428
9.18672	94711
9.19483	96427
9.20295	99267
9.21108	93154
9.21920	88274
9.22732	84970
9.23545	88861
9.24357	88118
9.25170	91608
9.25982	85391
9.26793	93241
9.27607	85507
9.28418	83101
9.29232	78482
9.30043	84586
9.30855	82017
9.31668	124577
9.32480	446993
9.33293	1261317
9.34105	1600830
9.34917	1148344
9.35730	703470
9.36542	493112
9.37353	374056
9.38167	313844
9.38978	260690
9.39792	228195
9.40603	200080
9.41415	176951
9.42228	161183
9.43040	152275
9.43853	134587
9.44665	128695
9.45477	124456
9.46290	112034
9.47102	106399
9.47915	107220
9.48727	101239
9.49538	101920
9.50352	95850
9.51163	93935
9.51975	95651
9.52788	86541
9.53600	85634
9.54413	73500
9.55225	72813
9.56037	70375
9.56850	67319
9.57662	67085
9.58475	67213
9.59287	66785
9.60098	65538
9.60912	64715
9.61723	59300
9.62535	64907
9.63348	60317
9.64160	60915
9.64973	62211
9.65785	57871
9.66597	57190
9.67410	60252
9.68222	61693
9.69035	57665
9.69847	56814
9.70658	54957
9.71472	56067
9.72283	58210
9.73097	59361
9.73908	57771
9.74720	56370
9.75533	59435
9.76345	58654
9.77157	64085
9.77970	75431
9.78782	71691
9.79595	58200
9.80407	58546
9.81218	60769
9.82032	56663
9.82843	58664
9.83657	62177
9.84468	63272
9.85280	64764
9.86093	62789
9.86905	61508
9.87717	57863
9.88530	57272
9.89342	55551
9.90155	57997
9.90967	54574
9.91778	60121
9.92592	52189
9.93403	54056
9.94217	55752
9.95028	60125
9.95840	63199
9.96653	74485
9.97465	72743
9.98278	77406
9.99090	79792
9.99902	78207
10.00715	76621
10.01527	69756
10.02338	66227
10.03152	62711
10.03963	65987
10.04777	67231
10.05588	73028
10.06400	84759
10.07213	89539
10.08025	94583
10.08838	98066
10.09650	109527
10.10462	108823
10.11275	92388
10.12087	78551
10.12900	70757
10.13712	67398
10.14523	62867
10.15337	63009
10.16148	58976
10.16960	56529
10.17773	61833
10.18585	57589
10.19398	59737
10.20210	59660
10.21022	54773
10.21835	59943
10.22647	60236
10.23460	62021
10.24272	64706
10.25083	58037
10.25897	55367
10.26708	52719
10.27520	55717
10.28333	51647
10.29145	55527
10.29958	52200
10.30770	51446
10.31582	52006
10.32395	51833
10.33207	56276
10.34020	52526
10.34832	51438
10.35643	49405
10.36457	50655
10.37268	48462
10.38082	47654
10.38893	49830
10.39705	51734
10.40518	47478
10.41330	45356
10.42142	50075
10.42955	51272
10.43767	52114
10.44580	50900
10.45392	50357
10.46203	53124
10.47017	49475
10.47828	45611
10.48642	47496
10.49453	43860
10.50265	44227
10.51078	50049
10.51890	49051
10.52703	43861
10.53515	45109
10.54327	45411
10.55140	45525
10.55952	48018
10.56763	44926
10.57577	47076
10.58388	45337
10.59202	49504
10.60013	51284
10.60825	48477
10.61638	45034
10.62450	47660
10.63263	52459
10.64075	44500
10.64887	45935
10.65700	44383
10.66512	45645
10.67323	43909
10.68137	43850
10.68948	43346
10.69762	45423
10.70573	45574
10.71385	54273
10.72198	43911
10.73010	44502
10.73823	44870
10.74635	44723
10.75447	44389
10.76260	44692
10.77072	47891
10.77885	44979
10.78697	44355
10.79508	45334
10.80322	45240
10.81133	44315
10.81945	43107
10.82758	42972
10.83570	41121
10.84383	41115
10.85195	43291
10.86007	41896
10.86820	40219
10.87632	42261
10.88445	44637
10.89257	43729
10.90068	40701
10.90882	43164
10.91693	41659
10.92505	43392
10.93318	50680
10.94130	71018
10.94943	144793
10.95755	270894
10.96567	341152
10.97380	335049
10.98192	253068
10.99005	182903
10.99817	139873
11.00628	115526
11.01442	96279
11.02253	89188
11.03067	78390
11.03878	68027
11.04690	61853
11.05503	59232
11.06315	62370
11.07127	57908
11.07940	60128
11.08752	60601
11.09565	57238
11.10377	56828
11.11188	61837
11.12002	60246
11.12813	68751
11.13627	66726
11.14438	66129
11.15250	74115
11.16063	79098
11.16875	80711
11.17688	76865
11.18500	77002
11.19312	74955
11.20125	71484
11.20937	67427
11.21748	65809
11.22562	62968
11.23373	58242
11.24187	55559
11.24998	56895
11.25810	61474
11.26623	61494
11.27435	54976
11.28248	61288
11.29060	59617
11.29872	57951
11.30685	54214
11.31497	59315
11.32308	62516
11.33122	60386
11.33933	58440
11.34747	58695
11.35558	61240
11.36370	59069
11.37183	54644
11.37995	54696
11.38808	56955
11.39620	59766
11.40432	56134
11.41245	57707
11.42057	54815
11.42870	54177
11.43682	56211
11.44493	55110
11.45307	52522
11.46118	54431
11.46930	54882
11.47743	56360
11.48555	54282
11.49368	53486
11.50180	56837
11.50992	53671
11.51805	57524
11.52617	53837
11.53430	51407
11.54242	55833
11.55053	52806
11.55867	54095
11.56678	51819
11.57492	59290
11.58303	55632
11.59115	54478
11.59928	51894
11.60740	56770
11.61552	54699
11.62365	53966
11.63177	55986
11.63990	55209
11.64802	50961
11.65613	49212
11.66427	53476
11.67238	51476
11.68052	54527
11.68863	57902
11.69675	52079
11.70488	56884
11.71300	53893
11.72112	56948
11.72925	58761
11.73737	58270
11.74550	59377
11.75362	60373
11.76173	60729
11.76987	60676
11.77798	54319
11.78612	54103
11.79423	57223
11.80235	56948
11.81048	52529
11.81860	53985
11.82673	51123
11.83485	53912
11.84297	48786
11.85110	44966
11.85922	46973
11.86733	50457
11.87547	51590
11.88358	50597
11.89172	50620
11.89983	48387
11.90795	51620
11.91608	49072
11.92420	47910
11.93233	49150
11.94045	47041
11.94857	46542
11.95670	46581
11.96482	50082
11.97295	48852
11.98107	44421
11.98918	45828
11.99732	47428
12.00543	44877
12.01355	46311
12.02168	47632
12.02980	47796
12.03793	46057
12.04605	46808
12.05417	47876
12.06230	50052
12.07042	43841
12.07855	46724
12.08667	47696
12.09478	48512
12.10292	44554
12.11103	45929
12.11915	47066
12.12728	46032
12.13540	47108
12.14353	49289
12.15165	45755
12.15977	45676
12.16790	44525
12.17602	43608
12.18415	47003
12.19227	48384
12.20038	45186
12.20852	47116
12.21663	49516
12.22477	47130
12.23288	46747
12.24100	42648
12.24913	44191
12.25725	44797
12.26537	47186
12.27350	46189
12.28162	46316
12.28975	49349
12.29787	46855
12.30598	50942
12.31412	45541
12.32223	51183
12.33037	52053
12.33848	49188
12.34660	46199
12.35473	48654
12.36285	43909
12.37097	47220
12.37910	48823
12.38722	48466
12.39535	44759
12.40347	49296
12.41158	50381
12.41972	45421
12.42783	47418
12.43597	47270
12.44408	46139
12.45220	53814
12.46033	49553
12.46845	48005
12.47658	47981
12.48470	45900
12.49282	42384
12.50095	42794
12.50907	40980
12.51718	42531
12.52532	50923
12.53343	46555
12.54157	45873
12.54968	43888
12.55780	44924
12.56593	41949
12.57405	42404
12.58218	40267
12.59030	42944
12.59842	43119
12.60655	43038
12.61467	47815
12.62280	45223
12.63092	44831
12.63903	44149
12.64717	43840
12.65528	44340
12.66340	44012
12.67153	44498
12.67965	40529
12.68778	45193
12.69590	42935
12.70402	47622
12.71215	44522
12.72027	47117
12.72840	44423
12.73652	45025
12.74463	42816
12.75277	41334
12.76088	41964
12.76900	47651
12.77713	42822
12.78525	42873
12.79338	41378
12.80150	45050
12.80962	47205
12.81775	45121
12.82587	39571
12.83400	41063
12.84212	43099
12.85023	42939
12.85837	42879
12.86648	37960
12.87462	40120
12.88273	41325
12.89085	40002
12.89898	39908
12.90710	38270
12.91522	41809
12.92335	36274
12.93147	38688
12.93960	41038
12.94772	42264
12.95583	41975
12.96397	41973
12.97208	38727
12.98022	37412
12.98833	40978
12.99645	41501
13.00458	37537
13.01270	39550
13.02083	42286
13.02895	41974
13.03707	41014
13.04520	39417
13.05332	39336
13.06143	37721
13.06957	38906
13.07768	40139
13.08582	38248
13.09393	39513
13.10205	38965
13.11018	40468
13.11830	45196
13.12643	44814
13.13455	43494
13.14267	41225
13.15080	44472
13.15892	45475
13.16703	49811
13.17517	46789
13.18328	44410
13.19142	46531
13.19953	43071
13.20765	40717
13.21578	38534
13.22390	39732
13.23203	39025
13.24015	35901
13.24827	35863
13.25640	36628
13.26452	38905
13.27265	40536
13.28077	36400
13.28888	40478
13.29702	38202
13.30513	36810
13.31325	39521
13.32138	42993
13.32950	38506
13.33763	41985
13.34575	36988
13.35387	39103
13.36200	40529
13.37012	35897
13.37825	38624
13.38637	37597
13.39448	38215
13.40262	40966
13.41073	41724
13.41885	40406
13.42698	39084
13.43510	41966
13.44323	38557
13.45135	35678
13.45947	37374
13.46760	38774
13.47572	41224
13.48385	37430
13.49197	40216
13.50008	34402
13.50822	40377
13.51633	39272
13.52447	40243
13.53258	35551
13.54070	37789
13.54883	39054
13.55695	36683
13.56507	37756
13.57320	38677
13.58132	37576
13.58945	37291
13.59757	40130
13.60568	39589
13.61382	38205
13.62193	36982
13.63007	41418
13.63818	38335
13.64630	36691
13.65443	39942
13.66255	35758
13.67068	36453
13.67880	34962
13.68692	36897
13.69505	38784
13.70317	37886
13.71128	40592
13.71942	39767
13.72753	36584
13.73567	37647
13.74378	38153
13.75190	36040
13.76003	37777
13.76815	39257
13.77628	37605
13.78440	34268
13.79252	37902
13.80065	39278
13.80877	36530
13.81690	40406
13.82502	36569
13.83313	37127
13.84127	36897
13.84938	37427
13.85750	36553
13.86563	37915
13.87375	36094
13.88188	40029
13.89000	40527
13.89812	42386
13.90625	41400
13.91437	39119
13.92250	38483
13.93062	36344
13.93873	40288
13.94687	40713
13.95498	39994
13.96310	39765
13.97123	38226
13.97935	34555
13.98748	36675
13.99560	37607
14.00372	39295
14.01185	36117
14.01997	39689
14.02810	41496
14.03622	42521
14.04433	38849
14.05247	40256
14.06058	39499
14.06872	41454
14.07683	39797
14.08495	36679
14.09308	38327
14.10120	36925
14.10932	37459
14.11745	40400
14.12557	40762
14.13370	52800
14.14182	72922
14.14993	121816
14.15807	197426
14.16618	266134
14.17432	292114
14.18243	279945
14.19055	226788
14.19868	170015
14.20680	135744
14.21492	116101
14.22305	100874
14.23117	96020
14.23930	88306
14.24742	80238
14.25553	75371
14.26367	75118
14.27178	73559
14.27992	69261
14.28803	70015
14.29615	65799
14.30428	65656
14.31240	59907
14.32053	55071
14.32865	48523
14.33677	47339
14.34490	42623
14.35302	40863
14.36113	48238
14.36927	39381
14.37738	43760
14.38552	42967
14.39363	38814
14.40175	40299
14.40988	37639
14.41800	40684
14.42613	38969
14.43425	39963
14.44237	37904
14.45050	41353
14.45862	39620
14.46675	40204
14.47487	39301
14.48298	37345
14.49112	40952
14.49923	39545
14.50735	38511
14.51548	38127
14.52360	42328
14.53173	173944
14.53985	459331
14.54797	339001
14.55610	138898
14.56422	90964
14.57235	67973
14.58047	64058
14.58858	63224
14.59672	56852
14.60483	57662
14.61295	55272
14.62108	54759
14.62920	49836
14.63733	50369
14.64545	49361
14.65357	45722
14.66170	50761
14.66982	46056
14.67795	44448
14.68607	44627
14.69418	42855
14.70232	45557
14.71043	54301
14.71857	127073
14.72668	1693808
14.73480	3752026
14.74293	2039469
14.75105	1062215
14.75917	719265
14.76730	548328
14.77542	402788
14.78355	338393
14.79167	285619
14.79978	249141
14.80792	216066
14.81603	200546
14.82417	180184
14.83228	168908
14.84040	167297
14.84853	151734
14.85665	138109
14.86478	135237
14.87290	130591
14.88102	263693
14.88915	1493988
14.89727	2188703
14.90538	1151777
14.91352	642938
14.92163	448901
14.92977	365306
14.93788	307724
14.94600	250833
14.95413	233142
14.96225	204543
14.97038	188456
14.97850	170911
14.98662	153413
14.99475	144343
15.00287	134815
15.01098	136583
15.01912	126025
15.02723	120274
15.03537	113495
15.04348	113293
15.05160	108930
15.05973	104376
15.06785	102421
15.07598	99041
15.08410	99977
15.09222	93440
15.10035	90504
15.10847	90373
15.11660	85540
15.12472	82366
15.13283	80818
15.14097	78259
15.14908	78421
15.15720	79004
15.16533	81954
15.17345	84907
15.18158	77787
15.18970	76039
15.19782	77579
15.20595	86435
15.21407	84503
15.22220	76600
15.23032	80110
15.23843	75874
15.24657	86651
15.25468	107323
15.26280	132188
15.27093	145848
15.27905	114927
15.28718	99631
15.29530	92582
15.30342	88065
15.31155	85404
15.31967	82473
15.32780	76668
15.33592	73066
15.34403	73803
15.35217	72823
15.36028	72767
15.36842	68172
15.37653	62252
15.38465	66811
15.39278	72232
15.40090	157460
15.40902	403356
15.41715	516415
15.42527	390081
15.43340	248107
15.44152	187013
15.44963	147504
15.45777	122910
15.46588	115202
15.47402	103636
15.48213	99392
15.49025	94241
15.49838	83283
15.50650	83041
15.51463	81942
15.52275	76747
15.53087	78725
15.53900	73528
15.54712	71594
15.55523	72033
15.56337	68909
15.57148	67095
15.57962	66858
15.58773	64719
15.59585	63767
15.60398	62535
15.61210	64877
15.62023	56642
15.62835	59479
15.63647	62557
15.64460	59751
15.65272	57188
15.66083	55787
15.66897	54697
15.67708	58031
15.68522	54485
15.69333	60184
15.70145	55824
15.70958	52683
15.71770	53605
15.72583	55514
15.73395	52101
15.74207	52538
15.75020	56275
15.75832	53818
15.76645	50583
15.77457	49426
15.78268	49941
15.79082	52269
15.79893	47534
15.80705	50410
15.81518	51197
15.82330	50795
15.83143	49596
15.83955	51642
15.84767	46922
15.85580	50179
15.86392	50449
15.87205	48831
15.88017	50927
15.88828	53073
15.89642	47421
15.90453	54091
15.91267	51119
15.92078	48482
15.92890	51087
15.93703	46559
15.94515	44567
15.95327	50397
15.96140	43886
15.96952	47433
15.97765	51679
15.98577	44943
15.99388	48065
16.00202	52318
16.01013	49394
16.01827	53847
16.02638	52747
16.03450	52021
16.04263	53885
16.05075	52294
16.05887	52007
16.06700	47495
16.07512	45611
16.08325	47695
16.09137	45413
16.09948	47017
16.10762	49727
16.11573	47479
16.12387	49287
16.13198	51175
16.14010	49988
16.14823	46626
16.15635	49352
16.16448	47223
16.17260	47290
16.18072	46654
16.18885	47191
16.19697	43272
16.20508	46110
16.21322	47513
16.22133	45256
16.22947	46764
16.23758	49124
16.24570	47172
16.25383	45942
16.26195	41259
16.27008	45329
16.27820	49587
16.28632	49285
16.29445	48202
16.30257	48677
16.31070	46481
16.31882	48723
16.32693	47355
16.33507	46736
16.34318	49332
16.35130	45396
16.35943	46089
16.36755	45975
16.37568	47043
16.38380	48363
16.39192	50882
16.40005	49509
16.40817	46223
16.41630	46226
16.42442	45246
16.43253	46237
16.44067	44745
16.44878	45173
16.45690	45226
16.46503	44971
16.47315	44433
16.48128	41323
16.48940	45610
16.49752	45057
16.50565	45878
16.51377	47754
16.52190	45797
16.53002	48058
16.53813	46646
16.54627	42467
16.55438	44317
16.56252	40813
16.57063	47206
16.57875	48472
16.58688	49067
16.59500	45705
16.60312	44482
16.61125	42467
16.61937	44236
16.62750	41824
16.63562	42135
16.64373	45041
16.65187	44863
16.65998	45493
16.66812	44210
16.67623	47113
16.68435	42119
16.69248	44960
16.70060	42546
16.70872	40807
16.71685	45028
16.72497	42961
16.73310	42835
16.74122	43659
16.74933	41421
16.75747	41735
16.76558	48218
16.77372	44701
16.78183	43281
16.78995	42437
16.79808	44393
16.80620	39847
16.81433	46811
16.82245	46141
16.83057	43893
16.83870	44640
16.84682	43432
16.85493	44228
16.86307	45010
16.87118	47467
16.87932	45810
16.88743	43359
16.89555	44550
16.90368	41691
16.91180	48489
16.91993	46997
16.92805	44467
16.93617	46935
16.94430	48013
16.95242	42732
16.96055	45744
16.96867	48337
16.97678	46352
16.98492	42973
16.99303	43706
17.00115	45034
17.00928	45360
17.01740	46893
17.02553	49201
17.03365	71340
17.04177	97357
17.04990	116810
17.05802	116210
17.06615	97769
17.07427	76944
17.08238	72483
17.09052	61059
17.09863	60188
17.10675	54835
17.11488	53938
17.12300	53764
17.13113	52641
17.13925	52940
17.14737	50678
17.15550	50180
17.16362	50014
17.17175	48499
17.17987	50606
17.18798	46336
17.19612	47533
17.20423	49165
17.21237	43610
17.22048	45585
17.22860	45309
17.23673	44839
17.24485	46101
17.25297	43017
17.26110	46281
17.26922	45575
17.27735	44796
17.28547	43787
17.29358	44571
17.30172	42731
17.30983	42531
17.31797	46594
17.32608	47127
17.33420	44963
17.34233	47825
17.35045	47355
17.35858	49814
17.36670	50858
17.37482	47794
17.38295	49895
17.39107	46346
17.39918	46943
17.40732	48943
17.41543	48704
17.42357	49269
17.43168	45481
17.43980	46877
17.44793	44688
17.45605	47254
17.46418	47047
17.47230	45980
17.48042	49970
17.48855	44444
17.49667	42887
17.50478	42477
17.51292	46047
17.52103	45043
17.52917	45731
17.53728	46536
17.54540	42030
17.55353	47877
17.56165	46123
17.56978	42930
17.57790	43029
17.58602	43222
17.59415	43074
17.60227	43202
17.61040	43553
17.61852	42673
17.62663	42452
17.63477	42382
17.64288	42378
17.65100	45059
17.65913	45048
17.66725	43715
17.67538	42558
17.68350	44030
17.69162	45652
17.69975	45407
17.70787	41125
17.71600	43575
17.72412	47735
17.73223	42969
17.74037	45787
17.74848	43086
17.75660	44662
17.76473	42035
17.77285	40803
17.78098	44572
17.78910	41932
17.79722	39941
17.80535	43363
17.81347	44121
17.82160	40203
17.82972	41504
17.83783	44895
17.84597	40705
17.85408	43092
17.86222	44228
17.87033	41131
17.87845	38953
17.88658	42743
17.89470	40513
17.90282	40446
17.91095	38409
17.91907	38596
17.92720	41108
17.93532	38751
17.94343	37429
17.95157	41340
17.95968	42114
17.96782	39851
17.97593	39087
17.98405	38949
17.99218	41938
18.00030	40025
18.00843	42895
18.01655	43393
18.02467	42142
18.03280	42826
18.04092	42632
18.04903	45845
18.05717	42868
18.06528	39081
18.07342	42278
18.08153	42015
18.08965	44116
18.09778	42625
18.10590	41778
18.11403	39747
18.12215	43941
18.13027	43498
18.13840	41540
18.14652	40316
18.15463	39670
18.16277	40663
18.17088	42641
18.17902	43844
18.18713	44547
18.19525	41246
18.20338	40756
18.21150	41151
18.21963	41958
18.22775	43196
18.23587	41014
18.24400	42648
18.25212	40292
18.26025	44068
18.26837	43924
18.27648	41371
18.28462	43145
18.29273	43202
18.30085	44177
18.30898	45391
18.31710	39791
18.32523	37650
18.33335	37061
18.34147	38491
18.34960	46418
18.35772	40347
18.36585	38401
18.37397	38464
18.38208	37025
18.39022	40779
18.39833	39845
18.40647	40699
18.41458	37625
18.42270	41743
18.43083	39667
18.43895	40186
18.44707	40928
18.45520	35345
18.46332	40045
18.47145	41078
18.47957	37268
18.48768	41971
18.49582	43338
18.50393	42646
18.51207	43458
18.52018	44657
18.52830	45960
18.53643	45929
18.54455	47025
18.55267	45687
18.56080	46664
18.56892	45846
18.57705	45412
18.58517	46454
18.59328	46156
18.60142	49562
18.60953	48197
18.61767	51351
18.62578	51342
18.63390	48206
18.64203	45760
18.65015	45060
18.65828	46943
18.66640	47499
18.67452	47371
18.68265	46121
18.69077	44560
18.69888	44186
18.70702	45867
18.71513	46723
18.72327	43189
18.73138	51254
18.73950	43017
18.74763	46279
18.75575	46899
18.76388	43325
18.77200	44278
18.78012	48268
18.78825	45670
18.79637	42547
18.80448	44294
18.81262	44417
18.82073	47352
18.82887	44761
18.83698	44896
18.84510	41717
18.85323	42002
18.86135	41461
18.86948	41481
18.87760	43302
18.88572	42308
18.89385	44362
18.90197	43742
18.91010	43350
18.91822	41047
18.92633	40901
18.93447	44829
18.94258	43050
18.95070	43377
18.95883	38676
18.96695	42256
18.97508	42491
18.98320	38845
18.99132	41116
18.99945	39985
19.00757	43899
19.01570	42109
19.02382	39476
19.03193	40119
19.04007	39051
19.04818	43316
19.05632	41789
19.06443	42007
19.07255	42265
19.08068	44005
19.08880	49085
19.09692	51952
19.10505	53410
19.11317	51960
19.12130	54407
19.12942	54013
19.13753	56057
19.14567	56431
19.15378	51472
19.16192	53173
19.17003	52559
19.17815	52650
19.18628	49236
19.19440	50718
19.20253	49266
19.21065	46883
19.21877	50615
19.22690	46102
19.23502	45575
19.24313	49535
19.25127	45360
19.25938	46940
19.26752	48370
19.27563	46195
19.28375	46019
19.29188	48033
19.30000	51102
19.30813	51921
19.31625	46852
19.32437	46027
19.33250	43002
19.34062	45212
19.34873	39249
19.35687	42780
19.36498	42039
19.37312	39904
19.38123	39648
19.38935	40699
19.39748	42380
19.40560	42302
19.41373	40861
19.42185	43616
19.42997	48173
19.43810	57224
19.44622	80646
19.45435	110047
19.46247	145216
19.47058	162766
19.47872	158108
19.48683	127698
19.49495	97834
19.50308	72888
19.51120	55043
19.51933	51472
19.52745	47663
19.53557	47201
19.54370	49765
19.55182	54624
19.55995	58397
19.56807	71372
19.57618	68766
19.58432	65932
19.59243	64515
19.60055	54150
19.60868	49566
19.61680	56266
19.62493	66160
19.63305	88726
19.64117	125882
19.64930	155245
19.65742	189253
19.66555	185615
19.67367	177462
19.68178	155218
19.68992	117431
19.69803	94322
19.70617	81667
19.71428	67126
19.72240	66231
19.73053	57965
19.73865	54087
19.74677	49030
19.75490	52790
19.76302	46745
19.77115	46215
19.77927	44793
19.78738	44366
19.79552	46476
19.80363	47039
19.81177	41655
19.81988	44469
19.82800	41094
19.83613	44522
19.84425	42704
19.85238	43487
19.86050	43995
19.86862	45596
19.87675	50265
19.88487	59268
19.89298	66607
19.90112	78099
19.90923	80441
19.91737	88291
19.92548	82566
19.93360	83290
19.94173	78646
19.94985	76541
19.95798	74623
19.96610	70104
19.97422	72055
19.98235	69013
19.99047	64613
19.99858	62330
20.00672	60601
20.01483	64114
20.02297	62623
20.03108	57952
20.03920	57739
20.04733	53492
20.05545	49380
20.06358	50857
20.07170	47873
20.07982	45068
20.08795	49034
20.09607	45095
20.10420	46013
20.11232	45072
20.12043	45968
20.12857	41970
20.13668	43946
20.14480	45989
20.15293	42082
20.16105	44570
20.16918	44118
20.17730	41530
20.18542	39477
20.19355	42105
20.20167	44135
20.20980	46664
20.21792	50161
20.22603	61444
20.23417	86046
20.24228	100523
20.25042	118264
20.25853	143231
20.26665	148259
20.27478	131080
20.28290	114610
20.29102	106493
20.29915	88290
20.30727	90027
20.31540	81780
20.32352	82534
20.33163	77724
20.33977	66865
20.34788	59231
20.35602	58631
20.36413	55477
20.37225	54137
20.38038	54704
20.38850	53048
20.39662	58509
20.40475	63822
20.41287	75134
20.42100	80514
20.42912	75606
20.43723	73619
20.44537	69799
20.45348	64467
20.46162	60004
20.46973	53482
20.47785	52231
20.48598	49608
20.49410	47754
20.50223	49309
20.51035	43929
20.51847	43619
20.52660	44958
20.53472	45393
20.54283	45401
20.55097	44132
20.55908	43333
20.56722	41892
20.57533	40212
20.58345	42115
20.59158	40843
20.59970	46868
20.60783	42837
20.61595	41456
20.62407	44833
20.63220	43715
20.64032	39308
20.64843	41497
20.65657	41354
20.66468	41193
20.67282	48008
20.68093	42487
20.68905	41419
20.69718	37933
20.70530	40280
20.71343	40007
20.72155	39211
20.72967	38919
20.73780	36139
20.74592	42593
20.75405	39493
20.76217	38916
20.77028	35172
20.77842	39369
20.78653	40643
20.79465	36070
20.80278	38022
20.81090	39026
20.81903	37688
20.82715	39320
20.83527	32779
20.84340	41484
20.85152	38671
20.85965	34568
20.86777	35578
20.87588	37691
20.88402	35485
20.89213	38941
20.90027	35795
20.90838	36840
20.91650	35618
20.92463	33894
20.93275	34034
20.94087	35468
20.94900	34740
20.95712	33436
20.96525	35826
20.97337	43213
20.98148	43950
20.98962	41180
20.99773	43473
21.00587	43392
21.01398	41331
21.02210	42051
21.03023	40508
21.03835	34634
21.04647	36486
21.05460	33360
21.06272	39888
21.07085	34417
21.07897	37793
21.08708	35183
21.09522	37597
21.10333	38804
21.11147	37162
21.11958	38008
21.12770	37406
21.13583	36331
21.14395	38341
21.15208	39091
21.16020	34461
21.16832	38197
21.17645	35919
21.18457	35325
21.19268	34805
21.20082	33578
21.20893	36218
21.21707	38517
21.22518	38294
21.23330	36435
21.24143	32039
21.24955	35184
21.25768	38538
21.26580	40898
21.27392	42268
21.28205	42498
21.29017	44590
21.29830	47582
21.30642	42576
21.31453	40845
21.32267	37611
21.33078	39739
21.33890	40388
21.34703	36845
21.35515	39772
21.36328	39310
21.37140	37132
21.37952	35951
21.38765	38270
21.39577	38528
21.40390	38241
21.41202	36794
21.42013	38918
21.42827	36109
21.43638	35866
21.44450	33230
21.45263	36033
21.46075	35420
21.46888	34994
21.47700	37946
21.48512	34526
21.49325	34819
21.50137	34605
21.50950	35133
21.51762	38268
21.52573	38675
21.53387	33693
21.54198	35506
21.55012	35176
21.55823	34678
21.56635	43077
21.57448	50535
21.58260	56677
21.59072	61247
21.59885	79053
21.60697	80329
21.61510	80469
21.62322	74901
21.63133	68232
21.63947	57857
21.64758	53583
21.65572	45113
21.66383	42634
21.67195	41792
21.68008	42203
21.68820	42828
21.69632	46268
21.70445	40879
21.71257	43143
21.72070	40498
21.72882	38016
21.73693	42096
21.74507	42017
21.75318	38264
21.76132	41569
21.76943	46421
21.77755	46453
21.78568	55156
21.79380	59183
21.80193	64695
21.81005	63200
21.81817	57013
21.82630	58077
21.83442	46079
21.84253	46442
21.85067	40012
21.85878	41856
21.86692	38819
21.87503	41114
21.88315	42618
21.89128	36966
21.89940	39274
21.90753	37645
21.91565	37522
21.92377	35309
21.93190	34804
21.94002	36829
21.94815	35769
21.95627	35561
21.96438	35628
21.97252	37879
21.98063	34545
21.98875	35462
21.99688	36030
22.00500	34800
22.01313	33215
22.02125	32890
22.02937	34399
22.03750	34980
22.04562	37430
22.05375	34627
22.06187	34360
22.06998	33458
22.07812	35478
22.08623	36316
22.09435	37388
22.10248	36372
22.11060	38415
22.11873	36298
22.12685	32833
22.13497	33189
22.14310	31960
22.15122	32759
22.15935	35259
22.16747	36286
22.17558	37773
22.18372	37326
22.19183	36986
22.19997	36093
22.20808	34523
22.21620	35272
22.22433	40031
22.23245	34586
22.24057	34849
22.24870	34706
22.25682	37306
22.26495	34288
22.27307	31596
22.28118	33381
22.28932	34714
22.29743	31991
22.30557	30325
22.31368	28668
22.32180	31935
22.32993	34390
22.33805	32870
22.34618	31125
22.35430	33029
22.36242	36809
22.37055	29863
22.37867	29569
22.38678	31523
22.39492	33235
22.40303	34840
22.41117	32953
22.41928	31967
22.42740	29967
22.43553	31199
22.44365	31752
22.45178	31082
22.45990	31443
22.46802	28710
22.47615	30220
22.48427	28748
22.49238	27443
22.50052	29007
22.50863	29924
22.51677	28341
22.52488	28589
22.53300	29885
22.54113	27482
22.54925	30534
22.55738	30700
22.56550	31657
22.57362	31553
22.58175	29041
22.58987	28637
22.59800	29358
22.60612	28613
22.61423	29596
22.62237	31362
22.63048	27598
22.63860	28173
22.64673	29900
22.65485	27392
22.66298	29613
22.67110	28121
22.67922	25058
22.68735	27817
22.69547	30387
22.70360	27469
22.71172	27941
22.71983	28761
22.72797	30424
22.73608	33596
22.74422	31215
22.75233	32519
22.76045	26055
22.76858	28851
22.77670	27118
22.78482	30587
22.79295	27648
22.80107	28351
22.80920	31242
22.81732	31494
22.82543	25948
22.83357	28978
22.84168	32020
22.84982	27588
22.85793	27160
22.86605	30364
22.87418	32762
22.88230	33677
22.89042	35257
22.89855	32749
22.90667	38806
22.91480	43168
22.92292	45891
22.93103	50551
22.93917	48366
22.94728	52629
22.95542	52840
22.96353	53547
22.97165	47773
22.97978	44809
22.98790	44925
22.99603	43075
23.00415	36914
23.01227	40179
23.02040	35516
23.02852	34308
23.03663	34405
23.04477	32939
23.05288	36123
23.06102	30560
23.06913	28323
23.07725	30630
23.08538	31212
23.09350	33562
23.10163	29659
23.10975	32422
23.11787	28919
23.12600	31273
23.13412	27779
23.14223	31959
23.15037	30562
23.15848	31343
23.16662	31359
23.17473	31211
23.18285	32735
23.19098	31444
23.19910	33558
23.20723	30164
23.21535	29454
23.22347	28395
23.23160	32350
23.23972	28886
23.24785	29788
23.25597	29909
23.26408	30772
23.27222	29475
23.28033	31964
23.28845	31566
23.29658	34847
23.30470	31245
23.31283	33506
23.32095	31627
23.32907	30145
23.33720	28686
23.34532	30534
23.35345	28834
23.36157	28101
23.36968	28909
23.37782	35964
23.38593	29442
23.39407	32238
23.40218	31126
23.41030	32000
23.41843	30570
23.42655	28975
23.43467	33605
23.44280	31292
23.45092	28242
23.45905	31587
23.46717	30170
23.47528	30664
23.48342	27981
23.49153	32284
23.49967	31994
23.50778	29426
23.51590	28436
23.52403	29929
23.53215	29032
23.54027	30639
23.54840	32337
23.55652	29482
23.56465	35774
23.57277	31932
23.58088	33752
23.58902	31397
23.59713	28596
23.60527	32905
23.61338	36894
23.62150	30857
23.62963	32310
23.63775	33070
23.64588	36346
23.65400	35680
23.66212	39248
23.67025	38645
23.67837	37515
23.68648	39844
23.69462	38697
23.70273	36640
23.71087	37943
23.71898	45683
23.72710	72289
23.73523	178411
23.74335	492197
23.75148	1403178
23.75960	3371743
23.76772	5750429
23.77585	7633222
23.78397	8168603
23.79210	7521179
23.80022	5906726
23.80833	4294738
23.81647	2941544
23.82458	1990937
23.83270	1435738
23.84083	1110380
23.84895	937053
23.85708	913414
23.86520	1010460
23.87332	1150782
23.88145	1291854
23.88957	1290486
23.89770	1209543
23.90582	990521
23.91393	806927
23.92207	655890
23.93018	539241
23.93830	434843
23.94643	365009
23.95455	324787
23.96268	292904
23.97080	255967
23.97892	240300
23.98705	228827
23.99517	203408
24.00330	195249
24.01142	188060
24.01953	175174
24.02767	162388
24.03578	162386
24.04392	164229
24.05203	150765
24.06015	151423
24.06828	139354
24.07640	138281
24.08452	146628
24.09265	143317
24.10077	137994
24.10890	130380
24.11702	131872
24.12513	124586
24.13327	123437
24.14138	114864
24.14952	116176
24.15763	111339
24.16575	115387
24.17388	120303
24.18200	116489
24.19012	117237
24.19825	112042
24.20637	113206
24.21450	109968
24.22262	99269
24.23073	98653
24.23887	96397
24.24698	95520
24.25512	92526
24.26323	90372
24.27135	86857
24.27948	83530
24.28760	83038
24.29573	87990
24.30385	80830
24.31197	90489
24.32010	88046
24.32822	101235
24.33633	128169
24.34447	174784
24.35258	246962
24.36072	376978
24.36883	561080
24.37695	795242
24.38508	996879
24.39320	1058610
24.40133	929342
24.40945	762016
24.41757	595694
24.42570	449219
24.43382	367341
24.44195	298834
24.45007	251472
24.45818	231045
24.46632	204746
24.47443	190643
24.48255	176661
24.49068	168306
24.49880	150770
24.50693	129260
24.51505	130851
24.52317	119565
24.53130	117473
24.53942	116614
24.54755	114549
24.55567	124920
24.56378	111154
24.57192	108492
24.58003	103966
24.58817	92892
24.59628	93222
24.60440	87019
24.61253	85341
24.62065	81928
24.62877	82982
24.63690	80894
24.64502	74733
24.65315	75647
24.66127	79967
24.66938	76436
24.67752	70011
24.68563	73057
24.69377	69816
24.70188	68987
24.71000	68911
24.71813	64797
24.72625	66560
24.73437	70040
24.74250	67216
24.75062	66362
24.75875	65440
24.76687	63364
24.77498	63241
24.78312	61767
24.79123	58107
24.79937	57684
24.80748	59884
24.81560	60866
24.82373	58074
24.83185	63359
24.83998	56256
24.84810	61980
24.85622	59085
24.86435	55815
24.87247	57664
24.88058	59946
24.88872	53059
24.89683	56082
24.90497	55665
24.91308	53775
24.92120	55385
24.92933	55384
24.93745	52376
24.94558	52917
24.95370	51926
24.96182	54534
24.96995	54419
24.97807	54423
24.98618	54474
24.99432	54716
25.00243	53797
25.01057	50131
25.01868	50496
25.02680	50697
25.03493	50852
25.04305	52351
25.05118	49206
25.05930	51138
25.06742	49901
25.07555	47904
25.08367	51135
25.09180	48840
25.09992	52546
25.10803	49886
25.11617	47989
25.12428	50475
25.13240	53633
25.14053	48534
25.14865	51917
25.15678	54279
25.16490	51530
25.17302	50708
25.18115	47009
25.18927	49083
25.19740	49481
25.20552	49633
25.21363	47127
25.22177	46643
25.22988	48796
25.23802	47623
25.24613	45934
25.25425	48836
25.26238	43049
25.27050	44918
25.27862	45564
25.28675	50740
25.29487	53790
25.30300	51698
25.31112	53113
25.31923	53262
25.32737	55987
25.33548	49265
25.34362	52080
25.35173	48538
25.35985	44750
25.36798	42195
25.37610	44798
25.38422	45282
25.39235	44996
25.40047	44984
25.40860	45052
25.41672	48931
25.42483	45804
25.43297	48626
25.44108	47315
25.44922	48677
25.45733	45840
25.46545	49320
25.47358	47673
25.48170	47370
25.48983	44494
25.49795	50852
25.50607	45580
25.51420	42812
25.52232	45992
25.53043	38912
25.53857	38242
25.54668	39459
25.55482	40615
25.56293	43881
25.57105	44192
25.57918	40197
25.58730	41702
25.59543	42808
25.60355	40762
25.61167	41566
25.61980	43096
25.62792	42085
25.63605	39449
25.64417	42423
25.65228	41538
25.66042	39514
25.66853	46355
25.67665	39447
25.68478	39458
25.69290	40195
25.70103	40421
25.70915	38462
25.71727	36260
25.72540	41294
25.73352	40438
25.74165	37617
25.74977	38257
25.75788	43200
25.76602	41711
25.77413	39186
25.78225	40068
25.79038	38901
25.79850	37776
25.80663	43572
25.81475	39465
25.82287	38362
25.83100	40732
25.83912	42220
25.84725	36710
25.85537	38411
25.86348	38992
25.87162	39146
25.87973	38196
25.88787	38149
25.89598	38929
25.90410	36405
25.91223	36643
25.92035	35107
25.92847	39607
25.93660	38093
25.94472	39080
25.95285	38996
25.96097	40059
25.96908	40970
25.97722	34720
25.98533	37700
25.99347	38788
26.00158	37800
26.00970	38107
26.01783	38023
26.02595	39963
26.03407	38762
26.04220	34916
26.05032	36229
26.05845	40259
26.06657	37951
26.07468	36945
26.08282	39544
26.09093	36206
26.09907	39459
26.10718	37662
26.11530	43402
26.12343	42763
26.13155	48222
26.13968	45111
26.14780	48260
26.15592	46714
26.16405	44378
26.17217	44269
26.18028	43732
26.18842	46028
26.19653	40853
26.20467	44219
26.21278	42908
26.22090	41086
26.22903	39581
26.23715	38674
26.24528	41128
26.25340	42555
26.26152	36491
26.26965	36934
26.27777	40252
26.28590	40350
26.29402	41723
26.30213	37743
26.31027	34385
26.31838	40042
26.32650	38239
26.33463	38097
26.34275	38667
26.35088	36587
26.35900	35118
26.36712	38259
26.37525	34430
26.38337	33899
26.39150	33226
26.39962	36863
26.40773	36903
26.41587	34685
26.42398	37770
26.43210	35549
26.44023	33010
26.44835	33108
26.45648	40065
26.46460	35939
26.47272	36952
26.48085	40993
26.48897	36130
26.49710	38025
26.50522	37028
26.51333	35315
26.52147	34940
26.52958	35197
26.53772	38602
26.54583	33939
26.55395	34083
26.56208	39849
26.57020	35465
26.57832	38355
26.58645	35569
26.59457	30884
26.60270	36012
26.61082	35247
26.61893	36034
26.62707	35404
26.63518	38817
26.64332	39293
26.65143	48047
26.65955	40478
26.66768	39513
26.67580	43223
26.68393	40987
26.69205	39208
26.70017	41178
26.70830	39587
26.71642	40848
26.72453	39038
26.73267	40444
26.74078	41328
26.74892	42913
26.75703	39384
26.76515	39761
26.77328	43184
26.78140	42916
26.78953	41806
26.79765	39212
26.80577	41494
26.81390	44366
26.82202	48633
26.83013	43955
26.83827	47012
26.84638	42339
26.85452	47543
26.86263	43437
26.87075	46824
26.87888	47532
26.88700	48534
26.89513	50096
26.90325	50704
26.91137	56814
26.91950	55698
26.92762	69849
26.93575	113128
26.94387	209485
26.95198	475532
26.96012	1016103
26.96823	2303651
26.97635	4908761
26.98448	8463367
26.99260	1.058415E+07
27.00073	1.066758E+07
27.00885	9645216
27.01697	8367260
27.02510	6634520
27.03322	5073797
27.04135	3712005
27.04947	2697168
27.05758	1900557
27.06572	1443894
27.07383	1105092
27.08197	842697
27.09008	679272
27.09820	550330
27.10633	473419
27.11445	401118
27.12257	360335
27.13070	318630
27.13882	275286
27.14695	249413
27.15507	240868
27.16318	231628
27.17132	220453
27.17943	219531
27.18757	230082
27.19568	264475
27.20380	347371
27.21193	458892
27.22005	600026
27.22817	732068
27.23630	794865
27.24442	791646
27.25255	748638
27.26067	613739
27.26878	520342
27.27692	432972
27.28503	357620
27.29317	291105
27.30128	249532
27.30940	228749
27.31753	200930
27.32565	179061
27.33378	162818
27.34190	152011
27.35002	151254
27.35815	133558
27.36627	126443
27.37438	125496
27.38252	113810
27.39063	115636
27.39877	105748
27.40688	104532
27.41500	98767
27.42313	97924
27.43125	93328
27.43938	91782
27.44750	96498
27.45562	96349
27.46375	91076
27.47187	93029
27.47998	90693
27.48812	89174
27.49623	88726
27.50437	90004
27.51248	80270
27.52060	85359
27.52873	75342
27.53685	75348
27.54498	75255
27.55310	76032
27.56122	72308
27.56935	77028
27.57747	71523
27.58560	72213
27.59372	71269
27.60183	70964
27.60997	69453
27.61808	65286
27.62620	64315
27.63433	64403
27.64245	65100
27.65058	66875
27.65870	61268
27.66682	57398
27.67495	59634
27.68307	58960
27.69120	58376
27.69932	57852
27.70743	54608
27.71557	57620
27.72368	54147
27.73182	54650
27.73993	60323
27.74805	59151
27.75618	52705
27.76430	55010
27.77242	56190
27.78055	53287
27.78867	53366
27.79680	52704
27.80492	56437
27.81303	52623
27.82117	58676
27.82928	55587
27.83742	49387
27.84553	53022
27.85365	51676
27.86178	49799
27.86990	51472
27.87802	51577
27.88615	53278
27.89427	47707
27.90240	49207
27.91052	49187
27.91863	45550
27.92677	51941
27.93488	44376
27.94302	50910
27.95113	48538
27.95925	48952
27.96738	49843
27.97550	48625
27.98363	48325
27.99175	46188
27.99987	45471
28.00800	49403
28.01612	48568
28.02423	47607
28.03237	45299
28.04048	44079
28.04862	46883
28.05673	45230
28.06485	47633
28.07298	47547
28.08110	48293
28.08923	48148
28.09735	49709
28.10547	44676
28.11360	50211
28.12172	48455
28.12985	56014
28.13797	59676
28.14608	65614
28.15422	61469
28.16233	58964
28.17045	61543
28.17858	57841
28.18670	53077
28.19483	53247
28.20295	46513
28.21107	53443
28.21920	51588
28.22732	56456
28.23545	78678
28.24357	122192
28.25168	194481
28.25982	353209
28.26793	560527
28.27605	892717
28.28418	1330387
28.29230	1893828
28.30043	2384744
28.30855	2856721
28.31667	3180494
28.32480	3289924
28.33292	3220351
28.34105	3052468
28.34917	2680225
28.35728	2341982
28.36542	1989208
28.37353	1653300
28.38167	1346620
28.38978	1130417
28.39790	933670
28.40603	794145
28.41415	693399
28.42227	643576
28.43040	586573
28.43852	560949
28.44665	561162
28.45477	571173
28.46288	581899
28.47102	580422
28.47913	563488
28.48727	541917
28.49538	522371
28.50350	475530
28.51163	431796
28.51975	392823
28.52787	352480
28.53600	326242
28.54412	299820
28.55225	270853
28.56037	258368
28.56848	232799
28.57662	212267
28.58473	191508
28.59287	186749
28.60098	178815
28.60910	174196
28.61723	155176
28.62535	156854
28.63348	147539
28.64160	139299
28.64972	137863
28.65785	134977
28.66597	138044
28.67408	126840
28.68222	131822
28.69033	130098
28.69847	140031
28.70658	147667
28.71470	169003
28.72283	181521
28.73095	171537
28.73908	161637
28.74720	146324
28.75532	125850
28.76345	120759
28.77157	108632
28.77970	108359
28.78782	98428
28.79593	96226
28.80407	95231
28.81218	89664
28.82030	92273
28.82843	89530
28.83655	90659
28.84468	86527
28.85280	86954
28.86092	78609
28.86905	78473
28.87717	76016
28.88530	77791
28.89342	82764
28.90153	78819
28.90967	75114
28.91778	80057
28.92590	77084
28.93403	75706
28.94215	76252
28.95028	80079
28.95840	71676
28.96652	75899
28.97465	70523
28.98277	76661
28.99090	71266
28.99902	70824
29.00713	67139
29.01527	71361
29.02338	68705
29.03152	68208
29.03963	68591
29.04775	66480
29.05588	68416
29.06400	67935
29.07212	65041
29.08025	65079
29.08837	64472
29.09650	63640
29.10462	62144
29.11273	60729
29.12087	61063
29.12898	60231
29.13712	58695
29.14523	63668
29.15335	63942
29.16148	63275
29.16960	59750
29.17773	61859
29.18585	57348
29.19397	66941
29.20210	60957
29.21022	62145
29.21833	61442
29.22647	57227
29.23458	59670
29.24272	57071
29.25083	52040
29.25895	52391
29.26708	61640
29.27520	59806
29.28333	55135
29.29145	56181
29.29957	55474
29.30770	55043
29.31582	56583
29.32393	56774
29.33207	57561
29.34018	60296
29.34832	55499
29.35643	52742
29.36455	52066
29.37268	55247
29.38080	51623
29.38893	58311
29.39705	59079
29.40517	52530
29.41330	54459
29.42142	56285
29.42955	56614
29.43767	56275
29.44578	54005
29.45392	54480
29.46203	58757
29.47015	58743
29.47828	54251
29.48640	53681
29.49453	54413
29.50265	54349
29.51077	51973
29.51890	53876
29.52702	49780
29.53515	52740
29.54327	49362
29.55138	48550
29.55952	50552
29.56763	48240
29.57577	51047
29.58388	54458
29.59200	48777
29.60013	51458
29.60825	45723
29.61637	47453
29.62450	52686
29.63262	50888
29.64075	50402
29.64887	50020
29.65698	47056
29.66512	47355
29.67323	45655
29.68137	49778
29.68948	47416
29.69760	45657
29.70573	50346
29.71385	46858
29.72197	47393
29.73010	46611
29.73822	46348
29.74635	44811
29.75447	45575
29.76258	44561
29.77072	43552
29.77883	45600
29.78697	43425
29.79508	43294
29.80320	45400
29.81133	43079
29.81945	43677
29.82758	46791
29.83570	44257
29.84382	47933
29.85195	46971
29.86007	56620
29.86818	73715
29.87632	108135
29.88443	148708
29.89257	213314
29.90068	292155
29.90880	402167
29.91693	516576
29.92505	622892
29.93318	689235
29.94130	781017
29.94942	835875
29.95755	877884
29.96567	895748
29.97380	879847
29.98192	863085
29.99003	827617
29.99817	767551
30.00628	748160
30.01440	707313
30.02253	649755
30.03065	603941
30.03878	542896
30.04690	500819
30.05502	453190
30.06315	413949
30.07127	376961
30.07940	352687
30.08752	314848
30.09563	289476
30.10377	274046
30.11188	239121
30.12000	222315
30.12813	205168
30.13625	189947
30.14438	179044
30.15250	171068
30.16062	159717
30.16875	145689
30.17687	132151
30.18500	130732
30.19312	126561
30.20123	124037
30.20937	108279
30.21748	105617
30.22562	110756
30.23373	103543
30.24185	97243
30.24998	97486
30.25810	92270
30.26622	88423
30.27435	93827
30.28247	89748
30.29060	88662
30.29872	82612
30.30683	87294
30.31497	88320
30.32308	79116
30.33122	75846
30.33933	73611
30.34745	75150
30.35558	74826
30.36370	75620
30.37182	66888
30.37995	68492
30.38807	74034
30.39620	66286
30.40432	72244
30.41243	70664
30.42057	68494
30.42868	68071
30.43682	65066
30.44493	69001
30.45305	64483
30.46118	64572
30.46930	62223
30.47743	63962
30.48555	61607
30.49367	61273
30.50180	61865
30.50992	61081
30.51803	63936
30.52617	60170
30.53428	64870
30.54242	57072
30.55053	61002
30.55865	59307
30.56678	53603
30.57490	57102
30.58303	57566
30.59115	59179
30.59927	55792
30.60740	60036
30.61552	54809
30.62365	54598
30.63177	57608
30.63988	51705
30.64802	51427
30.65613	61985
30.66425	54743
30.67238	50182
30.68050	54645
30.68863	48488
30.69675	50761
30.70487	51085
30.71300	51655
30.72112	53557
30.72925	48833
30.73737	50146
30.74548	54283
30.75362	55460
30.76173	54029
30.76985	53143
30.77798	56841
30.78610	53212
30.79423	51749
30.80235	51134
30.81047	52472
30.81860	53108
30.82672	52095
30.83485	54956
30.84297	52499
30.85108	52793
30.85922	50320
30.86733	49418
30.87547	48997
30.88358	49380
30.89170	46490
30.89983	48836
30.90795	48379
30.91607	50692
30.92420	51820
30.93232	46320
30.94045	46173
30.94857	47165
30.95668	45821
30.96482	47444
30.97293	45654
30.98107	46028
30.98918	49020
30.99730	46270
31.00543	46115
31.01355	46660
31.02168	46731
31.02980	48625
31.03792	48172
31.04605	50083
31.05417	45255
31.06228	44796
31.07042	48642
31.07853	49322
31.08667	54636
31.09478	56914
31.10290	57536
31.11103	57368
31.11915	56895
31.12728	50836
31.13540	54857
31.14352	51161
31.15165	47960
31.15977	57237
31.16788	58288
31.17602	61483
31.18413	73393
31.19227	80074
31.20038	88230
31.20850	101479
31.21663	96678
31.22475	92160
31.23288	88086
31.24100	77079
31.24912	67338
31.25725	59393
31.26537	58820
31.27350	51850
31.28162	48812
31.28973	46122
31.29787	48552
31.30598	49368
31.31410	47028
31.32223	50277
31.33035	52094
31.33848	54424
31.34660	57801
31.35472	61319
31.36285	57434
31.37097	60200
31.37910	54940
31.38722	55391
31.39533	48853
31.40347	46495
31.41158	45411
31.41972	44767
31.42783	50092
31.43595	46431
31.44408	50203
31.45220	43167
31.46032	44995
31.46845	45396
31.47657	49031
31.48470	42757
31.49282	44826
31.50093	43025
31.50907	41435
31.51718	40776
31.52532	41489
31.53343	45208
31.54155	45324
31.54968	42279
31.55780	43917
31.56592	43984
31.57405	42697
31.58217	43151
31.59030	49533
31.59842	41507
31.60653	40833
31.61467	41627
31.62278	42204
31.63092	40949
31.63903	46924
31.64715	43193
31.65528	44504
31.66340	47319
31.67153	42895
31.67965	42470
31.68777	41212
31.69590	39203
31.70402	45682
31.71213	43506
31.72027	43047
31.72838	42049
31.73652	39359
31.74463	39151
31.75275	42284
31.76088	42615
31.76900	41264
31.77713	44971
31.78525	47862
31.79337	49308
31.80150	47742
31.80962	52345
31.81773	59861
31.82587	76192
31.83398	93601
31.84212	128829
31.85023	181015
31.85835	234690
31.86648	290735
31.87460	344397
31.88273	382456
31.89085	409743
31.89897	437201
31.90710	436848
31.91522	435025
31.92335	426291
31.93147	399106
31.93958	378569
31.94772	346731
31.95583	329153
31.96395	296589
31.97208	278423
31.98020	244951
31.98833	233258
31.99645	206667
32.00457	191331
32.01270	189597
32.02082	172502
32.02895	164429
32.03707	149615
32.04518	132044
32.05332	124125
32.06143	117816
32.06957	101737
32.07768	103500
32.08580	94941
32.09393	95580
32.10205	88982
32.11017	89268
32.11830	82945
32.12642	81338
32.13455	82764
32.14267	77512
32.15078	76889
32.15892	78557
32.16703	68973
32.17517	72925
32.18328	69359
32.19140	72546
32.19953	71537
32.20765	64663
32.21577	62379
32.22390	64377
32.23202	64663
32.24015	62176
32.24827	63588
32.25638	63508
32.26452	57795
32.27263	61465
32.28077	57577
32.28888	59644
32.29700	55105
32.30513	60185
32.31325	64882
32.32138	58536
32.32950	63587
32.33762	62827
32.34575	65686
32.35387	65796
32.36198	63849
32.37012	66029
32.37823	60549
32.38637	60122
32.39448	58827
32.40260	57099
32.41073	49843
32.41885	57051
32.42698	53940
32.43510	57639
32.44322	54528
32.45135	55036
32.45947	56229
32.46760	52335
32.47572	51020
32.48383	56475
32.49197	50682
32.50008	50276
32.50820	52477
32.51633	49935
32.52445	50169
32.53258	52236
32.54070	52729
32.54882	51480
32.55695	50526
32.56507	51720
32.57320	55855
32.58132	58161
32.58943	73913
32.59757	82423
32.60568	94476
32.61380	101656
32.62193	101356
32.63005	98078
32.63818	85384
32.64630	71603
32.65442	58327
32.66255	54492
32.67067	56256
32.67880	50184
32.68692	55458
32.69503	54381
32.70317	53580
32.71128	58643
32.71942	53262
32.72753	52773
32.73565	53110
32.74378	51547
32.75190	49216
32.76002	53359
32.76815	49290
32.77627	49265
32.78440	47786
32.79252	49531
32.80063	43472
32.80877	46198
32.81688	45465
32.82502	49911
32.83313	46713
32.84125	45675
32.84938	47203
32.85750	45870
32.86562	49127
32.87375	46781
32.88187	48861
32.89000	42948
32.89812	45103
32.90623	46569
32.91437	48707
32.92248	46653
32.93062	48660
32.93873	45615
32.94685	45248
32.95498	43171
32.96310	43575
32.97123	44226
32.97935	46581
32.98747	45531
32.99560	47487
33.00372	50867
33.01183	45582
33.01997	47689
33.02808	43610
33.03622	45263
33.04433	43051
33.05245	42842
33.06058	45441
33.06870	45156
33.07683	45448
33.08495	49636
33.09307	54019
33.10120	53636
33.10932	59162
33.11745	61288
33.12557	61866
33.13368	56562
33.14182	55773
33.14993	53586
33.15805	50251
33.16618	51692
33.17430	49974
33.18243	47713
33.19055	49687
33.19867	44902
33.20680	47835
33.21492	49218
33.22305	49616
33.23117	45043
33.23928	46882
33.24742	49408
33.25553	44408
33.26365	47664
33.27178	45182
33.27990	43105
33.28803	44192
33.29615	46874
33.30427	47414
33.31240	43587
33.32052	45394
33.32865	43683
33.33677	44259
33.34488	45690
33.35302	49107
33.36113	44010
33.36927	41752
33.37738	42680
33.38550	45324
33.39363	41907
33.40175	42969
33.40987	42803
33.41800	43854
33.42612	43095
33.43425	43602
33.44237	46167
33.45048	43739
33.45862	45987
33.46673	43795
33.47487	47701
33.48298	41647
33.49110	42025
33.49923	48200
33.50735	42790
33.51548	43964
33.52360	42532
33.53172	40430
33.53985	44319
33.54797	46682
33.55608	41202
33.56422	43860
33.57233	42165
33.58047	44031
33.58858	44032
33.59670	42342
33.60483	46344
33.61295	45192
33.62108	44641
33.62920	42132
33.63732	46682
33.64545	45155
33.65357	44264
33.66168	44048
33.66982	43028
33.67793	40376
33.68607	43925
33.69418	40326
33.70230	40247
33.71043	45077
33.71855	42214
33.72668	43987
33.73480	47267
33.74292	44617
33.75105	46991
33.75917	48173
33.76730	48160
33.77542	56504
33.78353	51447
33.79167	55023
33.79978	49020
33.80790	50313
33.81603	52786
33.82415	53083
33.83228	49307
33.84040	51179
33.84852	54050
33.85665	50755
33.86477	59143
33.87290	56400
33.88102	53202
33.88913	58276
33.89727	53211
33.90538	53430
33.91350	49518
33.92163	51882
33.92975	49185
33.93788	50581
33.94600	49889
33.95412	47284
33.96225	49296
33.97037	48652
33.97850	48628
33.98662	51886
33.99473	50505
34.00287	51838
34.01098	53233
34.01912	51758
34.02723	47055
34.03535	48586
34.04348	48021
34.05160	47988
34.05972	46092
34.06785	46507
34.07597	46318
34.08410	44982
34.09222	54304
34.10033	47589
34.10847	45440
34.11658	43884
34.12472	49385
34.13283	46476
34.14095	46297
34.14908	42757
34.15720	43395
34.16533	46560
34.17345	47757
34.18157	43939
34.18970	44937
34.19782	42552
34.20593	50265
34.21407	43136
34.22218	46282
34.23032	49976
34.23843	46421
34.24655	48884
34.25468	46780
34.26280	44527
34.27093	46031
34.27905	45480
34.28717	46370
34.29530	46354
34.30342	46799
34.31155	41637
34.31967	43877
34.32778	44961
34.33592	46130
34.34403	48898
34.35215	45066
34.36028	49510
34.36840	43634
34.37653	41467
34.38465	44194
34.39277	46036
34.40090	42836
34.40902	49997
34.41715	48950
34.42527	52902
34.43338	62813
34.44152	78407
34.44963	111996
34.45775	152775
34.46588	215270
34.47400	268503
34.48213	326039
34.49025	362296
34.49837	372735
34.50650	368552
34.51462	339454
34.52275	300065
34.53087	273024
34.53898	229276
34.54712	202024
34.55523	185711
34.56337	155920
34.57148	137563
34.57960	129967
34.58773	122589
34.59585	111434
34.60397	110763
34.61210	103363
34.62022	99889
34.62835	93277
34.63647	95457
34.64458	88445
34.65272	89768
34.66083	90383
34.66897	82873
34.67708	83730
34.68520	83311
34.69333	80269
34.70145	79134
34.70957	71954
34.71770	76651
34.72582	73039
34.73395	71665
34.74207	72094
34.75018	76999
34.75832	70730
34.76643	69951
34.77457	71804
34.78268	72450
34.79080	72377
34.79893	67334
34.80705	62572
34.81518	67260
34.82330	66291
34.83142	65389
34.83955	61818
34.84767	64175
34.85578	66059
34.86392	63915
34.87203	64780
34.88017	68649
34.88828	62700
34.89640	61752
34.90453	69810
34.91265	61806
34.92078	60984
34.92890	65283
34.93702	68020
34.94515	60480
34.95327	60302
34.96140	57192
34.96952	58194
34.97763	63559
34.98577	58696
34.99388	56625
35.00200	56507
35.01013	53054
35.01825	56986
35.02638	57673
35.03450	56979
35.04262	56666
35.05075	57307
35.05887	59134
35.06700	58673
35.07512	60901
35.08323	60423
35.09137	64513
35.09948	63702
35.10760	59297
35.11573	60958
35.12385	62520
35.13198	61978
35.14010	60047
35.14822	59112
35.15635	58610
35.16447	63359
35.17260	61124
35.18072	56544
35.18883	57481
35.19697	53511
35.20508	51916
35.21322	55390
35.22133	56952
35.22945	55660
35.23758	60264
35.24570	60077
35.25382	59281
35.26195	58713
35.27007	60278
35.27820	59313
35.28632	59854
35.29443	57293
35.30257	56357
35.31068	59109
35.31882	56294
35.32693	52499
35.33505	55066
35.34318	54787
35.35130	53769
35.35943	51226
35.36755	57066
35.37567	55845
35.38380	53612
35.39192	54351
35.40003	53359
35.40817	54643
35.41628	58613
35.42442	56485
35.43253	56896
35.44065	60666
35.44878	63674
35.45690	63698
35.46503	62358
35.47315	63072
35.48127	60553
35.48940	59019
35.49752	55835
35.50563	55875
35.51377	60749
35.52188	57413
35.53002	58369
35.53813	55818
35.54625	56034
35.55438	60332
35.56250	63257
35.57063	57390
35.57875	59763
35.58687	60062
35.59500	65469
35.60312	72087
35.61125	73180
35.61937	70321
35.62748	68303
35.63562	69484
35.64373	63788
35.65185	60829
35.65998	59044
35.66810	61642
35.67623	57179
35.68435	55292
35.69247	54808
35.70060	57753
35.70872	55497
35.71685	58549
35.72497	58094
35.73308	55516
35.74122	55801
35.74933	51792
35.75745	60607
35.76558	59797
35.77370	60138
35.78183	57503
35.78995	56088
35.79807	59180
35.80620	56397
35.81432	55108
35.82245	62375
35.83057	53781
35.83868	56641
35.84682	58361
35.85493	58009
35.86307	57666
35.87118	51613
35.87930	56602
35.88743	55231
35.89555	51569
35.90367	57944
35.91180	58664
35.91992	53779
35.92805	58227
35.93617	54268
35.94428	56933
35.95242	57288
35.96053	54799
35.96867	55011
35.97678	55617
35.98490	57170
35.99303	57815
36.00115	61558
36.00928	59871
36.01740	62382
36.02552	60272
36.03365	61849
36.04177	61937
36.04988	58982
36.05802	61350
36.06613	58623
36.07427	60540
36.08238	64869
36.09050	59254
36.09863	56346
36.10675	63153
36.11488	61279
36.12300	57299
36.13112	59853
36.13925	58063
36.14737	60922
36.15548	61378
36.16362	56695
36.17173	56339
36.17987	53850
36.18798	58531
36.19610	56442
36.20423	57036
36.21235	60374
36.22048	64851
36.22860	74742
36.23672	81871
36.24485	103668
36.25297	117343
36.26110	123071
36.26922	116726
36.27733	102287
36.28547	88338
36.29358	72639
36.30170	67562
36.30983	63852
36.31795	62431
36.32608	62410
36.33420	60184
36.34232	60191
36.35045	61152
36.35857	69257
36.36670	66434
36.37482	61079
36.38293	61839
36.39107	59173
36.39918	66419
36.40732	61843
36.41543	57422
36.42355	59575
36.43168	62416
36.43980	62532
36.44792	60473
36.45605	55886
36.46417	59126
36.47230	57803
36.48042	55577
36.48853	58092
36.49667	55694
36.50478	61005
36.51292	58852
36.52103	58687
36.52915	59955
36.53728	59191
36.54540	58379
36.55352	64856
36.56165	61465
36.56977	61633
36.57790	64537
36.58602	68853
36.59413	69735
36.60227	70386
36.61038	72626
36.61852	72661
36.62663	68645
36.63475	67335
36.64288	70991
36.65100	70780
36.65913	75316
36.66725	76910
36.67537	70374
36.68350	71272
36.69162	71420
36.69973	73683
36.70787	73730
36.71598	71121
36.72412	70885
36.73223	68258
36.74035	68313
36.74848	69870
36.75660	64909
36.76473	63946
36.77285	61710
36.78097	64680
36.78910	61005
36.79722	61557
36.80535	63036
36.81347	65474
36.82158	67107
36.82972	62735
36.83783	60713
36.84595	61714
36.85408	63210
36.86220	62527
36.87033	63943
36.87845	59971
36.88657	59995
36.89470	60918
36.90282	63200
36.91095	62546
36.91907	62251
36.92718	60280
36.93532	63596
36.94343	57616
36.95155	59175
36.95968	64691
36.96780	62954
36.97593	62727
36.98405	64373
36.99217	63646
37.00030	64558
37.00842	66593
37.01655	67347
37.02467	65055
37.03278	70656
37.04092	70521
37.04903	69841
37.05717	67528
37.06528	68383
37.07340	68037
37.08153	71038
37.08965	65150
37.09777	63193
37.10590	67485
37.11402	65914
37.12215	72716
37.13027	69365
37.13838	66548
37.14652	71292
37.15463	67138
37.16277	62797
37.17088	68382
37.17900	62860
37.18713	67559
37.19525	66026
37.20337	65221
37.21150	62157
37.21962	66489
37.22775	66059
37.23587	72827
37.24398	94567
37.25212	105272
37.26023	147373
37.26837	203682
37.27648	254286
37.28460	288385
37.29273	308918
37.30085	312344
37.30898	290281
37.31710	256610
37.32522	215580
37.33335	189799
37.34147	168002
37.34958	148393
37.35772	134370
37.36583	126155
37.37397	123633
37.38208	122212
37.39020	115117
37.39833	104523
37.40645	104714
37.41458	105953
37.42270	102820
37.43082	96856
37.43895	94537
37.44707	93897
37.45520	93910
37.46332	92083
37.47143	88660
37.47957	88032
37.48768	89339
