D:\MassHunter\GCMS\1\data\JTB-E02\BACandSTRAW\JTB-E02-207-07.D Wed Mar 13 12:57:27 2019
Start of data points
2.09540,289517
2.10353,293733
2.11165,307207
2.11977,326211
2.12790,319672
2.13602,294454
2.14415,287377
2.15227,289838
2.16038,255860
2.16852,244522
2.17663,225198
2.18475,230000
2.19288,208762
2.20100,198255
2.20913,192438
2.21725,183889
2.22537,177104
2.23350,174109
2.24162,172832
2.24975,180831
2.25787,157144
2.26598,159510
2.27412,159393
2.28223,152480
2.29037,153095
2.29848,151055
2.30660,144979
2.31473,143686
2.32285,143328
2.33097,154213
2.33910,150853
2.34722,139937
2.35535,131342
2.36347,137157
2.37158,139008
2.37972,151332
2.38783,135736
2.39597,318469
2.40408,2503838
2.41220,5505608
2.42033,3619922
2.42845,1676658
2.43657,1127074
2.44470,951867
2.45282,795166
2.46095,699045
2.46907,652828
2.47718,581893
2.48532,542188
2.49343,505471
2.50157,467946
2.50968,457130
2.51780,428180
2.52593,423848
2.53405,391814
2.54218,396410
2.55030,390929
2.55842,399660
2.56655,406685
2.57467,366750
2.58278,358105
2.59092,356248
2.59903,344428
2.60717,332660
2.61528,318524
2.62340,327148
2.63153,323635
2.63965,309232
2.64778,310357
2.65590,304640
2.66402,298490
2.67215,295670
2.68027,301216
2.68840,290518
2.69652,298014
2.70463,286708
2.71277,285186
2.72088,290464
2.72900,277046
2.73713,275551
2.74525,276529
2.75338,290313
2.76150,319704
2.76962,342619
2.77775,317783
2.78587,296126
2.79400,293183
2.80212,278316
2.81023,282715
2.81837,279348
2.82648,266895
2.83460,264603
2.84273,258286
2.85085,264683
2.85898,264091
2.86710,260253
2.87522,249283
2.88335,247388
2.89147,245980
2.89960,253952
2.90772,249746
2.91583,257565
2.92397,255007
2.93208,248499
2.94022,265128
2.94833,275560
2.95645,265485
2.96458,264380
2.97270,256061
2.98082,249998
2.98895,239680
2.99707,250983
3.00520,247642
3.01332,243179
3.02143,246402
3.02957,248640
3.03768,237711
3.04582,236891
3.05393,235805
3.06205,243933
3.07018,236407
3.07830,235395
3.08643,236621
3.09455,229171
3.10267,236197
3.11080,230886
3.11892,232928
3.12703,228871
3.13517,233600
3.14328,229915
3.15142,226510
3.15953,230241
3.16765,229867
3.17578,241900
3.18390,229618
3.19203,222728
3.20015,227082
3.20827,223137
3.21640,217442
3.22452,224474
3.23263,221513
3.24077,224181
3.24888,228287
3.25702,222115
3.26513,221213
3.27325,250471
3.28138,545607
3.28950,1261212
3.29763,1434415
3.30575,1020823
3.31387,756793
3.32200,637925
3.33012,545411
3.33825,503886
3.34637,455073
3.35448,430282
3.36262,543690
3.37073,1168376
3.37885,1818246
3.38698,1545314
3.39510,1097331
3.40323,882289
3.41135,779975
3.41947,683467
3.42760,624846
3.43572,565206
3.44385,526079
3.45197,490799
3.46008,645841
3.46822,1702587
3.47633,4356356
3.48447,6404149
3.49258,5692162
3.50070,4006123
3.50883,2977685
3.51695,2442644
3.52507,2062125
3.53320,1784272
3.54132,1571469
3.54945,1385879
3.55757,1260152
3.56568,1160574
3.57382,1048550
3.58193,989622
3.59007,917796
3.59818,860048
3.60630,814608
3.61443,777109
3.62255,728804
3.63068,692337
3.63880,662456
3.64692,636552
3.65505,613786
3.66317,594895
3.67128,579187
3.67942,576848
3.68753,558927
3.69567,531305
3.70378,521746
3.71190,506991
3.72003,499907
3.72815,483790
3.73628,490420
3.74440,474618
3.75252,465074
3.76065,454290
3.76877,438824
3.77688,441860
3.78502,439793
3.79313,435835
3.80127,418703
3.80938,416811
3.81750,407557
3.82563,397810
3.83375,396651
3.84188,380826
3.85000,383387
3.85812,372621
3.86625,391651
3.87437,475998
3.88250,569284
3.89062,556605
3.89873,472279
3.90687,422663
3.91498,414776
3.92310,394360
3.93123,386506
3.93935,380657
3.94748,362648
3.95560,374819
3.96372,353728
3.97185,355419
3.97997,379957
3.98810,583601
3.99622,1021687
4.00433,1278254
4.01247,996438
4.02058,639423
4.02872,508565
4.03683,443832
4.04495,417984
4.05308,392259
4.06120,379240
4.06932,365275
4.07745,361182
4.08557,351939
4.09370,359011
4.10182,347517
4.10993,333987
4.11807,331789
4.12618,314848
4.13432,318680
4.14243,318156
4.15055,315016
4.15868,304955
4.16680,301344
4.17492,306135
4.18305,303583
4.19117,305413
4.19930,299130
4.20742,295374
4.21553,292681
4.22367,289778
4.23178,284595
4.23992,289065
4.24803,286064
4.25615,292562
4.26428,282655
4.27240,281493
4.28053,263400
4.28865,270993
4.29677,266557
4.30490,272335
4.31302,270073
4.32113,268938
4.32927,265698
4.33738,263343
4.34552,264272
4.35363,261509
4.36175,266552
4.36988,297068
4.37800,402499
4.38613,679680
4.39425,912981
4.40237,817180
4.41050,593147
4.41862,447777
4.42675,378205
4.43487,347429
4.44298,314662
4.45112,305718
4.45923,298056
4.46735,310569
4.47548,340608
4.48360,353690
4.49173,334732
4.49985,310529
4.50797,287506
4.51610,275873
4.52422,268403
4.53235,268450
4.54047,255469
4.54858,264429
4.55672,273549
4.56483,275267
4.57295,257814
4.58108,258904
4.58920,260379
4.59733,253060
4.60545,251608
4.61357,257298
4.62170,254897
4.62982,255500
4.63795,249660
4.64607,247167
4.65418,251990
4.66232,243774
4.67043,239228
4.67857,236208
4.68668,241518
4.69480,228553
4.70293,235846
4.71105,235924
4.71917,239819
4.72730,236548
4.73542,235562
4.74355,231713
4.75167,229584
4.75978,222864
4.76792,234260
4.77603,229590
4.78417,231480
4.79228,236216
4.80040,234371
4.80853,228803
4.81665,227464
4.82478,228354
4.83290,225827
4.84102,236555
4.84915,239541
4.85727,232695
4.86538,226742
4.87352,228188
4.88163,226136
4.88977,230722
4.89788,227941
4.90600,220288
4.91413,222013
4.92225,223338
4.93038,221618
4.93850,224718
4.94662,223483
4.95475,232136
4.96287,213909
4.97100,221230
4.97912,223251
4.98723,218493
4.99537,221059
5.00348,220094
5.01160,215263
5.01973,216034
5.02785,217774
5.03598,217726
5.04410,225314
5.05222,223005
5.06035,222432
5.06847,220187
5.07660,220811
5.08472,224600
5.09283,229642
5.10097,236910
5.10908,231045
5.11720,215820
5.12533,219269
5.13345,224660
5.14158,246926
5.14970,364992
5.15782,644337
5.16595,1019144
5.17407,1292227
5.18220,1266411
5.19032,1139440
5.19843,977926
5.20657,1063097
5.21468,1807239
5.22282,3618082
5.23093,5278122
5.23905,4818926
5.24718,3112778
5.25530,1906806
5.26342,1345272
5.27155,1128836
5.27967,972696
5.28780,896452
5.29592,839543
5.30403,776685
5.31217,718888
5.32028,684766
5.32842,658204
5.33653,617904
5.34465,614750
5.35278,582256
5.36090,573213
5.36903,558080
5.37715,535063
5.38527,520174
5.39340,490924
5.40152,482659
5.40963,468386
5.41777,444106
5.42588,446744
5.43402,433053
5.44213,414754
5.45025,412450
5.45838,418115
5.46650,388794
5.47463,387668
5.48275,376844
5.49087,380328
5.49900,381061
5.50712,374643
5.51523,388740
5.52337,369454
5.53148,367651
5.53962,346277
5.54773,345666
5.55585,338989
5.56398,328445
5.57210,334534
5.58023,324853
5.58835,338913
5.59647,324065
5.60460,321215
5.61272,328150
5.62085,330998
5.62897,312455
5.63708,316558
5.64522,318464
5.65333,329420
5.66145,353092
5.66958,382750
5.67770,347408
5.68583,321615
5.69395,303484
5.70207,295459
5.71020,289656
5.71832,291807
5.72645,303723
5.73457,292100
5.74268,275631
5.75082,287746
5.75893,277973
5.76707,271032
5.77518,273226
5.78330,269832
5.79143,261766
5.79955,276297
5.80767,265193
5.81580,259879
5.82392,291422
5.83205,346938
5.84017,395615
5.84828,405451
5.85642,381180
5.86453,336565
5.87267,311142
5.88078,290371
5.88890,277636
5.89703,278474
5.90515,278868
5.91327,266345
5.92140,260031
5.92952,262043
5.93765,251133
5.94577,244172
5.95388,256255
5.96202,260827
5.97013,305147
5.97827,312526
5.98638,302676
5.99450,304074
6.00263,295307
6.01075,278542
6.01888,257022
6.02700,248063
6.03512,242458
6.04325,238272
6.05137,243274
6.05948,245837
6.06762,218209
6.07573,199986
6.08387,200224
6.09198,191737
6.10010,191543
6.10823,187906
6.11635,185761
6.12448,184726
6.13260,193878
6.14072,181972
6.14885,182044
6.15697,181434
6.16510,192839
6.17322,218691
6.18133,396567
6.18947,696358
6.19758,943584
6.20570,937863
6.21383,658198
6.22195,429079
6.23008,313283
6.23820,263529
6.24632,226312
6.25445,243170
6.26257,277940
6.27070,437446
6.27882,672437
6.28693,863607
6.29507,856269
6.30318,655139
6.31132,442136
6.31943,328459
6.32755,270145
6.33568,245761
6.34380,225904
6.35192,218975
6.36005,207618
6.36817,214212
6.37630,207146
6.38442,203622
6.39253,197356
6.40067,197942
6.40878,192858
6.41692,196238
6.42503,190514
6.43315,187927
6.44128,188775
6.44940,185378
6.45752,186940
6.46565,187383
6.47377,192433
6.48190,186566
6.49002,193369
6.49813,193245
6.50627,195088
6.51438,202087
6.52252,197261
6.53063,197110
6.53875,222365
6.54688,217468
6.55500,227790
6.56313,234052
6.57125,221980
6.57937,220650
6.58750,226664
6.59562,234536
6.60373,234390
6.61187,238680
6.61998,234897
6.62812,239680
6.63623,241059
6.64435,241687
6.65248,249650
6.66060,257976
6.66873,254436
6.67685,259078
6.68497,266436
6.69310,271374
6.70122,285001
6.70935,285766
6.71747,278022
6.72558,288588
6.73372,294899
6.74183,305821
6.74995,302061
6.75808,292012
6.76620,290576
6.77433,309806
6.78245,301575
6.79057,310091
6.79870,316459
6.80682,317518
6.81495,315630
6.82307,316778
6.83118,310836
6.83932,334713
6.84743,323944
6.85555,331522
6.86368,336151
6.87180,360814
6.87993,376050
6.88805,378809
6.89617,380216
6.90430,378982
6.91242,365328
6.92055,370034
6.92867,378475
6.93678,369129
6.94492,374207
6.95303,406395
6.96117,455214
6.96928,473502
6.97740,464760
6.98553,448603
6.99365,428219
7.00177,416470
7.00990,409992
7.01802,407395
7.02615,347143
7.03427,318098
7.04238,266697
7.05052,249568
7.05863,237147
7.06677,221063
7.07488,212788
7.08300,208050
7.09113,195201
7.09925,196893
7.10738,196907
7.11550,190138
7.12362,190245
7.13175,185275
7.13987,183503
7.14798,179255
7.15612,175330
7.16423,176126
7.17237,180670
7.18048,184759
7.18860,180996
7.19673,184522
7.20485,182027
7.21298,166038
7.22110,166057
7.22922,161310
7.23735,161717
7.24547,165063
7.25358,156088
7.26172,158427
7.26983,165210
7.27797,174300
7.28608,180824
7.29420,191230
7.30233,180647
7.31045,163461
7.31858,149516
7.32670,148237
7.33482,142134
7.34295,147381
7.35107,149264
7.35920,145263
7.36732,136066
7.37543,136439
7.38357,136985
7.39168,135138
7.39980,134983
7.40793,146210
7.41605,137767
7.42418,131656
7.43230,132704
7.44042,133934
7.44855,131269
7.45667,135625
7.46480,136148
7.47292,135218
7.48103,131926
7.48917,127408
7.49728,136834
7.50542,130358
7.51353,140938
7.52165,141077
7.52978,131964
7.53790,130998
7.54602,133041
7.55415,144379
7.56227,133204
7.57040,131450
7.57852,146502
7.58663,134675
7.59477,139472
7.60288,133173
7.61102,124013
7.61913,120504
7.62725,126311
7.63538,122631
7.64350,121486
7.65163,122634
7.65975,124107
7.66787,127873
7.67600,121686
7.68412,127328
7.69223,120841
7.70037,122937
7.70848,128019
7.71662,122492
7.72473,120654
7.73285,116732
7.74098,123008
7.74910,124596
7.75723,126239
7.76535,125239
7.77347,122689
7.78160,126972
7.78972,125528
7.79783,126987
7.80597,126788
7.81408,120899
7.82222,116860
7.83033,110936
7.83845,114569
7.84658,129591
7.85470,122489
7.86283,112545
7.87095,117060
7.87907,117948
7.88720,124830
7.89532,120540
7.90345,121205
7.91157,118777
7.91968,121799
7.92782,123752
7.93593,131538
7.94405,139488
7.95218,133359
7.96030,121010
7.96843,123763
7.97655,123096
7.98467,114927
7.99280,118138
8.00092,109032
8.00905,118400
8.01717,106680
8.02528,109926
8.03342,108822
8.04153,118941
8.04967,108974
8.05778,110265
8.06590,109705
8.07403,108196
8.08215,106310
8.09027,108626
8.09840,115072
8.10652,111844
8.11465,104759
8.12277,111194
8.13088,102149
8.13902,105012
8.14713,111314
8.15527,107996
8.16338,125879
8.17150,143394
8.17963,158715
8.18775,169361
8.19587,167979
8.20400,165233
8.21212,171560
8.22025,169132
8.22837,157352
8.23648,147139
8.24462,124369
8.25273,120796
8.26087,115765
8.26898,133686
8.27710,122163
8.28523,121238
8.29335,110528
8.30148,109757
8.30960,107598
8.31772,107275
8.32585,111103
8.33397,118229
8.34208,109811
8.35022,113744
8.35833,109975
8.36647,107318
8.37458,105196
8.38270,104564
8.39083,112823
8.39895,96839
8.40708,99150
8.41520,113761
8.42332,111254
8.43145,107300
8.43957,114406
8.44770,111229
8.45582,104753
8.46393,102885
8.47207,102901
8.48018,104310
8.48830,112218
8.49643,110348
8.50455,113035
8.51268,108590
8.52080,104636
8.52892,103874
8.53705,104482
8.54517,99760
8.55330,102370
8.56142,105586
8.56953,114038
8.57767,101573
8.58578,102044
8.59390,97467
8.60203,99408
8.61015,102905
8.61828,109031
8.62640,97268
8.63452,96283
8.64265,100816
8.65077,101798
8.65890,106499
8.66702,106286
8.67513,120056
8.68327,159331
8.69138,167270
8.69952,163282
8.70763,168338
8.71575,245777
8.72388,193168
8.73200,143824
8.74012,134461
8.74825,124234
8.75637,121048
8.76450,127815
8.77262,129862
8.78073,132064
8.78887,141356
8.79698,145739
8.80512,140197
8.81323,138674
8.82135,128196
8.82948,123807
8.83760,129762
8.84573,119475
8.85385,123217
8.86197,122648
8.87010,123517
8.87822,116043
8.88633,122563
8.89447,124545
8.90258,134539
8.91072,150520
8.91883,154332
8.92695,149842
8.93508,136862
8.94320,127490
8.95133,122350
8.95945,120678
8.96757,125028
8.97570,121613
8.98382,120991
8.99195,121070
9.00007,124276
9.00818,158915
9.01632,239830
9.02443,423737
9.03255,723449
9.04068,948474
9.04880,960650
9.05693,825210
9.06505,595969
9.07317,435928
9.08130,325099
9.08942,288569
9.09755,280229
9.10567,285076
9.11378,293104
9.12192,291711
9.13003,319358
9.13815,437167
9.14628,367534
9.15440,312935
9.16253,326230
9.17065,271518
9.17877,225035
9.18690,218575
9.19502,208762
9.20315,201766
9.21127,204307
9.21938,200650
9.22752,210685
9.23563,202675
9.24377,197116
9.25188,193139
9.26000,195548
9.26813,184139
9.27625,184922
9.28437,185300
9.29250,177764
9.30062,188869
9.30875,186302
9.31687,189306
9.32498,181455
9.33312,190360
9.34123,186654
9.34937,187365
9.35748,172334
9.36560,174040
9.37373,177992
9.38185,170669
9.38998,159684
9.39810,159966
9.40622,172755
9.41435,177878
9.42247,170645
9.43058,160870
9.43872,160301
9.44683,161506
9.45497,162415
9.46308,155986
9.47120,150838
9.47933,148347
9.48745,153094
9.49558,150021
9.50370,149159
9.51182,145980
9.51995,152700
9.52807,151610
9.53618,157653
9.54432,162355
9.55243,156204
9.56057,149191
9.56868,153979
9.57680,148750
9.58493,157582
9.59305,152000
9.60118,151603
9.60930,146955
9.61742,153564
9.62555,157433
9.63367,157334
9.64180,173640
9.64992,196367
9.65803,190186
9.66617,161069
9.67428,152393
9.68240,147551
9.69053,143848
9.69865,140042
9.70678,142141
9.71490,139914
9.72302,149808
9.73115,139413
9.73927,139478
9.74740,142713
9.75552,137755
9.76363,132619
9.77177,142719
9.77988,133592
9.78802,133844
9.79613,126087
9.80425,117444
9.81238,114963
9.82050,116172
9.82862,109452
9.83675,115516
9.84487,110829
9.85300,106787
9.86112,104164
9.86923,127252
9.87737,101907
9.88548,112198
9.89362,106093
9.90173,107183
9.90985,112747
9.91798,105388
9.92610,106846
9.93422,110677
9.94235,116292
9.95047,132131
9.95860,198768
9.96672,271480
9.97483,208606
9.98297,146647
9.99108,201941
9.99922,440489
10.00733,959519
10.01545,1725755
10.02358,2399775
10.03170,2502862
10.03983,1951032
10.04795,1203393
10.05607,640356
10.06420,348042
10.07232,224719
10.08043,197422
10.08857,221820
10.09668,222243
10.10482,233234
10.11293,237170
10.12105,229888
10.12918,217463
10.13730,203628
10.14543,202538
10.15355,191034
10.16167,188531
10.16980,182665
10.17792,166450
10.18605,167609
10.19417,169399
10.20228,172740
10.21042,173918
10.21853,182066
10.22665,185911
10.23478,192811
10.24290,176533
10.25103,170761
10.25915,168768
10.26727,180703
10.27540,201883
10.28352,178587
10.29165,198047
10.29977,173714
10.30788,172157
10.31602,171045
10.32413,183959
10.33227,156811
10.34038,161956
10.34850,175173
10.35663,144801
10.36475,143982
10.37287,160719
10.38100,139264
10.38912,148222
10.39725,159545
10.40537,177520
10.41348,167629
10.42162,160049
10.42973,176615
10.43787,185148
10.44598,172907
10.45410,155944
10.46223,152058
10.47035,149043
10.47847,142358
10.48660,156795
10.49472,134847
10.50285,140259
10.51097,135347
10.51908,128655
10.52722,130651
10.53533,130238
10.54347,132386
10.55158,137492
10.55970,134498
10.56783,136511
10.57595,138932
10.58408,140053
10.59220,137454
10.60032,138752
10.60845,130617
10.61657,140982
10.62468,125193
10.63282,119173
10.64093,120410
10.64907,119202
10.65718,126436
10.66530,123318
10.67343,133687
10.68155,142721
10.68968,143910
10.69780,144202
10.70592,138470
10.71405,139105
10.72217,140353
10.73030,142802
10.73842,146521
10.74653,132272
10.75467,122527
10.76278,117898
10.77090,116557
10.77903,115995
10.78715,112878
10.79528,116350
10.80340,113914
10.81152,111868
10.81965,111273
10.82777,110123
10.83590,110628
10.84402,114109
10.85213,127859
10.86027,113538
10.86838,116944
10.87650,110654
10.88463,111849
10.89275,106162
10.90088,105717
10.90900,109982
10.91712,103810
10.92525,108078
10.93337,108472
10.94150,117984
10.94962,115255
10.95773,120338
10.96587,150024
10.97398,134894
10.98212,140283
10.99023,124172
10.99835,106998
11.00648,103961
11.01460,91541
11.02272,93501
11.03085,97043
11.03897,96152
11.04710,98082
11.05522,95906
11.06333,90582
11.07147,96608
11.07958,92898
11.08772,93780
11.09583,90897
11.10395,96102
11.11208,97300
11.12020,96649
11.12833,98459
11.13645,96336
11.14457,99294
11.15270,91164
11.16082,92797
11.16893,94742
11.17707,91188
11.18518,93091
11.19332,89445
11.20143,95368
11.20955,104014
11.21768,93476
11.22580,92626
11.23393,93482
11.24205,90166
11.25017,97440
11.25830,96656
11.26642,96085
11.27453,96095
11.28267,105856
11.29078,112738
11.29892,107192
11.30703,110880
11.31515,103357
11.32328,96862
11.33140,98604
11.33953,94850
11.34765,92697
11.35577,95091
11.36390,93311
11.37202,94954
11.38015,93548
11.38827,100036
11.39638,116672
11.40452,152786
11.41263,199497
11.42075,300255
11.42888,419577
11.43700,514173
11.44513,576226
11.45325,535479
11.46137,404782
11.46950,261075
11.47762,200910
11.48575,150848
11.49387,138094
11.50198,136699
11.51012,141931
11.51823,118502
11.52637,137610
11.53448,122592
11.54260,126485
11.55073,110166
11.55885,111328
11.56697,114914
11.57510,110098
11.58322,114147
11.59135,117243
11.59947,101854
11.60758,102303
11.61572,109158
11.62383,98472
11.63197,107135
11.64008,101515
11.64820,104555
11.65633,97375
11.66445,98685
11.67258,95434
11.68070,103824
11.68882,96593
11.69695,97360
11.70507,99309
11.71318,96313
11.72132,96640
11.72943,95691
11.73757,100783
11.74568,94482
11.75380,94692
11.76193,95290
11.77005,98262
11.77818,99190
11.78630,93323
11.79442,94876
11.80255,100550
11.81067,105271
11.81878,94076
11.82692,97756
11.83503,95656
11.84317,98330
11.85128,98019
11.85940,98126
11.86753,92876
11.87565,91840
11.88378,94822
11.89190,95051
11.90002,94419
11.90815,94840
11.91627,91395
11.92440,93663
11.93252,92484
11.94063,99728
11.94877,100806
11.95688,103764
11.96500,98125
11.97313,94178
11.98125,92064
11.98938,87851
11.99750,90491
12.00562,85964
12.01375,91493
12.02187,90919
12.03000,100795
12.03812,94013
12.04623,95032
12.05437,90552
12.06248,93908
12.07062,95499
12.07873,94671
12.08685,91283
12.09498,94763
12.10310,98938
12.11122,96184
12.11935,95510
12.12747,99161
12.13560,97838
12.14372,101537
12.15183,92097
12.15997,93374
12.16808,90912
12.17622,92129
12.18433,90981
12.19245,86568
12.20058,100632
12.20870,88006
12.21682,92300
12.22495,89453
12.23307,88922
12.24120,90641
12.24932,84512
12.25743,86217
12.26557,88169
12.27368,98857
12.28182,85108
12.28993,88767
12.29805,83412
12.30618,86711
12.31430,88785
12.32243,85667
12.33055,97212
12.33867,89562
12.34680,89934
12.35492,89359
12.36303,89691
12.37117,84900
12.37928,85493
12.38742,94961
12.39553,83847
12.40365,85472
12.41178,95212
12.41990,90612
12.42803,96479
12.43615,97931
12.44427,96902
12.45240,105886
12.46052,91146
12.46865,86924
12.47677,89947
12.48488,92624
12.49302,84346
12.50113,94744
12.50925,90451
12.51738,111193
12.52550,132544
12.53363,140179
12.54175,132584
12.54987,103767
12.55800,86772
12.56612,86349
12.57425,84025
12.58237,83278
12.59048,83722
12.59862,82545
12.60673,86644
12.61485,105822
12.62298,135301
12.63110,170453
12.63923,227866
12.64735,227294
12.65547,219152
12.66360,176226
12.67172,130079
12.67985,117731
12.68797,104472
12.69608,97452
12.70422,95101
12.71233,96905
12.72047,91393
12.72858,90686
12.73670,91657
12.74483,85299
12.75295,96982
12.76107,85518
12.76920,96581
12.77732,81288
12.78545,90000
12.79357,91427
12.80168,92696
12.80982,89951
12.81793,86255
12.82607,96006
12.83418,85498
12.84230,91817
12.85043,90011
12.85855,84919
12.86668,88871
12.87480,88500
12.88292,84276
12.89105,86036
12.89917,93930
12.90728,86992
12.91542,78167
12.92353,84366
12.93167,84982
12.93978,86001
12.94790,84027
12.95603,81569
12.96415,77248
12.97228,84205
12.98040,85225
12.98852,81490
12.99665,88745
13.00477,83661
13.01290,83714
13.02102,83477
13.02913,83188
13.03727,85586
13.04538,82010
13.05350,81582
13.06163,78924
13.06975,78658
13.07788,81732
13.08600,81610
13.09412,81891
13.10225,78299
13.11037,88462
13.11850,89823
13.12662,93636
13.13473,92462
13.14287,91849
13.15098,83950
13.15910,88844
13.16723,89487
13.17535,89424
13.18348,95684
13.19160,88319
13.19972,90612
13.20785,88367
13.21597,86701
13.22410,85823
13.23222,84281
13.24033,82824
13.24847,77874
13.25658,88311
13.26472,79811
13.27283,91093
13.28095,80699
13.28908,79485
13.29720,92149
13.30532,79624
13.31345,84611
13.32157,95597
13.32970,81443
13.33782,79055
13.34593,77326
13.35407,82598
13.36218,82981
13.37032,87031
13.37843,90173
13.38655,98212
13.39468,92565
13.40280,90885
13.41093,89668
13.41905,92474
13.42717,88657
13.43530,94248
13.44342,97183
13.45153,87870
13.45967,88509
13.46778,96994
13.47592,88515
13.48403,86712
13.49215,86756
13.50028,83205
13.50840,86996
13.51653,87680
13.52465,88041
13.53277,89263
13.54090,84143
13.54902,89269
13.55713,83250
13.56527,86618
13.57338,81994
13.58152,81134
13.58963,81178
13.59775,89605
13.60588,78265
13.61400,79581
13.62213,78707
13.63025,86203
13.63837,77878
13.64650,78072
13.65462,77994
13.66275,77289
13.67087,83187
13.67898,83936
13.68712,81598
13.69523,83992
13.70335,83421
13.71148,81812
13.71960,88292
13.72773,76190
13.73585,80187
13.74397,79256
13.75210,74688
13.76022,74209
13.76835,81263
13.77647,84940
13.78458,79900
13.79272,78772
13.80083,89054
13.80897,77036
13.81708,84585
13.82520,82203
13.83333,77790
13.84145,72795
13.84957,75801
13.85770,77305
13.86582,76277
13.87395,81050
13.88207,78082
13.89018,81037
13.89832,78756
13.90643,85961
13.91457,79560
13.92268,72588
13.93080,87586
13.93893,75941
13.94705,89309
13.95517,81198
13.96330,79976
13.97142,79041
13.97955,81663
13.98767,78083
13.99578,81220
14.00392,91162
14.01203,124811
14.02017,152735
14.02828,189849
14.03640,210431
14.04453,210713
14.05265,169668
14.06078,132162
14.06890,109276
14.07702,96048
14.08515,102079
14.09327,84525
14.10138,86149
14.10952,88872
14.11763,87984
14.12577,83794
14.13388,85648
14.14200,89026
14.15013,84224
14.15825,81559
14.16638,82503
14.17450,81587
14.18262,82172
14.19075,86286
14.19887,83555
14.20700,93890
14.21512,92923
14.22323,97054
14.23137,90511
14.23948,102626
14.24760,93233
14.25573,89232
14.26385,93938
14.27198,92372
14.28010,88499
14.28822,88788
14.29635,87428
14.30447,86013
14.31260,86053
14.32072,87586
14.32883,90041
14.33697,89867
14.34508,87691
14.35322,86136
14.36133,87940
14.36945,86864
14.37758,81493
14.38570,85998
14.39382,86462
14.40195,84015
14.41007,79130
14.41820,79872
14.42632,78417
14.43443,76744
14.44257,86096
14.45068,90949
14.45882,92373
14.46693,115644
14.47505,149887
14.48318,207844
14.49130,231122
14.49942,258030
14.50755,236611
14.51567,218423
14.52380,189994
14.53192,180678
14.54003,173219
14.54817,166289
14.55628,175231
14.56442,183557
14.57253,175672
14.58065,174943
14.58878,161567
14.59690,146475
14.60503,141501
14.61315,144156
14.62127,122174
14.62940,115341
14.63752,110448
14.64563,101017
14.65377,99194
14.66188,102035
14.67002,100069
14.67813,105023
14.68625,109774
14.69438,93933
14.70250,93407
14.71063,85054
14.71875,86479
14.72687,85286
14.73500,85768
14.74312,79697
14.75125,82552
14.75937,83754
14.76748,84508
14.77562,86265
14.78373,87668
14.79185,84685
14.79998,79308
14.80810,92810
14.81623,78422
14.82435,85313
14.83247,81743
14.84060,81948
14.84872,82530
14.85685,81070
14.86497,77367
14.87308,80061
14.88122,79957
14.88933,84681
14.89745,81672
14.90558,91492
14.91370,82480
14.92183,77217
14.92995,75370
14.93807,82235
14.94620,72489
14.95432,78369
14.96245,76244
14.97057,73078
14.97868,73390
14.98682,74618
14.99493,74952
15.00307,77044
15.01118,78698
15.01930,76295
15.02743,68766
15.03555,79552
15.04367,78164
15.05180,76657
15.05992,85015
15.06805,76650
15.07617,87663
15.08428,73515
15.09242,73050
15.10053,72511
15.10867,75409
15.11678,76677
15.12490,97407
15.13303,103745
15.14115,105223
15.14928,116614
15.15740,133730
15.16552,108345
15.17365,93919
15.18177,89106
15.18988,85225
15.19802,90543
15.20613,92984
15.21427,100575
15.22238,99582
15.23050,91306
15.23863,86142
15.24675,83329
15.25488,88299
15.26300,100743
15.27112,104588
15.27925,101820
15.28737,102765
15.29548,97779
15.30362,97532
15.31173,102651
15.31987,100592
15.32798,100259
15.33610,96092
15.34423,98329
15.35235,96830
15.36048,97791
15.36860,93771
15.37672,94182
15.38485,96003
15.39297,87151
15.40110,92987
15.40922,95505
15.41733,93185
15.42547,90487
15.43358,92999
15.44170,91582
15.44983,95521
15.45795,93486
15.46608,102179
15.47420,102060
15.48232,96025
15.49045,94726
15.49857,91399
15.50670,91017
15.51482,91997
15.52293,88295
15.53107,89609
15.53918,92556
15.54732,88044
15.55543,86611
15.56355,89075
15.57168,89670
15.57980,86005
15.58792,85315
15.59605,89736
15.60417,84359
15.61230,84367
15.62042,84281
15.62853,87364
15.63667,87442
15.64478,84719
15.65292,84420
15.66103,77755
15.66915,78916
15.67728,81793
15.68540,82756
15.69353,78471
15.70165,82840
15.70977,81781
15.71790,84681
15.72602,85242
15.73413,87517
15.74227,86465
15.75038,84795
15.75852,83881
15.76663,83012
15.77475,81097
15.78288,90314
15.79100,93513
15.79913,93698
15.80725,98631
15.81537,94813
15.82350,93780
15.83162,91556
15.83973,88149
15.84787,92981
15.85598,90230
15.86412,96751
15.87223,100721
15.88035,101629
15.88848,126591
15.89660,100563
15.90473,96006
15.91285,95129
15.92097,91989
15.92910,90533
15.93722,95656
15.94535,89681
15.95347,94500
15.96158,89023
15.96972,91991
15.97783,95119
15.98595,96929
15.99408,93198
16.00220,92726
16.01033,89544
16.01845,96313
16.02657,91997
16.03470,91951
16.04282,86697
16.05095,87263
16.05907,89571
16.06718,89529
16.07532,91126
16.08343,84535
16.09157,91268
16.09968,87838
16.10780,92505
16.11593,87898
16.12405,88900
16.13217,83784
16.14030,86892
16.14842,83582
16.15655,86764
16.16467,91301
16.17278,90182
16.18092,87925
16.18903,88340
16.19717,91328
16.20528,91069
16.21340,97177
16.22153,106922
16.22965,108469
16.23777,116163
16.24590,115421
16.25402,103618
16.26215,100406
16.27027,95115
16.27838,91805
16.28652,89409
16.29463,92161
16.30277,88213
16.31088,93826
16.31900,89218
16.32713,92389
16.33525,95368
16.34338,97130
16.35150,98686
16.35962,90622
16.36775,90326
16.37587,97901
16.38398,89162
16.39212,83950
16.40023,87216
16.40837,97448
16.41648,95361
16.42460,99963
16.43273,107136
16.44085,117071
16.44898,116653
16.45710,119098
16.46522,109733
16.47335,108076
16.48147,96512
16.48960,96782
16.49772,94101
16.50583,90935
16.51397,96905
16.52208,93723
16.53020,85781
16.53833,87731
16.54645,88474
16.55458,86747
16.56270,92137
16.57082,91915
16.57895,92526
16.58707,91232
16.59520,84724
16.60332,94480
16.61143,91707
16.61957,88103
16.62768,88702
16.63580,103889
16.64393,84528
16.65205,88784
16.66018,112642
16.66830,85351
16.67642,94290
16.68455,94019
16.69267,90068
16.70080,89128
16.70892,92269
16.71703,94492
16.72517,86180
16.73328,89531
16.74142,91903
16.74953,90516
16.75765,86407
16.76578,88361
16.77390,83722
16.78202,85839
16.79015,91287
16.79827,93922
16.80640,88024
16.81452,89472
16.82263,114168
16.83077,95704
16.83888,96847
16.84702,93579
16.85513,94408
16.86325,93361
16.87138,99224
16.87950,93981
16.88763,94316
16.89575,96001
16.90387,96020
16.91200,93809
16.92012,94741
16.92823,95372
16.93637,85315
16.94448,95770
16.95262,90854
16.96073,92810
16.96885,90043
16.97698,88176
16.98510,87744
16.99323,90698
17.00135,89382
17.00947,90057
17.01760,90512
17.02572,101801
17.03385,90950
17.04197,87312
17.05008,94921
17.05822,90155
17.06633,91288
17.07445,85241
17.08258,90353
17.09070,88456
17.09883,90030
17.10695,89873
17.11507,89442
17.12320,101034
17.13132,87676
17.13945,82583
17.14757,86584
17.15568,85544
17.16382,86096
17.17193,91028
17.18005,108148
17.18818,94834
17.19630,90759
17.20443,92807
17.21255,87850
17.22067,86467
17.22880,86498
17.23692,87517
17.24505,84539
17.25317,83297
17.26128,80541
17.26942,87916
17.27753,85211
17.28567,83784
17.29378,87976
17.30190,92802
17.31003,90615
17.31815,100814
17.32627,87146
17.33440,90182
17.34252,85697
17.35065,86987
17.35877,89459
17.36688,85882
17.37502,102344
17.38313,91902
17.39127,89509
17.39938,97544
17.40750,80449
17.41563,83172
17.42375,85402
17.43188,83334
17.44000,85968
17.44812,82452
17.45625,83578
17.46437,89391
17.47248,84845
17.48062,87563
17.48873,80401
17.49687,83424
17.50498,81446
17.51310,84959
17.52123,87425
17.52935,86739
17.53748,99709
17.54560,91573
17.55372,81385
17.56185,81116
17.56997,89945
17.57808,82180
17.58622,85951
17.59433,82516
17.60247,80738
17.61058,87053
17.61870,80753
17.62683,91099
17.63495,82205
17.64308,87243
17.65120,83605
17.65932,83298
17.66745,89902
17.67557,87538
17.68370,86627
17.69182,82262
17.69993,95749
17.70807,83823
17.71618,83350
17.72430,87909
17.73243,85815
17.74055,95279
17.74868,79081
17.75680,86706
17.76492,87440
17.77305,88284
17.78117,88659
17.78930,92210
17.79742,95592
17.80553,96482
17.81367,91792
17.82178,98167
17.82992,102290
17.83803,93728
17.84615,101384
17.85428,90746
17.86240,92825
17.87052,88951
17.87865,92286
17.88677,92156
17.89490,85986
17.90302,95092
17.91113,94008
17.91927,84814
17.92738,87455
17.93552,85099
17.94363,91288
17.95175,92255
17.95988,91464
17.96800,91027
17.97612,93609
17.98425,92241
17.99237,96724
18.00050,102106
18.00862,93130
18.01673,96586
18.02487,89445
18.03298,86765
18.04112,90272
18.04923,93314
18.05735,93289
18.06548,100176
18.07360,101782
18.08173,106000
18.08985,101869
18.09797,98699
18.10610,102869
18.11422,95963
18.12233,96336
18.13047,95714
18.13858,102999
18.14672,94456
18.15483,91227
18.16295,88960
18.17108,87554
18.17920,93383
18.18733,87583
18.19545,90004
18.20357,89617
18.21170,90521
18.21982,89038
18.22795,83992
18.23607,90727
18.24418,91897
18.25232,88698
18.26043,92936
18.26855,87044
18.27668,87323
18.28480,90009
18.29293,92395
18.30105,89549
18.30917,87714
18.31730,87493
18.32542,89916
18.33355,85831
18.34167,85023
18.34978,98031
18.35792,84876
18.36603,86904
18.37417,89310
18.38228,91393
18.39040,97596
18.39853,102300
18.40665,91513
18.41477,89578
18.42290,92641
18.43102,94838
18.43915,90268
18.44727,89573
18.45538,89173
18.46352,89061
18.47163,84170
18.47977,86662
18.48788,89104
18.49600,87486
18.50413,81972
18.51225,88335
18.52037,91445
18.52850,100775
18.53662,93318
18.54475,88258
18.55287,87783
18.56098,98043
18.56912,96323
18.57723,94659
18.58537,99221
18.59348,87917
18.60160,84836
18.60973,92399
18.61785,92088
18.62598,91720
18.63410,89318
18.64222,84625
18.65035,86062
18.65847,90097
18.66658,97730
18.67472,85853
18.68283,100460
18.69097,93378
18.69908,99433
18.70720,103981
18.71533,109987
18.72345,112096
18.73158,124086
18.73970,115382
18.74782,112572
18.75595,114900
18.76407,111895
18.77220,115138
18.78032,111257
18.78843,113106
18.79657,109997
18.80468,109379
18.81280,105420
18.82093,106591
18.82905,112636
18.83718,111588
18.84530,109988
18.85342,100731
18.86155,107981
18.86967,117504
18.87780,112159
18.88592,107233
18.89403,106141
18.90217,114071
18.91028,101696
18.91840,103511
18.92653,115523
18.93465,108668
18.94278,113788
18.95090,113228
18.95902,113416
18.96715,119498
18.97527,114602
18.98340,114243
18.99152,115312
18.99963,107970
19.00777,98582
19.01588,100531
19.02402,101190
19.03213,112789
19.04025,101032
19.04838,97913
19.05650,100569
19.06462,93583
19.07275,94969
19.08087,90774
19.08900,88566
19.09712,94756
19.10523,84428
19.11337,92364
19.12148,89030
19.12962,89141
19.13773,92469
19.14585,89358
19.15398,101132
19.16210,92020
19.17023,91073
19.17835,92959
19.18647,93177
19.19460,90969
19.20272,90106
19.21083,88332
19.21897,88992
19.22708,92270
19.23522,99412
19.24333,91961
19.25145,91094
19.25958,95818
19.26770,93311
19.27583,89399
19.28395,89341
19.29207,98445
19.30020,92298
19.30832,104648
19.31643,100338
19.32457,91590
19.33268,95951
19.34082,87865
19.34893,90031
19.35705,92035
19.36518,93467
19.37330,88482
19.38143,92562
19.38955,103993
19.39767,90418
19.40580,103009
19.41392,91462
19.42205,90676
19.43017,91578
19.43828,98853
19.44642,89124
19.45453,90024
19.46265,87484
19.47078,90812
19.47890,91353
19.48703,90411
19.49515,96670
19.50327,88488
19.51140,84340
19.51952,102352
19.52765,96621
19.53577,96726
19.54388,108505
19.55202,117373
19.56013,125179
19.56827,126261
19.57638,130352
19.58450,130519
19.59263,126637
19.60075,125229
19.60887,121426
19.61700,117093
19.62512,120738
19.63325,119414
19.64137,127528
19.64948,116944
19.65762,119191
19.66573,107566
19.67387,104758
19.68198,96590
19.69010,96229
19.69823,97856
19.70635,96707
19.71448,105601
19.72260,111147
19.73072,109476
19.73885,116761
19.74697,103312
19.75508,102027
19.76322,101738
19.77133,103618
19.77947,108719
19.78758,124201
19.79570,153955
19.80383,184161
19.81195,215307
19.82008,218468
19.82820,194681
19.83632,157308
19.84445,136468
19.85257,117629
19.86068,107719
19.86882,110953
19.87693,99892
19.88507,99075
19.89318,97670
19.90130,97782
19.90943,98961
19.91755,108095
19.92568,98142
19.93380,94757
19.94192,97993
19.95005,100884
19.95817,96070
19.96630,101187
19.97442,98008
19.98253,99123
19.99067,97979
19.99878,103817
20.00690,106923
20.01503,116004
20.02315,148880
20.03128,228152
20.03940,382669
20.04752,608748
20.05565,800136
20.06377,910695
20.07190,864011
20.08002,709661
20.08813,541079
20.09627,390942
20.10438,334124
20.11252,263255
20.12063,222755
20.12875,186935
20.13688,174692
20.14500,152110
20.15312,143560
20.16125,143605
20.16937,128647
20.17750,128475
20.18562,121603
20.19373,125898
20.20187,115955
20.20998,115151
20.21812,108743
20.22623,105806
20.23435,110308
20.24248,105952
20.25060,119296
20.25872,107901
20.26685,105510
20.27497,106195
20.28310,102178
20.29122,101622
20.29933,104876
20.30747,106319
20.31558,109320
20.32372,108912
20.33183,112437
20.33995,107487
20.34808,104322
20.35620,107478
20.36433,112745
20.37245,119956
20.38057,131303
20.38870,135671
20.39682,149046
20.40493,144608
20.41307,147317
20.42118,138237
20.42932,137954
20.43743,137072
20.44555,128601
20.45368,132253
20.46180,131556
20.46993,128609
20.47805,130048
20.48617,124195
20.49430,117449
20.50242,120515
20.51055,118575
20.51867,114059
20.52678,115111
20.53492,108973
20.54303,111904
20.55115,108239
20.55928,104608
20.56740,106778
20.57553,117896
20.58365,123864
20.59177,148370
20.59990,208623
20.60802,287751
20.61615,404476
20.62427,483365
20.63238,508949
20.64052,467166
20.64863,409361
20.65677,311417
20.66488,254940
20.67300,203991
20.68113,169008
20.68925,148018
20.69737,140481
20.70550,131138
20.71362,118962
20.72175,117386
20.72987,127357
20.73798,119649
20.74612,121464
20.75423,121543
20.76237,128676
20.77048,161113
20.77860,194587
20.78673,234856
20.79485,245030
20.80297,256578
20.81110,229321
20.81922,209632
20.82735,186602
20.83547,158616
20.84358,146129
20.85172,131096
20.85983,126542
20.86797,121172
20.87608,123493
20.88420,111139
20.89233,104236
20.90045,111194
20.90858,115196
20.91670,109905
20.92482,105855
20.93295,107499
20.94107,109205
20.94918,109708
20.95732,107488
20.96543,109086
20.97357,103708
20.98168,103746
20.98980,100141
20.99793,102650
21.00605,106053
21.01418,101884
21.02230,112770
21.03042,103516
21.03855,103426
21.04667,106506
21.05480,98422
21.06292,105201
21.07103,99653
21.07917,101995
21.08728,103009
21.09540,100492
21.10353,97951
21.11165,99327
21.11978,95650
21.12790,103894
21.13602,99028
21.14415,105818
21.15227,103142
21.16040,104577
21.16852,102880
21.17663,101614
21.18477,109475
21.19288,100766
21.20100,101114
21.20913,104766
21.21725,106174
21.22538,100174
21.23350,105546
21.24162,124313
21.24975,139910
21.25787,162779
21.26600,182028
21.27412,182286
21.28223,170297
21.29037,152050
21.29848,134912
21.30662,112894
21.31473,110727
21.32285,104745
21.33098,109089
21.33910,101457
21.34722,97215
21.35535,95387
21.36347,98471
21.37160,93843
21.37972,103783
21.38783,92101
21.39597,96956
21.40408,101375
21.41222,96720
21.42033,92649
21.42845,94818
21.43658,96488
21.44470,99232
21.45283,96174
21.46095,99315
21.46907,96946
21.47720,97423
21.48532,95580
21.49343,98535
21.50157,98796
21.50968,97032
21.51782,93046
21.52593,96444
21.53405,96945
21.54218,88746
21.55030,86271
21.55843,84215
21.56655,85774
21.57467,88213
21.58280,84412
21.59092,90576
21.59905,89298
21.60717,83075
21.61528,88265
21.62342,89312
21.63153,90504
21.63965,88072
21.64778,107199
21.65590,94962
21.66403,90811
21.67215,87957
21.68027,92141
21.68840,85046
21.69652,86831
21.70465,90144
21.71277,101307
21.72088,92287
21.72902,92771
21.73713,101648
21.74525,94472
21.75338,87614
21.76150,97939
21.76963,87731
21.77775,88866
21.78587,87291
21.79400,84641
21.80212,87770
21.81025,86161
21.81837,86223
21.82648,85116
21.83462,83489
21.84273,84905
21.85087,88939
21.85898,85164
21.86710,86351
21.87523,86290
21.88335,74022
21.89147,85652
21.89960,84999
21.90772,86127
21.91585,83906
21.92397,99669
21.93208,103044
21.94022,123792
21.94833,165897
21.95647,187934
21.96458,199696
21.97270,185016
21.98083,166668
21.98895,148421
21.99708,119799
22.00520,110813
22.01332,101404
22.02145,94670
22.02957,97092
22.03768,90914
22.04582,88754
22.05393,87366
22.06207,91491
22.07018,86612
22.07830,96536
22.08643,88301
22.09455,88694
22.10268,85513
22.11080,85895
22.11892,87864
22.12705,92517
22.13517,103897
22.14328,121313
22.15142,158884
22.15953,167626
22.16767,186591
22.17578,170560
22.18390,156659
22.19203,136990
22.20015,118219
22.20828,105742
22.21640,103028
22.22452,96278
22.23265,98912
22.24077,107263
22.24890,94485
22.25702,95449
22.26513,93325
22.27327,92505
22.28138,88939
22.28950,92719
22.29763,90527
22.30575,95951
22.31388,92758
22.32200,84411
22.33012,87885
22.33825,94708
22.34637,84323
22.35450,84107
22.36262,84965
22.37073,87715
22.37887,90243
22.38698,84232
22.39512,81008
22.40323,83081
22.41135,80177
22.41948,86082
22.42760,80693
22.43572,86052
22.44385,92193
22.45197,87661
22.46010,92554
22.46822,90536
22.47633,84649
22.48447,94937
22.49258,86550
22.50072,87743
22.50883,88429
22.51695,93791
22.52508,103016
22.53320,103926
22.54133,107363
22.54945,120623
22.55757,128407
22.56570,132378
22.57382,142743
22.58193,139011
22.59007,130111
22.59818,129025
22.60632,115496
22.61443,108767
22.62255,98830
22.63068,99866
22.63880,97326
22.64693,97339
22.65505,92502
22.66317,91820
22.67130,92696
22.67942,93297
22.68753,91975
22.69567,91416
22.70378,90967
22.71192,92269
22.72003,86097
22.72815,88939
22.73628,85840
22.74440,92511
22.75253,87657
22.76065,95014
22.76877,91648
22.77690,91453
22.78502,89913
22.79315,85410
22.80127,90565
22.80938,89095
22.81752,89709
22.82563,87477
22.83375,90720
22.84188,89957
22.85000,93011
22.85813,96436
22.86625,88921
22.87437,91752
22.88250,88711
22.89062,87753
22.89875,89219
22.90687,87686
22.91498,87703
22.92312,86597
22.93123,86467
22.93937,90421
22.94748,84905
22.95560,80781
22.96373,97012
22.97185,85544
22.97997,86948
22.98810,86544
22.99622,90918
23.00435,85071
23.01247,90695
23.02058,85328
23.02872,88000
23.03683,87418
23.04497,89659
23.05308,90054
23.06120,83798
23.06933,84102
23.07745,82478
23.08557,86160
23.09370,84514
23.10182,86380
23.10995,94252
23.11807,84186
23.12618,85356
23.13432,83338
23.14243,89973
23.15057,87868
23.15868,84391
23.16680,87820
23.17493,97364
23.18305,105256
23.19118,98512
23.19930,117350
23.20742,103359
23.21555,101084
23.22367,98421
23.23178,101728
23.23992,97483
23.24803,89861
23.25617,96354
23.26428,90026
23.27240,97919
23.28053,88942
23.28865,88225
23.29678,90157
23.30490,89897
23.31302,95284
23.32115,87014
23.32927,87458
23.33740,92008
23.34552,92701
23.35363,88320
23.36177,92155
23.36988,104431
23.37800,94431
23.38613,99195
23.39425,107860
23.40238,99955
23.41050,96128
23.41862,98656
23.42675,97675
23.43487,110528
23.44300,114774
23.45112,118585
23.45923,130257
23.46737,152218
23.47548,165073
23.48360,167884
23.49173,169022
23.49985,160494
23.50798,158810
23.51610,144810
23.52422,145546
23.53235,135480
23.54047,124383
23.54860,120639
23.55672,118374
23.56483,116911
23.57297,102706
23.58108,107931
23.58922,96660
23.59733,99708
23.60545,97694
23.61358,97423
23.62170,94032
23.62982,97407
23.63795,96934
23.64607,97595
23.65420,105138
23.66232,97828
23.67043,104710
23.67857,103459
23.68668,92100
23.69482,103721
23.70293,103770
23.71105,97628
23.71918,99534
23.72730,97827
23.73543,98999
23.74355,100985
23.75167,106057
23.75980,100257
23.76792,103057
23.77603,106709
23.78417,113279
23.79228,107789
23.80042,101579
23.80853,101059
23.81665,98103
23.82478,97681
23.83290,105992
23.84103,97286
23.84915,91664
23.85727,98851
23.86540,97410
23.87352,100630
23.88165,104266
23.88977,96323
23.89788,98553
23.90602,92519
23.91413,97425
23.92225,96455
23.93038,98686
23.93850,92939
23.94663,85413
23.95475,95679
23.96287,92096
23.97100,92662
23.97912,96673
23.98725,95987
23.99537,94107
24.00348,97325
24.01162,96305
24.01973,92450
24.02785,103276
24.03598,97271
24.04410,92699
24.05223,98192
24.06035,99205
24.06847,100604
24.07660,107910
24.08472,117515
24.09285,109200
24.10097,106207
24.10908,100729
24.11722,111445
24.12533,106729
24.13347,104645
24.14158,98381
24.14970,104554
24.15783,99470
24.16595,103113
24.17407,110463
24.18220,115781
24.19032,126211
24.19845,118758
24.20657,113950
24.21468,112551
24.22282,148721
24.23093,273225
24.23907,718120
24.24718,2082225
24.25530,4707689
24.26343,7877466
24.27155,1.041894E+07
24.27968,1.100663E+07
24.28780,1.034528E+07
24.29592,8534983
24.30405,6552876
24.31217,4925096
24.32028,3687336
24.32842,2844922
24.33653,2230604
24.34467,1792799
24.35278,1544311
24.36090,1375752
24.36903,1317927
24.37715,1275871
24.38528,1181575
24.39340,1018724
24.40152,823910
24.40965,695999
24.41777,590801
24.42588,522688
24.43402,465442
24.44213,424972
24.45027,391640
24.45838,370246
24.46650,320377
24.47463,291164
24.48275,275064
24.49088,255039
24.49900,235228
24.50712,234548
24.51525,225064
24.52337,239851
24.53150,232927
24.53962,230671
24.54773,225995
24.55587,216664
24.56398,197526
24.57210,185005
24.58023,174325
24.58835,161878
24.59648,159946
24.60460,156096
24.61272,152221
24.62085,159230
24.62897,149706
24.63710,154477
24.64522,145839
24.65333,143944
24.66147,147420
24.66958,140967
24.67772,140532
24.68583,157903
24.69395,161551
24.70208,195337
24.71020,214644
24.71832,223636
24.72645,210557
24.73457,198711
24.74270,171656
24.75082,180600
24.75893,174086
24.76707,170765
24.77518,160930
24.78332,151225
24.79143,150682
24.79955,146937
24.80768,156922
24.81580,170687
24.82392,177812
24.83205,167833
24.84017,169832
24.84830,152511
24.85642,141232
24.86453,129728
24.87267,135054
24.88078,127438
24.88892,131827
24.89703,126360
24.90515,120979
24.91328,126219
24.92140,130280
24.92953,124522
24.93765,125782
24.94577,124284
24.95390,117189
24.96202,118906
24.97013,111443
24.97827,118585
24.98638,122203
24.99452,110384
25.00263,107288
25.01075,110980
25.01888,109874
25.02700,110453
25.03513,116860
25.04325,112734
25.05137,108881
25.05950,111636
25.06762,112744
25.07575,119902
25.08387,114788
25.09198,111826
25.10012,107522
25.10823,110556
25.11635,111784
25.12448,109763
25.13260,109996
25.14073,116954
25.14885,126071
25.15697,137497
25.16510,140576
25.17322,143258
25.18135,132320
25.18947,120929
25.19758,119932
25.20572,120998
25.21383,113119
25.22197,112713
25.23008,113280
25.23820,106094
25.24633,111661
25.25445,107117
25.26257,109367
25.27070,101739
25.27882,99852
25.28695,98816
25.29507,103454
25.30318,107820
25.31132,103943
25.31943,103134
25.32757,110292
25.33568,109261
25.34380,101860
25.35193,105961
25.36005,113568
25.36817,105060
25.37630,107634
25.38442,108690
25.39255,104947
25.40067,110039
25.40878,111695
25.41692,104709
25.42503,102326
25.43317,104548
25.44128,103817
25.44940,111706
25.45753,107271
25.46565,102124
25.47378,104253
25.48190,99603
25.49002,103970
25.49815,109872
25.50627,98790
25.51438,101758
25.52252,105992
25.53063,106498
25.53877,107382
25.54688,113126
25.55500,106647
25.56313,108348
25.57125,109445
25.57938,108306
25.58750,107306
25.59562,103437
25.60375,105081
25.61187,107922
25.62000,106717
25.62812,108934
25.63623,101754
25.64437,112149
25.65248,118861
25.66060,120876
25.66873,118833
25.67685,117059
25.68498,108894
25.69310,107754
25.70122,108770
25.70935,103864
25.71747,108026
25.72560,102104
25.73372,114234
25.74183,112701
25.74997,106523
25.75808,111456
25.76620,106170
25.77433,105881
25.78245,118551
25.79058,120561
25.79870,127182
25.80682,127889
25.81495,127340
25.82307,131779
25.83120,129737
25.83932,126457
25.84743,117778
25.85557,112440
25.86368,118720
25.87182,109718
25.87993,114817
25.88805,116201
25.89618,107729
25.90430,104894
25.91242,113991
25.92055,110417
25.92867,112271
25.93680,112589
25.94492,121900
25.95303,114543
25.96117,111032
25.96928,103972
25.97742,104786
25.98553,112040
25.99365,107173
26.00178,116568
26.00990,110681
26.01803,113758
26.02615,111380
26.03427,117140
26.04240,108070
26.05052,115497
26.05863,114115
26.06677,110072
26.07488,118641
26.08302,106891
26.09113,103593
26.09925,100172
26.10738,105450
26.11550,102183
26.12363,101400
26.13175,104810
26.13987,97505
26.14800,99939
26.15612,100847
26.16423,103141
26.17237,105167
26.18048,105162
26.18862,104307
26.19673,108345
26.20485,107124
26.21298,101213
26.22110,102317
26.22923,112205
26.23735,103511
26.24547,106257
26.25360,98457
26.26172,115598
26.26985,101064
26.27797,109434
26.28608,112282
26.29422,110807
26.30233,108129
26.31045,101342
26.31858,118250
26.32670,112468
26.33483,113958
26.34295,140543
26.35107,140475
26.35920,150519
26.36732,154451
26.37545,144344
26.38357,143043
26.39168,128982
26.39982,117758
26.40793,111267
26.41607,107815
26.42418,111897
26.43230,107221
26.44043,111997
26.44855,110074
26.45667,109310
26.46480,107879
26.47292,108283
26.48105,102676
26.48917,101921
26.49728,96157
26.50542,102234
26.51353,110519
26.52167,95108
26.52978,94751
26.53790,98092
26.54603,103046
26.55415,113758
26.56228,111076
26.57040,121833
26.57852,112832
26.58665,108922
26.59477,106071
26.60288,108491
26.61102,107406
26.61913,103904
26.62727,103302
26.63538,110274
26.64350,121073
26.65163,116120
26.65975,124397
26.66788,126542
26.67600,122662
26.68412,117576
26.69225,118720
26.70037,119647
26.70848,115219
26.71662,116993
26.72473,113859
26.73287,115275
26.74098,105505
26.74910,101204
26.75723,105977
26.76535,99287
26.77348,102146
26.78160,98395
26.78972,104600
26.79785,108000
26.80597,102251
26.81410,101979
26.82222,117525
26.83033,107883
26.83847,106478
26.84658,111725
26.85470,100498
26.86283,99543
26.87095,100866
26.87908,103943
26.88720,95857
26.89532,95135
26.90345,105175
26.91157,104507
26.91970,101878
26.92782,100582
26.93593,110418
26.94407,102601
26.95218,108581
26.96032,110081
26.96843,106821
26.97655,108582
26.98468,120410
26.99280,119215
27.00092,125922
27.00905,113818
27.01717,112830
27.02530,109447
27.03342,115109
27.04153,109949
27.04967,109645
27.05778,105708
27.06592,104652
27.07403,113064
27.08215,109336
27.09028,108314
27.09840,106188
27.10652,114710
27.11465,105310
27.12277,107419
27.13090,105645
27.13902,114704
27.14713,111978
27.15527,112325
27.16338,120915
27.17152,121992
27.17963,125195
27.18775,122646
27.19588,123252
27.20400,128913
27.21213,125195
27.22025,122356
27.22837,122641
27.23650,118353
27.24462,121240
27.25273,121411
27.26087,126303
27.26898,123063
27.27712,128076
27.28523,122099
27.29335,126601
27.30148,119134
27.30960,117210
27.31773,125161
27.32585,120862
27.33397,123935
27.34210,135240
27.35022,121719
27.35835,113527
27.36647,122363
27.37458,125659
27.38272,129968
27.39083,132277
27.39895,152194
27.40708,190900
27.41520,315809
27.42333,583775
27.43145,1122605
27.43957,1912079
27.44770,2858976
27.45582,3529427
27.46395,3754316
27.47207,3549070
27.48018,3155941
27.48832,2676172
27.49643,2248924
27.50455,1841414
27.51268,1513222
27.52080,1225029
27.52893,985746
27.53705,809441
27.54517,666728
27.55330,562174
27.56142,486983
27.56955,413657
27.57767,367008
27.58578,324939
27.59392,291667
27.60203,276189
27.61017,245878
27.61828,230590
27.62640,230437
27.63453,204291
27.64265,206034
27.65077,189314
27.65890,190915
27.66702,192729
27.67515,187765
27.68327,181220
27.69138,184235
27.69952,186131
27.70763,168091
27.71577,165498
27.72388,158054
27.73200,150480
27.74013,149887
27.74825,155422
27.75638,146821
27.76450,144548
27.77262,144013
27.78075,145019
27.78887,148465
27.79698,147393
27.80512,151492
27.81323,138536
27.82137,133580
27.82948,136241
27.83760,144688
27.84573,141329
27.85385,140900
27.86198,133112
27.87010,133739
27.87822,133430
27.88635,125035
27.89447,138860
27.90260,136454
27.91072,133677
27.91883,137769
27.92697,135017
27.93508,136366
27.94320,130061
27.95133,134597
27.95945,127085
27.96758,132311
27.97570,132245
27.98382,125145
27.99195,128615
28.00007,137276
28.00820,126613
28.01632,121051
28.02443,123115
28.03257,125791
28.04068,121393
28.04880,121691
28.05693,121390
28.06505,129833
28.07318,121668
28.08130,119350
28.08942,121383
28.09755,120359
28.10567,122923
28.11380,129677
28.12192,132075
28.13003,127366
28.13817,120210
28.14628,123291
28.15442,123021
28.16253,126861
28.17065,131906
28.17878,125294
28.18690,121356
28.19502,134381
28.20315,125841
28.21127,134071
28.21940,124391
28.22752,126447
28.23563,129136
28.24377,122866
28.25188,128489
28.26002,124573
28.26813,145537
28.27625,128443
28.28438,131073
28.29250,130269
28.30063,134110
28.30875,134738
28.31687,140754
28.32500,135865
28.33312,131770
28.34123,132386
28.34937,131088
28.35748,143844
28.36562,135001
28.37373,143481
28.38185,135396
28.38998,127307
28.39810,129057
28.40623,123177
28.41435,129782
28.42247,129384
28.43060,133679
28.43872,130999
28.44683,131435
28.45497,138442
28.46308,139987
28.47122,128808
28.47933,136668
28.48745,136013
28.49558,140746
28.50370,142591
28.51183,149276
28.51995,154292
28.52807,154082
28.53620,137175
28.54432,137094
28.55245,139706
28.56057,125574
28.56868,126488
28.57682,132086
28.58493,127884
28.59305,132037
28.60118,131095
28.60930,131334
28.61743,134000
28.62555,132210
28.63367,127747
28.64180,127311
28.64992,129161
28.65805,123100
28.66617,126410
28.67428,130791
28.68242,123606
28.69053,144264
28.69867,150169
28.70678,191722
28.71490,229987
28.72303,291941
28.73115,365017
28.73927,441134
28.74740,523843
28.75552,546534
28.76365,571565
28.77177,576418
28.77988,581078
28.78802,578242
28.79613,568497
28.80427,535122
28.81238,519582
28.82050,496601
28.82863,479427
28.83675,460201
28.84487,424257
28.85300,406404
28.86112,388941
28.86925,365999
28.87737,353516
28.88548,336197
28.89362,333745
28.90173,310158
28.90987,285759
28.91798,286065
28.92610,255260
28.93423,257688
28.94235,245709
28.95048,227805
28.95860,242562
28.96672,214522
28.97485,219721
28.98297,214883
28.99108,204996
28.99922,186821
29.00733,185687
29.01547,189205
29.02358,184729
29.03170,184780
29.03983,176726
29.04795,178171
29.05608,178615
29.06420,174288
29.07232,179557
29.08045,198820
29.08857,193498
29.09670,201191
29.10482,193495
29.11293,186368
29.12107,190683
29.12918,162987
29.13730,159501
29.14543,151170
29.15355,159698
29.16168,155424
29.16980,163472
29.17792,159909
29.18605,169110
29.19417,165423
29.20230,169037
29.21042,153119
29.21853,156500
29.22667,155394
29.23478,158828
29.24292,148368
29.25103,140444
29.25915,141064
29.26728,139502
29.27540,137585
29.28352,146496
29.29165,142642
29.29977,143885
29.30790,141626
29.31602,146062
29.32413,140430
29.33227,144323
29.34038,135760
29.34852,140507
29.35663,137377
29.36475,142599
29.37288,130119
29.38100,136645
29.38912,127502
29.39725,131751
29.40537,130330
29.41350,134047
29.42162,135645
29.42973,141409
29.43787,133325
29.44598,135879
29.45412,138190
29.46223,136140
29.47035,148578
29.47848,145766
29.48660,139406
29.49473,140720
29.50285,149172
29.51097,148321
29.51910,143534
29.52722,151411
29.53533,146512
29.54347,146447
29.55158,149342
29.55972,141873
29.56783,140640
29.57595,139801
29.58408,144922
29.59220,142701
29.60033,137938
29.60845,139314
29.61657,140708
29.62470,140510
29.63282,146351
29.64095,143588
29.64907,143122
29.65718,146812
29.66532,143094
29.67343,143228
29.68155,146233
29.68968,145245
29.69780,146371
29.70593,149658
29.71405,147079
29.72217,148655
29.73030,144750
29.73842,143222
29.74655,139218
29.75467,136677
29.76278,137229
29.77092,143442
29.77903,143572
29.78715,139537
29.79528,144502
29.80340,148634
29.81153,141786
29.81965,142778
29.82777,146853
29.83590,145907
29.84402,137616
29.85215,136605
29.86027,140087
29.86838,149064
29.87652,132267
29.88463,137154
29.89277,134080
29.90088,138059
29.90900,134594
29.91713,137927
29.92525,142533
29.93337,134975
29.94150,132687
29.94962,133360
29.95775,133851
29.96587,150296
29.97398,139318
29.98212,138019
29.99023,141902
29.99837,149827
30.00648,149491
30.01460,145609
30.02273,154584
30.03085,160605
30.03898,165965
30.04710,178479
30.05522,179126
30.06335,186671
30.07147,184327
30.07958,187578
30.08772,190119
30.09583,206001
30.10397,205328
30.11208,219169
30.12020,231839
30.12833,251551
30.13645,265680
30.14458,289681
30.15270,305229
30.16082,324236
30.16895,346422
30.17707,358509
30.18518,385093
30.19332,416792
30.20143,439237
30.20957,464172
30.21768,472929
30.22580,499674
30.23393,523038
30.24205,544070
30.25018,549082
30.25830,573764
30.26642,587063
30.27455,589293
30.28267,596497
30.29080,621824
30.29892,609478
30.30703,606465
30.31517,614537
30.32328,624674
30.33140,631157
30.33953,645790
30.34765,652319
30.35578,649730
30.36390,642299
30.37202,609196
30.38015,614861
30.38827,595990
30.39640,559066
30.40452,547857
30.41263,526658
30.42077,501549
30.42888,477166
30.43702,463875
30.44513,442981
30.45325,416560
30.46138,404089
30.46950,399322
30.47762,363811
30.48575,361945
30.49387,339467
30.50200,318215
30.51012,325723
30.51823,295693
30.52637,298991
30.53448,282398
30.54262,265955
30.55073,266790
30.55885,255700
30.56698,252403
30.57510,239287
30.58323,231262
30.59135,237363
30.59947,227863
30.60760,221937
30.61572,219199
30.62383,222962
30.63197,218551
30.64008,216674
30.64822,219697
30.65633,215263
30.66445,211761
30.67258,202644
30.68070,209727
30.68883,200867
30.69695,199836
30.70507,197770
30.71320,201009
30.72132,200110
30.72943,187871
30.73757,190874
30.74568,186540
30.75382,169840
30.76193,186081
30.77005,177037
30.77818,170156
30.78630,163550
30.79443,183032
30.80255,170254
30.81067,170073
30.81880,171288
30.82692,166249
30.83505,167579
30.84317,162733
30.85128,165300
30.85942,171424
30.86753,162870
30.87565,161538
30.88378,151575
30.89190,162384
30.90003,170727
30.90815,162660
30.91627,163069
30.92440,175897
30.93252,172942
30.94065,157433
30.94877,161637
30.95688,156071
30.96502,154642
30.97313,152455
30.98127,161165
30.98938,161232
30.99750,155193
31.00563,152557
31.01375,156276
31.02187,154307
31.03000,155582
31.03812,145159
31.04625,150257
31.05437,152561
31.06248,154835
31.07062,153817
31.07873,159097
31.08687,159275
31.09498,150853
31.10310,161137
31.11123,160362
31.11935,160904
31.12747,155993
31.13560,159191
31.14372,160582
31.15185,161900
31.15997,158201
31.16808,158999
31.17622,156799
31.18433,158482
31.19247,169139
31.20058,158325
31.20870,168365
31.21683,170152
31.22495,164502
31.23308,175322
31.24120,172220
31.24932,169211
31.25745,172989
31.26557,164283
31.27368,163110
31.28182,159695
31.28993,158155
31.29807,165477
31.30618,160623
31.31430,166765
31.32243,162054
31.33055,162302
31.33868,167694
31.34680,169317
31.35492,167325
31.36305,162581
31.37117,168514
31.37930,171025
31.38742,159642
31.39553,162495
31.40367,150469
31.41178,161355
31.41990,164425
31.42803,156068
31.43615,153135
31.44428,147582
31.45240,145653
31.46052,148318
31.46865,148536
31.47677,154054
31.48490,153127
31.49302,149875
31.50113,159201
31.50927,152191
31.51738,164378
31.52550,158177
31.53363,156275
31.54175,159573
31.54988,161954
31.55800,175625
31.56612,178200
31.57425,165678
31.58237,155369
31.59050,151845
31.59862,157483
31.60673,164069
31.61487,182958
31.62298,214205
31.63112,247171
31.63923,341138
31.64735,452233
31.65548,626628
31.66360,769825
31.67172,861230
31.67985,843683
31.68797,764672
31.69610,614143
31.70422,439184
31.71233,334010
31.72047,261049
31.72858,233173
31.73672,212066
31.74483,202476
31.75295,198971
31.76108,223652
31.76920,245764
31.77733,335513
31.78545,472037
31.79357,673444
31.80170,872032
31.80982,990732
31.81793,974037
31.82607,848829
31.83418,669909
31.84232,461841
31.85043,320621
31.85855,236190
31.86668,207481
31.87480,183785
31.88293,185823
31.89105,186246
31.89917,173533
31.90730,171206
31.91542,172539
31.92355,181816
31.93167,175489
31.93978,171876
31.94792,173553
31.95603,174134
31.96415,183061
31.97228,173519
31.98040,185657
31.98853,168795
31.99665,173344
32.00477,172697
32.01290,170869
32.02102,165557
32.02915,170002
32.03727,175369
32.04538,174546
32.05352,172372
32.06163,170063
32.06975,166638
32.07788,181881
32.08600,164290
32.09413,173587
32.10225,169801
32.11037,168715
32.11850,185863
32.12662,168632
32.13475,173674
32.14287,173236
32.15098,180716
32.15912,179224
32.16723,179022
32.17537,177101
32.18348,171888
32.19160,175276
32.19973,173720
32.20785,177172
32.21597,171274
32.22410,174472
32.23222,183371
32.24035,198007
32.24847,211314
32.25658,227488
32.26472,252229
32.27283,269463
32.28097,303644
32.28908,315969
32.29720,312336
32.30533,325560
32.31345,324127
32.32158,318437
32.32970,313041
32.33782,312128
32.34595,305949
32.35407,298271
32.36218,286730
32.37032,275849
32.37843,279086
32.38657,277704
32.39468,253565
32.40280,251864
32.41093,250591
32.41905,234612
32.42718,232229
32.43530,237400
32.44342,229029
32.45155,231273
32.45967,222931
32.46778,216826
32.47592,204075
32.48403,207528
32.49217,208236
32.50028,205594
32.50840,196468
32.51653,196660
32.52465,198191
32.53278,211219
32.54090,229565
32.54902,240099
32.55715,275909
32.56527,301309
32.57340,334374
32.58152,344186
32.58963,336080
32.59777,316921
32.60588,292087
32.61400,261840
32.62213,257822
32.63025,253109
32.63838,248164
32.64650,245001
32.65462,254812
32.66275,260261
32.67087,252515
32.67900,257462
32.68712,290361
32.69523,319587
32.70337,360168
32.71148,388237
32.71962,399832
32.72773,392271
32.73585,348879
32.74398,319240
32.75210,293142
32.76022,264360
32.76835,245658
32.77647,248458
32.78460,233723
32.79272,239149
32.80083,213377
32.80897,212635
32.81708,215312
32.82522,198652
32.83333,196407
32.84145,199360
32.84958,201148
32.85770,191268
32.86582,195894
32.87395,197439
32.88207,196541
32.89020,193975
32.89832,187286
32.90643,194298
32.91457,191031
32.92268,193931
32.93082,193100
32.93893,195072
32.94705,203544
32.95518,203148
32.96330,210935
32.97143,198514
32.97955,208022
32.98767,216242
32.99580,224995
33.00392,225763
33.01203,239845
33.02017,215235
33.02828,205883
33.03642,202789
33.04453,185876
33.05265,188263
33.06078,191909
33.06890,185626
33.07703,191341
33.08515,188065
33.09327,188157
33.10140,184011
33.10952,187152
33.11765,187057
33.12577,180033
33.13388,187651
33.14202,184379
33.15013,181823
33.15825,181775
33.16638,177727
33.17450,179479
33.18263,176814
33.19075,185644
33.19887,180787
33.20700,186617
33.21512,187182
33.22325,185231
33.23137,184857
33.23948,192158
33.24762,191368
33.25573,187003
33.26387,184323
33.27198,186252
33.28010,187103
33.28823,189110
33.29635,197029
33.30447,189054
33.31260,180914
33.32072,180444
33.32885,187935
33.33697,183082
33.34508,185949
33.35322,176892
33.36133,180996
33.36947,179360
33.37758,178748
33.38570,194221
33.39383,188892
33.40195,189990
33.41007,189356
33.41820,185511
33.42632,193057
33.43445,184038
33.44257,191156
33.45068,191785
33.45882,195105
33.46693,181181
33.47507,187691
33.48318,200074
33.49130,186611
33.49943,196441
33.50755,197116
33.51568,202661
33.52380,205084
33.53192,198134
33.54005,205236
33.54817,206092
33.55628,200137
33.56442,202985
33.57253,203905
33.58067,208323
33.58878,196936
33.59690,211768
33.60503,213088
33.61315,214312
33.62128,215583
33.62940,225195
33.63752,234982
33.64565,249541
33.65377,266249
33.66190,269628
33.67002,265678
33.67813,255272
33.68627,248749
33.69438,237629
33.70250,227982
33.71063,204747
33.71875,214558
33.72688,203322
33.73500,201859
33.74312,202335
33.75125,197202
33.75937,210224
33.76750,197592
33.77562,204048
33.78373,204634
33.79187,211359
33.79998,204304
33.80810,199625
33.81623,205142
33.82435,199563
33.83248,203699
33.84060,200057
33.84872,206487
33.85685,196936
33.86497,206310
33.87310,188696
33.88122,212755
33.88933,202345
33.89747,205507
33.90558,206582
33.91372,213952
33.92183,204466
33.92995,213098
33.93808,210756
33.94620,216541
33.95432,219481
33.96245,227029
33.97057,232695
33.97870,237041
33.98682,237713
33.99493,254175
34.00307,263955
34.01118,259097
34.01932,274343
34.02743,278575
34.03555,274978
34.04368,272443
34.05180,276463
34.05993,278216
34.06805,275121
34.07617,269085
34.08430,267359
34.09242,253544
34.10053,246108
34.10867,243994
34.11678,251361
34.12492,237950
34.13303,234715
34.14115,235903
34.14928,233535
34.15740,237629
34.16553,235991
34.17365,240433
34.18177,233048
34.18990,232468
34.19802,240656
34.20613,227006
34.21427,222004
34.22238,222368
34.23052,225680
34.23863,221342
34.24675,233252
34.25488,221779
34.26300,226971
34.27113,222500
34.27925,219237
34.28737,221197
34.29550,213406
34.30362,227128
34.31175,214205
34.31987,214767
34.32798,212648
34.33612,221209
34.34423,214694
34.35235,218118
34.36048,219378
34.36860,219295
34.37673,213938
34.38485,222195
34.39297,211419
34.40110,212189
34.40922,216012
34.41735,210558
34.42547,217498
34.43358,225437
34.44172,217015
34.44983,215505
34.45797,219483
34.46608,235337
34.47420,222955
34.48233,216902
34.49045,225323
34.49857,218004
34.50670,227658
34.51482,221859
34.52295,214953
34.53107,226671
34.53918,221286
34.54732,226886
34.55543,224529
34.56357,232384
34.57168,219181
34.57980,221148
34.58793,225372
34.59605,235227
34.60418,223093
34.61230,227333
34.62042,227895
34.62855,224407
34.63667,223110
34.64478,227781
34.65292,228446
34.66103,224239
34.66917,223364
34.67728,233468
34.68540,220957
34.69353,224072
34.70165,223164
34.70978,226862
34.71790,228029
34.72602,228301
34.73415,230760
34.74227,223129
34.75038,220278
34.75852,237869
34.76663,223815
34.77477,234239
34.78288,221211
34.79100,227780
34.79913,223744
34.80725,234274
34.81538,227369
34.82350,235514
34.83162,224979
34.83975,233070
34.84787,245838
34.85600,260990
34.86412,286169
34.87223,316778
34.88037,356174
34.88848,363403
34.89660,373180
34.90473,366448
34.91285,363671
34.92098,349953
34.92910,327237
34.93722,325530
34.94535,309097
34.95347,306355
34.96160,302110
34.96972,279218
34.97783,281284
34.98597,292756
34.99408,268148
35.00222,270066
35.01033,272707
35.01845,268175
35.02658,264870
35.03470,262118
35.04282,266089
35.05095,264638
35.05907,258825
35.06720,255297
35.07532,255331
35.08343,257097
35.09157,256072
35.09968,247846
35.10782,239789
35.11593,239781
35.12405,238393
35.13218,239392
35.14030,237690
35.14842,249092
35.15655,247984
35.16467,248587
35.17280,242672
35.18092,248989
35.18903,253518
35.19717,245363
35.20528,257248
35.21342,251332
35.22153,247994
35.22965,250805
35.23778,246878
35.24590,259851
35.25403,246972
35.26215,259553
35.27027,241784
35.27840,244337
35.28652,252026
35.29463,251341
35.30277,250644
35.31088,242253
35.31902,246049
35.32713,260508
35.33525,243980
35.34338,249479
35.35150,253628
35.35963,252049
35.36775,235652
35.37587,241543
35.38400,246427
35.39212,240330
35.40025,244139
35.40837,259944
35.41648,252906
35.42462,253234
35.43273,251547
35.44085,255168
35.44898,274075
35.45710,272552
35.46523,278300
35.47335,293872
35.48147,298380
35.48960,299850
35.49772,313108
35.50585,313867
35.51397,321411
35.52208,321040
35.53022,327432
35.53833,325930
35.54645,330827
35.55458,331883
35.56270,336787
35.57083,336329
35.57895,351414
35.58707,350522
35.59520,355821
35.60332,343505
35.61145,378041
35.61957,383822
35.62768,410760
35.63582,422237
35.64393,422053
35.65207,424911
35.66018,421158
35.66830,428263
35.67643,412125
35.68455,408146
35.69267,403810
35.70080,409277
35.70892,404435
35.71705,406807
35.72517,398771
35.73328,372220
35.74142,354519
35.74953,339725
35.75767,337961
35.76578,328437
35.77390,320395
35.78203,327978
35.79015,343655
35.79828,326944
35.80640,309566
35.81452,300610
35.82265,291742
35.83077,281063
35.83888,280606
35.84702,276539
35.85513,271116
35.86327,268318
35.87138,267257
35.87950,272566
35.88763,276897
35.89575,277917
35.90388,279208
35.91200,283772
35.92012,278189
35.92825,283572
35.93637,264461
35.94450,277698
35.95262,269169
35.96073,267261
35.96887,273830
35.97698,278910
35.98510,277361
35.99323,289305
36.00135,289761
36.00948,305575
36.01760,302695
36.02572,297190
36.03385,302684
36.04197,297793
36.05010,292130
36.05822,281348
36.06633,280137
36.07447,285933
36.08258,279521
36.09070,279500
36.09883,276948
36.10695,266807
36.11508,280152
36.12320,278274
36.13132,280105
36.13945,281944
36.14757,275420
36.15570,273070
36.16382,274703
36.17193,276636
36.18007,276444
36.18818,278734
36.19632,285869
36.20443,275925
36.21255,289346
36.22068,278541
36.22880,282065
36.23692,284980
36.24505,287970
36.25317,304577
36.26130,307659
36.26942,293322
36.27753,302993
36.28567,303788
36.29378,291718
36.30192,282448
36.31003,291523
36.31815,286063
36.32628,285296
36.33440,280067
36.34253,274999
36.35065,283755
36.35877,283698
36.36690,287363
36.37502,285134
36.38313,279590
36.39127,286346
36.39938,282581
36.40752,288113
36.41563,285192
36.42375,281454
36.43188,283628
36.44000,286364
36.44813,283989
36.45625,286268
36.46437,281922
36.47250,296096
36.48062,282191
36.48873,282240
36.49687,284308
36.50498,285092
36.51312,277675
36.52123,289452
36.52935,289468
36.53748,291204
36.54560,289811
36.55373,291259
36.56185,293639
36.56997,308083
36.57810,313770
36.58622,311028
36.59435,325486
36.60247,311318
36.61058,311180
36.61872,303947
36.62683,294388
36.63495,309492
36.64308,318644
36.65120,312593
36.65933,317435
36.66745,310607
36.67557,314896
36.68370,307157
36.69182,296219
36.69995,297316
36.70807,295533
36.71618,299943
36.72432,300581
36.73243,292428
36.74057,298410
36.74868,306035
36.75680,296945
36.76493,303521
36.77305,311720
36.78117,308037
36.78930,317122
36.79742,306867
36.80555,320326
36.81367,327388
36.82178,332319
36.82992,343714
36.83803,334123
36.84617,339956
36.85428,331338
36.86240,332113
36.87053,328090
36.87865,350041
36.88677,338619
36.89490,335064
36.90302,333137
36.91115,342504
36.91927,336852
36.92738,343161
36.93552,334898
36.94363,338528
36.95177,340291
36.95988,326632
36.96800,333070
36.97613,348212
36.98425,354267
36.99238,364219
37.00050,376063
37.00862,374043
37.01675,391492
37.02487,368921
37.03298,364316
37.04112,336727
37.04923,328111
37.05737,327561
37.06548,314198
37.07360,317392
37.08173,318473
37.08985,307043
37.09798,323345
37.10610,313536
37.11422,302355
37.12235,305051
37.13047,315638
37.13860,310299
37.14672,308819
37.15483,302665
37.16297,302026
37.17108,308921
37.17920,326363
37.18733,315012
37.19545,313728
37.20358,326981
37.21170,303214
37.21982,316161
37.22795,314488
37.23607,323555
37.24420,314274
37.25232,309826
37.26043,308601
37.26857,307506
37.27668,327115
37.28482,328400
37.29293,320234
37.30105,337250
37.30918,337475
37.31730,361436
37.32542,372949
37.33355,382127
37.34167,399325
37.34980,414751
37.35792,430832
37.36603,457680
37.37417,468414
37.38228,467038
37.39042,479979
37.39853,495059
37.40665,485394
37.41478,474464
37.42290,474000
37.43102,450484
37.43915,436746
37.44727,401722
37.45540,396508
37.46352,383327
37.47163,369861
37.47977,368945
37.48788,356936
