C:\MassHunter\GCMS\1\data\JTB-E02\BACandBLUE\JTB-E18-010-04.D Fri May 17 08:43:32 2019
Start of data points
2.09513	25335
2.10325	21918
2.11137	27162
2.11950	29919
2.12762	30012
2.13575	31494
2.14387	33377
2.15198	36692
2.16012	40548
2.16823	43810
2.17637	38205
2.18448	40674
2.19260	42062
2.20073	38905
2.20885	38044
2.21698	35940
2.22510	39772
2.23322	34669
2.24135	36970
2.24947	33744
2.25758	33269
2.26572	76493
2.27383	1002005
2.28197	3319175
2.29008	2229108
2.29820	798729
2.30633	444064
2.31445	340563
2.32258	305980
2.33070	263341
2.33882	240019
2.34695	212398
2.35507	185560
2.36318	167932
2.37132	156671
2.37943	147229
2.38757	137110
2.39568	129130
2.40380	124854
2.41193	120703
2.42005	122069
2.42818	129891
2.43630	116541
2.44442	116578
2.45255	122396
2.46067	112008
2.46880	98446
2.47692	97209
2.48503	94792
2.49317	110334
2.50128	125805
2.50940	102414
2.51753	100032
2.52565	96946
2.53378	88661
2.54190	86123
2.55002	91411
2.55815	84891
2.56627	87737
2.57440	82213
2.58252	77854
2.59063	78099
2.59877	76268
2.60688	77177
2.61502	88540
2.62313	94903
2.63125	85913
2.63938	75035
2.64750	71989
2.65562	76101
2.66375	71081
2.67187	69578
2.68000	68162
2.68812	67218
2.69623	68185
2.70437	68511
2.71248	67716
2.72062	62929
2.72873	62445
2.73685	61234
2.74498	63529
2.75310	63065
2.76122	61095
2.76935	61132
2.77747	61001
2.78560	60159
2.79372	62482
2.80183	62720
2.80997	59598
2.81808	59736
2.82622	59714
2.83433	57038
2.84245	57637
2.85058	58489
2.85870	57103
2.86683	55094
2.87495	58057
2.88307	55305
2.89120	59152
2.89932	57037
2.90743	59721
2.91557	57271
2.92368	53835
2.93182	54918
2.93993	55314
2.94805	53978
2.95618	55829
2.96430	57209
2.97243	59286
2.98055	53848
2.98867	54908
2.99680	53702
3.00492	56133
3.01303	54609
3.02117	52782
3.02928	48587
3.03742	48763
3.04553	49905
3.05365	52649
3.06178	49247
3.06990	46152
3.07803	50763
3.08615	51834
3.09427	50455
3.10240	58690
3.11052	76165
3.11865	85637
3.12677	77832
3.13488	73923
3.14302	67944
3.15113	59531
3.15925	56823
3.16738	53079
3.17550	61020
3.18363	53202
3.19175	55382
3.19987	50695
3.20800	56025
3.21612	53884
3.22425	50724
3.23237	54452
3.24048	47404
3.24862	51068
3.25673	52818
3.26487	54347
3.27298	48018
3.28110	56167
3.28923	149205
3.29735	720472
3.30547	2622276
3.31360	5462539
3.32172	6799794
3.32985	5844126
3.33797	4311385
3.34608	3204923
3.35422	2529551
3.36233	2044046
3.37047	1751567
3.37858	1508896
3.38670	1306481
3.39483	1177895
3.40295	1060096
3.41108	966022
3.41920	889890
3.42732	837950
3.43545	780355
3.44357	727434
3.45168	683926
3.45982	666983
3.46793	642275
3.47607	605295
3.48418	598010
3.49230	570832
3.50043	555983
3.50855	530268
3.51668	511863
3.52480	489565
3.53292	482782
3.54105	471266
3.54917	453004
3.55728	445498
3.56542	427309
3.57353	425412
3.58167	411961
3.58978	398452
3.59790	386695
3.60603	384948
3.61415	384196
3.62228	366216
3.63040	387137
3.63852	369532
3.64665	353734
3.65477	351493
3.66290	334662
3.67102	336885
3.67913	328741
3.68727	330354
3.69538	339276
3.70350	318160
3.71163	317290
3.71975	303979
3.72788	304681
3.73600	298857
3.74412	292699
3.75225	288918
3.76037	290189
3.76850	289303
3.77662	277142
3.78473	276502
3.79287	282536
3.80098	284219
3.80910	270535
3.81723	272886
3.82535	269518
3.83348	276422
3.84160	266535
3.84972	261499
3.85785	258087
3.86597	254260
3.87410	255923
3.88222	252295
3.89033	244740
3.89847	238164
3.90658	241750
3.91472	241838
3.92283	232572
3.93095	237749
3.93908	237440
3.94720	230030
3.95532	231515
3.96345	226878
3.97157	228620
3.97970	226717
3.98782	217669
3.99593	216738
4.00407	217335
4.01218	223004
4.02032	217944
4.02843	223476
4.03655	213138
4.04468	221102
4.05280	224179
4.06093	212134
4.06905	212900
4.07717	207490
4.08530	208720
4.09342	202666
4.10153	206290
4.10967	203404
4.11778	195221
4.12592	199929
4.13403	209617
4.14215	236285
4.15028	291086
4.15840	317566
4.16653	287308
4.17465	257659
4.18277	229648
4.19090	211707
4.19902	214558
4.20713	194903
4.21527	200892
4.22338	204103
4.23152	223240
4.23963	222803
4.24775	221088
4.25588	217098
4.26400	213165
4.27213	211516
4.28025	189496
4.28837	188370
4.29650	180477
4.30462	188130
4.31275	188460
4.32087	187263
4.32898	185223
4.33712	191712
4.34523	185051
4.35335	180462
4.36148	180659
4.36960	188964
4.37773	185808
4.38585	185952
4.39397	186436
4.40210	172192
4.41022	175535
4.41835	176403
4.42647	173049
4.43458	169971
4.44272	164639
4.45083	172294
4.45897	171148
4.46708	172326
4.47520	170921
4.48333	171367
4.49145	162864
4.49957	156395
4.50770	165576
4.51582	157913
4.52395	155175
4.53207	157035
4.54018	158968
4.54832	160545
4.55643	157579
4.56457	152697
4.57268	152500
4.58080	150527
4.58893	156122
4.59705	149765
4.60517	148383
4.61330	157493
4.62142	151315
4.62955	155418
4.63767	148460
4.64578	156210
4.65392	157423
4.66203	150545
4.67017	146183
4.67828	149413
4.68640	152058
4.69453	148746
4.70265	149066
4.71078	147026
4.71890	144010
4.72702	143522
4.73515	142649
4.74327	145727
4.75138	138661
4.75952	143029
4.76763	141068
4.77577	139588
4.78388	139762
4.79200	145494
4.80013	142620
4.80825	140886
4.81638	141838
4.82450	136781
4.83262	139711
4.84075	138379
4.84887	140055
4.85698	139356
4.86512	140211
4.87323	137221
4.88137	137760
4.88948	135118
4.89760	143489
4.90573	136772
4.91385	141615
4.92198	140851
4.93010	145896
4.93822	203952
4.94635	422057
4.95447	993662
4.96260	1914092
4.97072	2766466
4.97883	3009109
4.98697	2613148
4.99508	1993846
5.00320	1547007
5.01133	1229497
5.01945	1006780
5.02758	868903
5.03570	766329
5.04382	687313
5.05195	640942
5.06007	598418
5.06820	561388
5.07632	524263
5.08443	503698
5.09257	480694
5.10068	455592
5.10882	436641
5.11693	433755
5.12505	409447
5.13318	395742
5.14130	392426
5.14942	383105
5.15755	374317
5.16567	357219
5.17380	353294
5.18192	352759
5.19003	345263
5.19817	340942
5.20628	336138
5.21442	324699
5.22253	331177
5.23065	347834
5.23878	399514
5.24690	443745
5.25502	448416
5.26315	410008
5.27127	355444
5.27940	332744
5.28752	322436
5.29563	307988
5.30377	285838
5.31188	286438
5.32002	271811
5.32813	285157
5.33625	272802
5.34438	267746
5.35250	264631
5.36063	264963
5.36875	262764
5.37687	249915
5.38500	248658
5.39312	240188
5.40123	237967
5.40937	245860
5.41748	239972
5.42562	240292
5.43373	236374
5.44185	232862
5.44998	233300
5.45810	228208
5.46623	228351
5.47435	226076
5.48247	223985
5.49060	227377
5.49872	225123
5.50685	220673
5.51497	214838
5.52308	219952
5.53122	216610
5.53933	217739
5.54745	216102
5.55558	207270
5.56370	208140
5.57183	211849
5.57995	214677
5.58807	206967
5.59620	206233
5.60432	207705
5.61245	209755
5.62057	207555
5.62868	205379
5.63682	208996
5.64493	201807
5.65305	204328
5.66118	211514
5.66930	198951
5.67743	211089
5.68555	229266
5.69367	237044
5.70180	257233
5.70992	242478
5.71805	234663
5.72617	210388
5.73428	206592
5.74242	195977
5.75053	201818
5.75867	190628
5.76678	186951
5.77490	186188
5.78303	194066
5.79115	181067
5.79927	184926
5.80740	183007
5.81552	182321
5.82365	178456
5.83177	185129
5.83988	175634
5.84802	176294
5.85613	172800
5.86427	179706
5.87238	170662
5.88050	178642
5.88863	176547
5.89675	174231
5.90488	164843
5.91300	156333
5.92112	128153
5.92925	118131
5.93737	117994
5.94548	118141
5.95362	111250
5.96173	119180
5.96987	116198
5.97798	118238
5.98610	125001
5.99423	123909
6.00235	120201
6.01048	113818
6.01860	113067
6.02672	120315
6.03485	113491
6.04297	105002
6.05108	108938
6.05922	115475
6.06733	114045
6.07547	113302
6.08358	109054
6.09170	107492
6.09983	107182
6.10795	107068
6.11608	106746
6.12420	102654
6.13232	109438
6.14045	110254
6.14857	113499
6.15670	117007
6.16482	110657
6.17293	112866
6.18107	116979
6.18918	116815
6.19730	113879
6.20543	112502
6.21355	117734
6.22168	117137
6.22980	120062
6.23792	117629
6.24605	121321
6.25417	122928
6.26230	118271
6.27042	119157
6.27853	125348
6.28667	125674
6.29478	122718
6.30290	130137
6.31103	124335
6.31915	124299
6.32728	129059
6.33540	127903
6.34352	126723
6.35165	122718
6.35977	131068
6.36790	127723
6.37602	130741
6.38413	133578
6.39227	131741
6.40038	135452
6.40852	135069
6.41663	136852
6.42475	140136
6.43288	139990
6.44100	139321
6.44912	141187
6.45725	141910
6.46537	140227
6.47350	140845
6.48162	135552
6.48973	140185
6.49787	146213
6.50598	142732
6.51412	143865
6.52223	136528
6.53035	141101
6.53848	129091
6.54660	125178
6.55473	124484
6.56285	110320
6.57097	115053
6.57910	112112
6.58722	112025
6.59533	112934
6.60347	114637
6.61158	109600
6.61972	105540
6.62783	105922
6.63595	103987
6.64408	108462
6.65220	105712
6.66033	106801
6.66845	105036
6.67657	103471
6.68470	102822
6.69282	102725
6.70093	100220
6.70907	100529
6.71718	101454
6.72532	100039
6.73343	101567
6.74155	99121
6.74968	90478
6.75780	99588
6.76593	91988
6.77405	89051
6.78217	92060
6.79030	97910
6.79842	91703
6.80655	89216
6.81467	92483
6.82278	91933
6.83092	93980
6.83903	98471
6.84715	92151
6.85528	88077
6.86340	78490
6.87153	63648
6.87965	57322
6.88777	53017
6.89590	52828
6.90402	54002
6.91215	56058
6.92027	48882
6.92838	49973
6.93652	47823
6.94463	48482
6.95277	49754
6.96088	50745
6.96900	44154
6.97713	47739
6.98525	45837
6.99337	50529
7.00150	49658
7.00962	49553
7.01775	48962
7.02587	48847
7.03398	47217
7.04212	49534
7.05023	48239
7.05837	46808
7.06648	52997
7.07460	47125
7.08273	49813
7.09085	50570
7.09897	50819
7.10710	53967
7.11522	53027
7.12335	48844
7.13147	49055
7.13958	48186
7.14772	47907
7.15583	50465
7.16397	47709
7.17208	52754
7.18020	51442
7.18833	51912
7.19645	50412
7.20458	52269
7.21270	50257
7.22082	53486
7.22895	53355
7.23707	51503
7.24518	53886
7.25332	45826
7.26143	47946
7.26957	50199
7.27768	48087
7.28580	50924
7.29393	46063
7.30205	49671
7.31018	51313
7.31830	45973
7.32642	50891
7.33455	47838
7.34267	48137
7.35078	47300
7.35892	48289
7.36703	48102
7.37517	46310
7.38328	46730
7.39140	51688
7.39953	50667
7.40765	47169
7.41578	53868
7.42390	50990
7.43202	51915
7.44015	53053
7.44827	52896
7.45640	52688
7.46452	55587
7.47263	53938
7.48077	51803
7.48888	49387
7.49700	52240
7.50513	52482
7.51325	46619
7.52138	50595
7.52950	46355
7.53762	46316
7.54575	47240
7.55387	47626
7.56200	48056
7.57012	57661
7.57823	47652
7.58637	47531
7.59448	43838
7.60262	48054
7.61073	49569
7.61885	48653
7.62698	46746
7.63510	45943
7.64322	50605
7.65135	48819
7.65947	49882
7.66760	45937
7.67572	49292
7.68383	45848
7.69197	48792
7.70008	48033
7.70822	44844
7.71633	45668
7.72445	42356
7.73258	47675
7.74070	45032
7.74882	46495
7.75695	46393
7.76507	45183
7.77320	45718
7.78132	44598
7.78943	42664
7.79757	45992
7.80568	46712
7.81382	46537
7.82193	48201
7.83005	44574
7.83818	46236
7.84630	42065
7.85443	44528
7.86255	44243
7.87067	42089
7.87880	41447
7.88692	46316
7.89503	42139
7.90317	42975
7.91128	41146
7.91942	42041
7.92753	43906
7.93565	44264
7.94378	40313
7.95190	43127
7.96003	44975
7.96815	40983
7.97627	45976
7.98440	42334
7.99252	46719
8.00065	44569
8.00877	45593
8.01688	44795
8.02502	44214
8.03313	44731
8.04125	42858
8.04938	39781
8.05750	42879
8.06563	45457
8.07375	43101
8.08187	39883
8.09000	42194
8.09812	43796
8.10625	43793
8.11437	41050
8.12248	42639
8.13062	45355
8.13873	41209
8.14685	45792
8.15498	45611
8.16310	42131
8.17123	45071
8.17935	45482
8.18747	45865
8.19560	46331
8.20372	41444
8.21185	44306
8.21997	41891
8.22808	45686
8.23622	42054
8.24433	41504
8.25247	38746
8.26058	40177
8.26870	42416
8.27683	40124
8.28495	41865
8.29307	41709
8.30120	39055
8.30932	40416
8.31745	40426
8.32557	42515
8.33368	41829
8.34182	42157
8.34993	43628
8.35807	42491
8.36618	44796
8.37430	44163
8.38243	47239
8.39055	168915
8.39867	622489
8.40680	438768
8.41492	156061
8.42305	99468
8.43117	82221
8.43928	79342
8.44742	69038
8.45553	64853
8.46367	60321
8.47178	60634
8.47990	63570
8.48803	62965
8.49615	62686
8.50428	58181
8.51240	63908
8.52052	71617
8.52865	67479
8.53677	67491
8.54488	62863
8.55302	61673
8.56113	59541
8.56927	58872
8.57738	59537
8.58550	55562
8.59363	58985
8.60175	59019
8.60988	53448
8.61800	54318
8.62612	51111
8.63425	55231
8.64237	56881
8.65050	47311
8.65862	52369
8.66673	54638
8.67487	56961
8.68298	50569
8.69110	49248
8.69923	49275
8.70735	53257
8.71548	50581
8.72360	51272
8.73172	50393
8.73985	48449
8.74797	47112
8.75610	54087
8.76422	61889
8.77233	105114
8.78047	212122
8.78858	389794
8.79672	639212
8.80483	1176858
8.81295	2473751
8.82108	2408765
8.82920	1445916
8.83732	942045
8.84545	686014
8.85357	551849
8.86170	464539
8.86982	392804
8.87793	354552
8.88607	321436
8.89418	295513
8.90232	268716
8.91043	258187
8.91855	250208
8.92668	223967
8.93480	217132
8.94292	207494
8.95105	205942
8.95917	197687
8.96730	187994
8.97542	185390
8.98353	180522
8.99167	177215
8.99978	171159
9.00792	167582
9.01603	167172
9.02415	173347
9.03228	160858
9.04040	153544
9.04853	150561
9.05665	151835
9.06477	147763
9.07290	144526
9.08102	146845
9.08913	139946
9.09727	141335
9.10538	138257
9.11352	136890
9.12163	135497
9.12975	131841
9.13788	128994
9.14600	128769
9.15413	123699
9.16225	122041
9.17037	124156
9.17850	126968
9.18662	136361
9.19473	147532
9.20287	142323
9.21098	129506
9.21912	137436
9.22723	129900
9.23535	135943
9.24348	135636
9.25160	124181
9.25973	117147
9.26785	114620
9.27597	115258
9.28410	112368
9.29222	109754
9.30035	110117
9.30847	127244
9.31658	302631
9.32472	792687
9.33283	979576
9.34095	690487
9.34908	416521
9.35720	302250
9.36533	233120
9.37345	199398
9.38157	181385
9.38970	162515
9.39782	153543
9.40595	140570
9.41407	137754
9.42218	127800
9.43032	124208
9.43843	128180
9.44657	119831
9.45468	117825
9.46280	112823
9.47093	109882
9.47905	110612
9.48717	113558
9.49530	108912
9.50342	104601
9.51155	99626
9.51967	101519
9.52778	99540
9.53592	100619
9.54403	103133
9.55217	100771
9.56028	93815
9.56840	84614
9.57653	78216
9.58465	74437
9.59277	71823
9.60090	73189
9.60902	75362
9.61715	70471
9.62527	70745
9.63338	67318
9.64152	68466
9.64963	62229
9.65777	63441
9.66588	65387
9.67400	66979
9.68213	64497
9.69025	62851
9.69838	61562
9.70650	63011
9.71462	59335
9.72275	56455
9.73087	57159
9.73898	62667
9.74712	62493
9.75523	73800
9.76337	87952
9.77148	86497
9.77960	75493
9.78773	68582
9.79585	65345
9.80398	60049
9.81210	60116
9.82022	61953
9.82835	63461
9.83647	71131
9.84460	75928
9.85272	72899
9.86083	69429
9.86897	63176
9.87708	60808
9.88520	59627
9.89333	59138
9.90145	59097
9.90958	62600
9.91770	57929
9.92582	57008
9.93395	58790
9.94207	64498
9.95020	60772
9.95832	58383
9.96643	62141
9.97457	57262
9.98268	55990
9.99080	64199
9.99893	63839
10.00705	69118
10.01518	73843
10.02330	80806
10.03142	97268
10.03955	100908
10.04767	105230
10.05580	107554
10.06392	108289
10.07203	110674
10.08017	110169
10.08828	112793
10.09642	108148
10.10453	97915
10.11265	80324
10.12078	78971
10.12890	71992
10.13702	77247
10.14515	75679
10.15327	72672
10.16140	68591
10.16952	67378
10.17763	73129
10.18577	67833
10.19388	62045
10.20202	68510
10.21013	60835
10.21825	63939
10.22638	66598
10.23450	71199
10.24262	71905
10.25075	70113
10.25887	73647
10.26700	66069
10.27512	69799
10.28323	68316
10.29137	70272
10.29948	71967
10.30762	73342
10.31573	79792
10.32385	83885
10.33198	84762
10.34010	83712
10.34823	85357
10.35635	76544
10.36447	74998
10.37260	72253
10.38072	68142
10.38883	69137
10.39697	68983
10.40508	62840
10.41322	65780
10.42133	70008
10.42945	63994
10.43758	68598
10.44570	67527
10.45383	63567
10.46195	69206
10.47007	63440
10.47820	59544
10.48632	61791
10.49445	62361
10.50257	55103
10.51068	60611
10.51882	61581
10.52693	61801
10.53505	63887
10.54318	57897
10.55130	59316
10.55943	59171
10.56755	58925
10.57567	62539
10.58380	60360
10.59192	60327
10.60005	61596
10.60817	60453
10.61628	57333
10.62442	61698
10.63253	56792
10.64065	59690
10.64878	57234
10.65690	58779
10.66503	58523
10.67315	58756
10.68127	59548
10.68940	57700
10.69752	58348
10.70565	51720
10.71377	55726
10.72188	55007
10.73002	60300
10.73813	59294
10.74627	53074
10.75438	56455
10.76250	55326
10.77063	57859
10.77875	55904
10.78687	58379
10.79500	55959
10.80312	54271
10.81125	55226
10.81937	53469
10.82748	54677
10.83562	55068
10.84373	57017
10.85187	54277
10.85998	53822
10.86810	52833
10.87623	53281
10.88435	57030
10.89248	56090
10.90060	54718
10.90872	53660
10.91685	53107
10.92497	55440
10.93308	54976
10.94122	54991
10.94933	62266
10.95747	94339
10.96558	155725
10.97370	213161
10.98183	214594
10.98995	169293
10.99808	126792
11.00620	100424
11.01432	83700
11.02245	74206
11.03057	71385
11.03868	64449
11.04682	63392
11.05493	65890
11.06307	57969
11.07118	60183
11.07930	58253
11.08743	56882
11.09555	57630
11.10368	59975
11.11180	56832
11.11992	59633
11.12805	54622
11.13617	52804
11.14430	56576
11.15242	53382
11.16053	57998
11.16867	60151
11.17678	61943
11.18490	66642
11.19303	78369
11.20115	81993
11.20928	83456
11.21740	79186
11.22552	82097
11.23365	70732
11.24177	67756
11.24990	64931
11.25802	63181
11.26613	55214
11.27427	53233
11.28238	54981
11.29052	53394
11.29863	54141
11.30675	52963
11.31488	53387
11.32300	52030
11.33112	54009
11.33925	52437
11.34737	53826
11.35550	52928
11.36362	54557
11.37173	53284
11.37987	52163
11.38798	51998
11.39612	49513
11.40423	48183
11.41235	53821
11.42048	48816
11.42860	50353
11.43672	50440
11.44485	51437
11.45297	50368
11.46110	46612
11.46922	49842
11.47733	46422
11.48547	47169
11.49358	51940
11.50172	51192
11.50983	48654
11.51795	47441
11.52608	50750
11.53420	50352
11.54233	51391
11.55045	49556
11.55857	45733
11.56670	48042
11.57482	48970
11.58293	51057
11.59107	48159
11.59918	43753
11.60732	48205
11.61543	47402
11.62355	47510
11.63168	48560
11.63980	46876
11.64793	47705
11.65605	46348
11.66417	44944
11.67230	44733
11.68042	45831
11.68853	50047
11.69667	47322
11.70478	52629
11.71292	49202
11.72103	50956
11.72915	50236
11.73728	49892
11.74540	51582
11.75353	51844
11.76165	51364
11.76977	54547
11.77790	52708
11.78602	56570
11.79415	54387
11.80227	52533
11.81038	52029
11.81852	53804
11.82663	49039
11.83475	52092
11.84288	46492
11.85100	47541
11.85913	46251
11.86725	49068
11.87537	46793
11.88350	47822
11.89162	53065
11.89975	50203
11.90787	52967
11.91598	47602
11.92412	51253
11.93223	51563
11.94037	50267
11.94848	48625
11.95660	46812
11.96473	46073
11.97285	45566
11.98097	47326
11.98910	48849
11.99722	46794
12.00535	49960
12.01347	51885
12.02158	49879
12.02972	56538
12.03783	48991
12.04597	52593
12.05408	51354
12.06220	50023
12.07033	48978
12.07845	50823
12.08657	56533
12.09470	51901
12.10282	50663
12.11095	48519
12.11907	48683
12.12718	48421
12.13532	52256
12.14343	49065
12.15157	49463
12.15968	51941
12.16780	52244
12.17593	52947
12.18405	53363
12.19218	53444
12.20030	53603
12.20842	52075
12.21655	51229
12.22467	49833
12.23278	52889
12.24092	52900
12.24903	50634
12.25717	55490
12.26528	51672
12.27340	51588
12.28153	51760
12.28965	47419
12.29778	49871
12.30590	52955
12.31402	48671
12.32215	48404
12.33027	50097
12.33840	45148
12.34652	48149
12.35463	48473
12.36277	50519
12.37088	50048
12.37900	51634
12.38713	50097
12.39525	53471
12.40338	54036
12.41150	50737
12.41962	50314
12.42775	51452
12.43587	52966
12.44400	50327
12.45212	53046
12.46023	54044
12.46837	55898
12.47648	54179
12.48460	53246
12.49273	53957
12.50085	51089
12.50898	50012
12.51710	52171
12.52522	50104
12.53335	52364
12.54147	47752
12.54960	53918
12.55772	50055
12.56583	48334
12.57397	49880
12.58208	50977
12.59022	51461
12.59833	49174
12.60645	48927
12.61458	53565
12.62270	48362
12.63082	49657
12.63895	49448
12.64707	49341
12.65520	48269
12.66332	46387
12.67143	47818
12.67957	50589
12.68768	50334
12.69582	48289
12.70393	52952
12.71205	52377
12.72018	56770
12.72830	58265
12.73642	51901
12.74455	49397
12.75267	51253
12.76080	51596
12.76892	50603
12.77703	53453
12.78517	50885
12.79328	51658
12.80142	47435
12.80953	50349
12.81765	48503
12.82578	47913
12.83390	46090
12.84203	47612
12.85015	49572
12.85827	47804
12.86640	45728
12.87452	44840
12.88263	41256
12.89077	46365
12.89888	44090
12.90702	54661
12.91513	48005
12.92325	47351
12.93138	44593
12.93950	48251
12.94763	47162
12.95575	44062
12.96387	47023
12.97200	43019
12.98012	47074
12.98825	46451
12.99637	47007
13.00448	46678
13.01262	46836
13.02073	45326
13.02885	42765
13.03698	45223
13.04510	45799
13.05323	43430
13.06135	45315
13.06947	44871
13.07760	45186
13.08572	49490
13.09385	45836
13.10197	46066
13.11008	43473
13.11822	44823
13.12633	43698
13.13447	48287
13.14258	42421
13.15070	47580
13.15883	50425
13.16695	46324
13.17507	47497
13.18320	44229
13.19132	49227
13.19945	55682
13.20757	55574
13.21568	55616
13.22382	61047
13.23193	61467
13.24007	50685
13.24818	53063
13.25630	49505
13.26443	47528
13.27255	45526
13.28067	45489
13.28880	48678
13.29692	46196
13.30505	40566
13.31317	46074
13.32128	42247
13.32942	47282
13.33753	49232
13.34567	46290
13.35378	43524
13.36190	43376
13.37003	48235
13.37815	49378
13.38628	47840
13.39440	44557
13.40252	49237
13.41065	49352
13.41877	46374
13.42688	45238
13.43502	44180
13.44313	45524
13.45127	48128
13.45938	44087
13.46750	46713
13.47563	45344
13.48375	45094
13.49188	41338
13.50000	46316
13.50812	47818
13.51625	47226
13.52437	46463
13.53248	44496
13.54062	45948
13.54873	47135
13.55687	42830
13.56498	46189
13.57310	42908
13.58123	44790
13.58935	46288
13.59748	45709
13.60560	45722
13.61372	46482
13.62185	45797
13.62997	43993
13.63810	47006
13.64622	49565
13.65433	48793
13.66247	47387
13.67058	42403
13.67870	44186
13.68683	47345
13.69495	44419
13.70308	42580
13.71120	45283
13.71932	44201
13.72745	44917
13.73557	42410
13.74370	46306
13.75182	49508
13.75993	48032
13.76807	50825
13.77618	48896
13.78432	50363
13.79243	52275
13.80055	59382
13.80868	55643
13.81680	55483
13.82492	54942
13.83305	50867
13.84117	56892
13.84930	52160
13.85742	53611
13.86553	54592
13.87367	53599
13.88178	52034
13.88992	53381
13.89803	53513
13.90615	53919
13.91428	53643
13.92240	55076
13.93052	62808
13.93865	60188
13.94677	60922
13.95490	62935
13.96302	57054
13.97113	54379
13.97927	54654
13.98738	57639
13.99552	58783
14.00363	58494
14.01175	56773
14.01988	56972
14.02800	60733
14.03613	57380
14.04425	60310
14.05237	59283
14.06050	62010
14.06862	62811
14.07673	57970
14.08487	64200
14.09298	61010
14.10112	60492
14.10923	60062
14.11735	58790
14.12548	56847
14.13360	63267
14.14173	59270
14.14985	57000
14.15797	56757
14.16610	61309
14.17422	61757
14.18235	73040
14.19047	106182
14.19858	146222
14.20672	202265
14.21483	251013
14.22295	284055
14.23108	264109
14.23920	242828
14.24733	199668
14.25545	183645
14.26357	154965
14.27170	148658
14.27982	139004
14.28795	134783
14.29607	127438
14.30418	119125
14.31232	114321
14.32043	117564
14.32855	109913
14.33668	102598
14.34480	101596
14.35293	95511
14.36105	86557
14.36917	77915
14.37730	68099
14.38542	63698
14.39355	67670
14.40167	64757
14.40978	64657
14.41792	58010
14.42603	64578
14.43417	64760
14.44228	59342
14.45040	57453
14.45853	59897
14.46665	52297
14.47477	57460
14.48290	62984
14.49102	57823
14.49915	58739
14.50727	53593
14.51538	54726
14.52352	55697
14.53163	58744
14.53977	57856
14.54788	52960
14.55600	55708
14.56413	56245
14.57225	55102
14.58037	51169
14.58850	50040
14.59662	51918
14.60475	50727
14.61287	51318
14.62098	52992
14.62912	51205
14.63723	54370
14.64537	51476
14.65348	193062
14.66160	595061
14.66973	366553
14.67785	140338
14.68598	100020
14.69410	84802
14.70222	71859
14.71035	76067
14.71847	76072
14.72658	75940
14.73472	73880
14.74283	72487
14.75097	74070
14.75908	84791
14.76720	92406
14.77533	99264
14.78345	92051
14.79158	86349
14.79970	73433
14.80782	69827
14.81595	72590
14.82407	64821
14.83220	71075
14.84032	144413
14.84843	1262332
14.85657	1898389
14.86468	885522
14.87280	522135
14.88093	388024
14.88905	305887
14.89718	261334
14.90530	227660
14.91342	206790
14.92155	185358
14.92967	171570
14.93780	159188
14.94592	148997
14.95403	143506
14.96217	138138
14.97028	128424
14.97840	124045
14.98653	119142
14.99465	124104
15.00278	359759
15.01090	1120810
15.01902	838594
15.02715	438978
15.03527	303958
15.04340	244225
15.05152	208585
15.05963	193432
15.06777	179394
15.07588	164458
15.08402	151422
15.09213	141719
15.10025	133486
15.10838	129046
15.11650	121220
15.12462	121099
15.13275	117393
15.14087	108650
15.14900	108950
15.15712	101994
15.16523	102932
15.17337	94897
15.18148	98083
15.18962	93367
15.19773	97075
15.20585	91081
15.21398	85051
15.22210	85680
15.23023	85279
15.23835	84321
15.24647	83809
15.25460	78055
15.26272	81120
15.27083	83366
15.27897	87868
15.28708	91829
15.29522	80260
15.30333	74993
15.31145	88107
15.31958	104904
15.32770	95033
15.33583	87112
15.34395	82407
15.35207	93475
15.36020	109312
15.36832	112863
15.37643	127509
15.38457	118042
15.39268	102647
15.40082	86775
15.40893	83680
15.41705	78870
15.42518	87039
15.43330	80759
15.44143	81218
15.44955	76770
15.45767	74867
15.46580	80427
15.47392	79043
15.48205	71667
15.49017	76158
15.49828	77532
15.50642	88122
15.51453	151691
15.52265	296302
15.53078	295882
15.53890	199022
15.54703	145629
15.55515	110139
15.56327	99976
15.57140	96434
15.57952	88448
15.58765	84261
15.59577	81794
15.60388	78137
15.61202	79301
15.62013	73443
15.62827	73535
15.63638	70350
15.64450	68416
15.65263	69305
15.66075	69964
15.66887	70104
15.67700	68286
15.68512	68657
15.69325	70496
15.70137	70436
15.70948	69400
15.71762	65868
15.72573	67217
15.73387	67617
15.74198	63508
15.75010	64767
15.75823	66405
15.76635	67593
15.77447	66876
15.78260	66015
15.79072	67123
15.79885	67665
15.80697	65261
15.81508	64294
15.82322	68642
15.83133	65642
15.83947	64570
15.84758	67034
15.85570	66010
15.86383	61272
15.87195	63096
15.88008	62920
15.88820	63077
15.89632	65716
15.90445	58978
15.91257	66698
15.92068	63305
15.92882	67297
15.93693	64761
15.94507	67915
15.95318	63848
15.96130	65158
15.96943	60766
15.97755	67992
15.98568	66189
15.99380	67910
16.00192	66669
16.01005	66692
16.01817	71806
16.02628	75130
16.03442	76582
16.04253	79151
16.05067	76113
16.05878	75037
16.06690	72454
16.07503	72509
16.08315	64371
16.09128	68350
16.09940	66009
16.10752	69805
16.11565	62371
16.12377	64911
16.13190	61444
16.14002	63912
16.14813	60229
16.15627	62689
16.16438	60959
16.17250	59722
16.18063	62211
16.18875	60961
16.19688	59790
16.20500	59697
16.21312	62368
16.22125	57120
16.22937	61768
16.23750	59080
16.24562	62687
16.25373	59917
16.26187	57640
16.26998	56783
16.27812	59869
16.28623	58596
16.29435	60846
16.30248	60044
16.31060	60156
16.31872	59622
16.32685	55802
16.33497	56384
16.34310	58181
16.35122	57893
16.35933	56994
16.36747	61380
16.37558	61630
16.38372	62632
16.39183	67519
16.39995	62881
16.40808	65884
16.41620	62509
16.42432	58925
16.43245	62389
16.44057	56446
16.44870	58573
16.45682	54378
16.46493	58433
16.47307	56747
16.48118	61967
16.48932	66827
16.49743	61093
16.50555	58405
16.51368	59886
16.52180	61164
16.52993	60891
16.53805	57633
16.54617	59381
16.55430	57403
16.56242	57001
16.57053	63334
16.57867	60466
16.58678	58692
16.59492	56120
16.60303	58522
16.61115	58365
16.61928	59367
16.62740	60972
16.63553	55226
16.64365	58525
16.65177	57403
16.65990	58114
16.66802	55906
16.67615	55681
16.68427	55919
16.69238	54789
16.70052	59114
16.70863	55609
16.71675	55382
16.72488	54201
16.73300	53418
16.74113	55231
16.74925	56177
16.75737	51344
16.76550	53144
16.77362	54486
16.78175	52106
16.78987	54279
16.79798	52729
16.80612	52313
16.81423	54315
16.82235	53807
16.83048	54301
16.83860	55701
16.84673	55930
16.85485	57168
16.86297	53923
16.87110	51624
16.87922	59193
16.88735	53617
16.89547	54410
16.90358	53978
16.91172	52421
16.91983	54771
16.92797	54413
16.93608	49981
16.94420	55416
16.95233	54209
16.96045	55852
16.96857	53333
16.97670	53005
16.98482	49796
16.99295	51999
17.00107	52618
17.00918	49911
17.01732	53784
17.02543	53902
17.03357	50649
17.04168	55384
17.04980	52041
17.05793	50779
17.06605	48588
17.07417	49117
17.08230	50603
17.09042	51638
17.09855	51515
17.10667	52672
17.11478	56900
17.12292	64289
17.13103	74770
17.13917	96971
17.14728	87726
17.15540	73012
17.16353	63746
17.17165	61362
17.17978	56547
17.18790	56023
17.19602	56652
17.20415	52289
17.21227	50671
17.22038	52637
17.22852	55431
17.23663	53647
17.24477	51932
17.25288	51398
17.26100	50929
17.26913	48867
17.27725	46959
17.28538	58244
17.29350	51742
17.30162	50363
17.30975	50331
17.31787	48878
17.32600	47997
17.33412	53207
17.34223	54133
17.35037	50440
17.35848	59809
17.36660	62000
17.37473	63169
17.38285	69675
17.39098	63486
17.39910	61920
17.40722	59282
17.41535	56780
17.42347	57444
17.43160	57255
17.43972	57312
17.44783	54405
17.45597	54222
17.46408	49492
17.47222	52170
17.48033	54627
17.48845	50828
17.49658	55428
17.50470	53512
17.51282	52661
17.52095	52311
17.52907	51578
17.53720	52861
17.54532	54221
17.55343	53476
17.56157	53044
17.56968	49548
17.57782	53220
17.58593	52870
17.59405	49807
17.60218	50298
17.61030	46753
17.61842	46075
17.62655	45378
17.63467	47043
17.64280	45592
17.65092	45703
17.65903	45399
17.66717	48388
17.67528	50276
17.68342	46624
17.69153	43884
17.69965	49525
17.70778	51504
17.71590	48964
17.72403	50919
17.73215	49640
17.74027	51145
17.74840	53803
17.75652	50426
17.76463	51143
17.77277	48434
17.78088	50308
17.78902	48274
17.79713	49973
17.80525	45316
17.81338	47049
17.82150	46473
17.82963	49515
17.83775	47170
17.84587	45891
17.85400	48282
17.86212	47683
17.87023	48563
17.87837	47373
17.88648	47457
17.89462	47817
17.90273	45655
17.91085	43123
17.91898	43384
17.92710	44962
17.93523	46004
17.94335	45480
17.95147	42537
17.95960	43996
17.96772	44623
17.97585	44154
17.98397	43601
17.99208	42048
18.00022	40207
18.00833	43523
18.01645	41555
18.02458	42389
18.03270	45207
18.04083	38601
18.04895	42109
18.05707	45617
18.06520	46305
18.07332	48080
18.08145	48922
18.08957	52820
18.09768	55727
18.10582	59980
18.11393	57228
18.12207	57163
18.13018	56787
18.13830	52416
18.14643	56877
18.15455	51386
18.16267	53432
18.17080	56171
18.17892	54060
18.18705	54882
18.19517	55486
18.20328	52772
18.21142	51275
18.21953	56122
18.22767	48930
18.23578	52562
18.24390	53514
18.25203	53402
18.26015	57506
18.26827	56235
18.27640	49663
18.28452	52231
18.29265	47652
18.30077	46076
18.30888	50902
18.31702	48508
18.32513	48774
18.33327	49450
18.34138	45878
18.34950	46794
18.35763	46876
18.36575	45234
18.37388	48497
18.38200	48138
18.39012	50431
18.39825	43552
18.40637	46897
18.41448	45589
18.42262	44650
18.43073	45558
18.43887	48027
18.44698	44380
18.45510	46694
18.46323	43082
18.47135	49141
18.47948	43821
18.48760	40880
18.49572	44747
18.50385	40575
18.51197	43765
18.52010	44242
18.52822	42608
18.53633	41252
18.54447	40786
18.55258	43143
18.56070	43049
18.56883	41204
18.57695	37817
18.58508	41806
18.59320	42642
18.60132	44492
18.60945	44931
18.61757	44956
18.62570	42061
18.63382	44730
18.64193	42259
18.65007	45186
18.65818	45663
18.66630	48671
18.67443	43511
18.68255	46429
18.69068	40506
18.69880	41038
18.70692	41938
18.71505	40813
18.72317	43878
18.73130	41860
18.73942	42431
18.74753	45692
18.75567	44274
18.76378	42143
18.77192	40736
18.78003	39903
18.78815	39567
18.79628	43198
18.80440	43934
18.81252	43658
18.82065	41974
18.82877	41510
18.83690	39057
18.84502	44288
18.85313	41699
18.86127	40021
18.86938	38969
18.87752	40053
18.88563	41414
18.89375	39729
18.90188	39233
18.91000	43000
18.91812	42601
18.92625	39224
18.93437	41113
18.94250	38853
18.95062	40230
18.95873	44839
18.96687	43836
18.97498	40300
18.98312	42917
18.99123	45326
18.99935	43760
19.00748	41807
19.01560	44557
19.02373	44916
19.03185	47399
19.03997	41247
19.04810	41761
19.05622	39492
19.06433	40304
19.07247	43403
19.08058	41148
19.08872	41735
19.09683	46633
19.10495	47438
19.11308	52998
19.12120	54527
19.12933	55545
19.13745	60631
19.14557	53742
19.15370	54520
19.16182	52623
19.16995	51952
19.17807	51301
19.18618	46792
19.19432	56699
19.20243	49852
19.21055	49401
19.21868	49321
19.22680	48019
19.23493	45504
19.24305	44388
19.25117	43605
19.25930	44226
19.26742	46984
19.27555	44979
19.28367	48538
19.29178	52995
19.29992	58451
19.30803	55639
19.31615	60488
19.32428	57477
19.33240	49254
19.34053	52878
19.34865	47588
19.35677	47383
19.36490	49124
19.37302	48969
19.38115	48065
19.38927	44292
19.39738	50421
19.40552	45318
19.41363	45928
19.42177	42616
19.42988	45003
19.43800	44320
19.44613	43006
19.45425	47485
19.46237	50231
19.47050	52701
19.47862	61365
19.48675	70371
19.49487	89360
19.50298	114104
19.51112	141416
19.51923	156686
19.52737	173736
19.53548	164060
19.54360	127972
19.55173	109945
19.55985	91320
19.56798	78119
19.57610	71423
19.58422	74288
19.59235	72380
19.60047	74726
19.60858	78200
19.61672	75620
19.62483	83022
19.63297	89515
19.64108	109458
19.64920	140282
19.65733	194147
19.66545	263341
19.67358	323667
19.68170	356364
19.68982	352562
19.69795	302307
19.70607	245455
19.71418	196350
19.72232	166400
19.73043	151163
19.73857	132956
19.74668	113897
19.75480	109775
19.76293	102195
19.77105	91225
19.77918	86232
19.78730	80000
19.79542	76831
19.80355	77459
19.81167	79937
19.81980	80472
19.82792	78746
19.83603	74344
19.84417	72428
19.85228	69851
19.86040	73977
19.86853	74674
19.87665	78545
19.88478	87098
19.89290	91204
19.90102	116780
19.90915	124824
19.91727	147707
19.92540	161485
19.93352	171043
19.94163	166592
19.94977	158084
19.95788	153428
19.96600	133377
19.97413	131540
19.98225	126005
19.99038	126827
19.99850	128938
20.00662	113781
20.01475	111764
20.02287	114232
20.03100	105374
20.03912	100515
20.04723	100734
20.05537	93611
20.06348	86003
20.07162	82199
20.07973	74341
20.08785	75756
20.09598	74897
20.10410	74492
20.11222	72078
20.12035	68080
20.12847	69198
20.13660	67188
20.14472	67326
20.15283	69798
20.16097	69546
20.16908	65330
20.17722	64804
20.18533	67253
20.19345	64092
20.20158	68285
20.20970	67610
20.21783	65438
20.22595	71487
20.23407	71952
20.24220	71731
20.25032	87233
20.25843	116517
20.26657	162340
20.27468	212637
20.28282	265087
20.29093	317270
20.29905	310883
20.30718	271125
20.31530	227169
20.32343	189321
20.33155	149847
20.33967	123915
20.34780	108146
20.35592	106020
20.36403	98501
20.37217	98307
20.38028	99260
20.38842	95922
20.39653	95297
20.40465	92204
20.41278	91253
20.42090	96919
20.42903	111675
20.43715	128638
20.44527	139201
20.45340	144669
20.46152	149195
20.46965	138886
20.47777	125495
20.48588	108104
20.49402	101564
20.50213	92767
20.51025	93320
20.51838	83710
20.52650	80929
20.53463	84756
20.54275	72146
20.55087	72452
20.55900	70871
20.56712	69904
20.57525	73737
20.58337	70320
20.59148	71964
20.59962	73950
20.60773	74254
20.61587	71270
20.62398	71693
20.63210	66515
20.64023	65482
20.64835	69665
20.65647	66633
20.66460	65714
20.67272	61861
20.68085	59190
20.68897	61947
20.69708	63614
20.70522	63456
20.71333	59730
20.72147	63446
20.72958	59515
20.73770	60936
20.74583	59271
20.75395	58890
20.76207	56835
20.77020	57651
20.77832	55658
20.78645	55634
20.79457	57274
20.80268	51830
20.81082	51832
20.81893	57075
20.82707	53717
20.83518	54910
20.84330	57641
20.85143	54695
20.85955	52598
20.86768	54769
20.87580	54104
20.88392	50768
20.89205	52542
20.90017	50602
20.90828	50181
20.91642	54681
20.92453	49394
20.93267	51048
20.94078	46970
20.94890	50222
20.95703	47878
20.96515	48863
20.97328	48246
20.98140	50202
20.98952	48549
20.99765	47554
21.00577	49681
21.01390	50751
21.02202	56331
21.03013	64394
21.03827	68361
21.04638	66001
21.05450	65324
21.06263	56102
21.07075	51092
21.07888	50396
21.08700	56087
21.09512	51328
21.10325	48085
21.11137	47582
21.11950	46850
21.12762	43285
21.13573	46019
21.14387	46659
21.15198	47321
21.16010	52064
21.16823	49015
21.17635	54630
21.18448	52419
21.19260	55231
21.20072	50123
21.20885	49794
21.21697	49639
21.22510	45316
21.23322	48183
21.24133	47920
21.24947	52583
21.25758	44903
21.26572	48437
21.27383	49208
21.28195	46711
21.29008	49055
21.29820	53300
21.30632	54300
21.31445	57220
21.32257	58461
21.33070	61854
21.33882	57663
21.34693	52653
21.35507	52790
21.36318	53810
21.37132	44346
21.37943	46050
21.38755	45888
21.39568	49042
21.40380	45723
21.41192	45880
21.42005	45511
21.42817	45873
21.43630	45480
21.44442	44375
21.45253	48402
21.46067	44900
21.46878	46268
21.47692	47073
21.48503	45306
21.49315	43927
21.50128	42990
21.50940	41337
21.51753	42650
21.52565	43028
21.53377	46679
21.54190	42696
21.55002	46959
21.55813	47132
21.56627	43381
21.57438	42801
21.58252	44816
21.59063	41957
21.59875	38911
21.60688	45411
21.61500	56470
21.62313	64026
21.63125	86022
21.63937	93807
21.64750	107710
21.65562	106856
21.66375	94415
21.67187	88284
21.67998	77669
21.68812	70284
21.69623	60403
21.70435	59951
21.71248	54783
21.72060	53636
21.72873	56732
21.73685	55526
21.74497	56328
21.75310	54230
21.76122	52110
21.76935	50340
21.77747	53171
21.78558	51536
21.79372	55902
21.80183	58134
21.80995	57138
21.81808	62715
21.82620	77246
21.83433	83466
21.84245	97279
21.85057	98870
21.85870	95864
21.86682	85174
21.87495	71341
21.88307	65911
21.89118	58089
21.89932	53930
21.90743	56314
21.91557	53160
21.92368	56816
21.93180	54668
21.93993	54099
21.94805	51696
21.95617	55687
21.96430	44832
21.97242	46673
21.98055	45305
21.98867	45180
21.99678	45603
22.00492	44202
22.01303	44827
22.02117	40380
22.02928	42774
22.03740	44944
22.04553	40949
22.05365	42675
22.06178	40019
22.06990	42750
22.07802	45986
22.08615	46324
22.09427	46749
22.10238	41740
22.11052	44549
22.11863	45041
22.12677	39826
22.13488	43627
22.14300	42778
22.15113	45980
22.15925	45843
22.16738	43094
22.17550	43866
22.18362	45605
22.19175	41749
22.19987	40432
22.20798	43110
22.21612	51524
22.22423	51227
22.23237	53861
22.24048	53237
22.24860	48724
22.25673	49086
22.26485	46890
22.27298	47418
22.28110	44477
22.28922	43652
22.29735	45799
22.30547	48147
22.31360	47959
22.32172	44330
22.32983	43628
22.33797	41182
22.34608	42738
22.35420	41281
22.36233	40268
22.37045	42121
22.37858	41316
22.38670	38469
22.39482	43780
22.40295	40250
22.41107	34804
22.41920	39806
22.42732	42173
22.43543	41780
22.44357	44096
22.45168	38537
22.45980	43093
22.46793	43119
22.47605	45263
22.48418	44318
22.49230	44048
22.50042	42664
22.50855	38551
22.51667	35977
22.52480	36816
22.53292	42053
22.54103	42562
22.54917	36890
22.55728	41879
22.56542	38082
22.57353	36519
22.58165	37099
22.58978	36142
22.59790	35030
22.60602	37506
22.61415	37694
22.62227	38689
22.63040	36901
22.63852	36618
22.64663	40070
22.65477	35852
22.66288	34819
22.67102	36515
22.67913	41217
22.68725	35436
22.69538	36567
22.70350	39568
22.71163	40828
22.71975	38640
22.72787	37987
22.73600	36837
22.74412	37071
22.75223	36459
22.76037	39431
22.76848	35028
22.77662	36015
22.78473	38353
22.79285	37630
22.80098	35017
22.80910	35403
22.81723	36449
22.82535	37995
22.83347	38715
22.84160	37995
22.84972	40043
22.85785	38240
22.86597	41413
22.87408	39631
22.88222	45448
22.89033	44327
22.89845	42893
22.90658	50229
22.91470	53403
22.92283	64221
22.93095	74181
22.93907	80523
22.94720	85598
22.95532	81801
22.96345	85875
22.97157	77334
22.97968	71484
22.98782	68117
22.99593	63674
23.00405	58215
23.01218	57103
23.02030	50262
23.02843	42928
23.03655	44981
23.04467	38969
23.05280	38754
23.06092	41175
23.06905	40007
23.07717	39497
23.08528	42631
23.09342	40220
23.10153	37491
23.10967	37333
23.11778	39470
23.12590	38263
23.13403	37754
23.14215	34387
23.15027	35323
23.15840	34849
23.16652	35640
23.17465	35637
23.18277	38692
23.19088	39108
23.19902	40560
23.20713	37450
23.21527	36231
23.22338	36792
23.23150	33570
23.23963	34600
23.24775	36331
23.25587	36545
23.26400	36252
23.27212	32390
23.28025	38296
23.28837	32639
23.29648	34303
23.30462	33331
23.31273	35400
23.32087	33755
23.32898	35608
23.33710	36708
23.34523	35648
23.35335	35388
23.36148	33729
23.36960	33940
23.37772	36141
23.38585	36924
23.39397	39244
23.40208	36157
23.41022	36728
23.41833	36954
23.42647	36127
23.43458	41524
23.44270	38120
23.45083	38814
23.45895	36644
23.46708	37721
23.47520	38003
23.48332	39167
23.49145	36769
23.49957	35868
23.50770	38447
23.51582	35105
23.52393	37667
23.53207	35392
23.54018	30176
23.54830	37324
23.55643	35962
23.56455	35919
23.57268	40370
23.58080	34881
23.58892	39394
23.59705	43583
23.60517	40116
23.61330	42884
23.62142	41927
23.62953	47294
23.63767	48070
23.64578	46791
23.65390	44892
23.66203	46790
23.67015	47389
23.67828	45018
23.68640	49834
23.69452	45506
23.70265	45539
23.71077	43726
23.71890	42307
23.72702	48756
23.73513	51986
23.74327	75530
23.75138	168982
23.75952	403517
23.76763	959783
23.77575	2029146
23.78388	3350080
23.79200	4177032
23.80012	4390335
23.80825	3963793
23.81637	3207715
23.82450	2371028
23.83262	1747631
23.84073	1285154
23.84887	971016
23.85698	755895
23.86512	676645
23.87323	682491
23.88135	787107
23.88948	917283
23.89760	1004885
23.90573	1051346
23.91385	938921
23.92197	800519
23.93010	652122
23.93822	517980
23.94633	454418
23.95447	369781
23.96258	317779
23.97072	277058
23.97883	253003
23.98695	228169
23.99508	222072
24.00320	205546
24.01133	187011
24.01945	180115
24.02757	169076
24.03570	166722
24.04382	162947
24.05193	148517
24.06007	153591
24.06818	134490
24.07632	136790
24.08443	129911
24.09255	124109
24.10068	118758
24.10880	122506
24.11693	116513
24.12505	124983
24.13317	123972
24.14130	124545
24.14942	123052
24.15755	123631
24.16567	122421
24.17378	112327
24.18192	106598
24.19003	103627
24.19815	101987
24.20628	115744
24.21440	108193
24.22253	117534
24.23065	111262
24.23877	106992
24.24690	103658
24.25502	98253
24.26315	100563
24.27127	89062
24.27938	86779
24.28752	85299
24.29563	80221
24.30375	81521
24.31188	82983
24.32000	82685
24.32813	78351
24.33625	79072
24.34437	75995
24.35250	78500
24.36062	74762
24.36875	84721
24.37687	109141
24.38498	171918
24.39312	294226
24.40123	464816
24.40937	657695
24.41748	801941
24.42560	815715
24.43373	740169
24.44185	621427
24.44997	491086
24.45810	382084
24.46622	305172
24.47435	256647
24.48247	203184
24.49058	183612
24.49872	182072
24.50683	170817
24.51497	171493
24.52308	167622
24.53120	155681
24.53933	152282
24.54745	139619
24.55558	122961
24.56370	123173
24.57182	114350
24.57995	107581
24.58807	96404
24.59618	98062
24.60432	92093
24.61243	95543
24.62057	93118
24.62868	91478
24.63680	82575
24.64493	89369
24.65305	86270
24.66118	91735
24.66930	97055
24.67742	83087
24.68555	84314
24.69367	83458
24.70178	75567
24.70992	74331
24.71803	72254
24.72617	69455
24.73428	67570
24.74240	66877
24.75053	63193
24.75865	67505
24.76678	63539
24.77490	63080
24.78302	66135
24.79115	65619
24.79927	63542
24.80740	61606
24.81552	64244
24.82363	58092
24.83177	58495
24.83988	62183
24.84800	58870
24.85613	58715
24.86425	61035
24.87238	61657
24.88050	62869
24.88862	60829
24.89675	59892
24.90487	60003
24.91300	61266
24.92112	54556
24.92923	56569
24.93737	60521
24.94548	55113
24.95362	52518
24.96173	60056
24.96985	51463
24.97798	50670
24.98610	53304
24.99422	48950
25.00235	50224
25.01047	50578
25.01860	50994
25.02672	51456
25.03483	48459
25.04297	52245
25.05108	53260
25.05922	45533
25.06733	47703
25.07545	48336
25.08358	50432
25.09170	48692
25.09982	50831
25.10795	55683
25.11607	55365
25.12420	59429
25.13232	68856
25.14043	83832
25.14857	95924
25.15668	107640
25.16482	111490
25.17293	112254
25.18105	101882
25.18918	93043
25.19730	84531
25.20543	71243
25.21355	66744
25.22167	62754
25.22980	61000
25.23792	60764
25.24603	65903
25.25417	56536
25.26228	59136
25.27042	62175
25.27853	58781
25.28665	67701
25.29478	63277
25.30290	67111
25.31103	67547
25.31915	72820
25.32727	74582
25.33540	70554
25.34352	63446
25.35165	58331
25.35977	60077
25.36788	57751
25.37602	53860
25.38413	50935
25.39225	53243
25.40038	49900
25.40850	50884
25.41663	46559
25.42475	49111
25.43287	52019
25.44100	48095
25.44912	52709
25.45725	50705
25.46537	50523
25.47348	59583
25.48162	61154
25.48973	58508
25.49785	63555
25.50598	60267
25.51410	53708
25.52223	51269
25.53035	49618
25.53847	47383
25.54660	49459
25.55472	45364
25.56285	50199
25.57097	47140
25.57908	46836
25.58722	45402
25.59533	44811
25.60347	46960
25.61158	46280
25.61970	44285
25.62783	43218
25.63595	44421
25.64407	43297
25.65220	44026
25.66032	42229
25.66845	41615
25.67657	42329
25.68468	41853
25.69282	46314
25.70093	42770
25.70907	42882
25.71718	40974
25.72530	39387
25.73343	44216
25.74155	39868
25.74967	43309
25.75780	41121
25.76592	41735
25.77405	42832
25.78217	41505
25.79028	40194
25.79842	43077
25.80653	45767
25.81467	42393
25.82278	45899
25.83090	47236
25.83903	43158
25.84715	42070
25.85528	44086
25.86340	49132
25.87152	42945
25.87965	40625
25.88777	43104
25.89588	40785
25.90402	41918
25.91213	46039
25.92027	43616
25.92838	37785
25.93650	38543
25.94463	39287
25.95275	40157
25.96088	41818
25.96900	40167
25.97712	45358
25.98525	40551
25.99337	39377
26.00150	39702
26.00962	40654
26.01773	40237
26.02587	38483
26.03398	37274
26.04210	35547
26.05023	40529
26.05835	44474
26.06648	42568
26.07460	39511
26.08272	39173
26.09085	38872
26.09897	37713
26.10710	44886
26.11522	43964
26.12333	44119
26.13147	48935
26.13958	45563
26.14770	53336
26.15583	52060
26.16395	56514
26.17208	50583
26.18020	52194
26.18832	50702
26.19645	45605
26.20457	44805
26.21270	45981
26.22082	45860
26.22893	46397
26.23707	40683
26.24518	39838
26.25332	36688
26.26143	42389
26.26955	44758
26.27768	46563
26.28580	46386
26.29392	44304
26.30205	39355
26.31017	38854
26.31830	39524
26.32642	40821
26.33453	43066
26.34267	38422
26.35078	37519
26.35892	39450
26.36703	41428
26.37515	36979
26.38328	44147
26.39140	44421
26.39953	47811
26.40765	46127
26.41577	50685
26.42390	52941
26.43202	52419
26.44013	44987
26.44827	47333
26.45638	45072
26.46452	40588
26.47263	42275
26.48075	38559
26.48888	44669
26.49700	42084
26.50513	39120
26.51325	39127
26.52137	40301
26.52950	40445
26.53762	37577
26.54573	39312
26.55387	40944
26.56198	40263
26.57012	38534
26.57823	35475
26.58635	38340
26.59448	38201
26.60260	39208
26.61073	36523
26.61885	37671
26.62697	44340
26.63510	39785
26.64322	35635
26.65135	38499
26.65947	37331
26.66758	36727
26.67572	37476
26.68383	35812
26.69195	39524
26.70008	39166
26.70820	38761
26.71633	39315
26.72445	37842
26.73257	38426
26.74070	36128
26.74882	36763
26.75695	36662
26.76507	38740
26.77318	40677
26.78132	41155
26.78943	41523
26.79755	41681
26.80568	44401
26.81380	38071
26.82193	41519
26.83005	37860
26.83817	40724
26.84630	36151
26.85442	42542
26.86255	44957
26.87067	47768
26.87878	44911
26.88692	46088
26.89503	43984
26.90317	41635
26.91128	42801
26.91940	43121
26.92753	46048
26.93565	41285
26.94377	43504
26.95190	47369
26.96002	60625
26.96815	86002
26.97627	163934
26.98438	299003
26.99252	543712
27.00063	963419
27.00877	1560508
27.01688	2267232
27.02500	2918693
27.03313	3115994
27.04125	3024351
27.04938	2582437
27.05750	2157219
27.06562	1782622
27.07375	1442268
27.08187	1122858
27.08998	870598
27.09812	687446
27.10623	563258
27.11437	469936
27.12248	391010
27.13060	356063
27.13873	308682
27.14685	276727
27.15498	254565
27.16310	233866
27.17122	222400
27.17935	207476
27.18747	201598
27.19558	200569
27.20372	180557
27.21183	179765
27.21997	187411
27.22808	197562
27.23620	237519
27.24433	284572
27.25245	341008
27.26058	378203
27.26870	410011
27.27682	418215
27.28495	403285
27.29307	393734
27.30120	340163
27.30932	286125
27.31743	256654
27.32557	228019
27.33368	209055
27.34180	183016
27.34993	167306
27.35805	150634
27.36618	146520
27.37430	140487
27.38242	130111
27.39055	123622
27.39867	109240
27.40680	113807
27.41492	108508
27.42303	106618
27.43117	102900
27.43928	102081
27.44742	103020
27.45553	95481
27.46365	94197
27.47178	89127
27.47990	86237
27.48802	85804
27.49615	88085
27.50427	88789
27.51240	85299
27.52052	89573
27.52863	86764
27.53677	90153
27.54488	80834
27.55302	87681
27.56113	80694
27.56925	82903
27.57738	75120
27.58550	75087
27.59362	73228
27.60175	75004
27.60987	74440
27.61800	82024
27.62612	79010
27.63423	73012
27.64237	73523
27.65048	70638
27.65862	69402
27.66673	69359
27.67485	67631
27.68298	66631
27.69110	65836
27.69923	63382
27.70735	68275
27.71547	62223
27.72360	65985
27.73172	63924
27.73983	62054
27.74797	63905
27.75608	63619
27.76422	63192
27.77233	60594
27.78045	63610
27.78858	56234
27.79670	59004
27.80483	60741
27.81295	57168
27.82107	55573
27.82920	60324
27.83732	59439
27.84543	62752
27.85357	67497
27.86168	62134
27.86982	57828
27.87793	54802
27.88605	58186
27.89418	58374
27.90230	56450
27.91043	53815
27.91855	53795
27.92667	57219
27.93480	50826
27.94292	51507
27.95105	49387
27.95917	55191
27.96728	57210
27.97542	48020
27.98353	50202
27.99165	50341
27.99978	51337
28.00790	53485
28.01603	49844
28.02415	51843
28.03227	50060
28.04040	49439
28.04852	49279
28.05665	52046
28.06477	51778
28.07288	52675
28.08102	50553
28.08913	50580
28.09727	51993
28.10538	49050
28.11350	46812
28.12163	50773
28.12975	49575
28.13787	47108
28.14600	46011
28.15412	44259
28.16225	45969
28.17037	46121
28.17848	49137
28.18662	50816
28.19473	57714
28.20287	62151
28.21098	67509
28.21910	68587
28.22723	67277
28.23535	61912
28.24348	61162
28.25160	57734
28.25972	52014
28.26785	54372
28.27597	58225
28.28408	64559
28.29222	73503
28.30033	103616
28.30847	150933
28.31658	222279
28.32470	328415
28.33283	460487
28.34095	609662
28.34908	751522
28.35720	912278
28.36532	1038789
28.37345	1127323
28.38157	1150890
28.38968	1156778
28.39782	1134681
28.40593	1049618
28.41407	956311
28.42218	852397
28.43030	748946
28.43843	651334
28.44655	585360
28.45468	511006
28.46280	454101
28.47092	415307
28.47905	375696
28.48717	345195
28.49530	325147
28.50342	322094
28.51153	312626
28.51967	312888
28.52778	306404
28.53590	299666
28.54403	276618
28.55215	274934
28.56028	264771
28.56840	257703
28.57652	251760
28.58465	231345
28.59277	223330
28.60090	210277
28.60902	204031
28.61713	189792
28.62527	182231
28.63338	182439
28.64150	170160
28.64963	167509
28.65775	157909
28.66588	159239
28.67400	145680
28.68212	143773
28.69025	140037
28.69837	135542
28.70650	120583
28.71462	122342
28.72273	117405
28.73087	114449
28.73898	107718
28.74712	116373
28.75523	118163
28.76335	118073
28.77148	126041
28.77960	121087
28.78772	128925
28.79585	122267
28.80397	109868
28.81210	104866
28.82022	95636
28.82833	95218
28.83647	95025
28.84458	91866
28.85272	88849
28.86083	89786
28.86895	84380
28.87708	84770
28.88520	83134
28.89333	84731
28.90145	80383
28.90957	84236
28.91770	78842
28.92582	76515
28.93393	79171
28.94207	80340
28.95018	82605
28.95832	78912
28.96643	81434
28.97455	81020
28.98268	80991
28.99080	75261
28.99893	75671
29.00705	72958
29.01517	71809
29.02330	73052
29.03142	76020
29.03953	73336
29.04767	72318
29.05578	72680
29.06392	68233
29.07203	63010
29.08015	68091
29.08828	71315
29.09640	68959
29.10453	68007
29.11265	66590
29.12077	61784
29.12890	67782
29.13702	65583
29.14515	60217
29.15327	66455
29.16138	64439
29.16952	68997
29.17763	68626
29.18575	61674
29.19388	66543
29.20200	66559
29.21013	67598
29.21825	62989
29.22637	65442
29.23450	65111
29.24262	64067
29.25075	63923
29.25887	69556
29.26698	74186
29.27512	73779
29.28323	74977
29.29137	70357
29.29948	67879
29.30760	67304
29.31573	68770
29.32385	63875
29.33197	61540
29.34010	62377
29.34822	64873
29.35635	61440
29.36447	57001
29.37258	61405
29.38072	62601
29.38883	59600
29.39697	59665
29.40508	57347
29.41320	59646
29.42133	62050
29.42945	57714
29.43757	62359
29.44570	56546
29.45382	63518
29.46195	57163
29.47007	65292
29.47818	63254
29.48632	64153
29.49443	70679
29.50257	66052
29.51068	72208
29.51880	67841
29.52693	66716
29.53505	61619
29.54318	60628
29.55130	61899
29.55942	59877
29.56755	60813
29.57567	56938
29.58378	54446
29.59192	52206
29.60003	55333
29.60817	54887
29.61628	58443
29.62440	53242
29.63253	54688
29.64065	55899
29.64878	52507
29.65690	54505
29.66502	51514
29.67315	48108
29.68127	50847
29.68938	51379
29.69752	45247
29.70563	50646
29.71377	51004
29.72188	49015
29.73000	46279
29.73813	53628
29.74625	44500
29.75438	44066
29.76250	45598
29.77062	46293
29.77875	50576
29.78687	47745
29.79500	47054
29.80312	45932
29.81123	48602
29.81937	45489
29.82748	47815
29.83560	50847
29.84373	43516
29.85185	49127
29.85998	45531
29.86810	44248
29.87622	49146
29.88435	50076
29.89247	58058
29.90060	54306
29.90872	60382
29.91683	58173
29.92497	63398
29.93308	68245
29.94122	81601
29.94933	99971
29.95745	118373
29.96558	145193
29.97370	179016
29.98182	214244
29.98995	260786
29.99807	310183
30.00620	332402
30.01432	366804
30.02243	404863
30.03057	425350
30.03868	439335
30.04682	461254
30.05493	444758
30.06305	441528
30.07118	419943
30.07930	421984
30.08742	399337
30.09555	407751
30.10367	359023
30.11180	346815
30.11992	334820
30.12803	313074
30.13617	297144
30.14428	275788
30.15242	253294
30.16053	233961
30.16865	236150
30.17678	221035
30.18490	203105
30.19303	192466
30.20115	184540
30.20927	182056
30.21740	164846
30.22552	152203
30.23363	145983
30.24177	134612
30.24988	127165
30.25802	125881
30.26613	123920
30.27425	118344
30.28238	111418
30.29050	105101
30.29863	99198
30.30675	96687
30.31487	97679
30.32300	100740
30.33112	87818
30.33925	87467
30.34737	87913
30.35548	82793
30.36362	82175
30.37173	81426
30.37985	83594
30.38798	77305
30.39610	75703
30.40423	71868
30.41235	71567
30.42047	72384
30.42860	74343
30.43672	73897
30.44485	67650
30.45297	69462
30.46108	72262
30.46922	68627
30.47733	68987
30.48545	66391
30.49358	63477
30.50170	62800
30.50983	68328
30.51795	65600
30.52607	63782
30.53420	59937
30.54232	57981
30.55045	63584
30.55857	60013
30.56668	60160
30.57482	63298
30.58293	54800
30.59107	62195
30.59918	61183
30.60730	64219
30.61543	60574
30.62355	58524
30.63167	57889
30.63980	56474
30.64792	52669
30.65605	56345
30.66417	53990
30.67228	58918
30.68042	50361
30.68853	58646
30.69667	52547
30.70478	54541
30.71290	54979
30.72103	49848
30.72915	50499
30.73728	56637
30.74540	54539
30.75352	50545
30.76165	52615
30.76977	55869
30.77788	53867
30.78602	54299
30.79413	62213
30.80227	65073
30.81038	64375
30.81850	63968
30.82663	76212
30.83475	72817
30.84288	64860
30.85100	60336
30.85912	54858
30.86725	58277
30.87537	50756
30.88348	53408
30.89162	53547
30.89973	52790
30.90787	50606
30.91598	49606
30.92410	48818
30.93223	49890
30.94035	50255
30.94848	46090
30.95660	49653
30.96472	53208
30.97285	52512
30.98097	54184
30.98910	46069
30.99722	48544
31.00533	52822
31.01347	47424
31.02158	49475
31.02970	52750
31.03783	47364
31.04595	50082
31.05408	51459
31.06220	53314
31.07032	54750
31.07845	55570
31.08657	58682
31.09470	58353
31.10282	64041
31.11093	67518
31.11907	67788
31.12718	67333
31.13530	59441
31.14343	59430
31.15155	59610
31.15968	52498
31.16780	53279
31.17592	59103
31.18405	62286
31.19217	70308
31.20030	72734
31.20842	89189
31.21653	99933
31.22467	112768
31.23278	110704
31.24092	103752
31.24903	97373
31.25715	86445
31.26528	75874
31.27340	68263
31.28152	62787
31.28965	56602
31.29777	58415
31.30590	51376
31.31402	53287
31.32213	61212
31.33027	48608
31.33838	49327
31.34652	52008
31.35463	51534
31.36275	58168
31.37088	59951
31.37900	58329
31.38713	54719
31.39525	55206
31.40337	54352
31.41150	55255
31.41962	57348
31.42773	57697
31.43587	57304
31.44398	53366
31.45212	54961
31.46023	53742
31.46835	52762
31.47648	48700
31.48460	52953
31.49273	53153
31.50085	47332
31.50897	50155
31.51710	49113
31.52522	48033
31.53333	54965
31.54147	47077
31.54958	48168
31.55772	47268
31.56583	46650
31.57395	44717
31.58208	46810
31.59020	44502
31.59833	45708
31.60645	44234
31.61457	48132
31.62270	50471
31.63082	46636
31.63895	49269
31.64707	47139
31.65518	51104
31.66332	45115
31.67143	46509
31.67955	45648
31.68768	47859
31.69580	49815
31.70393	43955
31.71205	42779
31.72017	43764
31.72830	43232
31.73642	48173
31.74455	44468
31.75267	40987
31.76078	42513
31.76892	43624
31.77703	44607
31.78517	43553
31.79328	49009
31.80140	45893
31.80953	48720
31.81765	49800
31.82577	47783
31.83390	43705
31.84202	45189
31.85015	46549
31.85827	51331
31.86638	50380
31.87452	55347
31.88263	59689
31.89077	60304
31.89888	73950
31.90700	81510
31.91513	107427
31.92325	125128
31.93137	148170
31.93950	169619
31.94762	195224
31.95575	223724
31.96387	253635
31.97198	262751
31.98012	261144
31.98823	278734
31.99637	277138
32.00448	275864
32.01260	269394
32.02073	250011
32.02885	248443
32.03698	233123
32.04510	213582
32.05322	198910
32.06135	185052
32.06947	182669
32.07758	177832
32.08572	174146
32.09383	153353
32.10197	154181
32.11008	136439
32.11820	128236
32.12633	117155
32.13445	114348
32.14258	103556
32.15070	97687
32.15882	97042
32.16695	94846
32.17507	87914
32.18318	86062
32.19132	82427
32.19943	83188
32.20757	81433
32.21568	80124
32.22380	74795
32.23193	81202
32.24005	80969
32.24818	74152
32.25630	72907
32.26442	68382
32.27255	69106
32.28067	70410
32.28880	71649
32.29692	70143
32.30503	66203
32.31317	66730
32.32128	59992
32.32940	61647
32.33753	62444
32.34565	60623
32.35378	66042
32.36190	56082
32.37002	62067
32.37815	60149
32.38627	57175
32.39440	58172
32.40252	56926
32.41063	53520
32.41877	61125
32.42688	56864
32.43502	60680
32.44313	55239
32.45125	52801
32.45938	56264
32.46750	52822
32.47562	56511
32.48375	58237
32.49187	56786
32.50000	53259
32.50812	56243
32.51623	52461
32.52437	50746
32.53248	50825
32.54062	54464
32.54873	56501
32.55685	54048
32.56498	50415
32.57310	53931
32.58123	52453
32.58935	50620
32.59747	52716
32.60560	52143
32.61372	53575
32.62183	47727
32.62997	52164
32.63808	50352
32.64622	55600
32.65433	55541
32.66245	56597
32.67058	70583
32.67870	75412
32.68683	69741
32.69495	69498
32.70307	67594
32.71120	58311
32.71932	58426
32.72743	56934
32.73557	60903
32.74368	56070
32.75182	53873
32.75993	53198
32.76805	51608
32.77618	53005
32.78430	48643
32.79243	49526
32.80055	49541
32.80867	51642
32.81680	52143
32.82492	48858
32.83305	48550
32.84117	51418
32.84928	48758
32.85742	50054
32.86553	44101
32.87365	47146
32.88178	46214
32.88990	48814
32.89803	48730
32.90615	46647
32.91427	47683
32.92240	47576
32.93052	48264
32.93865	48078
32.94677	47475
32.95488	47901
32.96302	50254
32.97113	45028
32.97925	44163
32.98738	46890
32.99550	51212
33.00363	48803
33.01175	52549
33.01987	54323
33.02800	47237
33.03612	47874
33.04425	50215
33.05237	47080
33.06048	51978
33.06862	48598
33.07673	47229
33.08487	42804
33.09298	49061
33.10110	48336
33.10923	53955
33.11735	57080
33.12547	61657
33.13360	64454
33.14172	59264
33.14985	58872
33.15797	54779
33.16608	51278
33.17422	48649
33.18233	53911
33.19047	51649
33.19858	50379
33.20670	54377
33.21483	51888
33.22295	51632
33.23108	50489
33.23920	50609
33.24732	50238
33.25545	50303
33.26357	46249
33.27168	48489
33.27982	50085
33.28793	48348
33.29607	49646
33.30418	47641
33.31230	50133
33.32043	49321
33.32855	48044
33.33668	44752
33.34480	46358
33.35292	46128
33.36105	49836
33.36917	49092
33.37728	46352
33.38542	45137
33.39353	47565
33.40167	42867
33.40978	44009
33.41790	46927
33.42603	46548
33.43415	45923
33.44228	48639
33.45040	45678
33.45852	45297
33.46665	49186
33.47477	48676
33.48290	46702
33.49102	45615
33.49913	42118
33.50727	47122
33.51538	47684
33.52350	45443
33.53163	43235
33.53975	46095
33.54788	45546
33.55600	45662
33.56412	48068
33.57225	44828
33.58037	43017
33.58850	47029
33.59662	47288
33.60473	44905
33.61287	45633
33.62098	45613
33.62912	42726
33.63723	44207
33.64535	41807
33.65348	48785
33.66160	45230
33.66972	40323
33.67785	41668
33.68597	40255
33.69410	43657
33.70222	48479
33.71033	44554
33.71847	43605
33.72658	44324
33.73472	46229
33.74283	41695
33.75095	43103
33.75908	44474
33.76720	42879
33.77532	43098
33.78345	45639
33.79157	41595
33.79970	41312
33.80782	41975
33.81593	43319
33.82407	41271
33.83218	47714
33.84032	46978
33.84843	48461
33.85655	45867
33.86468	47760
33.87280	47605
33.88093	52620
33.88905	50135
33.89717	48126
33.90530	43473
33.91342	44933
33.92153	50958
33.92967	45610
33.93778	45082
33.94592	45583
33.95403	42900
33.96215	48385
33.97028	42578
33.97840	43774
33.98653	44268
33.99465	42730
34.00277	46292
34.01090	42454
34.01902	44347
34.02713	46497
34.03527	46569
34.04338	47648
34.05152	45878
34.05963	43674
34.06775	43841
34.07588	41280
34.08400	41592
34.09213	46225
34.10025	44299
34.10837	46002
34.11650	42584
34.12462	42386
34.13275	40150
34.14087	41975
34.14898	46453
34.15712	45746
34.16523	43194
34.17335	46692
34.18148	43477
34.18960	42822
34.19773	45678
34.20585	43579
34.21397	46333
34.22210	42806
34.23022	41171
34.23835	47509
34.24647	44343
34.25458	41726
34.26272	44245
34.27083	45896
34.27897	46721
34.28708	48269
34.29520	47543
34.30333	45451
34.31145	40547
34.31957	42945
34.32770	45395
34.33582	46390
34.34395	45755
34.35207	46852
34.36018	43728
34.36832	46933
34.37643	43642
34.38457	44873
34.39268	44232
34.40080	44105
34.40893	46149
34.41705	46613
34.42517	48132
34.43330	45511
34.44142	44307
34.44955	43606
34.45767	46320
34.46578	43105
34.47392	43746
34.48203	44078
34.49017	47808
34.49828	48966
34.50640	65023
34.51453	83558
34.52265	102977
34.53078	131665
34.53890	164887
34.54702	201726
34.55515	228856
34.56327	248788
34.57138	240375
34.57952	233742
34.58763	216479
34.59577	187767
34.60388	177608
34.61200	159827
34.62013	144236
34.62825	135876
34.63638	126238
34.64450	115607
34.65262	103037
34.66075	102846
34.66887	93079
34.67700	94289
34.68512	79761
34.69323	87379
34.70137	82351
34.70948	77319
34.71760	75705
34.72573	77672
34.73385	77477
34.74198	73510
34.75010	73168
34.75822	73843
34.76635	67838
34.77447	70810
34.78260	69320
34.79072	64555
34.79883	63884
34.80697	63938
34.81508	65754
34.82320	62384
34.83133	62052
34.83945	61408
34.84758	61282
34.85570	67022
34.86382	60714
34.87195	61263
34.88007	61819
34.88820	61274
34.89632	58494
34.90443	57616
34.91257	55480
34.92068	59063
34.92882	59256
34.93693	61352
34.94505	63030
34.95318	61180
34.96130	65151
34.96942	66921
34.97755	61676
34.98567	62244
34.99380	65538
35.00192	59186
35.01003	59780
35.01817	53891
35.02628	57095
35.03442	60772
35.04253	60973
35.05065	54258
35.05878	57696
35.06690	55561
35.07502	57836
35.08315	54931
35.09127	57885
35.09940	55377
35.10752	60162
35.11563	53434
35.12377	51847
35.13188	57475
35.14002	56249
35.14813	56147
35.15625	63291
35.16438	63781
35.17250	61166
35.18063	64045
35.18875	61641
35.19687	54194
35.20500	60123
35.21312	55955
35.22123	60478
35.22937	54401
35.23748	53252
35.24562	55384
35.25373	53849
35.26185	55830
35.26998	57213
35.27810	55192
35.28623	53822
35.29435	55782
35.30247	56509
35.31060	54824
35.31872	51563
35.32685	55450
35.33497	53177
35.34308	54077
35.35122	55284
35.35933	53976
35.36745	56031
35.37558	50713
35.38370	53205
35.39183	53603
35.39995	53613
35.40807	54535
35.41620	54404
35.42432	51632
35.43245	55995
35.44057	53142
35.44868	60893
35.45682	58042
35.46493	59161
35.47305	60852
35.48118	58428
35.48930	58194
35.49743	54183
35.50555	54007
35.51367	53835
35.52180	52879
35.52992	56088
35.53805	56157
35.54617	54769
35.55428	53430
35.56242	56208
35.57053	56544
35.57867	54539
35.58678	58037
35.59490	54783
35.60303	56216
35.61115	55411
35.61927	53486
35.62740	56738
35.63552	54349
35.64365	56891
35.65177	51907
35.65988	55687
35.66802	56307
35.67613	57327
35.68427	65719
35.69238	60879
35.70050	62403
35.70863	58982
35.71675	62010
35.72488	59146
35.73300	55988
35.74112	55174
35.74925	55949
35.75737	60701
35.76548	57726
35.77362	53454
35.78173	58093
35.78987	55723
35.79798	55383
35.80610	56639
35.81423	54406
35.82235	56289
35.83048	52268
35.83860	55199
35.84672	57318
35.85485	56249
35.86297	55942
35.87108	52567
35.87922	53241
35.88733	54041
35.89547	51361
35.90358	46571
35.91170	52644
35.91983	50573
35.92795	51805
35.93608	55710
35.94420	55774
35.95232	46522
35.96045	51491
35.96857	54587
35.97670	52907
35.98482	59189
35.99293	52625
36.00107	56449
36.00918	58060
36.01730	58286
36.02543	61359
36.03355	56908
36.04168	58533
36.04980	59899
36.05792	59833
36.06605	57501
36.07417	55915
36.08230	53129
36.09042	59829
36.09853	56918
36.10667	55833
36.11478	57994
36.12292	57493
36.13103	54822
36.13915	51901
36.14728	55553
36.15540	53893
36.16352	53381
36.17165	58287
36.17977	54038
36.18790	55758
36.19602	58348
36.20413	53535
36.21227	49591
36.22038	50190
36.22852	53520
36.23663	54947
36.24475	53675
36.25288	52796
36.26100	51966
36.26912	50598
36.27725	53640
36.28537	51071
36.29350	57456
36.30162	62766
36.30973	65187
36.31787	69093
36.32598	73686
36.33412	74726
36.34223	70068
36.35035	59464
36.35848	60909
36.36660	59430
36.37473	59428
36.38285	60873
36.39097	56343
36.39910	55949
36.40722	61494
36.41533	55013
36.42347	57172
36.43158	56436
36.43972	56866
36.44783	58251
36.45595	56821
36.46408	58496
36.47220	57281
36.48033	55481
36.48845	51454
36.49657	53476
36.50470	51986
36.51282	55001
36.52093	50549
36.52907	53545
36.53718	53536
36.54532	54540
36.55343	57219
36.56155	53203
36.56968	51060
36.57780	50352
36.58593	49587
36.59405	52587
36.60217	52203
36.61030	50103
36.61842	50349
36.62655	53334
36.63467	51268
36.64278	58013
36.65092	56334
36.65903	58902
36.66715	62833
36.67528	63364
36.68340	60913
36.69153	64582
36.69965	60075
36.70777	63183
36.71590	70108
36.72402	71614
36.73215	73495
36.74027	79325
36.74838	75386
36.75652	78880
36.76463	82460
36.77277	88058
36.78088	88152
36.78900	86512
36.79713	94273
36.80525	92995
36.81337	96164
36.82150	93682
36.82962	94144
36.83775	90950
36.84587	92845
36.85398	85332
36.86212	83099
36.87023	81236
36.87837	74878
36.88648	74429
36.89460	68514
36.90273	67246
36.91085	64834
36.91897	58670
36.92710	63843
36.93522	62635
36.94335	61976
36.95147	58122
36.95958	62514
36.96772	57419
36.97583	61744
36.98397	60931
36.99208	59881
37.00020	62401
37.00833	57141
37.01645	58444
37.02458	58647
37.03270	57638
37.04082	55083
37.04895	54369
37.05707	62969
37.06518	51600
37.07332	60487
37.08143	60545
37.08957	59954
37.09768	56944
37.10580	59760
37.11393	57579
37.12205	58684
37.13018	57204
37.13830	60034
37.14642	59318
37.15455	60319
37.16267	56874
37.17080	61467
37.17892	64039
37.18703	60344
37.19517	57133
37.20328	60603
37.21140	61303
37.21953	59529
37.22765	61971
37.23578	57790
37.24390	60342
37.25202	56976
37.26015	57181
37.26827	56653
37.27640	62205
37.28452	59514
37.29263	62893
37.30077	56824
37.30888	66644
37.31700	71364
37.32513	89233
37.33325	101955
37.34138	125729
37.34950	146097
37.35762	167037
37.36575	179427
37.37387	174048
37.38200	157133
37.39012	156191
37.39823	138911
37.40637	128792
37.41448	123296
37.42262	119071
37.43073	110518
37.43885	107209
37.44698	97743
37.45510	93625
37.46322	91638
37.47135	95279
37.47947	88315
37.48760	89584
