Z:\data\JTB-E02\BACandBLUE\JTB-E02-198-13.D Fri Feb 22 13:56:14 2019
Start of data points
2.09527,72782
2.10338,72111
2.11150,68822
2.11963,66394
2.12775,70480
2.13588,66621
2.14400,67384
2.15212,60705
2.16025,63800
2.16837,59626
2.17650,59227
2.18462,54732
2.19273,59420
2.20087,60951
2.20898,60561
2.21712,60539
2.22523,59226
2.23335,55465
2.24148,55955
2.24960,54375
2.25772,78043
2.26585,313171
2.27397,917754
2.28210,1043627
2.29022,654108
2.29833,416419
2.30647,328864
2.31458,283072
2.32272,258005
2.33083,227270
2.33895,205043
2.34708,189805
2.35520,172416
2.36333,171424
2.37145,162889
2.37957,153446
2.38770,153824
2.39582,149038
2.40393,134392
2.41207,139334
2.42018,139328
2.42832,128672
2.43643,130960
2.44455,131619
2.45268,128059
2.46080,126795
2.46893,122830
2.47705,121907
2.48517,127744
2.49330,127332
2.50142,119573
2.50953,118184
2.51767,114447
2.52578,105789
2.53392,112320
2.54203,114536
2.55015,118773
2.55828,123851
2.56640,124019
2.57453,122157
2.58265,116072
2.59077,109442
2.59890,149922
2.60702,310607
2.61515,394232
2.62327,306449
2.63138,222792
2.63952,169955
2.64763,152529
2.65575,133907
2.66388,122124
2.67200,113188
2.68013,118932
2.68825,111414
2.69637,102425
2.70450,100737
2.71262,101297
2.72075,104075
2.72887,103586
2.73698,101570
2.74512,103248
2.75323,95494
2.76135,96102
2.76948,95075
2.77760,90961
2.78573,96067
2.79385,96154
2.80197,100222
2.81010,102155
2.81822,105251
2.82635,98570
2.83447,96836
2.84258,92662
2.85072,94798
2.85883,99105
2.86697,98507
2.87508,98979
2.88320,100015
2.89133,93554
2.89945,97692
2.90757,90185
2.91570,86280
2.92382,84903
2.93195,90101
2.94007,85990
2.94818,81945
2.95632,91995
2.96443,94913
2.97257,94954
2.98068,93618
2.98880,90512
2.99693,95470
3.00505,119778
3.01318,118127
3.02130,99223
3.02942,97536
3.03755,84201
3.04567,81958
3.05378,86097
3.06192,87767
3.07003,96318
3.07817,185828
3.08628,562126
3.09440,1175611
3.10253,1755138
3.11065,2205108
3.11878,1936447
3.12690,1351818
3.13502,972350
3.14315,760980
3.15127,616779
3.15938,531860
3.16752,439162
3.17563,384582
3.18377,329477
3.19188,289447
3.20000,263482
3.20813,230211
3.21625,218877
3.22438,199324
3.23250,187912
3.24062,183881
3.24875,173165
3.25687,154642
3.26500,149969
3.27312,146360
3.28123,171492
3.28937,418137
3.29748,1346595
3.30560,3079142
3.31373,4473992
3.32185,4314639
3.32998,3349612
3.33810,2460689
3.34622,1880740
3.35435,1528637
3.36247,1298970
3.37060,1121342
3.37872,997511
3.38683,909495
3.39497,879660
3.40308,817017
3.41122,779513
3.41933,719716
3.42745,672361
3.43558,631505
3.44370,597192
3.45182,579145
3.45995,693704
3.46807,966061
3.47620,1224826
3.48432,1143732
3.49243,912037
3.50057,728772
3.50868,617830
3.51682,551727
3.52493,512755
3.53305,471119
3.54118,437126
3.54930,397748
3.55742,391314
3.56555,400796
3.57367,453775
3.58180,495720
3.58992,446989
3.59803,396053
3.60617,356683
3.61428,347995
3.62242,336344
3.63053,329796
3.63865,310883
3.64678,295681
3.65490,288312
3.66303,273747
3.67115,295232
3.67927,295614
3.68740,290939
3.69552,277547
3.70363,271023
3.71177,270070
3.71988,257472
3.72802,243415
3.73613,238624
3.74425,243935
3.75238,227210
3.76050,228578
3.76863,220131
3.77675,231480
3.78487,265782
3.79300,323749
3.80112,513137
3.80923,1029831
3.81737,1802811
3.82548,1909028
3.83362,1438579
3.84173,1014711
3.84985,798418
3.85798,659521
3.86610,585852
3.87423,533727
3.88235,478102
3.89047,438701
3.89860,405628
3.90672,389699
3.91485,374039
3.92297,360158
3.93108,338570
3.93922,353596
3.94733,428290
3.95545,819213
3.96358,1480313
3.97170,1875601
3.97983,1595881
3.98795,1170715
3.99607,1539710
4.00420,3705605
4.01232,7394351
4.02045,9270608
4.02857,7589984
4.03668,4669173
4.04482,2753817
4.05293,1857589
4.06107,1374991
4.06918,1074236
4.07730,867435
4.08543,730122
4.09355,624615
4.10167,564234
4.10980,508244
4.11792,490459
4.12605,431251
4.13417,417251
4.14228,410075
4.15042,402974
4.15853,406202
4.16667,415321
4.17478,392956
4.18290,369088
4.19103,330787
4.19915,307796
4.20727,292394
4.21540,312121
4.22352,404613
4.23165,550064
4.23977,630829
4.24788,578661
4.25602,470419
4.26413,391340
4.27227,339827
4.28038,303202
4.28850,269879
4.29663,262112
4.30475,258774
4.31288,239538
4.32100,227942
4.32912,231696
4.33725,230453
4.34537,229963
4.35348,218704
4.36162,210761
4.36973,209667
4.37787,206714
4.38598,210401
4.39410,208951
4.40223,200923
4.41035,206608
4.41848,199731
4.42660,197022
4.43472,194453
4.44285,190761
4.45097,192107
4.45910,187323
4.46722,201100
4.47533,194737
4.48347,202001
4.49158,211099
4.49970,229645
4.50783,236220
4.51595,256086
4.52408,235368
4.53220,220190
4.54032,202015
4.54845,193103
4.55657,188916
4.56470,189105
4.57282,178899
4.58093,184251
4.58907,180267
4.59718,171998
4.60530,173656
4.61343,179979
4.62155,166872
4.62968,165232
4.63780,175700
4.64592,170345
4.65405,163348
4.66217,179633
4.67030,189518
4.67842,193644
4.68653,194641
4.69467,178652
4.70278,170684
4.71092,164632
4.71903,153227
4.72715,159220
4.73528,148433
4.74340,148985
4.75152,144938
4.75965,156621
4.76777,156909
4.77590,149747
4.78402,156448
4.79213,156524
4.80027,170151
4.80838,185371
4.81652,187507
4.82463,174955
4.83275,167975
4.84088,169861
4.84900,175607
4.85713,166494
4.86525,160891
4.87337,169836
4.88150,173289
4.88962,170790
4.89773,177487
4.90587,160773
4.91398,161739
4.92212,152191
4.93023,157649
4.93835,207138
4.94648,413702
4.95460,940878
4.96273,1717674
4.97085,2386265
4.97897,2501232
4.98710,2071067
4.99522,1529433
5.00333,1141443
5.01147,894371
5.01958,747260
5.02772,657434
5.03583,607980
5.04395,548958
5.05208,508971
5.06020,497283
5.06833,462681
5.07645,435418
5.08457,411828
5.09270,388722
5.10082,368410
5.10895,357519
5.11707,349991
5.12518,342787
5.13332,316160
5.14143,321406
5.14955,310408
5.15768,309640
5.16580,304381
5.17393,316424
5.18205,343805
5.19017,374137
5.19830,406100
5.20642,405080
5.21455,345290
5.22267,309997
5.23078,285980
5.23892,284514
5.24703,277492
5.25515,269964
5.26328,253226
5.27140,242767
5.27953,234112
5.28765,221962
5.29577,221793
5.30390,225076
5.31202,226184
5.32015,220744
5.32827,225193
5.33638,241909
5.34452,237739
5.35263,248969
5.36077,248431
5.36888,248960
5.37700,255306
5.38513,254639
5.39325,238873
5.40137,223015
5.40950,218603
5.41762,213706
5.42575,195452
5.43387,195593
5.44198,196051
5.45012,194948
5.45823,195746
5.46637,207927
5.47448,212345
5.48260,199972
5.49073,195490
5.49885,190066
5.50698,204603
5.51510,206504
5.52322,209516
5.53135,206495
5.53947,195091
5.54758,185341
5.55572,185397
5.56383,187871
5.57197,183323
5.58008,188198
5.58820,202981
5.59633,221109
5.60445,233510
5.61258,225883
5.62070,215914
5.62882,215881
5.63695,210589
5.64507,224170
5.65318,219200
5.66132,199027
5.66943,202507
5.67757,192814
5.68568,197084
5.69380,220612
5.70193,235588
5.71005,232043
5.71818,225265
5.72630,204080
5.73442,195664
5.74255,191597
5.75067,177237
5.75880,178412
5.76692,177263
5.77503,189552
5.78317,184948
5.79128,177201
5.79940,175173
5.80753,170802
5.81565,167548
5.82378,166653
5.83190,167296
5.84002,166489
5.84815,164846
5.85627,160929
5.86440,161747
5.87252,156325
5.88063,154303
5.88877,155611
5.89688,154023
5.90502,154273
5.91313,130240
5.92125,124849
5.92938,130345
5.93750,123541
5.94562,120911
5.95375,127716
5.96187,129178
5.97000,126608
5.97812,144843
5.98623,142757
5.99437,148789
6.00248,136130
6.01062,133696
6.01873,124551
6.02685,128862
6.03498,121153
6.04310,124939
6.05122,125965
6.05935,126608
6.06747,126139
6.07560,130429
6.08372,129320
6.09183,122568
6.09997,124404
6.10808,116227
6.11622,109837
6.12433,110949
6.13245,110909
6.14058,115773
6.14870,119474
6.15683,136643
6.16495,132593
6.17307,147525
6.18120,153218
6.18932,153644
6.19743,145639
6.20557,139986
6.21368,143447
6.22182,142239
6.22993,144230
6.23805,154269
6.24618,155125
6.25430,161957
6.26243,161720
6.27055,167877
6.27867,169972
6.28680,174391
6.29492,177123
6.30303,170242
6.31117,167558
6.31928,160657
6.32742,167546
6.33553,170435
6.34365,174011
6.35178,176831
6.35990,182410
6.36803,179954
6.37615,185933
6.38427,179913
6.39240,192572
6.40052,202771
6.40865,194489
6.41677,201489
6.42488,196158
6.43302,198867
6.44113,200588
6.44925,207817
6.45738,220059
6.46550,224061
6.47363,220189
6.48175,219170
6.48987,210093
6.49800,210414
6.50612,218612
6.51425,210099
6.52237,218744
6.53048,213281
6.53862,212302
6.54673,217762
6.55487,224413
6.56298,225926
6.57110,226348
6.57923,228056
6.58735,224648
6.59547,217226
6.60360,230475
6.61172,230393
6.61985,237816
6.62797,237580
6.63608,235200
6.64422,240943
6.65233,253131
6.66047,291270
6.66858,354492
6.67670,411431
6.68483,398399
6.69295,364159
6.70108,321141
6.70920,305203
6.71732,294916
6.72545,289618
6.73357,297498
6.74168,281448
6.74982,271193
6.75793,270005
6.76607,278319
6.77418,267616
6.78230,278004
6.79043,274052
6.79855,282407
6.80668,271717
6.81480,267848
6.82292,270921
6.83105,267369
6.83917,270793
6.84728,275203
6.85542,287303
6.86353,289512
6.87167,281522
6.87978,268962
6.88790,255866
6.89603,256954
6.90415,254220
6.91228,262000
6.92040,269633
6.92852,188910
6.93665,159635
6.94477,147166
6.95290,140307
6.96102,139461
6.96913,146837
6.97727,149780
6.98538,160052
6.99350,151430
7.00163,143929
7.00975,134939
7.01788,120578
7.02600,114206
7.03412,114645
7.04225,110013
7.05037,110629
7.05850,125614
7.06662,145892
7.07473,169334
7.08287,150561
7.09098,144448
7.09910,124053
7.10723,113566
7.11535,102889
7.12348,100622
7.13160,104310
7.13972,105468
7.14785,107648
7.15597,126799
7.16410,138610
7.17222,137925
7.18033,137012
7.18847,126137
7.19658,108928
7.20472,110581
7.21283,103192
7.22095,100905
7.22908,96076
7.23720,96824
7.24532,93176
7.25345,96566
7.26157,91337
7.26970,84689
7.27782,92985
7.28593,93866
7.29407,101070
7.30218,102690
7.31032,93517
7.31843,92807
7.32655,89375
7.33468,93252
7.34280,86450
7.35093,99085
7.35905,97207
7.36717,99898
7.37530,93169
7.38342,98893
7.39153,97946
7.39967,91787
7.40778,84787
7.41592,82653
7.42403,87383
7.43215,87810
7.44028,86636
7.44840,80438
7.45653,85273
7.46465,78370
7.47277,82590
7.48090,76242
7.48902,76449
7.49713,80715
7.50527,81352
7.51338,88092
7.52152,84827
7.52963,80854
7.53775,78114
7.54588,81810
7.55400,75758
7.56213,77814
7.57025,83169
7.57837,82197
7.58650,81411
7.59462,77902
7.60275,77338
7.61087,76456
7.61898,80602
7.62712,80567
7.63523,80444
7.64335,77753
7.65148,80783
7.65960,78980
7.66773,86206
7.67585,84847
7.68397,73132
7.69210,74120
7.70022,76777
7.70835,73108
7.71647,76769
7.72458,76697
7.73272,73184
7.74083,69507
7.74897,65782
7.75708,71357
7.76520,70371
7.77333,70627
7.78145,73572
7.78957,72111
7.79770,70874
7.80582,70613
7.81395,66804
7.82207,73519
7.83018,72376
7.83832,70816
7.84643,70097
7.85457,69371
7.86268,71790
7.87080,68502
7.87893,74853
7.88705,66148
7.89517,69678
7.90330,67374
7.91142,74142
7.91955,79620
7.92767,82665
7.93578,101893
7.94392,138694
7.95203,163055
7.96017,187119
7.96828,175752
7.97640,145420
7.98453,122167
7.99265,96210
8.00078,86590
8.00890,84758
8.01702,80025
8.02515,76021
8.03327,74999
8.04138,76029
8.04952,74583
8.05763,79997
8.06577,72371
8.07388,74885
8.08200,74806
8.09013,70455
8.09825,76856
8.10638,73633
8.11450,72261
8.12262,74995
8.13075,78476
8.13887,71362
8.14698,72959
8.15512,71134
8.16323,72207
8.17137,69902
8.17948,66718
8.18760,65431
8.19573,67085
8.20385,70039
8.21198,72397
8.22010,65555
8.22822,64437
8.23635,63457
8.24447,64054
8.25260,62560
8.26072,64107
8.26883,66610
8.27697,65595
8.28508,74332
8.29320,85601
8.30133,94643
8.30945,81680
8.31758,80429
8.32570,70117
8.33382,68616
8.34195,66863
8.35007,65120
8.35820,63027
8.36632,64991
8.37443,64781
8.38257,61596
8.39068,69870
8.39882,68421
8.40693,58300
8.41505,65476
8.42318,64155
8.43130,60496
8.43942,62882
8.44755,59921
8.45567,53334
8.46380,59288
8.47192,56103
8.48003,56898
8.48817,54431
8.49628,61653
8.50442,59924
8.51253,53690
8.52065,55802
8.52878,55922
8.53690,59518
8.54502,58812
8.55315,65607
8.56127,67550
8.56940,86788
8.57752,117104
8.58563,168084
8.59377,221859
8.60188,219585
8.61002,193138
8.61813,150356
8.62625,116186
8.63438,106511
8.64250,93105
8.65063,88889
8.65875,77464
8.66687,73203
8.67500,67456
8.68312,73907
8.69123,67426
8.69937,74298
8.70748,64461
8.71562,59538
8.72373,62446
8.73185,65235
8.73998,63769
8.74810,65745
8.75623,99226
8.76435,185194
8.77247,325456
8.78060,521228
8.78872,664965
8.79685,700309
8.80497,622374
8.81308,473934
8.82122,356632
8.82933,263261
8.83745,210402
8.84558,174834
8.85370,149228
8.86183,134227
8.86995,132227
8.87807,143647
8.88620,154383
8.89432,158624
8.90245,169886
8.91057,156993
8.91868,155446
8.92682,150218
8.93493,147775
8.94305,141709
8.95118,138790
8.95930,139357
8.96743,126819
8.97555,132312
8.98367,123329
8.99180,123218
8.99992,120702
9.00805,117955
9.01617,124211
9.02428,111089
9.03242,113685
9.04053,118955
9.04867,114149
9.05678,113839
9.06490,113474
9.07303,110148
9.08115,113223
9.08927,113512
9.09740,114809
9.10552,111698
9.11365,113883
9.12177,105628
9.12988,101992
9.13802,107812
9.14613,107238
9.15427,103191
9.16238,94545
9.17050,99219
9.17863,98758
9.18675,89721
9.19488,92098
9.20300,92142
9.21112,98177
9.21925,90471
9.22737,92731
9.23548,90543
9.24362,91954
9.25173,87787
9.25987,91788
9.26798,85877
9.27610,82111
9.28423,84733
9.29235,82737
9.30048,83266
9.30860,80793
9.31672,81520
9.32485,80983
9.33297,80884
9.34108,91433
9.34922,86600
9.35733,77772
9.36547,82264
9.37358,81634
9.38170,80672
9.38983,81085
9.39795,85750
9.40608,77822
9.41420,80367
9.42232,76534
9.43045,78627
9.43857,78748
9.44670,75390
9.45482,71189
9.46293,71997
9.47107,75440
9.47918,71576
9.48730,76763
9.49543,72422
9.50355,76452
9.51168,87812
9.51980,95435
9.52792,92073
9.53605,85108
9.54417,81127
9.55230,77093
9.56042,75566
9.56853,82822
9.57667,83364
9.58478,80891
9.59290,80912
9.60103,75030
9.60915,67811
9.61728,66386
9.62540,61294
9.63352,53051
9.64165,54036
9.64977,50274
9.65790,53425
9.66602,54335
9.67413,49542
9.68227,47075
9.69038,47676
9.69852,52820
9.70663,51403
9.71475,49240
9.72288,51959
9.73100,49480
9.73912,47107
9.74725,43628
9.75537,47175
9.76350,47956
9.77162,48233
9.77973,43548
9.78787,51194
9.79598,50923
9.80412,43694
9.81223,46501
9.82035,46624
9.82848,43671
9.83660,47226
9.84473,45415
9.85285,47423
9.86097,45471
9.86910,44969
9.87722,45589
9.88533,51769
9.89347,58347
9.90158,68858
9.90972,77467
9.91783,75615
9.92595,74897
9.93408,72931
9.94220,63999
9.95033,56127
9.95845,59211
9.96657,61798
9.97470,64486
9.98282,61259
9.99093,65656
9.99907,66124
10.00718,65871
10.01532,67199
10.02343,62020
10.03155,61011
10.03968,57273
10.04780,51531
10.05593,52634
10.06405,46932
10.07217,49240
10.08030,50886
10.08842,50013
10.09655,52363
10.10467,53794
10.11278,56539
10.12092,53034
10.12903,44962
10.13715,53586
10.14528,45034
10.15340,43469
10.16153,46086
10.16965,47573
10.17777,46380
10.18590,45227
10.19402,47452
10.20215,43706
10.21027,46634
10.21838,44438
10.22652,48721
10.23463,48976
10.24277,51045
10.25088,53708
10.25900,64551
10.26713,66362
10.27525,65297
10.28337,55504
10.29150,52067
10.29962,48624
10.30775,48990
10.31587,48763
10.32398,49458
10.33212,47820
10.34023,52949
10.34837,49592
10.35648,51326
10.36460,51866
10.37273,52336
10.38085,50208
10.38897,53292
10.39710,45862
10.40522,47745
10.41335,45039
10.42147,47214
10.42958,47738
10.43772,46434
10.44583,41054
10.45397,43101
10.46208,44260
10.47020,42817
10.47833,43590
10.48645,43947
10.49458,41516
10.50270,40228
10.51082,44616
10.51895,39819
10.52707,40467
10.53518,42341
10.54332,40484
10.55143,42484
10.55957,45987
10.56768,39271
10.57580,38728
10.58393,41093
10.59205,42784
10.60018,42398
10.60830,45266
10.61642,42016
10.62455,48185
10.63267,47483
10.64078,46904
10.64892,52328
10.65703,50491
10.66517,54151
10.67328,51925
10.68140,49862
10.68953,48048
10.69765,45381
10.70578,42518
10.71390,43525
10.72202,46257
10.73015,49232
10.73827,54119
10.74640,52680
10.75452,48983
10.76263,51536
10.77077,46570
10.77888,44065
10.78700,40761
10.79513,42679
10.80325,44236
10.81138,40953
10.81950,39407
10.82762,38536
10.83575,41432
10.84387,39105
10.85200,42264
10.86012,41119
10.86823,38934
10.87637,36073
10.88448,42796
10.89262,43435
10.90073,39737
10.90885,38459
10.91698,39722
10.92510,39009
10.93322,41316
10.94135,40245
10.94947,39604
10.95760,39181
10.96572,40728
10.97383,39985
10.98197,39778
10.99008,36533
10.99822,35521
11.00633,35866
11.01445,37028
11.02258,36547
11.03070,39035
11.03882,36730
11.04695,33949
11.05507,37048
11.06320,35394
11.07132,35026
11.07943,36742
11.08757,37319
11.09568,34179
11.10382,38563
11.11193,36518
11.12005,42646
11.12818,35477
11.13630,35780
11.14443,34567
11.15255,35457
11.16067,41446
11.16880,38066
11.17692,41783
11.18503,42615
11.19317,38662
11.20128,38299
11.20942,40556
11.21753,41984
11.22565,39407
11.23378,37664
11.24190,37783
11.25003,35925
11.25815,36247
11.26627,39027
11.27440,40911
11.28252,40909
11.29065,42353
11.29877,40803
11.30688,42987
11.31502,42083
11.32313,43421
11.33125,36701
11.33938,37169
11.34750,37754
11.35563,39474
11.36375,37197
11.37187,32997
11.38000,35988
11.38812,35090
11.39625,35491
11.40437,38770
11.41248,35265
11.42062,34172
11.42873,35651
11.43685,35197
11.44498,36446
11.45310,33245
11.46123,36435
11.46935,38326
11.47747,37342
11.48560,41419
11.49372,49116
11.50185,50988
11.50997,62399
11.51808,68472
11.52622,67710
11.53433,66152
11.54247,54033
11.55058,47610
11.55870,43451
11.56683,48442
11.57495,47319
11.58307,40041
11.59120,33141
11.59932,40467
11.60745,36560
11.61557,35532
11.62368,39060
11.63182,36707
11.63993,39564
11.64807,38381
11.65618,38899
11.66430,34998
11.67243,38578
11.68055,38562
11.68867,39034
11.69680,39534
11.70492,40242
11.71305,44198
11.72117,44243
11.72928,37969
11.73742,36569
11.74553,41287
11.75367,36717
11.76178,35019
11.76990,39666
11.77803,35663
11.78615,39197
11.79428,37226
11.80240,34664
11.81052,38289
11.81865,40150
11.82677,42425
11.83488,44806
11.84302,44980
11.85113,40826
11.85927,37926
11.86738,41805
11.87550,46137
11.88363,45687
11.89175,45534
11.89988,51841
11.90800,46008
11.91612,37216
11.92425,36433
11.93237,40039
11.94050,38294
11.94862,39581
11.95673,39796
11.96487,40494
11.97298,35714
11.98110,33302
11.98923,36119
11.99735,35546
12.00548,42085
12.01360,41711
12.02172,50311
12.02985,55046
12.03797,53955
12.04610,55697
12.05422,47473
12.06233,43770
12.07047,38894
12.07858,37954
12.08672,40701
12.09483,33589
12.10295,36395
12.11108,34945
12.11920,42005
12.12732,45546
12.13545,41114
12.14357,42182
12.15170,37501
12.15982,36713
12.16793,34964
12.17607,39228
12.18418,34661
12.19232,35163
12.20043,33541
12.20855,35678
12.21668,35154
12.22480,38868
12.23292,34142
12.24105,35654
12.24917,42918
12.25730,32523
12.26542,34885
12.27353,33886
12.28167,33469
12.28978,34379
12.29792,36175
12.30603,37103
12.31415,33794
12.32228,32476
12.33040,32039
12.33853,34369
12.34665,34765
12.35477,36976
12.36290,38459
12.37102,34263
12.37913,39888
12.38727,33498
12.39538,35415
12.40352,33344
12.41163,37879
12.41975,44736
12.42788,45536
12.43600,52866
12.44413,62385
12.45225,58450
12.46037,48581
12.46850,42103
12.47662,42811
12.48473,39354
12.49287,35166
12.50098,34094
12.50912,35663
12.51723,39033
12.52535,36610
12.53348,39519
12.54160,36876
12.54973,35750
12.55785,34244
12.56597,35832
12.57410,34609
12.58222,34334
12.59035,39705
12.59847,38272
12.60658,37632
12.61472,41107
12.62283,40408
12.63095,38542
12.63908,36210
12.64720,33933
12.65533,34883
12.66345,37015
12.67157,37267
12.67970,31050
12.68782,32519
12.69595,35826
12.70407,35457
12.71218,37951
12.72032,43297
12.72843,50117
12.73657,47923
12.74468,51693
12.75280,46678
12.76093,43961
12.76905,43207
12.77717,37503
12.78530,35683
12.79342,33895
12.80155,36869
12.80967,34450
12.81778,37605
12.82592,32722
12.83403,30954
12.84217,35980
12.85028,33744
12.85840,38427
12.86653,35312
12.87465,33563
12.88277,35717
12.89090,36221
12.89902,35789
12.90715,35341
12.91527,35657
12.92338,33793
12.93152,33010
12.93963,34788
12.94777,34050
12.95588,31164
12.96400,32132
12.97213,31967
12.98025,35100
12.98838,35870
12.99650,32730
13.00462,34203
13.01275,34451
13.02087,39147
13.02898,34523
13.03712,35596
13.04523,36942
13.05337,35988
13.06148,35665
13.06960,33058
13.07773,32845
13.08585,31482
13.09398,32084
13.10210,37880
13.11022,33080
13.11835,37483
13.12647,31415
13.13460,33284
13.14272,32870
13.15083,34845
13.15897,32482
13.16708,36657
13.17520,35877
13.18333,36041
13.19145,35690
13.19958,37689
13.20770,40900
13.21582,38178
13.22395,43899
13.23207,41076
13.24020,41291
13.24832,37473
13.25643,39649
13.26457,39206
13.27268,33448
13.28080,36963
13.28893,35276
13.29705,33954
13.30518,34832
13.31330,33025
13.32142,35058
13.32955,34028
13.33767,34582
13.34580,31501
13.35392,30694
13.36203,34272
13.37017,32866
13.37828,36512
13.38642,33474
13.39453,33227
13.40265,32886
13.41078,31308
13.41890,33313
13.42702,32149
13.43515,34733
13.44327,29192
13.45140,32446
13.45952,33909
13.46763,32610
13.47577,39091
13.48388,33276
13.49202,33322
13.50013,32084
13.50825,32941
13.51638,29349
13.52450,28943
13.53262,29257
13.54075,29828
13.54887,37445
13.55700,35332
13.56512,28836
13.57323,32302
13.58137,33099
13.58948,33747
13.59762,33392
13.60573,31916
13.61385,27301
13.62198,33201
13.63010,38685
13.63823,32310
13.64635,31690
13.65447,31264
13.66260,30784
13.67072,31082
13.67883,31220
13.68697,27395
13.69508,32240
13.70322,34667
13.71133,35721
13.71945,28573
13.72758,33287
13.73570,31460
13.74383,33367
13.75195,35838
13.76007,36131
13.76820,37463
13.77632,47777
13.78445,56471
13.79257,67645
13.80068,81871
13.80882,71486
13.81693,64275
13.82505,58779
13.83318,49087
13.84130,45990
13.84943,43517
13.85755,37971
13.86567,34561
13.87380,35537
13.88192,36836
13.89005,37719
13.89817,38698
13.90628,30916
13.91442,36648
13.92253,36838
13.93065,38566
13.93878,36788
13.94690,37471
13.95503,37774
13.96315,40389
13.97127,41753
13.97940,46897
13.98752,56298
13.99565,81113
14.00377,74510
14.01188,76564
14.02002,72934
14.02813,61129
14.03627,53061
14.04438,46484
14.05250,44833
14.06063,42738
14.06875,39926
14.07687,42721
14.08500,41105
14.09312,42005
14.10125,41621
14.10937,42950
14.11748,39093
14.12562,42092
14.13373,38782
14.14187,38384
14.14998,45213
14.15810,46919
14.16623,46836
14.17435,43751
14.18248,48065
14.19060,48387
14.19872,56635
14.20685,81011
14.21497,115607
14.22308,160192
14.23122,194677
14.23933,201591
14.24747,194741
14.25558,175039
14.26370,156338
14.27183,138912
14.27995,129622
14.28808,110896
14.29620,107993
14.30432,92060
14.31245,84144
14.32057,83318
14.32868,76771
14.33682,77474
14.34493,76828
14.35307,68779
14.36118,69300
14.36930,62327
14.37743,54510
14.38555,46504
14.39368,45476
14.40180,39394
14.40992,38130
14.41805,38368
14.42617,36180
14.43430,37670
14.44242,36491
14.45053,40676
14.45867,35487
14.46678,43310
14.47490,37830
14.48303,45384
14.49115,39224
14.49928,35795
14.50740,35441
14.51552,35119
14.52365,39437
14.53177,34508
14.53990,42691
14.54802,37125
14.55613,36679
14.56427,37597
14.57238,32034
14.58052,37799
14.58863,34801
14.59675,32382
14.60488,33462
14.61300,34964
14.62112,33131
14.62925,34085
14.63737,34636
14.64550,33423
14.65362,32959
14.66173,35472
14.66987,33012
14.67798,34511
14.68612,31146
14.69423,34985
14.70235,35858
14.71048,35131
14.71860,38186
14.72672,30779
14.73485,31841
14.74297,32726
14.75110,34129
14.75922,36867
14.76733,34047
14.77547,36078
14.78358,34755
14.79172,31062
14.79983,32967
14.80795,34573
14.81608,31591
14.82420,36259
14.83233,32762
14.84045,42076
14.84857,46887
14.85670,42670
14.86482,45073
14.87293,41281
14.88107,45493
14.88918,42161
14.89732,42052
14.90543,38137
14.91355,39214
14.92168,44757
14.92980,40342
14.93793,39211
14.94605,45583
14.95417,39778
14.96230,37976
14.97042,36786
14.97853,38582
14.98667,34082
14.99478,39212
15.00292,36722
15.01103,36641
15.01915,40230
15.02728,34648
15.03540,38716
15.04353,35518
15.05165,42294
15.05977,37440
15.06790,35114
15.07602,37250
15.08415,33758
15.09227,38723
15.10038,35420
15.10852,34986
15.11663,34181
15.12475,34595
15.13288,36834
15.14100,35753
15.14913,34227
15.15725,35236
15.16537,36925
15.17350,38606
15.18162,39879
15.18975,35527
15.19787,39357
15.20598,34935
15.21412,34159
15.22223,35549
15.23037,33570
15.23848,35952
15.24660,33378
15.25473,32533
15.26285,33823
15.27097,31989
15.27910,36470
15.28722,33676
15.29535,32925
15.30347,38117
15.31158,33884
15.31972,33468
15.32783,31404
15.33597,30415
15.34408,29152
15.35220,31740
15.36033,29282
15.36845,31351
15.37657,32955
15.38470,33672
15.39282,32186
15.40095,32375
15.40907,33611
15.41718,32725
15.42532,31560
15.43343,30324
15.44157,31318
15.44968,32315
15.45780,31796
15.46593,33184
15.47405,29990
15.48218,31251
15.49030,31718
15.49842,34027
15.50655,34395
15.51467,34369
15.52278,31178
15.53092,35945
15.53903,41103
15.54717,37976
15.55528,34411
15.56340,34318
15.57153,34031
15.57965,33243
15.58778,33638
15.59590,33847
15.60402,32021
15.61215,31509
15.62027,32109
15.62840,33878
15.63652,30480
15.64463,31952
15.65277,27933
15.66088,32111
15.66900,32843
15.67713,32914
15.68525,30594
15.69338,30384
15.70150,30143
15.70962,31449
15.71775,32951
15.72587,31276
15.73400,32494
15.74212,32241
15.75023,29338
15.75837,31189
15.76648,34845
15.77460,32724
15.78273,35826
15.79085,37756
15.79898,37566
15.80710,41834
15.81522,37966
15.82335,37056
15.83147,38300
15.83960,34177
15.84772,33741
15.85583,35982
15.86397,35389
15.87208,32830
15.88022,33811
15.88833,36066
15.89645,36534
15.90458,32752
15.91270,30058
15.92082,35603
15.92895,30167
15.93707,33477
15.94520,31577
15.95332,33653
15.96143,27612
15.96957,35342
15.97768,38375
15.98582,42517
15.99393,48235
16.00205,46760
16.01018,52333
16.01830,55060
16.02642,58603
16.03455,60597
16.04267,54204
16.05080,56806
16.05892,48771
16.06703,44460
16.07517,47602
16.08328,40323
16.09142,43600
16.09953,38324
16.10765,39254
16.11578,43122
16.12390,37485
16.13203,40649
16.14015,37096
16.14827,37576
16.15640,37504
16.16452,33821
16.17263,39144
16.18077,41045
16.18888,35431
16.19702,37418
16.20513,35180
16.21325,34807
16.22138,39107
16.22950,35646
16.23763,33045
16.24575,37372
16.25387,34047
16.26200,30930
16.27012,36636
16.27825,34538
16.28637,36905
16.29448,35097
16.30262,40830
16.31073,34113
16.31885,35364
16.32698,35167
16.33510,31554
16.34323,34514
16.35135,33113
16.35947,34480
16.36760,41278
16.37572,49580
16.38385,51665
16.39197,57546
16.40008,53068
16.40822,56253
16.41633,53089
16.42445,44644
16.43258,41852
16.44070,39172
16.44883,38022
16.45695,33870
16.46507,35714
16.47320,36468
16.48132,34519
16.48945,35553
16.49757,40126
16.50568,38382
16.51382,37468
16.52193,32968
16.53007,32777
16.53818,38205
16.54630,35727
16.55443,33040
16.56255,35984
16.57067,38917
16.57880,35561
16.58692,37135
16.59505,33946
16.60317,33563
16.61128,39569
16.61942,39602
16.62753,39917
16.63567,41516
16.64378,38237
16.65190,40501
16.66003,34158
16.66815,32099
16.67628,34573
16.68440,35807
16.69252,35808
16.70065,34322
16.70877,30804
16.71688,32419
16.72502,32241
16.73313,32638
16.74127,34423
16.74938,31157
16.75750,30839
16.76563,32565
16.77375,29166
16.78188,31986
16.79000,30793
16.79812,30794
16.80625,31651
16.81437,31540
16.82248,27320
16.83062,31014
16.83873,27759
16.84687,29356
16.85498,32073
16.86310,31513
16.87123,28945
16.87935,33106
16.88748,32724
16.89560,27984
16.90372,31649
16.91185,32548
16.91997,31679
16.92810,33707
16.93622,29633
16.94433,28397
16.95247,32775
16.96058,31988
16.96870,34159
16.97683,30427
16.98495,30768
16.99308,36597
17.00120,31589
17.00932,31018
17.01745,30601
17.02557,29605
17.03370,29840
17.04182,30799
17.04993,29167
17.05807,29321
17.06618,29242
17.07430,31828
17.08243,28876
17.09055,33733
17.09868,29676
17.10680,32384
17.11492,31481
17.12305,30395
17.13117,31579
17.13930,31874
17.14742,33100
17.15553,27214
17.16367,30930
17.17178,30652
17.17992,32876
17.18803,30205
17.19615,32871
17.20428,32953
17.21240,32854
17.22052,30843
17.22865,31098
17.23677,28795
17.24490,32025
17.25302,31839
17.26113,33238
17.26927,32740
17.27738,35552
17.28552,31992
17.29363,30202
17.30175,31603
17.30988,28787
17.31800,31462
17.32613,30150
17.33425,31400
17.34237,32596
17.35050,35213
17.35862,33233
17.36673,37092
17.37487,34636
17.38298,37735
17.39112,36481
17.39923,35613
17.40735,37109
17.41548,35680
17.42360,37970
17.43173,37716
17.43985,34882
17.44797,30839
17.45610,30717
17.46422,30888
17.47235,33386
17.48047,35184
17.48858,30063
17.49672,32449
17.50483,35181
17.51295,33661
17.52108,34376
17.52920,36077
17.53733,34110
17.54545,35427
17.55357,35454
17.56170,30720
17.56982,34522
17.57795,30511
17.58607,33848
17.59418,33559
17.60232,31498
17.61043,29021
17.61855,31533
17.62668,33213
17.63480,40031
17.64293,35544
17.65105,45227
17.65917,52875
17.66730,76233
17.67542,84440
17.68355,93002
17.69167,102579
17.69978,84910
17.70792,69931
17.71603,62167
17.72417,56715
17.73228,54671
17.74040,48665
17.74853,50519
17.75665,40309
17.76477,37463
17.77290,42461
17.78102,39982
17.78915,36465
17.79727,44015
17.80538,39180
17.81352,39679
17.82163,38157
17.82977,43549
17.83788,42699
17.84600,44174
17.85413,44938
17.86225,40075
17.87037,40648
17.87850,40000
17.88662,39014
17.89475,43228
17.90287,36902
17.91098,35332
17.91912,36402
17.92723,33687
17.93537,35209
17.94348,31364
17.95160,34095
17.95973,33579
17.96785,36769
17.97598,34995
17.98410,31712
17.99222,33662
18.00035,31192
18.00847,28061
18.01658,31742
18.02472,35163
18.03283,29681
18.04097,32806
18.04908,33003
18.05720,30855
18.06533,32975
18.07345,33437
18.08158,35352
18.08970,40953
18.09782,48457
18.10595,48481
18.11407,49707
18.12220,54844
18.13032,57386
18.13843,46233
18.14657,46194
18.15468,43724
18.16280,47888
18.17093,44203
18.17905,46838
18.18718,46554
18.19530,43723
18.20342,53765
18.21155,48614
18.21967,44626
18.22780,40272
18.23592,42939
18.24403,42026
18.25217,39856
18.26028,41653
18.26840,39367
18.27653,38773
18.28465,36631
18.29278,40847
18.30090,38466
18.30902,30831
18.31715,37795
18.32527,35126
18.33340,35582
18.34152,32995
18.34963,31679
18.35777,34576
18.36588,33281
18.37402,33760
18.38213,31986
18.39025,32623
18.39838,30912
18.40650,32440
18.41462,30345
18.42275,31013
18.43087,33458
18.43900,36435
18.44712,33893
18.45523,29800
18.46337,29370
18.47148,32719
18.47962,31098
18.48773,31926
18.49585,32664
18.50398,31322
18.51210,36375
18.52023,29627
18.52835,33305
18.53647,31010
18.54460,29762
18.55272,34330
18.56083,32698
18.56897,30438
18.57708,32631
18.58522,27668
18.59333,31919
18.60145,31525
18.60958,33875
18.61770,31098
18.62583,34835
18.63395,34683
18.64207,29638
18.65020,32518
18.65832,28987
18.66643,29910
18.67457,29314
18.68268,30017
18.69082,34989
18.69893,28178
18.70705,29879
18.71518,29365
18.72330,28373
18.73143,27439
18.73955,28626
18.74767,29335
18.75580,30829
18.76392,32962
18.77205,31441
18.78017,29375
18.78828,29733
18.79642,33416
18.80453,31130
18.81265,29149
18.82078,33843
18.82890,26784
18.83703,29278
18.84515,26660
18.85327,32502
18.86140,30838
18.86952,26475
18.87765,31725
18.88577,30498
18.89388,28889
18.90202,35927
18.91013,31717
18.91825,34440
18.92638,31099
18.93450,28837
18.94263,28905
18.95075,30828
18.95887,34131
18.96700,29228
18.97512,31443
18.98325,31099
18.99137,32009
18.99948,30719
19.00762,33271
19.01573,32338
19.02387,31725
19.03198,28053
19.04010,29688
19.04823,30085
19.05635,29386
19.06447,32491
19.07260,33032
19.08072,29135
19.08885,33639
19.09697,38910
19.10508,46587
19.11322,47817
19.12133,54541
19.12947,53959
19.13758,44871
19.14570,40893
19.15383,46222
19.16195,44344
19.17008,41173
19.17820,41588
19.18632,43829
19.19445,40052
19.20257,40517
19.21068,36958
19.21882,41090
19.22693,38477
19.23507,38708
19.24318,36250
19.25130,33007
19.25943,33254
19.26755,37689
19.27568,40215
19.28380,44106
19.29192,44663
19.30005,50977
19.30817,54323
19.31628,53071
19.32442,47401
19.33253,43296
19.34067,47184
19.34878,46109
19.35690,44802
19.36503,44052
19.37315,44747
19.38128,49547
19.38940,39499
19.39752,42954
19.40565,45670
19.41377,37306
19.42190,39496
19.43002,40973
19.43813,35954
19.44627,34677
19.45438,34374
19.46250,41056
19.47063,36592
19.47875,37230
19.48688,36839
19.49500,39700
19.50312,48699
19.51125,65708
19.51937,88809
19.52750,112187
19.53562,127856
19.54373,131584
19.55187,114825
19.55998,88804
19.56812,68496
19.57623,55856
19.58435,42257
19.59248,39831
19.60060,37655
19.60872,36510
19.61685,38224
19.62497,34848
19.63310,36417
19.64122,37977
19.64933,52405
19.65747,72761
19.66558,106342
19.67372,154240
19.68183,201853
19.68995,204951
19.69808,215763
19.70620,193344
19.71432,170695
19.72245,129143
19.73057,105278
19.73870,93415
19.74682,75331
19.75493,68343
19.76307,59579
19.77118,57393
19.77932,52455
19.78743,48439
19.79555,45793
19.80368,47940
19.81180,46258
19.81993,45369
19.82805,44341
19.83617,43323
19.84430,47992
19.85242,63664
19.86053,137860
19.86867,395611
19.87678,1101113
19.88492,2793511
19.89303,5792913
19.90115,9327766
19.90928,1.25147E+07
19.91740,1.387793E+07
19.92553,1.28845E+07
19.93365,1.034848E+07
19.94177,7413259
19.94990,4965193
19.95802,3454971
19.96615,2522481
19.97427,2019592
19.98238,1697075
19.99052,1451717
19.99863,1287138
20.00675,1182009
20.01488,1072764
20.02300,1003735
20.03113,939421
20.03925,844858
20.04737,758984
20.05550,671954
20.06362,548789
20.07175,432615
20.07987,339634
20.08798,262229
20.09612,212006
20.10423,180360
20.11235,157694
20.12048,153046
20.12860,148034
20.13673,132588
20.14485,131375
20.15297,132484
20.16110,122301
20.16922,119302
20.17735,117176
20.18547,107711
20.19358,111259
20.20172,106201
20.20983,107339
20.21797,101662
20.22608,96418
20.23420,96697
20.24233,93285
20.25045,88770
20.25857,100867
20.26670,112847
20.27482,129927
20.28295,167556
20.29107,206121
20.29918,229158
20.30732,236232
20.31543,215812
20.32357,191166
20.33168,163279
20.33980,132656
20.34793,115020
20.35605,100234
20.36417,81927
20.37230,69746
20.38042,62592
20.38855,57649
20.39667,54848
20.40478,52723
20.41292,50888
20.42103,56371
20.42917,54036
20.43728,63677
20.44540,71311
20.45353,76181
20.46165,84003
20.46978,88964
20.47790,83804
20.48602,84412
20.49415,77313
20.50227,68110
20.51038,57484
20.51852,54684
20.52663,46360
20.53477,46458
20.54288,46800
20.55100,46321
20.55913,50061
20.56725,43362
20.57538,40728
20.58350,43381
20.59162,43845
20.59975,42451
20.60787,40131
20.61600,40390
20.62412,42895
20.63223,45208
20.64037,38959
20.64848,41737
20.65660,39416
20.66473,42691
20.67285,38995
20.68098,40665
20.68910,41871
20.69722,39082
20.70535,41935
20.71347,37450
20.72160,39580
20.72972,39835
20.73783,40293
20.74597,40150
20.75408,40418
20.76220,35440
20.77033,35961
20.77845,42269
20.78658,41201
20.79470,38164
20.80282,37534
20.81095,42799
20.81907,36632
20.82720,40942
20.83532,38539
20.84343,37259
20.85157,41819
20.85968,36652
20.86782,37039
20.87593,35929
20.88405,37211
20.89218,39733
20.90030,41921
20.90842,40397
20.91655,40845
20.92467,42554
20.93280,40598
20.94092,43148
20.94903,43131
20.95717,43206
20.96528,41287
20.97342,41579
20.98153,39257
20.98965,40998
20.99778,41568
21.00590,43869
21.01403,39551
21.02215,39549
21.03027,39022
21.03840,39145
21.04652,41958
21.05463,41252
21.06277,37727
21.07088,41062
21.07902,40118
21.08713,46929
21.09525,37833
21.10338,44979
21.11150,42467
21.11963,42422
21.12775,43096
21.13587,40865
21.14400,40822
21.15212,41848
21.16023,43018
21.16837,46716
21.17648,42904
21.18462,43824
21.19273,49018
21.20085,42968
21.20898,40261
21.21710,48028
21.22523,48308
21.23335,41457
21.24147,43328
21.24960,43631
21.25772,40647
21.26585,42707
21.27397,45069
21.28208,41341
21.29022,40941
21.29833,42542
21.30645,41987
21.31458,44420
21.32270,39173
21.33083,42897
21.33895,41282
21.34707,43193
21.35520,42384
21.36332,43593
21.37145,42184
21.37957,38499
21.38768,36538
21.39582,39167
21.40393,40048
21.41205,41584
21.42018,42549
21.42830,40953
21.43643,43276
21.44455,40302
21.45267,43144
21.46080,42714
21.46892,42594
21.47705,39745
21.48517,36606
21.49328,42237
21.50142,44017
21.50953,38556
21.51767,40076
21.52578,37837
21.53390,39594
21.54203,37590
21.55015,37327
21.55827,42118
21.56640,39811
21.57452,39350
21.58265,36837
21.59077,36885
21.59888,41804
21.60702,45913
21.61513,42171
21.62327,48017
21.63138,44293
21.63950,54868
21.64763,64976
21.65575,71661
21.66388,77552
21.67200,78431
21.68012,74988
21.68825,66252
21.69637,54940
21.70448,52098
21.71262,53576
21.72073,47921
21.72887,45080
21.73698,42757
21.74510,42522
21.75323,42114
21.76135,45040
21.76948,42929
21.77760,41960
21.78572,41776
21.79385,41132
21.80197,39890
21.81008,38821
21.81822,43417
21.82633,40609
21.83447,50254
21.84258,56128
21.85070,66512
21.85883,76813
21.86695,77826
21.87508,80110
21.88320,69283
21.89132,60749
21.89945,57827
21.90757,46510
21.91570,45584
21.92382,47535
21.93193,38500
21.94007,42263
21.94818,43181
21.95630,43539
21.96443,39068
21.97255,37274
21.98068,37583
21.98880,41397
21.99692,37139
22.00505,35664
22.01317,35449
22.02130,38217
22.02942,36456
22.03753,37783
22.04567,39254
22.05378,31847
22.06192,39032
22.07003,35794
22.07815,38302
22.08628,38813
22.09440,37957
22.10252,43474
22.11065,36712
22.11877,37652
22.12690,36015
22.13502,34551
22.14313,33623
22.15127,39094
22.15938,36601
22.16752,36579
22.17563,35647
22.18375,37797
22.19188,34763
22.20000,35635
22.20812,36676
22.21625,34634
22.22437,41184
22.23250,41851
22.24062,42054
22.24873,45330
22.25687,45260
22.26498,42519
22.27312,42475
22.28123,40736
22.28935,40922
22.29748,34482
22.30560,32548
22.31373,42095
22.32185,48797
22.32997,53025
22.33810,60964
22.34622,60208
22.35433,70234
22.36247,63894
22.37058,61586
22.37872,53040
22.38683,54797
22.39495,45506
22.40308,47165
22.41120,41840
22.41933,40587
22.42745,43010
22.43557,40199
22.44370,33392
22.45182,39130
22.45993,36506
22.46807,45905
22.47618,38003
22.48432,41163
22.49243,39290
22.50055,38377
22.50868,31366
22.51680,40676
22.52493,36356
22.53305,34715
22.54117,35067
22.54930,38648
22.55742,29705
22.56555,37897
22.57367,37728
22.58178,39030
22.58992,38230
22.59803,34521
22.60615,34242
22.61428,33505
22.62240,37623
22.63053,34878
22.63865,31619
22.64677,32343
22.65490,34357
22.66302,33500
22.67115,32695
22.67927,33249
22.68738,33249
22.69552,37855
22.70363,42475
22.71177,40504
22.71988,39597
22.72800,37580
22.73613,40070
22.74425,37009
22.75237,39963
22.76050,36769
22.76862,37159
22.77675,35043
22.78487,32324
22.79298,34167
22.80112,30466
22.80923,35271
22.81737,35818
22.82548,32835
22.83360,32382
22.84173,32533
22.84985,40307
22.85798,35547
22.86610,34125
22.87422,37325
22.88235,36762
22.89047,38475
22.89858,37984
22.90672,41691
22.91483,41955
22.92297,47699
22.93108,49930
22.93920,58396
22.94733,61858
22.95545,69582
22.96358,70238
22.97170,69330
22.97982,72546
22.98795,61962
22.99607,66397
23.00418,59446
23.01232,52698
23.02043,47954
23.02857,50426
23.03668,45922
23.04480,42952
23.05293,42522
23.06105,36876
23.06918,36002
23.07730,38846
23.08542,37994
23.09355,36438
23.10167,34067
23.10980,36401
23.11792,35672
23.12603,35292
23.13417,38058
23.14228,32483
23.15040,36224
23.15853,31764
23.16665,34658
23.17478,31009
23.18290,37092
23.19102,33494
23.19915,34797
23.20727,31867
23.21540,34105
23.22352,34683
23.23163,38487
23.23977,35985
23.24788,35558
23.25600,36327
23.26413,39969
23.27225,38919
23.28038,38487
23.28850,38498
23.29662,41803
23.30475,38681
23.31287,43307
23.32100,36633
23.32912,36693
23.33723,34765
23.34537,35527
23.35348,34109
23.36162,37440
23.36973,32850
23.37785,33248
23.38598,37189
23.39410,39888
23.40222,41342
23.41035,40324
23.41847,43151
23.42660,42310
23.43472,48262
23.44283,45374
23.45097,45201
23.45908,42529
23.46722,42453
23.47533,41566
23.48345,43220
23.49158,44554
23.49970,39434
23.50783,37766
23.51595,39491
23.52407,44613
23.53220,35201
23.54032,39867
23.54843,50651
23.55657,49383
23.56468,48269
23.57282,51809
23.58093,52297
23.58905,52587
23.59718,55435
23.60530,56442
23.61343,57946
23.62155,51964
23.62967,56433
23.63780,61464
23.64592,67321
23.65403,89357
23.66217,120722
23.67028,157678
23.67842,189395
23.68653,199254
23.69465,185871
23.70278,159102
23.71090,120311
23.71903,94689
23.72715,81480
23.73527,72903
23.74340,61465
23.75152,68301
23.75965,93148
23.76777,186359
23.77588,491191
23.78402,1227510
23.79213,2558227
23.80025,4040607
23.80838,4857166
23.81650,4906325
23.82463,4285412
23.83275,3290099
23.84087,2305893
23.84900,1584634
23.85712,1108798
23.86525,829555
23.87337,636219
23.88148,519582
23.88962,439881
23.89773,380694
23.90587,332948
23.91398,310519
23.92210,278395
23.93023,250364
23.93835,237919
23.94647,216881
23.95460,204097
23.96272,190733
23.97085,188884
23.97897,165599
23.98708,159773
23.99522,160725
24.00333,151581
24.01147,142587
24.01958,143140
24.02770,140600
24.03583,130971
24.04395,132338
24.05207,127939
24.06020,124968
24.06832,130187
24.07645,122372
24.08457,116445
24.09268,108166
24.10082,106828
24.10893,100040
24.11707,101048
24.12518,98673
24.13330,102622
24.14143,93134
24.14955,98541
24.15768,98422
24.16580,99180
24.17392,103342
24.18205,97942
24.19017,94065
24.19828,85660
24.20642,90102
24.21453,90638
24.22267,89529
24.23078,89769
24.23890,98422
24.24703,94081
24.25515,92177
24.26328,89137
24.27140,85757
24.27952,75309
24.28765,74010
24.29577,69615
24.30388,71533
24.31202,71597
24.32013,69884
24.32827,67869
24.33638,66507
24.34450,67983
24.35263,66832
24.36075,62546
24.36888,61252
24.37700,64013
24.38512,71026
24.39325,71703
24.40137,85810
24.40950,104041
24.41762,112796
24.42573,121357
24.43387,124494
24.44198,107534
24.45010,90646
24.45823,76378
24.46635,68140
24.47448,70673
24.48260,65503
24.49072,68528
24.49885,70940
24.50697,76232
24.51510,72761
24.52322,71943
24.53133,77603
24.53947,83646
24.54758,78425
24.55572,79093
24.56383,81263
24.57195,80153
24.58008,74807
24.58820,87236
24.59632,90642
24.60445,86803
24.61257,84664
24.62070,81907
24.62882,81118
24.63693,67966
24.64507,69518
24.65318,69802
24.66132,68542
24.66943,60248
24.67755,59411
24.68568,63268
24.69380,62192
24.70192,55464
24.71005,61667
24.71817,55468
24.72630,55392
24.73442,50718
24.74253,51327
24.75067,49813
24.75878,52907
24.76692,53061
24.77503,52465
24.78315,50818
24.79128,47473
24.79940,46688
24.80753,47527
24.81565,49434
24.82377,53220
24.83190,52522
24.84002,46952
24.84813,45615
24.85627,46403
24.86438,47824
24.87252,49270
24.88063,50124
24.88875,55795
24.89688,51838
24.90500,49431
24.91313,50899
24.92125,52689
24.92937,50158
24.93750,45697
24.94562,45815
24.95375,46341
24.96187,44599
24.96998,42119
24.97812,44120
24.98623,41726
24.99435,44512
25.00248,42395
25.01060,43183
25.01873,41862
25.02685,40821
25.03497,47674
25.04310,43027
25.05122,40197
25.05935,40428
25.06747,45997
25.07558,40868
25.08372,40998
25.09183,41767
25.09995,44047
25.10808,40734
25.11620,41594
25.12433,40797
25.13245,39751
25.14057,44016
25.14870,46245
25.15682,47556
25.16495,48668
25.17307,50086
25.18118,48268
25.18932,47252
25.19743,51511
25.20557,49354
25.21368,48572
25.22180,45034
25.22993,51117
25.23805,43866
25.24617,46099
25.25430,41928
25.26242,39836
25.27055,40622
25.27867,41853
25.28678,44090
25.29492,42523
25.30303,44158
25.31117,44717
25.31928,45884
25.32740,43110
25.33553,50227
25.34365,47986
25.35178,49822
25.35990,45313
25.36802,43049
25.37615,43735
25.38427,44967
25.39238,40970
25.40052,43555
25.40863,41584
25.41677,44286
25.42488,46658
25.43300,38673
25.44113,43020
25.44925,38996
25.45738,38256
25.46550,38783
25.47362,39972
25.48175,37764
25.48987,40773
25.49798,46113
25.50612,47508
25.51423,44377
25.52237,46043
25.53048,42022
25.53860,38884
25.54673,38814
25.55485,39193
25.56298,38506
25.57110,37497
25.57922,38984
25.58735,37505
25.59547,38206
25.60360,40485
25.61172,34563
25.61983,37297
25.62797,40791
25.63608,45765
25.64420,36891
25.65233,36921
25.66045,36792
25.66858,36823
25.67670,40406
25.68482,38784
25.69295,38382
25.70107,36231
25.70920,37654
25.71732,37799
25.72543,34426
25.73357,33904
25.74168,40922
25.74980,39537
25.75793,39683
25.76605,37616
25.77418,36151
25.78230,39534
25.79042,34788
25.79855,36843
25.80667,37576
25.81480,38943
25.82292,43782
25.83103,43220
25.83917,46073
25.84728,45687
25.85542,42003
25.86353,44430
25.87165,39409
25.87978,39365
25.88790,34698
25.89602,37868
25.90415,36948
25.91227,37112
25.92040,35217
25.92852,36613
25.93663,35388
25.94477,31529
25.95288,32287
25.96102,35184
25.96913,34680
25.97725,33740
25.98538,35524
25.99350,33380
26.00163,35988
26.00975,36087
26.01787,34431
26.02600,31710
26.03412,32802
26.04223,32568
26.05037,30517
26.05848,37758
26.06662,37316
26.07473,35838
26.08285,39004
26.09098,38563
26.09910,32229
26.10723,33878
26.11535,33590
26.12347,36629
26.13160,37704
26.13972,40108
26.14783,46144
26.15597,47810
26.16408,50112
26.17222,47194
26.18033,51228
26.18845,50677
26.19658,44648
26.20470,49043
26.21283,46393
26.22095,44168
26.22907,44103
26.23720,44754
26.24532,40491
26.25345,40454
26.26157,39172
26.26968,36313
26.27782,42141
26.28593,40550
26.29405,42434
26.30218,38102
26.31030,40014
26.31843,43033
26.32655,42286
26.33467,36887
26.34280,37737
26.35092,37023
26.35905,36908
26.36717,35134
26.37528,36670
26.38342,33901
26.39153,35690
26.39967,37623
26.40778,37040
26.41590,36831
26.42403,38013
26.43215,33973
26.44027,35107
26.44840,32297
26.45652,39516
26.46465,36129
26.47277,38390
26.48088,35982
26.48902,33358
26.49713,34493
26.50527,33244
26.51338,36761
26.52150,36546
26.52963,34746
26.53775,32252
26.54587,35978
26.55400,33706
26.56212,32535
26.57025,38704
26.57837,38255
26.58648,36202
26.59462,32029
26.60273,38066
26.61087,31454
26.61898,32556
26.62710,33728
26.63523,36244
26.64335,33950
26.65148,38280
26.65960,42962
26.66772,39314
26.67585,39848
26.68397,41658
26.69208,41158
26.70022,38489
26.70833,34635
26.71647,34193
26.72458,36884
26.73270,35421
26.74083,37113
26.74895,35404
26.75708,36575
26.76520,39689
26.77332,34311
26.78145,37267
26.78957,39532
26.79768,38167
26.80582,37783
26.81393,37611
26.82207,35715
26.83018,40306
26.83830,40693
26.84643,37303
26.85455,48948
26.86268,41661
26.87080,44237
26.87892,43242
26.88705,36186
26.89517,37775
26.90330,41900
26.91142,39217
26.91953,40561
26.92767,39628
26.93578,37828
26.94390,41102
26.95203,41171
26.96015,43094
26.96828,38815
26.97640,48962
26.98452,59348
26.99265,89576
27.00077,158900
27.00890,270714
27.01702,431924
27.02513,625717
27.03327,804380
27.04138,923761
27.04952,888621
27.05763,792119
27.06575,627261
27.07388,479913
27.08200,375181
27.09012,299274
27.09825,238126
27.10637,203914
27.11450,182822
27.12262,159970
27.13073,148324
27.13887,134712
27.14698,125392
27.15512,123439
27.16323,114361
27.17135,111739
27.17948,106183
27.18760,100464
27.19573,93256
27.20385,94937
27.21197,94911
27.22010,86256
27.22822,90545
27.23633,82026
27.24447,82627
27.25258,77162
27.26072,80889
27.26883,74338
27.27695,74494
27.28508,70652
27.29320,68859
27.30133,65012
27.30945,67971
27.31757,63014
27.32570,65203
27.33382,61553
27.34193,60833
27.35007,60510
27.35818,58971
27.36632,60948
27.37443,57345
27.38255,57231
27.39068,58080
27.39880,51636
27.40693,58861
27.41505,59034
27.42317,53660
27.43130,56068
27.43942,50453
27.44755,50066
27.45567,53119
27.46378,51900
27.47192,50802
27.48003,49962
27.48815,51089
27.49628,51139
27.50440,50739
27.51253,51373
27.52065,48929
27.52877,51655
27.53690,45928
27.54502,52671
27.55315,50849
27.56127,49631
27.56938,48000
27.57752,53929
27.58563,48348
27.59375,49284
27.60188,46500
27.61000,42928
27.61813,46112
27.62625,47115
27.63437,47631
27.64250,46789
27.65062,47228
27.65875,43965
27.66687,40391
27.67498,53081
27.68312,45751
27.69123,41410
27.69937,44437
27.70748,41717
27.71560,39224
27.72373,42856
27.73185,44786
27.73997,39935
27.74810,43881
27.75622,44044
27.76435,40480
27.77247,40304
27.78058,40844
27.78872,41438
27.79683,39541
27.80497,39469
27.81308,41764
27.82120,41939
27.82933,42762
27.83745,42865
27.84558,42474
27.85370,42478
27.86182,43267
27.86995,40579
27.87807,39938
27.88618,40331
27.89432,40036
27.90243,40497
27.91057,42123
27.91868,40204
27.92680,38390
27.93493,33975
27.94305,38268
27.95118,38051
27.95930,37094
27.96742,35429
27.97555,40917
27.98367,39383
27.99178,40416
27.99992,37842
28.00803,37341
28.01617,35681
28.02428,39993
28.03240,35715
28.04053,36508
28.04865,35793
28.05678,36652
28.06490,39806
28.07302,38678
28.08115,36403
28.08927,37141
28.09740,40647
28.10552,38886
28.11363,40151
28.12177,42600
28.12988,38442
28.13800,36116
28.14613,39905
28.15425,34569
28.16238,38341
28.17050,36706
28.17862,40401
28.18675,40079
28.19487,42703
28.20300,36191
28.21112,38298
28.21923,39349
28.22737,44465
28.23548,47257
28.24362,46396
28.25173,47500
28.25985,46652
28.26798,50549
28.27610,41437
28.28422,40217
28.29235,37208
28.30047,40117
28.30860,41614
28.31672,45609
28.32483,51137
28.33297,57513
28.34108,70302
28.34922,86370
28.35733,113025
28.36545,132873
28.37358,145498
28.38170,158837
28.38982,160979
28.39795,165571
28.40607,163155
28.41420,152615
28.42232,141097
28.43043,127458
28.43857,111218
28.44668,106573
28.45482,91612
28.46293,86028
28.47105,83058
28.47918,82971
28.48730,81299
28.49543,72180
28.50355,66922
28.51167,66570
28.51980,63540
28.52792,63895
28.53603,63988
28.54417,59617
28.55228,57623
28.56042,59899
28.56853,60023
28.57665,56007
28.58478,57704
28.59290,57785
28.60103,52952
28.60915,53903
28.61727,47768
28.62540,53435
28.63352,54876
28.64163,50570
28.64977,54533
28.65788,55031
28.66602,52372
28.67413,53684
28.68225,57242
28.69038,58841
28.69850,50858
28.70663,49355
28.71475,49121
28.72287,50304
28.73100,43623
28.73912,47537
28.74725,48748
28.75537,49904
28.76348,58306
28.77162,48894
28.77973,54740
28.78785,65630
28.79598,69914
28.80410,73751
28.81223,65685
28.82035,58729
28.82847,57552
28.83660,45105
28.84472,53978
28.85285,42240
28.86097,42250
28.86908,44194
28.87722,41482
28.88533,40430
28.89347,41746
28.90158,44306
28.90970,43260
28.91783,40027
28.92595,40893
28.93407,38925
28.94220,42148
28.95032,42421
28.95845,43435
28.96657,43117
28.97468,44758
28.98282,45679
28.99093,46782
28.99907,48615
29.00718,41979
29.01530,42631
29.02343,41880
29.03155,44492
29.03967,40032
29.04780,37025
29.05592,45217
29.06405,40357
29.07217,38619
29.08028,40467
29.08842,42175
29.09653,39605
29.10467,37468
29.11278,39719
29.12090,39012
29.12903,38653
29.13715,41007
29.14528,43234
29.15340,39456
29.16152,38133
29.16965,40806
29.17777,40647
29.18588,38656
29.19402,38649
29.20213,38838
29.21027,39800
29.21838,37480
29.22650,38938
29.23463,36915
29.24275,39769
29.25088,41136
29.25900,38285
29.26712,37120
29.27525,40226
29.28337,40041
29.29150,36063
29.29962,34759
29.30773,33221
29.31587,36993
29.32398,37866
29.33210,39636
29.34023,36207
29.34835,37769
29.35648,33790
29.36460,36972
29.37272,39911
29.38085,39061
29.38897,38084
29.39710,38635
29.40522,35263
29.41333,37400
29.42147,34934
29.42958,38107
29.43770,36535
29.44583,40497
29.45395,35817
29.46208,37859
29.47020,36351
29.47832,37309
29.48645,37707
29.49457,36112
29.50270,43750
29.51082,46370
29.51893,47909
29.52707,49468
29.53518,42719
29.54332,43710
29.55143,38710
29.55955,36391
29.56768,40679
29.57580,37898
29.58392,35259
29.59205,37948
29.60017,36079
29.60830,36402
29.61642,36059
29.62453,37579
29.63267,36993
29.64078,34734
29.64892,38051
29.65703,38733
29.66515,35072
29.67328,35834
29.68140,34794
29.68953,38786
29.69765,37360
29.70577,36212
29.71390,35477
29.72202,34883
29.73013,35953
29.73827,35950
29.74638,32467
29.75452,36224
29.76263,37868
29.77075,37830
29.77888,40427
29.78700,35053
29.79513,35842
29.80325,32459
29.81137,35283
29.81950,34818
29.82762,35655
29.83573,30277
29.84387,37548
29.85198,33789
29.86012,31990
29.86823,36934
29.87635,41279
29.88448,41956
29.89260,46019
29.90073,60430
29.90885,66663
29.91697,77172
29.92510,67984
29.93322,70669
29.94135,61280
29.94947,52775
29.95758,46290
29.96572,44744
29.97383,44843
29.98195,53971
29.99008,55367
29.99820,61985
30.00633,71185
30.01445,77027
30.02257,89581
30.03070,91341
30.03882,95807
30.04695,103942
30.05507,93165
30.06318,99726
30.07132,96597
30.07943,89175
30.08755,89193
30.09568,82756
30.10380,82897
30.11193,76341
30.12005,75375
30.12817,70275
30.13630,70998
30.14442,65776
30.15255,64811
30.16067,61954
30.16878,61983
30.17692,62350
30.18503,61615
30.19317,54648
30.20128,52908
30.20940,55344
30.21753,49167
30.22565,51146
30.23377,49246
30.24190,50978
30.25002,53791
30.25815,50217
30.26627,49067
30.27438,49211
30.28252,45150
30.29063,50137
30.29877,44375
30.30688,47159
30.31500,49097
30.32313,49658
30.33125,40588
30.33938,42460
30.34750,46250
30.35562,44703
30.36375,45238
30.37187,42221
30.37998,46632
30.38812,45754
30.39623,41288
30.40437,45026
30.41248,40997
30.42060,38805
30.42873,39845
30.43685,38576
30.44498,41279
30.45310,40508
30.46122,38232
30.46935,39441
30.47747,39144
30.48558,38643
30.49372,42679
30.50183,42877
30.50997,38432
30.51808,38363
30.52620,38795
30.53433,39948
30.54245,39555
30.55058,37702
30.55870,40223
30.56682,35920
30.57495,34060
30.58307,39513
30.59120,38071
30.59932,37810
30.60743,37899
30.61557,36883
30.62368,37688
30.63180,37892
30.63993,35545
30.64805,36393
30.65618,34748
30.66430,38836
30.67242,33423
30.68055,34718
30.68867,36960
30.69680,36302
30.70492,35953
30.71303,35283
30.72117,36264
30.72928,34899
30.73742,38591
30.74553,37306
30.75365,37451
30.76178,39756
30.76990,36206
30.77802,39405
30.78615,33298
30.79427,35027
30.80240,44286
30.81052,40743
30.81863,37401
30.82677,38482
30.83488,46068
30.84302,41479
30.85113,38315
30.85925,41788
30.86738,38242
30.87550,34483
30.88362,35195
30.89175,32256
30.89987,31957
30.90800,32937
30.91612,37706
30.92423,35082
30.93237,39576
30.94048,33653
30.94862,33745
30.95673,44193
30.96485,34702
30.97298,33385
30.98110,36993
30.98923,34613
30.99735,34983
31.00547,36671
31.01360,36744
31.02172,32942
31.02983,34168
31.03797,35892
31.04608,35195
31.05422,39609
31.06233,34942
31.07045,37068
31.07858,40141
31.08670,43666
31.09483,49909
31.10295,60082
31.11107,71473
31.11920,86068
31.12732,86207
31.13543,79586
31.14357,71044
31.15168,60632
31.15982,53899
31.16793,48746
31.17605,44935
31.18418,42603
31.19230,44069
31.20043,56579
31.20855,64782
31.21667,84651
31.22480,98587
31.23292,113024
31.24105,121267
31.24917,105938
31.25728,96127
31.26542,77875
31.27353,62281
31.28165,50068
31.28978,49513
31.29790,44367
31.30603,38266
31.31415,43438
31.32227,39539
31.33040,38394
31.33852,41139
31.34665,38089
31.35477,37959
31.36288,40742
31.37102,37405
31.37913,40479
31.38727,45776
31.39538,45467
31.40350,46090
31.41163,47643
31.41975,45980
31.42787,44946
31.43600,45292
31.44412,43922
31.45225,42164
31.46037,43794
31.46848,39161
31.47662,36611
31.48473,37414
31.49287,35597
31.50098,40978
31.50910,42823
31.51723,35764
31.52535,31926
31.53348,31276
31.54160,36815
31.54972,38379
31.55785,36418
31.56597,37808
31.57408,38875
31.58222,38738
31.59033,33110
31.59847,36371
31.60658,37714
31.61470,36722
31.62283,34373
31.63095,37774
31.63908,41037
31.64720,37928
31.65532,33620
31.66345,39978
31.67157,37618
31.67968,36911
31.68782,38754
31.69593,36725
31.70407,36450
31.71218,38923
31.72030,35969
31.72843,39643
31.73655,38792
31.74468,35049
31.75280,35893
31.76092,39757
31.76905,33901
31.77717,36931
31.78530,35548
31.79342,37842
31.80153,35753
31.80967,39116
31.81778,38596
31.82590,37561
31.83403,39673
31.84215,36201
31.85028,39128
31.85840,41728
31.86652,42942
31.87465,42545
31.88277,44178
31.89090,45411
31.89902,43304
31.90713,48952
31.91527,46290
31.92338,49431
31.93150,53240
31.93963,52485
31.94775,58300
31.95588,60148
31.96400,62341
31.97212,73394
31.98025,77533
31.98837,81766
31.99650,74963
32.00462,77971
32.01273,77324
32.02087,72733
32.02898,66534
32.03712,64571
32.04523,67125
32.05335,63813
32.06148,60040
32.06960,59627
32.07772,54358
32.08585,61137
32.09397,56532
32.10210,59515
32.11022,55411
32.11833,53975
32.12647,55211
32.13458,49418
32.14272,45320
32.15083,46115
32.15895,45294
32.16708,43994
32.17520,42492
32.18333,44746
32.19145,42529
32.19957,43133
32.20770,38660
32.21582,44731
32.22393,46624
32.23207,39024
32.24018,41495
32.24832,42097
32.25643,40890
32.26455,42734
32.27268,43662
32.28080,43668
32.28893,43573
32.29705,44130
32.30517,39789
32.31330,39164
32.32142,42482
32.32953,45614
32.33767,38854
32.34578,44522
32.35392,43793
32.36203,42449
32.37015,41704
32.37828,43764
32.38640,43292
32.39453,41856
32.40265,42244
32.41077,42593
32.41890,40048
32.42702,37689
32.43515,40853
32.44327,41885
32.45138,41972
32.45952,38051
32.46763,38124
32.47575,39418
32.48388,41682
32.49200,35137
32.50013,41512
32.50825,33600
32.51637,36733
32.52450,40274
32.53262,35464
32.54075,39819
32.54887,36428
32.55698,37238
32.56512,39606
32.57323,39416
32.58137,36617
32.58948,37780
32.59760,41149
32.60573,38463
32.61385,39033
32.62197,41626
32.63010,38542
32.63822,35636
32.64635,38395
32.65447,36965
32.66258,36946
32.67072,47937
32.67883,49618
32.68697,51505
32.69508,60845
32.70320,56292
32.71133,53886
32.71945,51476
32.72757,48032
32.73570,42094
32.74382,42450
32.75195,43257
32.76007,35152
32.76818,40163
32.77632,37716
32.78443,37410
32.79257,38099
32.80068,38694
32.80880,35354
32.81693,37832
32.82505,32522
32.83318,34844
32.84130,36258
32.84942,38250
32.85755,39698
32.86567,35422
32.87378,37186
32.88192,36974
32.89003,40622
32.89817,34888
32.90628,46102
32.91440,39311
32.92253,39540
32.93065,44730
32.93878,37096
32.94690,39541
32.95502,42380
32.96315,38318
32.97127,34892
32.97938,36110
32.98752,38059
32.99563,40114
33.00377,35956
33.01188,37844
33.02000,35489
33.02813,39816
33.03625,39140
33.04438,40609
33.05250,36251
33.06062,33572
33.06875,38346
33.07687,37386
33.08500,43213
33.09312,40207
33.10123,40046
33.10937,52819
33.11748,53142
33.12560,49807
33.13373,57021
33.14185,55507
33.14998,53945
33.15810,43609
33.16622,46604
33.17435,43143
33.18247,45813
33.19060,36321
33.19872,38854
33.20683,42117
33.21497,40393
33.22308,40316
33.23122,43048
33.23933,43852
33.24745,41997
33.25558,45593
33.26370,39568
33.27182,41347
33.27995,36450
33.28807,36276
33.29620,37124
33.30432,41690
33.31243,39385
33.32057,42018
33.32868,38306
33.33682,38250
33.34493,35782
33.35305,39969
33.36118,39163
33.36930,38440
33.37742,44472
33.38555,35710
33.39367,37877
33.40180,42775
33.40992,42224
33.41803,35131
33.42617,40258
33.43428,36108
33.44242,34090
33.45053,32665
33.45865,33833
33.46678,39455
33.47490,38369
33.48303,35868
33.49115,39797
33.49927,39652
33.50740,41065
33.51552,40474
33.52363,36286
33.53177,32737
33.53988,33450
33.54802,39715
33.55613,43097
33.56425,36516
33.57238,35720
33.58050,39089
33.58863,36039
33.59675,38932
33.60487,38219
33.61300,36644
33.62112,38300
33.62925,37605
33.63737,37904
33.64548,35954
33.65362,40067
33.66173,36240
33.66985,37373
33.67798,38702
33.68610,43100
33.69423,41095
33.70235,33467
33.71047,37285
33.71860,40000
33.72672,34989
33.73485,37059
33.74297,38911
33.75108,38106
33.75922,37543
33.76733,35822
33.77545,38325
33.78358,37584
33.79170,44097
33.79983,40305
33.80795,42448
33.81607,37049
33.82420,42395
33.83232,39783
33.84045,42242
33.84857,41559
33.85668,36803
33.86482,42377
33.87293,44346
33.88107,43416
33.88918,44129
33.89730,39769
33.90543,42585
33.91355,38275
33.92167,36299
33.92980,37801
33.93792,42541
33.94605,39944
33.95417,45849
33.96228,40234
33.97042,42204
33.97853,41134
33.98667,33331
33.99478,45009
34.00290,42557
34.01103,42368
34.01915,41452
34.02727,37456
34.03540,40720
34.04352,40988
34.05165,41115
34.05977,39856
34.06788,41735
34.07602,41884
34.08413,39661
34.09227,37869
34.10038,36770
34.10850,39065
34.11663,36802
34.12475,40381
34.13288,40080
34.14100,38598
34.14912,42402
34.15725,39563
34.16537,44470
34.17348,42136
34.18162,43090
34.18973,42441
34.19787,40216
34.20598,39881
34.21410,42306
34.22223,40479
34.23035,38303
34.23848,40981
34.24660,39022
34.25472,41848
34.26285,41049
34.27097,40361
34.27910,40900
34.28722,41230
34.29533,38384
34.30347,39008
34.31158,43685
34.31970,40633
34.32783,43332
34.33595,41516
34.34408,41806
34.35220,41383
34.36032,39659
34.36845,35855
34.37657,41862
34.38470,42386
34.39282,43699
34.40093,41300
34.40907,41800
34.41718,46794
34.42530,40819
34.43343,41276
34.44155,40165
34.44968,41915
34.45780,42696
34.46592,45135
34.47405,42590
34.48217,43391
34.49030,39426
34.49842,42495
34.50653,43359
34.51467,40958
34.52278,40904
34.53092,46301
34.53903,46623
34.54715,55636
34.55528,61759
34.56340,68705
34.57152,69282
34.57965,74940
34.58777,76767
34.59590,68747
34.60402,72162
34.61213,60847
34.62027,64269
34.62838,55722
34.63652,55854
34.64463,54885
34.65275,53282
34.66088,52058
34.66900,56686
34.67713,56103
34.68525,50014
34.69337,47201
34.70150,48367
34.70962,50668
34.71773,46318
34.72587,45105
34.73398,50861
34.74212,48223
34.75023,49374
34.75835,47181
34.76648,48183
34.77460,47758
34.78273,44261
34.79085,47055
34.79897,45777
34.80710,47808
34.81522,47873
34.82333,43271
34.83147,47915
34.83958,43449
34.84772,44208
34.85583,46803
34.86395,44461
34.87208,41282
34.88020,44059
34.88833,45941
34.89645,46813
34.90457,43708
34.91270,45417
34.92082,51359
34.92895,45800
34.93707,48769
34.94518,45651
34.95332,50612
34.96143,63357
34.96955,79634
34.97768,99254
34.98580,124607
34.99393,134387
35.00205,139908
35.01017,119225
35.01830,101666
35.02642,82050
35.03455,70439
35.04267,57770
35.05078,59854
35.05892,48687
35.06703,53820
35.07517,58931
35.08328,53571
35.09140,55276
35.09953,50948
35.10765,55854
35.11577,52233
35.12390,52211
35.13202,50254
35.14015,52701
35.14827,52664
35.15638,52065
35.16452,53644
35.17263,52155
35.18077,54164
35.18888,54452
35.19700,51805
35.20513,49287
35.21325,52754
35.22137,48894
35.22950,46842
35.23762,44594
35.24575,48205
35.25387,50416
35.26198,45910
35.27012,50034
35.27823,45824
35.28637,45250
35.29448,57749
35.30260,49415
35.31073,46043
35.31885,47762
35.32698,47361
35.33510,47936
35.34322,48978
35.35135,46566
35.35947,41586
35.36758,47180
35.37572,47406
35.38383,44861
35.39197,47552
35.40008,48062
35.40820,47876
35.41633,44450
35.42445,44821
35.43258,44033
35.44070,43623
35.44882,47856
35.45695,45287
35.46507,49153
35.47318,50845
35.48132,48795
35.48943,45417
35.49757,50379
35.50568,46141
35.51380,48353
35.52193,51619
35.53005,53833
35.53818,47195
35.54630,45720
35.55442,46271
35.56255,50285
35.57067,43237
35.57880,47021
35.58692,50836
35.59503,47977
35.60317,50612
35.61128,49200
35.61940,52741
35.62753,50968
35.63565,53413
35.64378,48653
35.65190,48533
35.66002,47198
35.66815,46919
35.67627,43389
35.68440,49713
35.69252,51294
35.70063,58085
35.70877,54767
35.71688,53725
35.72502,51130
35.73313,47917
35.74125,51382
35.74938,52364
35.75750,48814
35.76562,52413
35.77375,45708
35.78187,54741
35.79000,49502
35.79812,50351
35.80623,47902
35.81437,50831
35.82248,49792
35.83062,47392
35.83873,49757
35.84685,47990
35.85498,49003
35.86310,48635
35.87122,50300
35.87935,47692
35.88747,50311
35.89560,53716
35.90372,49955
35.91183,47723
35.91997,51589
35.92808,47202
35.93622,51399
35.94433,49993
35.95245,47615
35.96058,48418
35.96870,44154
35.97683,49462
35.98495,47953
35.99307,49060
36.00120,50276
36.00932,47236
36.01743,49937
36.02557,54652
36.03368,53876
36.04182,50996
36.04993,53264
36.05805,51192
36.06618,52312
36.07430,52973
36.08243,56508
36.09055,49964
36.09867,49663
36.10680,51254
36.11492,48468
36.12305,47955
36.13117,49572
36.13928,48729
36.14742,52290
36.15553,48126
36.16365,48089
36.17178,52579
36.17990,50660
36.18803,50500
36.19615,47819
36.20427,47644
36.21240,43525
36.22052,50014
36.22865,50754
36.23677,53561
36.24488,48507
36.25302,47889
36.26113,52220
36.26925,45850
36.27738,48290
36.28550,49814
36.29363,56973
36.30175,48617
36.30987,55044
36.31800,58193
36.32612,64676
36.33425,68108
36.34237,67451
36.35048,66927
36.35862,61198
36.36673,63206
36.37487,58087
36.38298,52036
36.39110,51845
36.39923,52959
36.40735,56329
36.41547,59470
36.42360,59968
36.43172,52474
36.43985,52614
36.44797,49051
36.45608,44867
36.46422,52185
36.47233,48184
36.48047,54230
36.48858,51269
36.49670,50273
36.50483,53884
36.51295,50366
36.52107,51876
36.52920,55813
36.53732,49592
36.54545,49175
36.55357,57455
36.56168,49677
36.56982,50065
36.57793,50955
36.58607,49222
36.59418,52059
36.60230,52446
36.61043,51752
36.61855,47851
36.62668,48495
36.63480,49625
36.64292,47668
36.65105,51241
36.65917,51076
36.66728,50706
36.67542,50060
36.68353,61803
36.69167,51686
36.69978,52053
36.70790,53184
36.71603,51962
36.72415,52050
36.73228,49217
36.74040,55898
36.74852,53797
36.75665,48594
36.76477,53479
36.77290,54259
36.78102,51493
36.78913,52354
36.79727,53032
36.80538,45651
36.81350,51435
36.82163,52709
36.82975,49430
36.83788,49462
36.84600,51001
36.85412,53525
36.86225,51970
36.87037,49339
36.87850,52123
36.88662,52803
36.89473,47772
36.90287,56012
36.91098,56459
36.91910,53062
36.92723,50502
36.93535,50007
36.94348,49254
36.95160,52895
36.95972,54682
36.96785,50786
36.97597,55870
36.98410,49511
36.99222,55191
37.00033,54042
37.00847,54385
37.01658,53461
37.02472,54516
37.03283,50582
37.04095,54133
37.04908,52331
37.05720,52660
37.06532,52506
37.07345,51546
37.08157,50608
37.08970,58045
37.09782,54337
37.10593,53705
37.11407,57657
37.12218,56903
37.13032,53516
37.13843,52298
37.14655,51498
37.15468,53965
37.16280,56921
37.17093,52282
37.17905,57130
37.18717,52717
37.19530,51855
37.20342,51041
37.21153,56382
37.21967,55537
37.22778,58011
37.23592,61496
37.24403,52768
37.25215,57713
37.26028,55600
37.26840,54454
37.27653,53755
37.28465,55827
37.29277,56202
37.30090,55443
37.30902,55299
37.31713,54110
37.32527,56018
37.33338,62125
37.34152,57488
37.34963,64752
37.35775,66295
37.36588,63131
37.37400,73293
37.38213,74598
37.39025,73911
37.39837,77406
37.40650,71182
37.41462,69170
37.42275,70387
37.43087,64166
37.43898,64880
37.44712,59536
37.45523,68613
37.46335,58453
37.47148,60922
37.47960,58399
37.48773,65701
