C:\MassHunter\GCMS\1\data\JTB-E18\JTB-E18-028-09.D Thu Sep 19 15:09:01 2019
Start of data points
2.09520	87701
2.10333	89052
2.11145	88518
2.11958	87039
2.12770	84028
2.13582	84734
2.14395	84825
2.15207	82956
2.16020	80303
2.16832	78946
2.17643	81877
2.18457	78401
2.19268	77553
2.20082	76406
2.20893	77811
2.21705	69668
2.22518	74532
2.23330	67306
2.24142	75166
2.24955	73007
2.25767	67951
2.26580	117483
2.27392	814788
2.28203	2097474
2.29017	1540628
2.29828	682871
2.30642	415932
2.31453	329393
2.32265	287552
2.33078	252862
2.33890	236897
2.34702	211713
2.35515	190912
2.36327	173964
2.37140	160067
2.37952	176353
2.38763	220497
2.39577	198646
2.40388	160846
2.41202	154036
2.42013	148829
2.42825	151391
2.43638	148052
2.44450	152905
2.45263	161379
2.46075	145936
2.46887	133383
2.47700	131257
2.48512	124382
2.49323	138243
2.50137	149211
2.50948	129581
2.51762	132108
2.52573	126664
2.53385	112240
2.54198	116697
2.55010	121692
2.55823	119516
2.56635	115585
2.57447	116399
2.58260	113083
2.59072	118293
2.59883	109879
2.60697	117104
2.61508	121933
2.62322	131014
2.63133	121864
2.63945	123481
2.64758	112833
2.65570	115345
2.66383	113290
2.67195	116889
2.68007	151255
2.68820	142083
2.69632	122624
2.70445	107732
2.71257	109343
2.72068	104237
2.72882	104123
2.73693	107714
2.74505	110397
2.75318	111000
2.76130	103220
2.76943	100605
2.77755	97300
2.78567	101545
2.79380	101369
2.80192	103685
2.81005	110402
2.81817	121914
2.82628	232859
2.83442	481286
2.84253	480834
2.85067	276248
2.85878	189358
2.86690	189789
2.87503	166602
2.88315	140469
2.89127	127260
2.89940	119636
2.90752	112188
2.91565	108051
2.92377	108089
2.93188	102741
2.94002	101905
2.94813	98979
2.95627	104050
2.96438	103600
2.97250	103944
2.98063	102147
2.98875	104730
2.99687	108297
3.00500	118020
3.01312	134206
3.02125	153119
3.02937	301097
3.03748	559133
3.04562	860043
3.05373	2456132
3.06187	5944176
3.06998	6483765
3.07810	3745281
3.08623	1742239
3.09435	1014039
3.10248	718012
3.11060	566320
3.11872	467230
3.12685	392701
3.13497	338806
3.14308	302704
3.15122	277112
3.15933	255250
3.16747	243431
3.17558	232006
3.18370	221720
3.19183	206814
3.19995	196739
3.20808	186990
3.21620	183748
3.22432	182882
3.23245	190114
3.24057	180262
3.24870	159132
3.25682	156316
3.26493	154836
3.27307	156924
3.28118	225512
3.28930	611954
3.29743	1745963
3.30555	3431063
3.31368	4251730
3.32180	3492958
3.32992	2443939
3.33805	1717159
3.34617	1307161
3.35430	1054709
3.36242	902803
3.37053	898718
3.37867	1034911
3.38678	1073676
3.39490	936344
3.40303	1125641
3.41115	2140794
3.41928	3216087
3.42740	2752707
3.43552	1602649
3.44365	952947
3.45177	696191
3.45990	597856
3.46802	528656
3.47613	487264
3.48427	446246
3.49238	399447
3.50052	385859
3.50863	365699
3.51675	343136
3.52488	322059
3.53300	314310
3.54112	297320
3.54925	289537
3.55737	271595
3.56550	272702
3.57362	266735
3.58173	261994
3.58987	260017
3.59798	245171
3.60612	247431
3.61423	320402
3.62235	628339
3.63048	1301376
3.63860	1828592
3.64672	1551494
3.65485	962423
3.66297	586185
3.67110	436304
3.67922	368962
3.68733	325020
3.69547	298618
3.70358	287386
3.71172	272724
3.71983	259809
3.72795	256133
3.73608	250605
3.74420	260094
3.75233	254345
3.76045	258669
3.76857	238977
3.77670	225866
3.78482	224292
3.79293	220371
3.80107	213225
3.80918	209818
3.81732	219677
3.82543	215136
3.83355	219576
3.84168	212832
3.84980	206050
3.85793	202498
3.86605	189543
3.87417	188843
3.88230	182840
3.89042	186289
3.89855	188986
3.90667	187061
3.91478	181019
3.92292	182742
3.93103	181251
3.93915	174890
3.94728	174313
3.95540	178314
3.96353	174442
3.97165	174933
3.97977	166749
3.98790	168567
3.99602	167738
4.00415	168300
4.01227	167978
4.02038	166854
4.02852	163233
4.03663	169387
4.04475	162621
4.05288	174055
4.06100	171012
4.06913	165866
4.07725	162559
4.08537	163542
4.09350	161996
4.10162	155921
4.10975	154492
4.11787	156144
4.12598	160594
4.13412	170206
4.14223	171102
4.15037	179031
4.15848	170746
4.16660	169346
4.17473	163724
4.18285	154408
4.19097	151971
4.19910	152638
4.20722	151116
4.21535	152665
4.22347	170309
4.23158	189403
4.23972	198638
4.24783	191077
4.25597	174964
4.26408	169897
4.27220	159253
4.28033	153407
4.28845	152554
4.29658	150764
4.30470	146576
4.31282	150462
4.32095	154164
4.32907	150061
4.33718	148877
4.34532	150914
4.35343	138862
4.36157	144803
4.36968	138955
4.37780	145478
4.38593	137998
4.39405	143703
4.40218	132708
4.41030	134897
4.41842	134905
4.42655	134536
4.43467	146167
4.44278	146480
4.45092	156085
4.45903	159737
4.46717	154034
4.47528	156544
4.48340	147987
4.49153	144020
4.49965	141041
4.50778	134264
4.51590	142762
4.52402	135154
4.53215	136405
4.54027	133222
4.54840	127332
4.55652	129870
4.56463	138247
4.57277	129356
4.58088	135957
4.58900	137814
4.59713	134042
4.60525	127611
4.61338	125923
4.62150	124573
4.62962	131158
4.63775	119833
4.64587	119745
4.65400	133323
4.66212	125263
4.67023	129592
4.67837	123776
4.68648	124600
4.69460	124978
4.70273	126054
4.71085	126288
4.71898	120143
4.72710	125560
4.73522	126268
4.74335	124239
4.75147	126742
4.75960	120488
4.76772	126999
4.77583	121850
4.78397	122158
4.79208	118729
4.80022	122300
4.80833	123920
4.81645	131252
4.82458	128354
4.83270	126849
4.84082	128847
4.84895	124680
4.85707	124611
4.86520	131033
4.87332	132820
4.88143	129397
4.88957	125057
4.89768	127100
4.90582	126047
4.91393	141613
4.92205	224176
4.93018	428479
4.93830	813984
4.94643	1228911
4.95455	1415542
4.96267	1252074
4.97080	962032
4.97892	719117
4.98703	549291
4.99517	453250
5.00328	380431
5.01142	337676
5.01953	299947
5.02765	280535
5.03578	267055
5.04390	257238
5.05203	246475
5.06015	234225
5.06827	223995
5.07640	215055
5.08452	217571
5.09265	222839
5.10077	251711
5.10888	299364
5.11702	335060
5.12513	337017
5.13325	294011
5.14138	246772
5.14950	221484
5.15763	220366
5.16575	230169
5.17387	268688
5.18200	321383
5.19012	322650
5.19825	300616
5.20637	262269
5.21448	241448
5.22262	243654
5.23073	312698
5.23885	418007
5.24698	455038
5.25510	408126
5.26323	323807
5.27135	265774
5.27947	232853
5.28760	218763
5.29572	209775
5.30385	190760
5.31197	183606
5.32008	182497
5.32822	178191
5.33633	181439
5.34447	175437
5.35258	176615
5.36070	171821
5.36883	162975
5.37695	158610
5.38507	152742
5.39320	150740
5.40132	148792
5.40945	142965
5.41757	150725
5.42568	146254
5.43382	143039
5.44193	147223
5.45007	147084
5.45818	140515
5.46630	140210
5.47443	139477
5.48255	138441
5.49067	136344
5.49880	142277
5.50692	142757
5.51505	137736
5.52317	142009
5.53128	136796
5.53942	141359
5.54753	136680
5.55567	140987
5.56378	133994
5.57190	138902
5.58003	142371
5.58815	143556
5.59628	146039
5.60440	145754
5.61252	144006
5.62065	148113
5.62877	157368
5.63688	163953
5.64502	161903
5.65313	163587
5.66127	149996
5.66938	151400
5.67750	158383
5.68563	170330
5.69375	177771
5.70188	170652
5.71000	178718
5.71812	191456
5.72625	195369
5.73437	203512
5.74250	198287
5.75062	192573
5.75873	200438
5.76687	223025
5.77498	215243
5.78310	202334
5.79123	196297
5.79935	222487
5.80748	350559
5.81560	605366
5.82372	972544
5.83185	1221036
5.83997	1230472
5.84810	958618
5.85622	630361
5.86433	433567
5.87247	311732
5.88058	247531
5.88870	227209
5.89683	221659
5.90495	246712
5.91308	330635
5.92120	457375
5.92932	555337
5.93745	579007
5.94557	475647
5.95370	366654
5.96182	267765
5.96993	218375
5.97807	186556
5.98618	176736
5.99432	171254
6.00243	154303
6.01055	145748
6.01868	138680
6.02680	131572
6.03492	126819
6.04305	125584
6.05117	119820
6.05930	119402
6.06742	111391
6.07553	113236
6.08367	112620
6.09178	111710
6.09992	104821
6.10803	110620
6.11615	107276
6.12428	105104
6.13240	109709
6.14053	113972
6.14865	111582
6.15677	113117
6.16490	114781
6.17302	123470
6.18113	140606
6.18927	147170
6.19738	160497
6.20552	170553
6.21363	161514
6.22175	141965
6.22988	137456
6.23800	133282
6.24613	131656
6.25425	134734
6.26237	134384
6.27050	141883
6.27862	136425
6.28673	144140
6.29487	138471
6.30298	149612
6.31112	144170
6.31923	154618
6.32735	153186
6.33548	161650
6.34360	164638
6.35173	173539
6.35985	170937
6.36797	170791
6.37610	170551
6.38422	163856
6.39235	169357
6.40047	176995
6.40858	168020
6.41672	175463
6.42483	170701
6.43295	179618
6.44108	191654
6.44920	185595
6.45733	184517
6.46545	191569
6.47357	191140
6.48170	194019
6.48982	187867
6.49795	194583
6.50607	199438
6.51418	199952
6.52232	197120
6.53043	202986
6.53855	208980
6.54668	209720
6.55480	210083
6.56293	209534
6.57105	190792
6.57917	153045
6.58730	135000
6.59542	130543
6.60355	122857
6.61167	122851
6.61978	115741
6.62792	111954
6.63603	108021
6.64417	109161
6.65228	104730
6.66040	106856
6.66853	106196
6.67665	106024
6.68477	107323
6.69290	113419
6.70102	130230
6.70915	157192
6.71727	186742
6.72538	204288
6.73352	192482
6.74163	172200
6.74977	150000
6.75788	124064
6.76600	113556
6.77413	100274
6.78225	100464
6.79038	90924
6.79850	96091
6.80662	92982
6.81475	99760
6.82287	115808
6.83098	170147
6.83912	261440
6.84723	422617
6.85537	624436
6.86348	770046
6.87160	768419
6.87973	674107
6.88785	464877
6.89598	294641
6.90410	192065
6.91222	131638
6.92035	111597
6.92847	91736
6.93658	84760
6.94472	81782
6.95283	78062
6.96097	74247
6.96908	70788
6.97720	80029
6.98533	95576
6.99345	127925
7.00158	182929
7.00970	248233
7.01782	311900
7.02595	332276
7.03407	288566
7.04220	230057
7.05032	168089
7.05843	127161
7.06657	103566
7.07468	92035
7.08280	91002
7.09093	92170
7.09905	96733
7.10718	99181
7.11530	99759
7.12342	95377
7.13155	86478
7.13967	80988
7.14780	78971
7.15592	80584
7.16403	77889
7.17217	79091
7.18028	79672
7.18842	79482
7.19653	80536
7.20465	82631
7.21278	80238
7.22090	86715
7.22902	91805
7.23715	99874
7.24527	114670
7.25340	123635
7.26152	139681
7.26963	140240
7.27777	131855
7.28588	111708
7.29402	102880
7.30213	104187
7.31025	105343
7.31838	112424
7.32650	110108
7.33462	110175
7.34275	98888
7.35087	97792
7.35900	110362
7.36712	136635
7.37523	187482
7.38337	221655
7.39148	242740
7.39962	233228
7.40773	202392
7.41585	152702
7.42398	127587
7.43210	110816
7.44023	96140
7.44835	99201
7.45647	91204
7.46460	92825
7.47272	109326
7.48083	132085
7.48897	160125
7.49708	168305
7.50522	173922
7.51333	152442
7.52145	121321
7.52958	105443
7.53770	86043
7.54583	85896
7.55395	82636
7.56207	75833
7.57020	77791
7.57832	72914
7.58645	73414
7.59457	71976
7.60268	73108
7.61082	71828
7.61893	67660
7.62705	68225
7.63518	70908
7.64330	71152
7.65143	71452
7.65955	68075
7.66767	72405
7.67580	68744
7.68392	71692
7.69205	64632
7.70017	68255
7.70828	61706
7.71642	65521
7.72453	64752
7.73265	64197
7.74078	63929
7.74890	59004
7.75703	63686
7.76515	60962
7.77327	65107
7.78140	61351
7.78952	61830
7.79765	62387
7.80577	61145
7.81388	57314
7.82202	60648
7.83013	60096
7.83827	57779
7.84638	58942
7.85450	55942
7.86263	63120
7.87075	58084
7.87887	60234
7.88700	57744
7.89512	60415
7.90325	55999
7.91137	54771
7.91948	54904
7.92762	52455
7.93573	54668
7.94387	58714
7.95198	56602
7.96010	55896
7.96823	59580
7.97635	57141
7.98447	60800
7.99260	59494
8.00072	54884
8.00885	58110
8.01697	57367
8.02508	59299
8.03322	57701
8.04133	52029
8.04947	52912
8.05758	55223
8.06570	55068
8.07383	49888
8.08195	54088
8.09008	55310
8.09820	57029
8.10632	53588
8.11445	52274
8.12257	57809
8.13068	54138
8.13882	52688
8.14693	55633
8.15507	54646
8.16318	60682
8.17130	57739
8.17943	55472
8.18755	58191
8.19568	56915
8.20380	54276
8.21192	49918
8.22005	55092
8.22817	54555
8.23630	52451
8.24442	51686
8.25253	53086
8.26067	54655
8.26878	53032
8.27690	53970
8.28503	59799
8.29315	51005
8.30128	51691
8.30940	51491
8.31752	50646
8.32565	56835
8.33377	60704
8.34190	60108
8.35002	70097
8.35813	62373
8.36627	56810
8.37438	50731
8.38250	52813
8.39063	52499
8.39875	52849
8.40688	54345
8.41500	51012
8.42312	52644
8.43125	53840
8.43937	49228
8.44750	47160
8.45562	49095
8.46373	51865
8.47187	46791
8.47998	48273
8.48812	49574
8.49623	53634
8.50435	59645
8.51248	60533
8.52060	70768
8.52872	67184
8.53685	69892
8.54497	62574
8.55310	61313
8.56122	58538
8.56933	55403
8.57747	56129
8.58558	52109
8.59372	53400
8.60183	50815
8.60995	55449
8.61808	51877
8.62620	48140
8.63433	51064
8.64245	51115
8.65057	51136
8.65870	50486
8.66682	53760
8.67493	51005
8.68307	53823
8.69118	52632
8.69932	53156
8.70743	54591
8.71555	57335
8.72368	68592
8.73180	86902
8.73993	137159
8.74805	226343
8.75617	320320
8.76430	373743
8.77242	340490
8.78053	264889
8.78867	203638
8.79678	153525
8.80492	132440
8.81303	122619
8.82115	113019
8.82928	102926
8.83740	104219
8.84553	91691
8.85365	88111
8.86177	85338
8.86990	86021
8.87802	77764
8.88615	77018
8.89427	78719
8.90238	80892
8.91052	73803
8.91863	71590
8.92675	72230
8.93488	69290
8.94300	72395
8.95113	74172
8.95925	68206
8.96737	63301
8.97550	66217
8.98362	63751
8.99175	62053
8.99987	61334
9.00798	65360
9.01612	61935
9.02423	60058
9.03235	64309
9.04048	61189
9.04860	64654
9.05673	64695
9.06485	64464
9.07297	55552
9.08110	62845
9.08922	60000
9.09735	58403
9.10547	60562
9.11358	60899
9.12172	58534
9.12983	61741
9.13797	59707
9.14608	59991
9.15420	61383
9.16233	60079
9.17045	58275
9.17857	60285
9.18670	56643
9.19482	55456
9.20295	58700
9.21107	55446
9.21918	57055
9.22732	60215
9.23543	54358
9.24357	56361
9.25168	59311
9.25980	56142
9.26793	64983
9.27605	66304
9.28418	66528
9.29230	71522
9.30042	68134
9.30855	65971
9.31667	60154
9.32478	62061
9.33292	59118
9.34103	59718
9.34917	59235
9.35728	68471
9.36540	59924
9.37353	55164
9.38165	55621
9.38978	57215
9.39790	52759
9.40602	52652
9.41415	54220
9.42227	52570
9.43038	50549
9.43852	49920
9.44663	56237
9.45477	50164
9.46288	50930
9.47100	46373
9.47913	45366
9.48725	51847
9.49538	49315
9.50350	48121
9.51162	51554
9.51975	53306
9.52787	53337
9.53600	49467
9.54412	47480
9.55223	45821
9.56037	44753
9.56848	45120
9.57660	45849
9.58473	46178
9.59285	47475
9.60098	49177
9.60910	44206
9.61722	44801
9.62535	46493
9.63347	43657
9.64160	50731
9.64972	51182
9.65783	49702
9.66597	47846
9.67408	44431
9.68222	44824
9.69033	40802
9.69845	37816
9.70658	42164
9.71470	43525
9.72282	38409
9.73095	39162
9.73907	38237
9.74720	38532
9.75532	41626
9.76343	37789
9.77157	37523
9.77968	40892
9.78782	42107
9.79593	37325
9.80405	35937
9.81218	36649
9.82030	35099
9.82842	39366
9.83655	39294
9.84467	36773
9.85280	40892
9.86092	35667
9.86903	38093
9.87717	38330
9.88528	37438
9.89342	37296
9.90153	36120
9.90965	38816
9.91778	34435
9.92590	37551
9.93403	38332
9.94215	42467
9.95027	44560
9.95840	57509
9.96652	66745
9.97463	63252
9.98277	69059
9.99088	65756
9.99902	64930
10.00713	54166
10.01525	44134
10.02338	40077
10.03150	46010
10.03963	42367
10.04775	42587
10.05587	45627
10.06400	40514
10.07212	46033
10.08023	43144
10.08837	38906
10.09648	42002
10.10462	38829
10.11273	38788
10.12085	36576
10.12898	38151
10.13710	38665
10.14523	36932
10.15335	36728
10.16147	34348
10.16960	30451
10.17772	37205
10.18585	37276
10.19397	36281
10.20208	34117
10.21022	38822
10.21833	42741
10.22645	40897
10.23458	42158
10.24270	44563
10.25083	43238
10.25895	40851
10.26707	44499
10.27520	44581
10.28332	42857
10.29145	38871
10.29957	40750
10.30768	43497
10.31582	40825
10.32393	42051
10.33207	39949
10.34018	39075
10.34830	42107
10.35643	37733
10.36455	38059
10.37267	39616
10.38080	43028
10.38892	40664
10.39705	44462
10.40517	43111
10.41328	42243
10.42142	37664
10.42953	36975
10.43767	37753
10.44578	36359
10.45390	35797
10.46203	36413
10.47015	35149
10.47828	34852
10.48640	34493
10.49452	37664
10.50265	35036
10.51077	37684
10.51888	42356
10.52702	40824
10.53513	42136
10.54327	39886
10.55138	39536
10.55950	38624
10.56763	34270
10.57575	33578
10.58388	35108
10.59200	36469
10.60012	34096
10.60825	34341
10.61637	35259
10.62448	39115
10.63262	36038
10.64073	38982
10.64887	33998
10.65698	36306
10.66510	34219
10.67323	33437
10.68135	34143
10.68948	35308
10.69760	36628
10.70572	39385
10.71385	39502
10.72197	38130
10.73010	40491
10.73822	39118
10.74633	40245
10.75447	36254
10.76258	39908
10.77070	43194
10.77883	34584
10.78695	35015
10.79508	37748
10.80320	33697
10.81132	32722
10.81945	34406
10.82757	34940
10.83570	33469
10.84382	32383
10.85193	35868
10.86007	30381
10.86818	31472
10.87630	30412
10.88443	30753
10.89255	29245
10.90068	32826
10.90880	31999
10.91692	32864
10.92505	30897
10.93317	31475
10.94130	31654
10.94942	31041
10.95753	30384
10.96567	33610
10.97378	34943
10.98192	33219
10.99003	34926
10.99815	35481
11.00628	32598
11.01440	32959
11.02252	33245
11.03065	29687
11.03877	28527
11.04690	30178
11.05502	32747
11.06313	31884
11.07127	35944
11.07938	36611
11.08752	36673
11.09563	37671
11.10375	36369
11.11188	42363
11.12000	42838
11.12813	48195
11.13625	48990
11.14437	50956
11.15250	53801
11.16062	50185
11.16873	50800
11.17687	51400
11.18498	51773
11.19312	51625
11.20123	51462
11.20935	51959
11.21748	51161
11.22560	48080
11.23373	46429
11.24185	46905
11.24997	44146
11.25810	47634
11.26622	51493
11.27433	58115
11.28247	70198
11.29058	87805
11.29872	101361
11.30683	111158
11.31495	110307
11.32308	98447
11.33120	95102
11.33933	79382
11.34745	77348
11.35557	79891
11.36370	76031
11.37182	70553
11.37995	66943
11.38807	59214
11.39618	60714
11.40432	59255
11.41243	53778
11.42055	52773
11.42868	54372
11.43680	50882
11.44493	46816
11.45305	47505
11.46117	48768
11.46930	49056
11.47742	53321
11.48555	48216
11.49367	44885
11.50178	43947
11.50992	48260
11.51803	47048
11.52617	53318
11.53428	58940
11.54240	55804
11.55053	60699
11.55865	57580
11.56677	59784
11.57490	54859
11.58302	56107
11.59115	51535
11.59927	48705
11.60738	52318
11.61552	56113
11.62363	49770
11.63177	45794
11.63988	45348
11.64800	44767
11.65613	42730
11.66425	47710
11.67237	46700
11.68050	50216
11.68862	49339
11.69675	58039
11.70487	59913
11.71298	62285
11.72112	67726
11.72923	64297
11.73737	67046
11.74548	66296
11.75360	61501
11.76173	60619
11.76985	63427
11.77798	59466
11.78610	57742
11.79422	57837
11.80235	55364
11.81047	52972
11.81858	53927
11.82672	51262
11.83483	44699
11.84297	45796
11.85108	43413
11.85920	48302
11.86733	46196
11.87545	44505
11.88358	44763
11.89170	44022
11.89982	42723
11.90795	39985
11.91607	44110
11.92418	49950
11.93232	49599
11.94043	55934
11.94857	55175
11.95668	58211
11.96480	54762
11.97293	50710
11.98105	51263
11.98918	50503
11.99730	44056
12.00542	43864
12.01355	43294
12.02167	42171
12.02980	37764
12.03792	43065
12.04603	38382
12.05417	39025
12.06228	38532
12.07040	37134
12.07853	35910
12.08665	35736
12.09478	39933
12.10290	36005
12.11102	38658
12.11915	38039
12.12727	39337
12.13540	35826
12.14352	39195
12.15163	37446
12.15977	37840
12.16788	37117
12.17602	36636
12.18413	33131
12.19225	35291
12.20038	35915
12.20850	36623
12.21662	35801
12.22475	36911
12.23287	36481
12.24100	35219
12.24912	35577
12.25723	34843
12.26537	35357
12.27348	37882
12.28162	38364
12.28973	35525
12.29785	36952
12.30598	39349
12.31410	39998
12.32222	37549
12.33035	36817
12.33847	35530
12.34660	36063
12.35472	36346
12.36283	39215
12.37097	38488
12.37908	36232
12.38722	38987
12.39533	37336
12.40345	38666
12.41158	38665
12.41970	39744
12.42783	37231
12.43595	39568
12.44407	37044
12.45220	38647
12.46032	39409
12.46843	39646
12.47657	35259
12.48468	36172
12.49282	36462
12.50093	34545
12.50905	38637
12.51718	36792
12.52530	35403
12.53343	33128
12.54155	35840
12.54967	35993
12.55780	36731
12.56592	32525
12.57405	31861
12.58217	36172
12.59028	31255
12.59842	34015
12.60653	35912
12.61465	30900
12.62278	32130
12.63090	33722
12.63903	34577
12.64715	30745
12.65527	30304
12.66340	34271
12.67152	34862
12.67965	31433
12.68777	30987
12.69588	35342
12.70402	34077
12.71213	35516
12.72025	37244
12.72838	39302
12.73650	39851
12.74463	42885
12.75275	39838
12.76087	41309
12.76900	37615
12.77712	35275
12.78525	37921
12.79337	40091
12.80148	41929
12.80962	40203
12.81773	41743
12.82587	42982
12.83398	43652
12.84210	37334
12.85023	39976
12.85835	38197
12.86647	37315
12.87460	35148
12.88272	36718
12.89085	34673
12.89897	31525
12.90708	31099
12.91522	31694
12.92333	34217
12.93147	34225
12.93958	39854
12.94770	47149
12.95583	53016
12.96395	64923
12.97207	77520
12.98020	84204
12.98832	86456
12.99645	83211
13.00457	79647
13.01268	71571
13.02082	69390
13.02893	60307
13.03707	49126
13.04518	50976
13.05330	42973
13.06143	40435
13.06955	43959
13.07768	42116
13.08580	35324
13.09392	36939
13.10205	36704
13.11017	32617
13.11828	35385
13.12642	35857
13.13453	37419
13.14267	35070
13.15078	36654
13.15890	34489
13.16703	33129
13.17515	34296
13.18328	38058
13.19140	37362
13.19952	39360
13.20765	39499
13.21577	37452
13.22390	38999
13.23202	35221
13.24013	35844
13.24827	40736
13.25638	40287
13.26450	42823
13.27263	45308
13.28075	50762
13.28888	46690
13.29700	49672
13.30512	44691
13.31325	46368
13.32137	48392
13.32950	45999
13.33762	48082
13.34573	47511
13.35387	43383
13.36198	47764
13.37010	39925
13.37823	39122
13.38635	41270
13.39448	35404
13.40260	34941
13.41072	32419
13.41885	36167
13.42697	33737
13.43510	32632
13.44322	38723
13.45133	33644
13.45947	33906
13.46758	30068
13.47572	31691
13.48383	30506
13.49195	31688
13.50008	33216
13.50820	31994
13.51632	32856
13.52445	33348
13.53257	30815
13.54070	34362
13.54882	32399
13.55693	38078
13.56507	38953
13.57318	41436
13.58132	43790
13.58943	42117
13.59755	44242
13.60568	45549
13.61380	48252
13.62193	48873
13.63005	51281
13.63817	50879
13.64630	53501
13.65442	54227
13.66253	53038
13.67067	46841
13.67878	45495
13.68692	43723
13.69503	40129
13.70315	43493
13.71128	39998
13.71940	37386
13.72753	40777
13.73565	37842
13.74377	42291
13.75190	41641
13.76002	36929
13.76813	40144
13.77627	40601
13.78438	39345
13.79252	39670
13.80063	36845
13.80875	32683
13.81688	35544
13.82500	32581
13.83313	32285
13.84125	34068
13.84937	35130
13.85750	32215
13.86562	32725
13.87375	35501
13.88187	39343
13.88998	39440
13.89812	43565
13.90623	41353
13.91435	45249
13.92248	42020
13.93060	47782
13.93873	43095
13.94685	42395
13.95497	44931
13.96310	41560
13.97122	40755
13.97935	42794
13.98747	43434
13.99558	37034
14.00372	35561
14.01183	39588
14.01997	36953
14.02808	44704
14.03620	37715
14.04433	41630
14.05245	40454
14.06057	39326
14.06870	36345
14.07682	38588
14.08495	34694
14.09307	35450
14.10118	44336
14.10932	38891
14.11743	35309
14.12557	37681
14.13368	45523
14.14180	55082
14.14993	74867
14.15805	97759
14.16617	118112
14.17430	119152
14.18242	114318
14.19055	107786
14.19867	88550
14.20678	77897
14.21492	74096
14.22303	68687
14.23117	66269
14.23928	55911
14.24740	58916
14.25553	55582
14.26365	56153
14.27178	49070
14.27990	53628
14.28802	51329
14.29615	51870
14.30427	45505
14.31238	41580
14.32052	38384
14.32863	35268
14.33677	35743
14.34488	34022
14.35300	34923
14.36113	32196
14.36925	30577
14.37738	30668
14.38550	33275
14.39362	29578
14.40175	31332
14.40987	27663
14.41798	33567
14.42612	32376
14.43423	32692
14.44237	29248
14.45048	32072
14.45860	30021
14.46673	28827
14.47485	29598
14.48298	29919
14.49110	29958
14.49922	28863
14.50735	30697
14.51547	30700
14.52360	33990
14.53172	28129
14.53983	31568
14.54797	28457
14.55608	27490
14.56420	32513
14.57233	30560
14.58045	30234
14.58858	28355
14.59670	28735
14.60482	27222
14.61295	26511
14.62107	28475
14.62920	28692
14.63732	27127
14.64543	28261
14.65357	26677
14.66168	28175
14.66982	28048
14.67793	27132
14.68605	26309
14.69418	29811
14.70230	28226
14.71042	28407
14.71855	31980
14.72667	29330
14.73480	27498
14.74292	28153
14.75103	27725
14.75917	28043
14.76728	33708
14.77542	27854
14.78353	30310
14.79165	27043
14.79978	31290
14.80790	27534
14.81602	30945
14.82415	32246
14.83227	31369
14.84040	32725
14.84852	34009
14.85663	35067
14.86477	34606
14.87288	36540
14.88102	34889
14.88913	31555
14.89725	35798
14.90538	33195
14.91350	30505
14.92163	37401
14.92975	31587
14.93787	33967
14.94600	32274
14.95412	32466
14.96223	31081
14.97037	32050
14.97848	33758
14.98662	31356
14.99473	26939
15.00285	30695
15.01098	29753
15.01910	28683
15.02723	31153
15.03535	32086
15.04347	33030
15.05160	30857
15.05972	28777
15.06785	28020
15.07597	28375
15.08408	27490
15.09222	27450
15.10033	31518
15.10845	26266
15.11658	31227
15.12470	29258
15.13283	31333
15.14095	32651
15.14907	31495
15.15720	28192
15.16532	30334
15.17345	26146
15.18157	29324
15.18968	27832
15.19782	28398
15.20593	27939
15.21405	25887
15.22218	25796
15.23030	23985
15.23843	26904
15.24655	28068
15.25467	27724
15.26280	26769
15.27092	26466
15.27905	26687
15.28717	23867
15.29528	25298
15.30342	26374
15.31153	23870
15.31967	24031
15.32778	24448
15.33590	23848
15.34403	24699
15.35215	26474
15.36027	24947
15.36840	23872
15.37652	25800
15.38465	27635
15.39277	23009
15.40088	25479
15.40902	23574
15.41713	26399
15.42527	27168
15.43338	23992
15.44150	28534
15.44963	25889
15.45775	28346
15.46587	25208
15.47400	25940
15.48212	27527
15.49025	25208
15.49837	26086
15.50648	26558
15.51462	27155
15.52273	22943
15.53087	26160
15.53898	22597
15.54710	28458
15.55523	29133
15.56335	25015
15.57148	30889
15.57960	24263
15.58772	28081
15.59585	25945
15.60397	26416
15.61208	28782
15.62022	22895
15.62833	26758
15.63647	23797
15.64458	25314
15.65270	26713
15.66083	25702
15.66895	23198
15.67708	25497
15.68520	26913
15.69332	29613
15.70145	24202
15.70957	22939
15.71770	25233
15.72582	24664
15.73393	29558
15.74207	27779
15.75018	30055
15.75830	32680
15.76643	31353
15.77455	33913
15.78268	34079
15.79080	33210
15.79892	30468
15.80705	27510
15.81517	28184
15.82330	31120
15.83142	29265
15.83953	28223
15.84767	27159
15.85578	26918
15.86390	25828
15.87203	26429
15.88015	29570
15.88828	29188
15.89640	29586
15.90452	27790
15.91265	26850
15.92077	27238
15.92890	26402
15.93702	26394
15.94513	29563
15.95327	24959
15.96138	26812
15.96952	26631
15.97763	29975
15.98575	31133
15.99388	33116
16.00200	28669
16.01012	40594
16.01825	38965
16.02637	40447
16.03450	39559
16.04262	37877
16.05073	31636
16.05887	34133
16.06698	31391
16.07512	28925
16.08323	32033
16.09135	27940
16.09948	29920
16.10760	26269
16.11573	27537
16.12385	30211
16.13197	27580
16.14010	28092
16.14822	28955
16.15633	28456
16.16447	27911
16.17258	30052
16.18072	28340
16.18883	28573
16.19695	30877
16.20508	28659
16.21320	27594
16.22133	30230
16.22945	28447
16.23757	28543
16.24570	29046
16.25382	31073
16.26193	26176
16.27007	27533
16.27818	29561
16.28632	27975
16.29443	26166
16.30255	30257
16.31068	27123
16.31880	31114
16.32693	28079
16.33505	31666
16.34317	27944
16.35130	30403
16.35942	32692
16.36755	28548
16.37567	30897
16.38378	27705
16.39192	25706
16.40003	27250
16.40815	26200
16.41628	30102
16.42440	28059
16.43253	24533
16.44065	28487
16.44877	30128
16.45690	26611
16.46502	29059
16.47315	28175
16.48127	28127
16.48938	27258
16.49752	30459
16.50563	26934
16.51375	28167
16.52188	28598
16.53000	31134
16.53813	29553
16.54625	30123
16.55437	28889
16.56250	26293
16.57062	26729
16.57875	26253
16.58687	30226
16.59498	29927
16.60312	28374
16.61123	29635
16.61937	28383
16.62748	31387
16.63560	29572
16.64373	30427
16.65185	27746
16.65997	28404
16.66810	26350
16.67622	28524
16.68435	25305
16.69247	27605
16.70058	26481
16.70872	27004
16.71683	27809
16.72497	29327
16.73308	27167
16.74120	28485
16.74933	26198
16.75745	28577
16.76558	31134
16.77370	29452
16.78182	27856
16.78995	28942
16.79807	28101
16.80618	26702
16.81432	29347
16.82243	28196
16.83057	28486
16.83868	27450
16.84680	29211
16.85493	27082
16.86305	27500
16.87118	27433
16.87930	27007
16.88742	32479
16.89555	31895
16.90367	25483
16.91180	26353
16.91992	27908
16.92803	27239
16.93617	29482
16.94428	30051
16.95240	29313
16.96053	27792
16.96865	25176
16.97678	26945
16.98490	29621
16.99302	28223
17.00115	27536
17.00927	24999
17.01740	26786
17.02552	28887
17.03363	27139
17.04177	27373
17.04988	25606
17.05800	29370
17.06613	27094
17.07425	28536
17.08238	28117
17.09050	25212
17.09862	31965
17.10675	27670
17.11487	29007
17.12300	25197
17.13112	25127
17.13923	27927
17.14737	27080
17.15548	27849
17.16362	27461
17.17173	27731
17.17985	29449
17.18798	25372
17.19610	27592
17.20422	23879
17.21235	27691
17.22047	26534
17.22860	27157
17.23672	28233
17.24483	26881
17.25297	25726
17.26108	24773
17.26922	28321
17.27733	30911
17.28545	28676
17.29358	27897
17.30170	29366
17.30982	31245
17.31795	28951
17.32607	27098
17.33420	28866
17.34232	28138
17.35043	29788
17.35857	33121
17.36668	30935
17.37482	30962
17.38293	32608
17.39105	33608
17.39918	33061
17.40730	31667
17.41543	33194
17.42355	31640
17.43167	33133
17.43980	33019
17.44792	30781
17.45603	30804
17.46417	31291
17.47228	31829
17.48042	31690
17.48853	30766
17.49665	30053
17.50478	31018
17.51290	35081
17.52103	38732
17.52915	40563
17.53727	45824
17.54540	47180
17.55352	49183
17.56165	48253
17.56977	45684
17.57788	44202
17.58602	38685
17.59413	36953
17.60225	33857
17.61038	32907
17.61850	32822
17.62663	30789
17.63475	28523
17.64287	31514
17.65100	29608
17.65912	29222
17.66725	29594
17.67537	31284
17.68348	33329
17.69162	34630
17.69973	33699
17.70785	31397
17.71598	31554
17.72410	29205
17.73223	28848
17.74035	29534
17.74847	28143
17.75660	30061
17.76472	26533
17.77285	31948
17.78097	31224
17.78908	30306
17.79722	28389
17.80533	31069
17.81347	31653
17.82158	30535
17.82970	31970
17.83783	33503
17.84595	35110
17.85407	34581
17.86220	36525
17.87032	33931
17.87845	30829
17.88657	28936
17.89468	30024
17.90282	29868
17.91093	30972
17.91907	26311
17.92718	27556
17.93530	27805
17.94343	30601
17.95155	28966
17.95968	28177
17.96780	32683
17.97592	26630
17.98405	25457
17.99217	29603
18.00028	29134
18.00842	28767
18.01653	29309
18.02467	31494
18.03278	30451
18.04090	32764
18.04903	32039
18.05715	31250
18.06528	32200
18.07340	34028
18.08152	31999
18.08965	36836
18.09777	32543
18.10588	39415
18.11402	33967
18.12213	32189
18.13027	35327
18.13838	35240
18.14650	33431
18.15463	35840
18.16275	30951
18.17088	32036
18.17900	30520
18.18712	34232
18.19525	34073
18.20337	34198
18.21150	31220
18.21962	28794
18.22773	32765
18.23587	34838
18.24398	31427
18.25210	31681
18.26023	33835
18.26835	33534
18.27648	29468
18.28460	30428
18.29272	31792
18.30085	28843
18.30897	28634
18.31710	29196
18.32522	29176
18.33333	33392
18.34147	29252
18.34958	29174
18.35770	26121
18.36583	28301
18.37395	27963
18.38208	28159
18.39020	30714
18.39832	28697
18.40645	32744
18.41457	31693
18.42270	36692
18.43082	39197
18.43893	42547
18.44707	46726
18.45518	46806
18.46332	46328
18.47143	52292
18.47955	50233
18.48768	54377
18.49580	52065
18.50392	52870
18.51205	52425
18.52017	50377
18.52830	55251
18.53642	53826
18.54453	56619
18.55267	50881
18.56078	51477
18.56892	53624
18.57703	56155
18.58515	54309
18.59328	54467
18.60140	57388
18.60953	59033
18.61765	58173
18.62577	56025
18.63390	58580
18.64202	57900
18.65013	54812
18.65827	51330
18.66638	55816
18.67452	50667
18.68263	51290
18.69075	52728
18.69888	51370
18.70700	50401
18.71513	47794
18.72325	49182
18.73137	48514
18.73950	46718
18.74762	44920
18.75573	48206
18.76387	48222
18.77198	44011
18.78012	42712
18.78823	45209
18.79635	46042
18.80448	44458
18.81260	43011
18.82073	43006
18.82885	43867
18.83697	42650
18.84510	41707
18.85322	41323
18.86135	43550
18.86947	42592
18.87758	44644
18.88572	44838
18.89383	41349
18.90195	41479
18.91008	41223
18.91820	40309
18.92633	41650
18.93445	41517
18.94257	36980
18.95070	37221
18.95882	35659
18.96695	36680
18.97507	36388
18.98318	38563
18.99132	40948
18.99943	38273
19.00757	38618
19.01568	37016
19.02380	39706
19.03193	42368
19.04005	40305
19.04817	39655
19.05630	39975
19.06442	44953
19.07255	47044
19.08067	52246
19.08878	58491
19.09692	60744
19.10503	61406
19.11317	54407
19.12128	58107
19.12940	55076
19.13753	54121
19.14565	55657
19.15377	61610
19.16190	58407
19.17002	55690
19.17815	50114
19.18627	49050
19.19438	49207
19.20252	45261
19.21063	42710
19.21877	43010
19.22688	41016
19.23500	38697
19.24313	40175
19.25125	37695
19.25938	40401
19.26750	41262
19.27562	40545
19.28375	42504
19.29187	42645
19.29998	43352
19.30812	38950
19.31623	38289
19.32437	35546
19.33248	38843
19.34060	36724
19.34873	36957
19.35685	36350
19.36498	38381
19.37310	33444
19.38122	34524
19.38935	35837
19.39747	31586
19.40560	36537
19.41372	33469
19.42183	34823
19.42997	39021
19.43808	44444
19.44620	57638
19.45433	72449
19.46245	87682
19.47058	89978
19.47870	84132
19.48682	75768
19.49495	60005
19.50307	49220
19.51120	41539
19.51932	39836
19.52743	36641
19.53557	36981
19.54368	35425
19.55180	33809
19.55993	37794
19.56805	34619
19.57618	31146
19.58430	34240
19.59242	33716
19.60055	33657
19.60867	33897
19.61680	37759
19.62492	44160
19.63303	53593
19.64117	70994
19.64928	79343
19.65742	92914
19.66553	92762
19.67365	87106
19.68178	79867
19.68990	61986
19.69802	53783
19.70615	44855
19.71427	46825
19.72240	42887
19.73052	42938
19.73863	40590
19.74677	38981
19.75488	34298
19.76302	33987
19.77113	32786
19.77925	34723
19.78738	35824
19.79550	35938
19.80362	34192
19.81175	32425
19.81987	34741
19.82800	33280
19.83612	37422
19.84423	37700
19.85237	35350
19.86048	37479
19.86862	44221
19.87673	49217
19.88485	61366
19.89298	64753
19.90110	77531
19.90923	83533
19.91735	87835
19.92547	80456
19.93360	78593
19.94172	76184
19.94983	79407
19.95797	76900
19.96608	76792
19.97422	72387
19.98233	71035
19.99045	71731
19.99858	69924
20.00670	65995
20.01483	63124
20.02295	59612
20.03107	59594
20.03920	54232
20.04732	49580
20.05545	46357
20.06357	43429
20.07168	43343
20.07982	40397
20.08793	40050
20.09605	42104
20.10418	39120
20.11230	39259
20.12043	38409
20.12855	35695
20.13667	36330
20.14480	35984
20.15292	38997
20.16105	36869
20.16917	39478
20.17728	40457
20.18542	41704
20.19353	36885
20.20165	37324
20.20978	38669
20.21790	40796
20.22603	44152
20.23415	49878
20.24227	57577
20.25040	66928
20.25852	80242
20.26665	79669
20.27477	73762
20.28288	70847
20.29102	61109
20.29913	58013
20.30727	51486
20.31538	49063
20.32350	43665
20.33163	37611
20.33975	37920
20.34787	35743
20.35600	32902
20.36412	33496
20.37225	36825
20.38037	38369
20.38848	33458
20.39662	38029
20.40473	39665
20.41287	44340
20.42098	40425
20.42910	41450
20.43723	43081
20.44535	39657
20.45348	38200
20.46160	37660
20.46972	38590
20.47785	36828
20.48597	37641
20.49408	33043
20.50222	33668
20.51033	31860
20.51847	32206
20.52658	31784
20.53470	32834
20.54283	36965
20.55095	36827
20.55908	29927
20.56720	31353
20.57532	28988
20.58345	32820
20.59157	36010
20.59968	30106
20.60782	29821
20.61593	29650
20.62407	26575
20.63218	25945
20.64030	29614
20.64843	27084
20.65655	27820
20.66468	30262
20.67280	28803
20.68092	31531
20.68905	30616
20.69717	29527
20.70530	30126
20.71342	31861
20.72153	31734
20.72967	29250
20.73778	31747
20.74590	29380
20.75403	33534
20.76215	33531
20.77028	30456
20.77840	32929
20.78652	33198
20.79465	30990
20.80277	33065
20.81090	29453
20.81902	29994
20.82713	30804
20.83527	26863
20.84338	28628
20.85150	28314
20.85963	29796
20.86775	28034
20.87588	28280
20.88400	30230
20.89212	29545
20.90025	28174
20.90837	26633
20.91650	28309
20.92462	29735
20.93273	29685
20.94087	27842
20.94898	25696
20.95712	28863
20.96523	27832
20.97335	28289
20.98148	27388
20.98960	25766
20.99772	30017
21.00585	29525
21.01397	29419
21.02210	27558
21.03022	31467
21.03833	31626
21.04647	29048
21.05458	31788
21.06272	31305
21.07083	31559
21.07895	29444
21.08708	34074
21.09520	29563
21.10333	31477
21.11145	27586
21.11957	29929
21.12770	27945
21.13582	31375
21.14393	30945
21.15207	27587
21.16018	31560
21.16832	30726
21.17643	28943
21.18455	28754
21.19268	29366
21.20080	26438
21.20893	29015
21.21705	29033
21.22517	29868
21.23330	31340
21.24142	27928
21.24955	28431
21.25767	32085
21.26578	30685
21.27392	37418
21.28203	32938
21.29015	33108
21.29828	33461
21.30640	36396
21.31453	33080
21.32265	33852
21.33077	31796
21.33890	29626
21.34702	29070
21.35515	30492
21.36327	29969
21.37138	28010
21.37952	32118
21.38763	33989
21.39575	30924
21.40388	30500
21.41200	33589
21.42013	32379
21.42825	27885
21.43637	32831
21.44450	32630
21.45262	28839
21.46075	30730
21.46887	33091
21.47698	30799
21.48512	29400
21.49323	30757
21.50137	32194
21.50948	31148
21.51760	30728
21.52573	30319
21.53385	28877
21.54197	27060
21.55010	29809
21.55822	30086
21.56635	27050
21.57447	30641
21.58258	37187
21.59072	39055
21.59883	41983
21.60697	41553
21.61508	47501
21.62320	44669
21.63133	44031
21.63945	37498
21.64757	37669
21.65570	34595
21.66382	32538
21.67195	31858
21.68007	32295
21.68818	31953
21.69632	31448
21.70443	27323
21.71257	30979
21.72068	30223
21.72880	33807
21.73693	28844
21.74505	30182
21.75318	29326
21.76130	30796
21.76942	29750
21.77755	32991
21.78567	33305
21.79378	40852
21.80192	38346
21.81003	44813
21.81817	40939
21.82628	36121
21.83440	38551
21.84253	35650
21.85065	34979
21.85878	31554
21.86690	29812
21.87502	29075
21.88315	28973
21.89127	31040
21.89940	29175
21.90752	28966
21.91563	30878
21.92377	29465
21.93188	28670
21.94000	25994
21.94813	29596
21.95625	29258
21.96438	31333
21.97250	28428
21.98062	30435
21.98875	27429
21.99687	30613
22.00500	27214
22.01312	29117
22.02123	28460
22.02937	31290
22.03748	31616
22.04560	33526
22.05373	29618
22.06185	29357
22.06998	28175
22.07810	33397
22.08622	29536
22.09435	32138
22.10247	30933
22.11060	34394
22.11872	32400
22.12683	28689
22.13497	29841
22.14308	28249
22.15122	35130
22.15933	33946
22.16745	32593
22.17558	31529
22.18370	29278
22.19182	34282
22.19995	33082
22.20807	31833
22.21620	29936
22.22432	30095
22.23243	27318
22.24057	28984
22.24868	29700
22.25682	30462
22.26493	29226
22.27305	29424
22.28118	28490
22.28930	29640
22.29743	28485
22.30555	29263
22.31367	30590
22.32180	29262
22.32992	34694
22.33803	29879
22.34617	29935
22.35428	33052
22.36242	33732
22.37053	31531
22.37865	28917
22.38678	31575
22.39490	32954
22.40303	30396
22.41115	30536
22.41927	29719
22.42740	27219
22.43552	30353
22.44363	29255
22.45177	32058
22.45988	32246
22.46802	29542
22.47613	27092
22.48425	30573
22.49238	29559
22.50050	27110
22.50863	28107
22.51675	27521
22.52487	27740
22.53300	29458
22.54112	31832
22.54925	30947
22.55737	28390
22.56548	28300
22.57362	30037
22.58173	29374
22.58985	27149
22.59798	26665
22.60610	28591
22.61423	31510
22.62235	30390
22.63047	31490
22.63860	28447
22.64672	28389
22.65485	25849
22.66297	27725
22.67108	28933
22.67922	29612
22.68733	29393
22.69545	29137
22.70358	32124
22.71170	29494
22.71983	29903
22.72795	30302
22.73607	28766
22.74420	30271
22.75232	28904
22.76045	28158
22.76857	29660
22.77668	30892
22.78482	31374
22.79293	31894
22.80107	26386
22.80918	31121
22.81730	33705
22.82543	28382
22.83355	30821
22.84167	33431
22.84980	32514
22.85792	34462
22.86605	31513
22.87417	32385
22.88228	35877
22.89042	36052
22.89853	36838
22.90667	39347
22.91478	43788
22.92290	45438
22.93103	52504
22.93915	51790
22.94728	51030
22.95540	51671
22.96352	51858
22.97165	52156
22.97977	53653
22.98788	50271
22.99602	43519
23.00413	41776
23.01227	40111
23.02038	40771
23.02850	39645
23.03663	39325
23.04475	40044
23.05288	39572
23.06100	38498
23.06912	40209
23.07725	38211
23.08537	37026
23.09348	37283
23.10162	36301
23.10973	39757
23.11787	38880
23.12598	33827
23.13410	33008
23.14223	35570
23.15035	35471
23.15848	36135
23.16660	37848
23.17472	38479
23.18285	38223
23.19097	36689
23.19910	36992
23.20722	36191
23.21533	38769
23.22347	35576
23.23158	35614
23.23970	35805
23.24783	33534
23.25595	36195
23.26408	36897
23.27220	34809
23.28032	37592
23.28845	36775
23.29657	37413
23.30470	37695
23.31282	34691
23.32093	35262
23.32907	37728
23.33718	32827
23.34532	31658
23.35343	36837
23.36155	37788
23.36968	41133
23.37780	39267
23.38592	41900
23.39405	41778
23.40217	38214
23.41030	37877
23.41842	34387
23.42653	36410
23.43467	38161
23.44278	34776
23.45092	37461
23.45903	35871
23.46715	38224
23.47528	39118
23.48340	36933
23.49152	35187
23.49965	34474
23.50777	34967
23.51590	35264
23.52402	34220
23.53213	38917
23.54027	39691
23.54838	34306
23.55652	36654
23.56463	35407
23.57275	37192
23.58088	36655
23.58900	36420
23.59713	34993
23.60525	34891
23.61337	36664
23.62150	37579
23.62962	38585
23.63773	42266
23.64587	38008
23.65398	41363
23.66212	43407
23.67023	42498
23.67835	41279
23.68648	39809
23.69460	39458
23.70273	39843
23.71085	40685
23.71897	44423
23.72710	54677
23.73522	101085
23.74335	217855
23.75147	497019
23.75958	1070144
23.76772	1885464
23.77583	2630002
23.78395	2880057
23.79208	2811190
23.80020	2349007
23.80833	1736542
23.81645	1285503
23.82457	922961
23.83270	676192
23.84082	508550
23.84895	412520
23.85707	342744
23.86518	293571
23.87332	266144
23.88143	225845
23.88955	205225
23.89768	177911
23.90580	167146
23.91393	161789
23.92205	155139
23.93017	138424
23.93830	129659
23.94642	124849
23.95455	117693
23.96267	112388
23.97078	105964
23.97892	99929
23.98703	103538
23.99517	92217
24.00328	85948
24.01140	91162
24.01953	84545
24.02765	82033
24.03577	77731
24.04390	80218
24.05202	77643
24.06015	79985
24.06827	74657
24.07638	73754
24.08452	74430
24.09263	74051
24.10077	73447
24.10888	70890
24.11700	69774
24.12513	66423
24.13325	67879
24.14137	63318
24.14950	63937
24.15762	65506
24.16575	67571
24.17387	73470
24.18198	70310
24.19012	75866
24.19823	72648
24.20637	69686
24.21448	69534
24.22260	66934
24.23073	61522
24.23885	63843
24.24698	59719
24.25510	54513
24.26322	53290
24.27135	50985
24.27947	46759
24.28758	49980
24.29572	50270
24.30383	52566
24.31197	50580
24.32008	56188
24.32820	61333
24.33633	70688
24.34445	78982
24.35258	84640
24.36070	84278
24.36882	77117
24.37695	62829
24.38507	57216
24.39320	50382
24.40132	48786
24.40943	42033
24.41757	45481
24.42568	43651
24.43380	47404
24.44193	48746
24.45005	49837
24.45818	53042
24.46630	51358
24.47442	53420
24.48255	47068
24.49067	50094
24.49880	47792
24.50692	43146
24.51503	42811
24.52317	44084
24.53128	40890
24.53940	44449
24.54753	42932
24.55565	40497
24.56378	43437
24.57190	39581
24.58002	39372
24.58815	38222
24.59627	40662
24.60440	40096
24.61252	37331
24.62063	37188
24.62877	38476
24.63688	39506
24.64502	38077
24.65313	41120
24.66125	40699
24.66938	38374
24.67750	39048
24.68562	40351
24.69375	37680
24.70187	34496
24.71000	33377
24.71812	35637
24.72623	34710
24.73437	35839
24.74248	37109
24.75062	36743
24.75873	34299
24.76685	35759
24.77498	35578
24.78310	35144
24.79123	38146
24.79935	35030
24.80747	33912
24.81560	36870
24.82372	34035
24.83183	34857
24.83997	34040
24.84808	36037
24.85622	37553
24.86433	36159
24.87245	37598
24.88058	38515
24.88870	36576
24.89683	38447
24.90495	33556
24.91307	33740
24.92120	34826
24.92932	36586
24.93743	33308
24.94557	31590
24.95368	32110
24.96182	32507
24.96993	34835
24.97805	32154
24.98618	33905
24.99430	31557
25.00243	32759
25.01055	34041
25.01867	32823
25.02680	33505
25.03492	30709
25.04305	28618
25.05117	33284
25.05928	32745
25.06742	32160
25.07553	33396
25.08365	33745
25.09178	33688
25.09990	31084
25.10803	38636
25.11615	35481
25.12427	39398
25.13240	41162
25.14052	40111
25.14865	43049
25.15677	40918
25.16488	40432
25.17302	37811
25.18113	39096
25.18925	33529
25.19738	34129
25.20550	27870
25.21363	33598
25.22175	34241
25.22987	35544
25.23800	35079
25.24612	33263
25.25425	32422
25.26237	33355
25.27048	33474
25.27862	34927
25.28673	32977
25.29487	38982
25.30298	40501
25.31110	34782
25.31923	38361
25.32735	37514
25.33547	39170
25.34360	35029
25.35172	31571
25.35985	33624
25.36797	34174
25.37608	29515
25.38422	34314
25.39233	33212
25.40047	33094
25.40858	26993
25.41670	31413
25.42483	31500
25.43295	30579
25.44108	30453
25.44920	29692
25.45732	32241
25.46545	33312
25.47357	31502
25.48168	32100
25.48982	28587
25.49793	29702
25.50607	29085
25.51418	29787
25.52230	28102
25.53043	27607
25.53855	28600
25.54668	28046
25.55480	28235
25.56292	28899
25.57105	30392
25.57917	28682
25.58728	30927
25.59542	26918
25.60353	25461
25.61167	27158
25.61978	27667
25.62790	26796
25.63603	28350
25.64415	28694
25.65228	28096
25.66040	27885
25.66852	30408
25.67665	27250
25.68477	27389
25.69290	28424
25.70102	29410
25.70913	28339
25.71727	27257
25.72538	30333
25.73350	26216
25.74163	27132
25.74975	27541
25.75788	30586
25.76600	30114
25.77412	30890
25.78225	28478
25.79037	26824
25.79850	28338
25.80662	29038
25.81473	29718
25.82287	31407
25.83098	28751
25.83912	28966
25.84723	28725
25.85535	27490
25.86348	26147
25.87160	27651
25.87972	28483
25.88785	27472
25.89597	31498
25.90410	26934
25.91222	27613
25.92033	29307
25.92847	27354
25.93658	26999
25.94472	29065
25.95283	27702
25.96095	28002
25.96908	26978
25.97720	27934
25.98532	28502
25.99345	24833
26.00157	29292
26.00970	28412
26.01782	28349
26.02593	28645
26.03407	28567
26.04218	29328
26.05032	25098
26.05843	24751
26.06655	24308
26.07468	26938
26.08280	29146
26.09093	30081
26.09905	29004
26.10717	30349
26.11530	27147
26.12342	30986
26.13153	34313
26.13967	35748
26.14778	35405
26.15592	33490
26.16403	36696
26.17215	34347
26.18028	31404
26.18840	32740
26.19653	35438
26.20465	29958
26.21277	33595
26.22090	29743
26.22902	30070
26.23713	28374
26.24527	30532
26.25338	31814
26.26152	28785
26.26963	28845
26.27775	30067
26.28588	30406
26.29400	28029
26.30213	26685
26.31025	27361
26.31837	26099
26.32650	27291
26.33462	25712
26.34275	25118
26.35087	27128
26.35898	23948
26.36712	28684
26.37523	27115
26.38335	27801
26.39148	30813
26.39960	27239
26.40773	25493
26.41585	27085
26.42397	27028
26.43210	27898
26.44022	25536
26.44835	25683
26.45647	25334
26.46458	28622
26.47272	27277
26.48083	29150
26.48897	23444
26.49708	26068
26.50520	27634
26.51333	30096
26.52145	26765
26.52957	27076
26.53770	26856
26.54582	27625
26.55395	27554
26.56207	23948
26.57018	26763
26.57832	29978
26.58643	29299
26.59457	27887
26.60268	27327
26.61080	28325
26.61893	26881
26.62705	25952
26.63518	24521
26.64330	25370
26.65142	26034
26.65955	25586
26.66767	25934
26.67578	28258
26.68392	27239
26.69203	27856
26.70017	32698
26.70828	28734
26.71640	25856
26.72453	29048
26.73265	29579
26.74078	24619
26.74890	28957
26.75702	29554
26.76515	27223
26.77327	27712
26.78138	26141
26.78952	31425
26.79763	30063
26.80577	29948
26.81388	30152
26.82200	30643
26.83013	31501
26.83825	29848
26.84638	28904
26.85450	26671
26.86262	27846
26.87075	28559
26.87887	26584
26.88700	29677
26.89512	31875
26.90323	30960
26.91137	32805
26.91948	33080
26.92760	32572
26.93573	37038
26.94385	47624
26.95198	69891
26.96010	111846
26.96822	178775
26.97635	278809
26.98447	406420
26.99260	489376
27.00072	544664
27.00883	549857
27.01697	515323
27.02508	446799
27.03320	350709
27.04133	273338
27.04945	215796
27.05758	164293
27.06570	151355
27.07382	120982
27.08195	102730
27.09007	93131
27.09820	83021
27.10632	80393
27.11443	76866
27.12257	65915
27.13068	69800
27.13882	62654
27.14693	62689
27.15505	61196
27.16318	57476
27.17130	52985
27.17942	55527
27.18755	52139
27.19567	50338
27.20380	46389
27.21192	48440
27.22003	49697
27.22817	44022
27.23628	42488
27.24442	45175
27.25253	42522
27.26065	42154
27.26878	38904
27.27690	41956
27.28503	40018
27.29315	42608
27.30127	40951
27.30940	38724
27.31752	37731
27.32563	37726
27.33377	40421
27.34188	41981
27.35002	36600
27.35813	35691
27.36625	33799
27.37438	38637
27.38250	35216
27.39063	36798
27.39875	36071
27.40687	34039
27.41500	31352
27.42312	29971
27.43123	31351
27.43937	33007
27.44748	34757
27.45562	36178
27.46373	35794
27.47185	36541
27.47998	35869
27.48810	32976
27.49623	34333
27.50435	32374
27.51247	35211
27.52060	33904
27.52872	31860
27.53685	31270
27.54497	34733
27.55308	34202
27.56122	34460
27.56933	37557
27.57745	33286
27.58558	28396
27.59370	29718
27.60183	29995
27.60995	31191
27.61807	34473
27.62620	30370
27.63432	30771
27.64245	34319
27.65057	30496
27.65868	31042
27.66682	25565
27.67493	32062
27.68307	32035
27.69118	28136
27.69930	31639
27.70743	30992
27.71555	28846
27.72367	34445
27.73180	37780
27.73992	35884
27.74805	37425
27.75617	34697
27.76428	33311
27.77242	33197
27.78053	31108
27.78867	29631
27.79678	28669
27.80490	30350
27.81303	31780
27.82115	29509
27.82927	30046
27.83740	29009
27.84552	29891
27.85365	28913
27.86177	30241
27.86988	29885
27.87802	31893
27.88613	30053
27.89427	29959
27.90238	27987
27.91050	30351
27.91863	32679
27.92675	28332
27.93488	29099
27.94300	32011
27.95112	28137
27.95925	33852
27.96737	32584
27.97548	31117
27.98362	34597
27.99173	33507
27.99987	32892
28.00798	31602
28.01610	31900
28.02423	28845
28.03235	28490
28.04048	29243
28.04860	28009
28.05672	28398
28.06485	29690
28.07297	31200
28.08108	35241
28.08922	40691
28.09733	42560
28.10547	48304
28.11358	49207
28.12170	48439
28.12983	43106
28.13795	43559
28.14608	40779
28.15420	40657
28.16232	38370
28.17045	34388
28.17857	29629
28.18670	31804
28.19482	33586
28.20293	30178
28.21107	29335
28.21918	30364
28.22730	29189
28.23543	31669
28.24355	35227
28.25168	40449
28.25980	58882
28.26792	71809
28.27605	99830
28.28417	129535
28.29230	172053
28.30042	202998
28.30853	230151
28.31667	250251
28.32478	261058
28.33292	249172
28.34103	230312
28.34915	214955
28.35728	205688
28.36540	182733
28.37352	159974
28.38165	143982
28.38977	131243
28.39790	107227
28.40602	100444
28.41413	88425
28.42227	78779
28.43038	77304
28.43852	69272
28.44663	61766
28.45475	67612
28.46288	58480
28.47100	56270
28.47912	54575
28.48725	48204
28.49537	54071
28.50350	49501
28.51162	47874
28.51973	52312
28.52787	49230
28.53598	44176
28.54412	45119
28.55223	43293
28.56035	45034
28.56848	38052
28.57660	42863
28.58473	43608
28.59285	39984
28.60097	38997
28.60910	37557
28.61722	38411
28.62533	41242
28.63347	39183
28.64158	44509
28.64972	42269
28.65783	46168
28.66595	38642
28.67408	41725
28.68220	44849
28.69033	45309
28.69845	46715
28.70657	48891
28.71470	57314
28.72282	55599
28.73095	60335
28.73907	49447
28.74718	41794
28.75532	39361
28.76343	36114
28.77155	33003
28.77968	37869
28.78780	39428
28.79593	32849
28.80405	33374
28.81217	34817
28.82030	32982
28.82842	32992
28.83655	29583
28.84467	33644
28.85278	33879
28.86092	33819
28.86903	32159
28.87715	35501
28.88528	35764
28.89340	36335
28.90153	34132
28.90965	34369
28.91777	31369
28.92590	29523
28.93402	32794
28.94215	33136
28.95027	34792
28.95838	33277
28.96652	35803
28.97463	33934
28.98277	31902
28.99088	31987
28.99900	30419
29.00713	32777
29.01525	32620
29.02337	30336
29.03150	31185
29.03962	33018
29.04775	32491
29.05587	31798
29.06398	31349
29.07212	31421
29.08023	30288
29.08837	27599
29.09648	29871
29.10460	33400
29.11273	32924
29.12085	31954
29.12898	33173
29.13710	32534
29.14522	34566
29.15335	31905
29.16147	29670
29.16958	31294
29.17772	30632
29.18583	32555
29.19397	32808
29.20208	34549
29.21020	33009
29.21833	36758
29.22645	35073
29.23458	33364
29.24270	35400
29.25082	30155
29.25895	33142
29.26707	32623
29.27518	30442
29.28332	31513
29.29143	33859
29.29957	31767
29.30768	34104
29.31580	31351
29.32393	30633
29.33205	31173
29.34018	28978
29.34830	27700
29.35642	29960
29.36455	28058
29.37267	27868
29.38080	29990
29.38892	30478
29.39703	31149
29.40517	29895
29.41328	31648
29.42140	27172
29.42953	29551
29.43765	32031
29.44578	32444
29.45390	28735
29.46202	34580
29.47015	28736
29.47827	32053
29.48640	33531
29.49452	30912
29.50263	32784
29.51077	32756
29.51888	32934
29.52700	33410
29.53513	32830
29.54325	29965
29.55138	30518
29.55950	30934
29.56762	31550
29.57575	33952
29.58387	35376
29.59200	36715
29.60012	37658
29.60823	36316
29.61637	36676
29.62448	31064
29.63262	31915
29.64073	33132
29.64885	31871
29.65698	30024
29.66510	32806
29.67322	32151
29.68135	27687
29.68947	28382
29.69760	29709
29.70572	29925
29.71383	29170
29.72197	32139
29.73008	31171
29.73822	29033
29.74633	31194
29.75445	31144
29.76258	29594
29.77070	26603
29.77883	28162
29.78695	28569
29.79507	27753
29.80320	28643
29.81132	28575
29.81943	29207
29.82757	29158
29.83568	27035
29.84382	26874
29.85193	31995
29.86005	33460
29.86818	36026
29.87630	39685
29.88443	43781
29.89255	52007
29.90067	61357
29.90880	69513
29.91692	84660
29.92503	91153
29.93317	101900
29.94128	112021
29.94942	109894
29.95753	117399
29.96565	120243
29.97378	119957
29.98190	110953
29.99003	107234
29.99815	103801
30.00627	92483
30.01440	86042
30.02252	82567
30.03065	76881
30.03877	72985
30.04688	72959
30.05502	66715
30.06313	65345
30.07125	58870
30.07938	60996
30.08750	55412
30.09563	52280
30.10375	54707
30.11187	46476
30.12000	49579
30.12812	49428
30.13625	47733
30.14437	42458
30.15248	44441
30.16062	44126
30.16873	42497
30.17687	42368
30.18498	39311
30.19310	38737
30.20123	37147
30.20935	40948
30.21747	37833
30.22560	38260
30.23372	36748
30.24185	34103
30.24997	33645
30.25808	35621
30.26622	34954
30.27433	35353
30.28247	38144
30.29058	36228
30.29870	35227
30.30683	34084
30.31495	35711
30.32307	36028
30.33120	33100
30.33932	29159
30.34745	33492
30.35557	35066
30.36368	32480
30.37182	34550
30.37993	33673
30.38807	31368
30.39618	28219
30.40430	29942
30.41243	30247
30.42055	30831
30.42868	32888
30.43680	33728
30.44492	31903
30.45305	31675
30.46117	33603
30.46928	30782
30.47742	28072
30.48553	33806
30.49367	35129
30.50178	34989
30.50990	29354
30.51803	30965
30.52615	32773
30.53428	30491
30.54240	28920
30.55052	31273
30.55865	27175
30.56677	31403
30.57488	29725
30.58302	29693
30.59113	32415
30.59927	31155
30.60738	30076
30.61550	32922
30.62363	30168
30.63175	28891
30.63988	28687
30.64800	27834
30.65612	31364
30.66425	30908
30.67237	32452
30.68050	27804
30.68862	34152
30.69673	30121
30.70487	28713
30.71298	28073
30.72110	28725
30.72923	30414
30.73735	30259
30.74548	32429
30.75360	30728
30.76172	30339
30.76985	34746
30.77797	32437
30.78610	33523
30.79422	34041
30.80233	39916
30.81047	33508
30.81858	30980
30.82672	32064
30.83483	34272
30.84295	31058
30.85108	33181
30.85920	30201
30.86732	32974
30.87545	30185
30.88357	29511
30.89170	31409
30.89982	28291
30.90793	29470
30.91607	28262
30.92418	31718
30.93232	27988
30.94043	28758
30.94855	31469
30.95668	29755
30.96480	30809
30.97292	29356
30.98105	28910
30.98917	30336
30.99730	28152
31.00542	33776
31.01353	31457
31.02167	30020
31.02978	30277
31.03792	28270
31.04603	29308
31.05415	30223
31.06228	32171
31.07040	32955
31.07853	29387
31.08665	32727
31.09477	37916
31.10290	34345
31.11102	32381
31.11913	29854
31.12727	33909
31.13538	29674
31.14352	31595
31.15163	32188
31.15975	37387
31.16788	36248
31.17600	46967
31.18413	54827
31.19225	72915
31.20037	81913
31.20850	91721
31.21662	88802
31.22475	80631
31.23287	68096
31.24098	56847
31.24912	46855
31.25723	37989
31.26535	33745
31.27348	28829
31.28160	32096
31.28973	32281
31.29785	31211
31.30597	30049
31.31410	31020
31.32222	30903
31.33035	29193
31.33847	37592
31.34658	31653
31.35472	29613
31.36283	29356
31.37095	32160
31.37908	33489
31.38720	32071
31.39533	30025
31.40345	32210
31.41157	29970
31.41970	34537
31.42782	28766
31.43595	30467
31.44407	34587
31.45218	35262
31.46032	32639
31.46843	31790
31.47657	30067
31.48468	31033
31.49280	28360
31.50093	31330
31.50905	30437
31.51717	29099
31.52530	31874
31.53342	31685
31.54155	27567
31.54967	30303
31.55778	29665
31.56592	28954
31.57403	30062
31.58217	32660
31.59028	28677
31.59840	30100
31.60653	29889
31.61465	30272
31.62277	30867
31.63090	28137
31.63902	26302
31.64715	27956
31.65527	29758
31.66338	35686
31.67152	35798
31.67963	33973
31.68777	29870
31.69588	35454
31.70400	33374
31.71213	31901
31.72025	30950
31.72838	32721
31.73650	32549
31.74462	28821
31.75275	30443
31.76087	30775
31.76898	29437
31.77712	29273
31.78523	32921
31.79337	31537
31.80148	33701
31.80960	35259
31.81773	35687
31.82585	35453
31.83398	39648
31.84210	43326
31.85022	53376
31.85835	64552
31.86647	66110
31.87460	70445
31.88272	74323
31.89083	79501
31.89897	81411
31.90708	83716
31.91520	79144
31.92333	75670
31.93145	72785
31.93958	70501
31.94770	64796
31.95582	62882
31.96395	56376
31.97207	55120
31.98020	55757
31.98832	53136
31.99643	53044
32.00457	47234
32.01268	49563
32.02082	48788
32.02893	45234
32.03705	47732
32.04518	44820
32.05330	39621
32.06142	39112
32.06955	39367
32.07767	42876
32.08580	38084
32.09392	38677
32.10203	37560
32.11017	35743
32.11828	32124
32.12642	33846
32.13453	35227
32.14265	33707
32.15078	39715
32.15890	35863
32.16702	37250
32.17515	40225
32.18327	32981
32.19140	36487
32.19952	32950
32.20763	34343
32.21577	33899
32.22388	32625
32.23202	32849
32.24013	30729
32.24825	32253
32.25638	35080
32.26450	29762
32.27263	33848
32.28075	36450
32.28887	33534
32.29700	35465
32.30512	34237
32.31323	33681
32.32137	36015
32.32948	33894
32.33762	35411
32.34573	35779
32.35385	34015
32.36198	33177
32.37010	36751
32.37823	34319
32.38635	33159
32.39447	29180
32.40260	32611
32.41072	31978
32.41883	32252
32.42697	32324
32.43508	32861
32.44322	31843
32.45133	33271
32.45945	33688
32.46758	27995
32.47570	33079
32.48383	29406
32.49195	29457
32.50007	30990
32.50820	32713
32.51632	33334
32.52445	31269
32.53257	33874
32.54068	30123
32.54882	34157
32.55693	33257
32.56505	34906
32.57318	31311
32.58130	37508
32.58943	35742
32.59755	41456
32.60567	45048
32.61380	47151
32.62192	46223
32.63005	41407
32.63817	35917
32.64628	36670
32.65442	34633
32.66253	33194
32.67067	34410
32.67878	32458
32.68690	34846
32.69503	36886
32.70315	38699
32.71127	38012
32.71940	37841
32.72752	31624
32.73565	35092
32.74377	34871
32.75188	34256
32.76002	29770
32.76813	28561
32.77627	32294
32.78438	33942
32.79250	30864
32.80063	32796
32.80875	31563
32.81687	31724
32.82500	29632
32.83312	29802
32.84125	33630
32.84937	33626
32.85748	32445
32.86562	34659
32.87373	37396
32.88187	34588
32.88998	35918
32.89810	33405
32.90623	33386
32.91435	31658
32.92248	33108
32.93060	34377
32.93872	38131
32.94685	34474
32.95497	33662
32.96308	33524
32.97122	32229
32.97933	36198
32.98747	33982
32.99558	34387
33.00370	34901
33.01183	31038
33.01995	33795
33.02808	33907
33.03620	33634
33.04432	29867
33.05245	33191
33.06057	33311
33.06870	33981
33.07682	32345
33.08493	32941
33.09307	38931
33.10118	42509
33.10930	47928
33.11743	48744
33.12555	46932
33.13368	45577
33.14180	40906
33.14992	36238
33.15805	38171
33.16617	33738
33.17430	36654
33.18242	36135
33.19053	34767
33.19867	34969
33.20678	33274
33.21490	36483
33.22303	34581
33.23115	37124
33.23928	32171
33.24740	31987
33.25552	31686
33.26365	33372
33.27177	32978
33.27990	34604
33.28802	36549
33.29613	35746
33.30427	30880
33.31238	34324
33.32052	32067
33.32863	30502
33.33675	29463
33.34488	37555
33.35300	35861
33.36112	33668
33.36925	33637
33.37737	32285
33.38550	35040
33.39362	30842
33.40173	36799
33.40987	35010
33.41798	33833
33.42612	33514
33.43423	34104
33.44235	33604
33.45048	32832
33.45860	34381
33.46672	30203
33.47485	32860
33.48297	36133
33.49110	31743
33.49922	31610
33.50733	30247
33.51547	33358
33.52358	32932
33.53172	33490
33.53983	31084
33.54795	32378
33.55608	31539
33.56420	34204
33.57233	37058
33.58045	33756
33.58857	35884
33.59670	35532
33.60482	30141
33.61293	30483
33.62107	35674
33.62918	30918
33.63732	34077
33.64543	31940
33.65355	31607
33.66168	33548
33.66980	32920
33.67793	30834
33.68605	36508
33.69417	30770
33.70230	32784
33.71042	35835
33.71855	34151
33.72667	30604
33.73478	35186
33.74292	32379
33.75103	34586
33.75915	32444
33.76728	36694
33.77540	36016
33.78353	36824
33.79165	37087
33.79977	40275
33.80790	34442
33.81602	34758
33.82415	37001
33.83227	34671
33.84038	37164
33.84852	36076
33.85663	37389
33.86475	35980
33.87288	37682
33.88100	37752
33.88913	37924
33.89725	39584
33.90537	35533
33.91350	38369
33.92162	39448
33.92975	38488
33.93787	36885
33.94598	37133
33.95412	37647
33.96223	35519
33.97037	42713
33.97848	33863
33.98660	36399
33.99473	36541
34.00285	35912
34.01097	34443
34.01910	36926
34.02722	38375
34.03535	37234
34.04347	36294
34.05158	37458
34.05972	39028
34.06783	33894
34.07597	33683
34.08408	35804
34.09220	38754
34.10033	36524
34.10845	34217
34.11658	36102
34.12470	36211
34.13282	33111
34.14095	39076
34.14907	39478
34.15718	39520
34.16532	36021
34.17343	37297
34.18157	35524
34.18968	37633
34.19780	35171
34.20593	36292
34.21405	35039
34.22218	35089
34.23030	37336
34.23842	38978
34.24655	33212
34.25467	37603
34.26278	34826
34.27092	35390
34.27903	34905
34.28717	39119
34.29528	36827
34.30340	38615
34.31153	39105
34.31965	41140
34.32778	36022
34.33590	38813
34.34402	34339
34.35215	42586
34.36027	37465
34.36840	34474
34.37652	37722
34.38463	34773
34.39277	31124
34.40088	33410
34.40900	35976
34.41713	37026
34.42525	36005
34.43338	37032
34.44150	39798
34.44962	43900
34.45775	52569
34.46587	58997
34.47400	65365
34.48212	70888
34.49023	79706
34.49837	82377
34.50648	81949
34.51462	76112
34.52273	71312
34.53085	66365
34.53898	64781
34.54710	63143
34.55522	57124
34.56335	50633
34.57147	52420
34.57960	51017
34.58772	49699
34.59583	46824
34.60397	48799
34.61208	51537
34.62022	43402
34.62833	48221
34.63645	46431
34.64458	50133
34.65270	48301
34.66082	47958
34.66895	43075
34.67707	41804
34.68520	41754
34.69332	43617
34.70143	45394
34.70957	44832
34.71768	41774
34.72582	42679
34.73393	45404
34.74205	42891
34.75018	43740
34.75830	45281
34.76643	39717
34.77455	43299
34.78267	42333
34.79080	43177
34.79892	44496
34.80703	42360
34.81517	44410
34.82328	38633
34.83142	37535
34.83953	43063
34.84765	41941
34.85578	42781
34.86390	40518
34.87203	36419
34.88015	38054
34.88827	41757
34.89640	39251
34.90452	40946
34.91263	38544
34.92077	42709
34.92888	42762
34.93702	40688
34.94513	39740
34.95325	40153
34.96138	39382
34.96950	41569
34.97763	39484
34.98575	40339
34.99387	36243
35.00200	35820
35.01012	41778
35.01825	36968
35.02637	40131
35.03448	36018
35.04262	35992
35.05073	38133
35.05885	39811
35.06698	38098
35.07510	38154
35.08323	44507
35.09135	41379
35.09947	41937
35.10760	40427
35.11572	40228
35.12385	39431
35.13197	42730
35.14008	40583
35.14822	40822
35.15633	43672
35.16447	43769
35.17258	41603
35.18070	43481
35.18883	37295
35.19695	41592
35.20507	37177
35.21320	38969
35.22132	42591
35.22945	36991
35.23757	41083
35.24568	43581
35.25382	43624
35.26193	40696
35.27007	39337
35.27818	41709
35.28630	42359
35.29443	39864
35.30255	42992
35.31067	39094
35.31880	40511
35.32692	40487
35.33505	38019
35.34317	44223
35.35128	43809
35.35942	39702
35.36753	38760
35.37567	41979
35.38378	40215
35.39190	40205
35.40003	42720
35.40815	40347
35.41628	42385
35.42440	39202
35.43252	39452
35.44065	43390
35.44877	41923
35.45688	43155
35.46502	47808
35.47313	46507
35.48127	48075
35.48938	42099
35.49750	43805
35.50563	45355
35.51375	42472
35.52188	47392
35.53000	41866
35.53812	45452
35.54625	41483
35.55437	42451
35.56250	47502
35.57062	43156
35.57873	41637
35.58687	43628
35.59498	46213
35.60310	45423
35.61123	45947
35.61935	45767
35.62748	46986
35.63560	44423
35.64372	46006
35.65185	46143
35.65997	45191
35.66810	40835
35.67622	41213
35.68433	46925
35.69247	47491
35.70058	39853
35.70870	42642
35.71683	43500
35.72495	42640
35.73308	44994
35.74120	42950
35.74932	42080
35.75745	42045
35.76557	42523
35.77370	45957
35.78182	41917
35.78993	42773
35.79807	46641
35.80618	46692
35.81432	43180
35.82243	39993
35.83055	45744
35.83868	45209
35.84680	43017
35.85492	45369
35.86305	41859
35.87117	44714
35.87930	41794
35.88742	45067
35.89553	42287
35.90367	43188
35.91178	43939
35.91992	44360
35.92803	44583
35.93615	42093
35.94428	43623
35.95240	38995
35.96052	40877
35.96865	42773
35.97677	46539
35.98490	46709
35.99302	47525
36.00113	47885
36.00927	48011
36.01738	49606
36.02552	46274
36.03363	45927
36.04175	49882
36.04988	48164
36.05800	48424
36.06613	46960
36.07425	47715
36.08237	48925
36.09050	43927
36.09862	47368
36.10673	48515
36.11487	44962
36.12298	46936
36.13112	45726
36.13923	47046
36.14735	45823
36.15548	49889
36.16360	41969
36.17173	43467
36.17985	46229
36.18797	42137
36.19610	46093
36.20422	43948
36.21235	45339
36.22047	47462
36.22858	49438
36.23672	51865
36.24483	53791
36.25295	64574
36.26108	63941
36.26920	60888
36.27733	58695
36.28545	53473
36.29357	49616
36.30170	46927
36.30982	46863
36.31795	47171
36.32607	47478
36.33418	44504
36.34232	46218
36.35043	46755
36.35855	45588
36.36668	47727
36.37480	47017
36.38293	49138
36.39105	46118
36.39917	48130
36.40730	50105
36.41542	49852
36.42355	45574
36.43167	43739
36.43978	41668
36.44792	46311
36.45603	45430
36.46417	48771
36.47228	42942
36.48040	46027
36.48853	47931
36.49665	51632
36.50477	45247
36.51290	44830
36.52102	45576
36.52915	48227
36.53727	44560
36.54538	50202
36.55352	44633
36.56163	47969
36.56977	49941
36.57788	50365
36.58600	51781
36.59413	49183
36.60225	49759
36.61038	49334
36.61850	50157
36.62662	51549
36.63475	48895
36.64287	47455
36.65098	47264
36.65912	48641
36.66723	50676
36.67537	52706
36.68348	51834
36.69160	47052
36.69973	51697
36.70785	48775
36.71598	51676
36.72410	49924
36.73222	49061
36.74035	50865
36.74847	49271
36.75658	48835
36.76472	48418
36.77283	49197
36.78097	50241
36.78908	51799
36.79720	46427
36.80533	45905
36.81345	51073
36.82158	51268
36.82970	48422
36.83782	46981
36.84595	48826
36.85407	50727
36.86220	50670
36.87032	44750
36.87843	50049
36.88657	48736
36.89468	47064
36.90280	49268
36.91093	48027
36.91905	48362
36.92718	50937
36.93530	48578
36.94342	49546
36.95155	52147
36.95967	49385
36.96780	47833
36.97592	54972
36.98403	59391
36.99217	64568
37.00028	80977
37.00840	94599
37.01653	118408
37.02465	120343
37.03278	117287
37.04090	106269
37.04902	100264
37.05715	81857
37.06527	73644
37.07340	67828
37.08152	56451
37.08963	56096
37.09777	58077
37.10588	57372
37.11402	52344
37.12213	52450
37.13025	56528
37.13838	55372
37.14650	52489
37.15462	55819
37.16275	49906
37.17087	54269
37.17900	54935
37.18712	53723
37.19523	53853
37.20337	54220
37.21148	53693
37.21962	57211
37.22773	53037
37.23585	53311
37.24398	52697
37.25210	58799
37.26023	65502
37.26835	68545
37.27647	74296
37.28460	85479
37.29272	90227
37.30083	87596
37.30897	87800
37.31708	82824
37.32522	78262
37.33333	73729
37.34145	71021
37.34958	67075
37.35770	69467
37.36583	67286
37.37395	62578
37.38207	63856
37.39020	64892
37.39832	61276
37.40645	60723
37.41457	61132
37.42268	69334
37.43082	61694
37.43893	62889
37.44705	67835
37.45518	60819
37.46330	59413
37.47143	62090
37.47955	56151
37.48767	57657
