C:\MassHunter\GCMS\1\data\JTB-E18\JTB-E18-035-06.D Wed Oct 16 13:05:16 2019
Start of data points
2.09517,205958
2.10328,201250
2.11142,190087
2.11953,185823
2.12765,182923
2.13578,176417
2.14390,166839
2.15202,164353
2.16015,163623
2.16827,164029
2.17640,155631
2.18452,147175
2.19263,146903
2.20077,147053
2.20888,140060
2.21702,131958
2.22513,132250
2.23325,129001
2.24138,128502
2.24950,128956
2.25763,128982
2.26575,236726
2.27387,1268048
2.28200,2408112
2.29012,1508984
2.29823,742503
2.30637,541027
2.31448,465587
2.32262,407149
2.33073,363842
2.33885,331038
2.34698,305524
2.35510,281491
2.36323,263229
2.37135,248668
2.37947,254702
2.38760,266498
2.39572,247228
2.40383,221155
2.41197,227160
2.42008,308049
2.42822,384694
2.43633,297018
2.44445,256213
2.45258,240834
2.46070,211683
2.46883,201074
2.47695,190538
2.48507,193561
2.49320,199218
2.50132,192242
2.50945,185808
2.51757,177861
2.52568,170590
2.53382,170302
2.54193,162224
2.55005,171796
2.55818,211818
2.56630,218148
2.57443,194780
2.58255,170954
2.59067,166516
2.59880,160480
2.60692,162920
2.61505,190657
2.62317,199115
2.63128,175130
2.63942,164064
2.64753,158149
2.65567,153171
2.66378,149913
2.67190,157352
2.68003,174314
2.68815,180442
2.69627,154682
2.70440,146612
2.71252,142040
2.72065,142325
2.72877,144635
2.73688,141426
2.74502,138423
2.75313,130257
2.76127,135708
2.76938,130186
2.77750,133105
2.78563,156774
2.79375,170707
2.80187,150073
2.81000,161479
2.81812,194542
2.82625,306541
2.83437,473814
2.84248,446543
2.85062,306806
2.85873,247925
2.86687,233421
2.87498,208678
2.88310,185401
2.89123,169873
2.89935,162393
2.90748,155356
2.91560,151707
2.92372,142783
2.93185,136909
2.93997,135443
2.94808,132980
2.95622,131292
2.96433,129056
2.97247,122929
2.98058,125602
2.98870,125509
2.99683,132535
3.00495,138786
3.01308,138418
3.02120,176345
3.02932,348563
3.03745,629469
3.04557,1011456
3.05368,2995788
3.06182,6571564
3.06993,6652943
3.07807,3991973
3.08618,2321444
3.09430,1776828
3.10243,2363138
3.11055,3813998
3.11868,3853545
3.12680,2596500
3.13492,1815827
3.14305,1401737
3.15117,1100319
3.15930,925172
3.16742,858734
3.17553,846024
3.18367,946767
3.19178,1475743
3.19990,1834351
3.20803,1494878
3.21615,1084696
3.22428,886982
3.23240,759753
3.24052,645915
3.24865,563020
3.25677,495779
3.26490,451082
3.27302,407708
3.28113,459840
3.28927,765350
3.29738,1582706
3.30552,2529529
3.31363,2782880
3.32175,2276665
3.32988,1703514
3.33800,1349040
3.34612,1106622
3.35425,935477
3.36237,863906
3.37050,899350
3.37862,1057297
3.38673,1136217
3.39487,1009840
3.40298,1254657
3.41112,2242190
3.41923,3153608
3.42735,2626623
3.43548,1699237
3.44360,1135941
3.45172,898339
3.45985,798485
3.46797,710372
3.47610,663401
3.48422,604505
3.49233,556638
3.50047,521691
3.50858,482082
3.51672,475732
3.52483,451341
3.53295,438974
3.54108,427330
3.54920,412565
3.55733,384128
3.56545,374167
3.57357,360719
3.58170,354129
3.58982,331511
3.59793,324027
3.60607,336374
3.61418,403307
3.62232,709745
3.63043,1392330
3.63855,1926844
3.64668,1697622
3.65480,1188169
3.66293,1085723
3.67105,2164462
3.67917,4122269
3.68730,4643778
3.69542,3466709
3.70355,2397201
3.71167,1856995
3.71978,1518952
3.72792,1306805
3.73603,1149435
3.74415,1011238
3.75228,912664
3.76040,861985
3.76853,858014
3.77665,808148
3.78477,766337
3.79290,737308
3.80102,762107
3.80915,1030274
3.81727,1415951
3.82538,1439900
3.83352,1148524
3.84163,906849
3.84975,779859
3.85788,692657
3.86600,618852
3.87413,566136
3.88225,522378
3.89037,500511
3.89850,467147
3.90662,459485
3.91475,466431
3.92287,537355
3.93098,619880
3.93912,600758
3.94723,523877
3.95537,475399
3.96348,485902
3.97160,476164
3.97973,428673
3.98785,393719
3.99597,425701
4.00410,607132
4.01222,906958
4.02035,1044241
4.02847,852157
4.03658,647043
4.04472,493642
4.05283,423471
4.06097,386129
4.06908,362497
4.07720,334961
4.08533,311427
4.09345,297470
4.10158,291898
4.10970,276562
4.11782,267415
4.12595,269477
4.13407,303677
4.14218,416523
4.15032,579466
4.15843,600796
4.16657,508325
4.17468,402441
4.18280,326721
4.19093,300532
4.19905,303575
4.20718,587540
4.21530,2371826
4.22342,7178308
4.23155,1.344145E+07
4.23967,1.743659E+07
4.24778,1.592789E+07
4.25592,1.029876E+07
4.26403,5767775
4.27217,3673566
4.28028,2609753
4.28840,1970505
4.29653,1547261
4.30465,1245329
4.31278,1058175
4.32090,918661
4.32902,826768
4.33715,723654
4.34527,685396
4.35340,649391
4.36152,620098
4.36963,593920
4.37777,544361
4.38588,504400
4.39400,476269
4.40213,437216
4.41025,414610
4.41838,407024
4.42650,384923
4.43462,376245
4.44275,366174
4.45087,374239
4.45900,362178
4.46712,343873
4.47523,336055
4.48337,327728
4.49148,310983
4.49960,308489
4.50773,299758
4.51585,284328
4.52398,284274
4.53210,273579
4.54022,277888
4.54835,271269
4.55647,268494
4.56460,255621
4.57272,244421
4.58083,249302
4.58897,240801
4.59708,235274
4.60522,230594
4.61333,238352
4.62145,264772
4.62958,325494
4.63770,427598
4.64582,464217
4.65395,424914
4.66207,357279
4.67020,309548
4.67832,294100
4.68643,270247
4.69457,251690
4.70268,242071
4.71082,228713
4.71893,224099
4.72705,216899
4.73518,215664
4.74330,210263
4.75143,203843
4.75955,199710
4.76767,201556
4.77580,200472
4.78392,205482
4.79203,244190
4.80017,329383
4.80828,389119
4.81642,385440
4.82453,337965
4.83265,307653
4.84078,287015
4.84890,267880
4.85703,256269
4.86515,241308
4.87327,234106
4.88140,222629
4.88952,212730
4.89763,207733
4.90577,208731
4.91388,236373
4.92202,306540
4.93013,470159
4.93825,683819
4.94638,834229
4.95450,826117
4.96263,716171
4.97075,582702
4.97887,499491
4.98700,432440
4.99512,400749
5.00325,369567
5.01137,361806
5.01948,389486
5.02762,534547
5.03573,812396
5.04385,1022187
5.05198,1024747
5.06010,869188
5.06823,721684
5.07635,625676
5.08447,554349
5.09260,526773
5.10072,502623
5.10885,523467
5.11697,523063
5.12508,499456
5.13322,469139
5.14133,410612
5.14947,383841
5.15758,390045
5.16570,410973
5.17383,432474
5.18195,470579
5.19007,472743
5.19820,445350
5.20632,425979
5.21445,388961
5.22257,372996
5.23068,353637
5.23882,358353
5.24693,345471
5.25507,318942
5.26318,285515
5.27130,272785
5.27943,258580
5.28755,255461
5.29567,250198
5.30380,240707
5.31192,233759
5.32005,228293
5.32817,230475
5.33628,234838
5.34442,232092
5.35253,225258
5.36067,215134
5.36878,214955
5.37690,204781
5.38503,202387
5.39315,206657
5.40128,203651
5.40940,203654
5.41752,192396
5.42565,194836
5.43377,190181
5.44188,191762
5.45002,189133
5.45813,193114
5.46627,186140
5.47438,174144
5.48250,182261
5.49063,180378
5.49875,173012
5.50688,181210
5.51500,174405
5.52312,171281
5.53125,172270
5.53937,170033
5.54748,173273
5.55562,178144
5.56373,179928
5.57187,181073
5.57998,193199
5.58810,189838
5.59623,177358
5.60435,185048
5.61248,171057
5.62060,167577
5.62872,173391
5.63685,183940
5.64497,176298
5.65310,172307
5.66122,166148
5.66933,165917
5.67747,178641
5.68558,200188
5.69370,217464
5.70183,225457
5.70995,224059
5.71808,225273
5.72620,231535
5.73432,228216
5.74245,212105
5.75057,208864
5.75870,219043
5.76682,227757
5.77493,220814
5.78307,211058
5.79118,204647
5.79932,230371
5.80743,322666
5.81555,517090
5.82368,807143
5.83180,1022548
5.83992,1013709
5.84805,820268
5.85617,573680
5.86430,420706
5.87242,319893
5.88053,283508
5.88867,246385
5.89678,248718
5.90492,257856
5.91303,309540
5.92115,404300
5.92928,478447
5.93740,499197
5.94553,432471
5.95365,369934
5.96177,325537
5.96990,295010
5.97802,302852
5.98613,314956
5.99427,308378
6.00238,280543
6.01052,247702
6.01863,215705
6.02675,200522
6.03488,178770
6.04300,169863
6.05113,158490
6.05925,152230
6.06737,161655
6.07550,145537
6.08362,140912
6.09173,142107
6.09987,134003
6.10798,133835
6.11612,136917
6.12423,156603
6.13235,213596
6.14048,289029
6.14860,326653
6.15673,327904
6.16485,290894
6.17297,251654
6.18110,227408
6.18922,221675
6.19735,222659
6.20547,232239
6.21358,220312
6.22172,203752
6.22983,189969
6.23795,187957
6.24608,187112
6.25420,181344
6.26233,181118
6.27045,185571
6.27857,179602
6.28670,182641
6.29482,181910
6.30295,183779
6.31107,184184
6.31918,200582
6.32732,212503
6.33543,235010
6.34355,254302
6.35168,239549
6.35980,234222
6.36793,223521
6.37605,211657
6.38417,214392
6.39230,205015
6.40042,206728
6.40855,208855
6.41667,205598
6.42478,217126
6.43292,215358
6.44103,210795
6.44917,217808
6.45728,220773
6.46540,215817
6.47353,217123
6.48165,218055
6.48977,228445
6.49790,225744
6.50602,221206
6.51415,222357
6.52227,225686
6.53038,232780
6.53852,236228
6.54663,241697
6.55477,238914
6.56288,239155
6.57100,239424
6.57913,253398
6.58725,251049
6.59538,247373
6.60350,244937
6.61162,239157
6.61975,243004
6.62787,238903
6.63598,245610
6.64412,244025
6.65223,277281
6.66037,354733
6.66848,422524
6.67660,460080
6.68473,448551
6.69285,452193
6.70098,441997
6.70910,390401
6.71722,338877
6.72535,297784
6.73347,286381
6.74158,268304
6.74972,261814
6.75783,221646
6.76597,178413
6.77408,183696
6.78220,244982
6.79033,373946
6.79845,536879
6.80658,666786
6.81470,665170
6.82282,515520
6.83095,355070
6.83907,247025
6.84720,184902
6.85532,155628
6.86343,131832
6.87157,118592
6.87968,109267
6.88780,104947
6.89593,99681
6.90405,95485
6.91218,102175
6.92030,112062
6.92842,136925
6.93655,188096
6.94467,225328
6.95280,249559
6.96092,237465
6.96903,207187
6.97717,179194
6.98528,150049
6.99342,123255
7.00153,108933
7.00965,101590
7.01778,93788
7.02590,88115
7.03402,96155
7.04215,85880
7.05027,87662
7.05840,84142
7.06652,83719
7.07463,77344
7.08277,80168
7.09088,75984
7.09902,69678
7.10713,76154
7.11525,70288
7.12338,72742
7.13150,71342
7.13962,78775
7.14775,84609
7.15587,96753
7.16400,116457
7.17212,121035
7.18023,129223
7.18837,131949
7.19648,128583
7.20462,134851
7.21273,184708
7.22085,386052
7.22898,768445
7.23710,1207874
7.24523,1305628
7.25335,1037779
7.26147,712723
7.26960,418627
7.27772,280505
7.28583,218384
7.29397,196041
7.30208,192423
7.31022,212732
7.31833,231774
7.32645,221502
7.33458,201028
7.34270,172386
7.35083,139597
7.35895,111257
7.36707,110370
7.37520,102510
7.38332,101631
7.39143,108425
7.39957,108372
7.40768,120373
7.41582,139291
7.42393,146456
7.43205,149653
7.44018,141280
7.44830,122762
7.45643,107564
7.46455,95508
7.47267,87967
7.48080,84704
7.48892,79260
7.49705,75594
7.50517,75184
7.51328,86130
7.52142,89628
7.52953,102051
7.53765,111970
7.54578,126220
7.55390,131626
7.56203,121137
7.57015,112897
7.57827,101035
7.58640,89571
7.59452,80359
7.60265,79676
7.61077,76397
7.61888,72001
7.62702,74931
7.63513,68979
7.64327,69535
7.65138,65954
7.65950,70751
7.66763,70604
7.67575,66722
7.68387,64411
7.69200,64964
7.70012,65185
7.70825,63036
7.71637,67142
7.72448,63285
7.73262,67787
7.74073,65090
7.74887,66838
7.75698,60775
7.76510,62149
7.77323,61210
7.78135,69613
7.78947,63955
7.79760,62060
7.80572,65799
7.81385,61950
7.82197,65424
7.83008,61565
7.83822,58642
7.84633,61583
7.85447,64821
7.86258,61865
7.87070,62282
7.87883,61878
7.88695,60160
7.89508,61511
7.90320,56686
7.91132,60984
7.91945,63395
7.92757,65675
7.93568,76748
7.94382,88186
7.95193,92010
7.96007,82955
7.96818,71361
7.97630,66480
7.98443,60888
7.99255,57188
8.00068,57854
8.00880,54923
8.01692,55985
8.02505,53237
8.03317,56613
8.04130,50939
8.04942,58427
8.05753,53045
8.06567,53675
8.07378,50071
8.08190,50023
8.09003,55016
8.09815,49660
8.10628,49549
8.11440,50477
8.12252,53333
8.13065,52868
8.13877,53326
8.14690,57638
8.15502,54986
8.16313,52419
8.17127,53060
8.17938,53690
8.18750,54428
8.19563,49883
8.20375,50743
8.21188,50599
8.22000,51032
8.22812,52260
8.23625,48920
8.24437,52755
8.25250,44130
8.26062,46852
8.26873,53166
8.27687,47236
8.28498,48550
8.29312,46096
8.30123,50837
8.30935,53508
8.31748,54528
8.32560,51491
8.33372,45946
8.34185,46011
8.34997,49355
8.35810,48756
8.36622,44257
8.37433,44624
8.38247,48027
8.39058,46876
8.39872,51426
8.40683,44937
8.41495,43137
8.42308,43546
8.43120,44451
8.43933,45583
8.44745,44738
8.45557,41854
8.46370,40427
8.47182,41412
8.47993,42421
8.48807,44527
8.49618,41493
8.50432,45878
8.51243,45790
8.52055,54322
8.52868,81149
8.53680,133690
8.54493,197969
8.55305,258798
8.56117,254447
8.56930,194271
8.57742,137376
8.58553,94324
8.59367,76697
8.60178,67844
8.60992,59563
8.61803,55423
8.62615,55343
8.63428,55197
8.64240,51108
8.65053,52222
8.65865,50415
8.66677,48375
8.67490,49638
8.68302,51732
8.69115,46851
8.69927,51154
8.70738,55228
8.71552,65631
8.72363,86239
8.73175,128493
8.73988,158354
8.74800,159027
8.75613,147169
8.76425,127940
8.77237,101460
8.78050,93223
8.78862,76646
8.79675,74998
8.80487,72942
8.81298,73709
8.82112,75389
8.82923,78494
8.83735,77237
8.84548,76660
8.85360,69695
8.86173,72973
8.86985,70242
8.87797,71981
8.88610,66923
8.89422,65876
8.90235,63590
8.91047,67889
8.91858,67233
8.92672,71131
8.93483,71872
8.94297,69957
8.95108,76628
8.95920,73386
8.96733,69666
8.97545,64629
8.98357,64144
8.99170,62146
8.99982,60393
9.00795,61009
9.01607,55850
9.02418,53367
9.03232,54073
9.04043,57763
9.04857,54487
9.05668,49449
9.06480,50902
9.07293,51109
9.08105,52203
9.08918,51538
9.09730,56200
9.10542,61149
9.11355,60801
9.12167,59122
9.12978,59836
9.13792,60227
9.14603,53268
9.15417,54459
9.16228,50557
9.17040,51239
9.17853,48659
9.18665,47715
9.19478,49779
9.20290,45677
9.21102,52230
9.21915,51877
9.22727,46815
9.23538,48372
9.24352,46665
9.25163,48944
9.25977,47909
9.26788,50406
9.27600,50193
9.28413,49351
9.29225,47836
9.30038,45251
9.30850,47138
9.31662,48325
9.32475,49937
9.33287,55818
9.34100,54125
9.34912,56918
9.35723,52658
9.36537,48631
9.37348,45746
9.38160,51494
9.38973,49110
9.39785,47495
9.40598,47802
9.41410,52029
9.42222,53365
9.43035,56465
9.43847,54748
9.44660,52031
9.45472,50507
9.46283,46681
9.47097,44680
9.47908,48549
9.48722,42160
9.49533,46019
9.50345,47300
9.51158,49919
9.51970,54815
9.52782,52087
9.53595,44304
9.54407,42735
9.55220,36924
9.56032,36444
9.56843,34564
9.57657,34914
9.58468,34477
9.59282,35193
9.60093,32565
9.60905,32721
9.61718,35567
9.62530,35325
9.63342,35759
9.64155,35577
9.64967,32903
9.65780,31811
9.66592,30880
9.67403,31843
9.68217,32180
9.69028,31300
9.69842,33273
9.70653,30933
9.71465,31567
9.72278,29494
9.73090,32248
9.73903,31463
9.74715,29091
9.75527,28674
9.76340,29519
9.77152,29518
9.77963,31237
9.78777,31711
9.79588,26451
9.80402,28561
9.81213,29190
9.82025,26136
9.82838,27012
9.83650,29230
9.84463,30353
9.85275,30716
9.86087,31166
9.86900,30306
9.87712,32913
9.88523,34379
9.89337,28911
9.90148,32448
9.90962,29987
9.91773,33078
9.92585,30674
9.93398,40105
9.94210,44574
9.95023,49707
9.95835,49667
9.96647,51744
9.97460,47362
9.98272,42838
9.99085,39659
9.99897,38710
10.00708,38874
10.01522,29212
10.02333,31141
10.03145,31830
10.03958,30987
10.04770,33761
10.05583,27900
10.06395,34804
10.07207,34454
10.08020,31943
10.08832,35843
10.09645,33330
10.10457,29762
10.11268,29835
10.12082,28619
10.12893,29548
10.13707,27599
10.14518,31282
10.15330,28028
10.16143,29513
10.16955,27932
10.17767,29682
10.18580,32141
10.19392,30365
10.20205,32239
10.21017,29932
10.21828,33546
10.22642,32419
10.23453,31651
10.24267,36483
10.25078,42278
10.25890,56142
10.26703,116423
10.27515,236438
10.28327,476828
10.29140,870836
10.29952,1407847
10.30765,2213422
10.31577,3442392
10.32388,4928853
10.33202,5827160
10.34013,5518301
10.34827,4126949
10.35638,2546737
10.36450,1413456
10.37263,796689
10.38075,520473
10.38888,354114
10.39700,283994
10.40512,220485
10.41325,184823
10.42137,163225
10.42948,144257
10.43762,138342
10.44573,125062
10.45387,117152
10.46198,112387
10.47010,107546
10.47823,104524
10.48635,93182
10.49448,95040
10.50260,89941
10.51072,86736
10.51885,82102
10.52697,75413
10.53510,73849
10.54322,67342
10.55133,72913
10.55947,69200
10.56758,69836
10.57570,64596
10.58383,63263
10.59195,61332
10.60008,58527
10.60820,61533
10.61632,57363
10.62445,58047
10.63257,52786
10.64070,57225
10.64882,52880
10.65693,48506
10.66507,56259
10.67318,51196
10.68130,51445
10.68943,56226
10.69755,50267
10.70568,49216
10.71380,50122
10.72192,48603
10.73005,49369
10.73817,47738
10.74630,48633
10.75442,46530
10.76253,45120
10.77067,44572
10.77878,42035
10.78692,44535
10.79503,42708
10.80315,41405
10.81128,44153
10.81940,42762
10.82752,41337
10.83565,37545
10.84377,37988
10.85190,37284
10.86002,39318
10.86813,36768
10.87627,37454
10.88438,38983
10.89252,39422
10.90063,36727
10.90875,39120
10.91688,35313
10.92500,36427
10.93312,38485
10.94125,37256
10.94937,40897
10.95750,37607
10.96562,40616
10.97373,33989
10.98187,37300
10.98998,33102
10.99812,35370
11.00623,32296
11.01435,33033
11.02248,31317
11.03060,33547
11.03873,33505
11.04685,33715
11.05497,35714
11.06310,34833
11.07122,35699
11.07933,37090
11.08747,38268
11.09558,37986
11.10372,36992
11.11183,35039
11.11995,34031
11.12808,35232
11.13620,33784
11.14433,30117
11.15245,34305
11.16057,33558
11.16870,33197
11.17682,31678
11.18495,32720
11.19307,34780
11.20118,33951
11.20932,33310
11.21743,32028
11.22555,31085
11.23368,33247
11.24180,34692
11.24993,41596
11.25805,48231
11.26617,55364
11.27430,64530
11.28242,68834
11.29055,65863
11.29867,71352
11.30678,77399
11.31492,86232
11.32303,105226
11.33117,123829
11.33928,122900
11.34740,118931
11.35553,101508
11.36365,86088
11.37177,73404
11.37990,63394
11.38802,55910
11.39615,58693
11.40427,54921
11.41238,53064
11.42052,50943
11.42863,49361
11.43677,47251
11.44488,45614
11.45300,44636
11.46113,44569
11.46925,47213
11.47737,51039
11.48550,60172
11.49362,57610
11.50175,63283
11.50987,66272
11.51798,64241
11.52612,65828
11.53423,60191
11.54237,52815
11.55048,53203
11.55860,48250
11.56673,45717
11.57485,47561
11.58298,43792
11.59110,45624
11.59922,50343
11.60735,57887
11.61547,66776
11.62358,63881
11.63172,60562
11.63983,57157
11.64797,49620
11.65608,45385
11.66420,42822
11.67233,45886
11.68045,47542
11.68858,51016
11.69670,51727
11.70482,52830
11.71295,52852
11.72107,54666
11.72918,48065
11.73732,50320
11.74543,45373
11.75357,40685
11.76168,40519
11.76980,38705
11.77793,39529
11.78605,38884
11.79418,39764
11.80230,35459
11.81042,34955
11.81855,38302
11.82667,35232
11.83480,32879
11.84292,35871
11.85103,35734
11.85917,36353
11.86728,33598
11.87540,33317
11.88353,31275
11.89165,37536
11.89978,37042
11.90790,39550
11.91602,45823
11.92415,42367
11.93227,44766
11.94040,43397
11.94852,41275
11.95663,39897
11.96477,33298
11.97288,31386
11.98102,33706
11.98913,40809
11.99725,42509
12.00538,45191
12.01350,45320
12.02162,41929
12.02975,39174
12.03787,35226
12.04600,34824
12.05412,35042
12.06223,31815
12.07037,34978
12.07848,33574
12.08662,31740
12.09473,35462
12.10285,33177
12.11098,31633
12.11910,31381
12.12722,32785
12.13535,34974
12.14347,31358
12.15160,32399
12.15972,33502
12.16783,29507
12.17597,29445
12.18408,29136
12.19222,32900
12.20033,31216
12.20845,28962
12.21658,28550
12.22470,27827
12.23283,29051
12.24095,32105
12.24907,29199
12.25720,30453
12.26532,33667
12.27343,26105
12.28157,29269
12.28968,28794
12.29782,34628
12.30593,28275
12.31405,33389
12.32218,29188
12.33030,26938
12.33843,26743
12.34655,27485
12.35467,28258
12.36280,27260
12.37092,28659
12.37905,27354
12.38717,31618
12.39528,36787
12.40342,49756
12.41153,58051
12.41965,67362
12.42778,65392
12.43590,56092
12.44403,49569
12.45215,40640
12.46027,37857
12.46840,33114
12.47652,30232
12.48465,34189
12.49277,31348
12.50088,29171
12.50902,30326
12.51713,31817
12.52525,29046
12.53338,34778
12.54150,43100
12.54963,52462
12.55775,64198
12.56587,73414
12.57400,74507
12.58212,61183
12.59025,52674
12.59837,44424
12.60648,38463
12.61462,32567
12.62273,32437
12.63087,30552
12.63898,33630
12.64710,33468
12.65523,32556
12.66335,29106
12.67147,28604
12.67960,32316
12.68772,29559
12.69585,27646
12.70397,26219
12.71208,27238
12.72022,30488
12.72833,24753
12.73647,27052
12.74458,30418
12.75270,28086
12.76083,28587
12.76895,27790
12.77707,30415
12.78520,31634
12.79332,30507
12.80145,28993
12.80957,30456
12.81768,27576
12.82582,28561
12.83393,25734
12.84207,28011
12.85018,31182
12.85830,28986
12.86643,26729
12.87455,30555
12.88268,24317
12.89080,24852
12.89892,25263
12.90705,27175
12.91517,25952
12.92328,30661
12.93142,39076
12.93953,42364
12.94767,50617
12.95578,56485
12.96390,62202
12.97203,61433
12.98015,58967
12.98828,59037
12.99640,56368
13.00452,49413
13.01265,42466
13.02077,40441
13.02890,38673
13.03702,34796
13.04513,39821
13.05327,37898
13.06138,32173
13.06950,31330
13.07763,30802
13.08575,31239
13.09388,30469
13.10200,37213
13.11012,28218
13.11825,29510
13.12637,26824
13.13450,27650
13.14262,30974
13.15073,29382
13.15887,30252
13.16698,28700
13.17510,28655
13.18323,30625
13.19135,31450
13.19948,29008
13.20760,24675
13.21572,30152
13.22385,30307
13.23197,31426
13.24010,30387
13.24822,33781
13.25633,37806
13.26447,32937
13.27258,31374
13.28072,29820
13.28883,32839
13.29695,32135
13.30508,33901
13.31320,34544
13.32132,33934
13.32945,35041
13.33757,34740
13.34570,32012
13.35382,30342
13.36193,27647
13.37007,29334
13.37818,28567
13.38632,29951
13.39443,30099
13.40255,28820
13.41068,26743
13.41880,29962
13.42693,28805
13.43505,29274
13.44317,28389
13.45130,25744
13.45942,27333
13.46753,26074
13.47567,27311
13.48378,24981
13.49192,29742
13.50003,26496
13.50815,28450
13.51628,28212
13.52440,32128
13.53253,27926
13.54065,32309
13.54877,30727
13.55690,30077
13.56502,31340
13.57313,31745
13.58127,34803
13.58938,35761
13.59752,43610
13.60563,51399
13.61375,67367
13.62188,77544
13.63000,79928
13.63813,68389
13.64625,54115
13.65437,53902
13.66250,41488
13.67062,36637
13.67875,35078
13.68687,34685
13.69498,37358
13.70312,33801
13.71123,34781
13.71935,30821
13.72748,33241
13.73560,33842
13.74373,42659
13.75185,52844
13.75997,73355
13.76810,101598
13.77622,119534
13.78435,130323
13.79247,130391
13.80058,117076
13.80872,112111
13.81683,108693
13.82497,105077
13.83308,102837
13.84120,93891
13.84933,83565
13.85745,74572
13.86557,73005
13.87370,68588
13.88182,60288
13.88995,56423
13.89807,56798
13.90618,56209
13.91432,51546
13.92243,47105
13.93057,43985
13.93868,41239
13.94680,45551
13.95493,40467
13.96305,39849
13.97117,43148
13.97930,43839
13.98742,39984
13.99555,38175
14.00367,38287
14.01178,40549
14.01992,39195
14.02803,38722
14.03617,36056
14.04428,40375
14.05240,38341
14.06053,34906
14.06865,35935
14.07678,36138
14.08490,32652
14.09302,31720
14.10115,30940
14.10927,33712
14.11738,34849
14.12552,43796
14.13363,52243
14.14177,69154
14.14988,73493
14.15800,85769
14.16613,83409
14.17425,75904
14.18238,71160
14.19050,65880
14.19862,63157
14.20675,56824
14.21487,52949
14.22298,56340
14.23112,51958
14.23923,49337
14.24737,50600
14.25548,48259
14.26360,47411
14.27173,43513
14.27985,44608
14.28798,43593
14.29610,39818
14.30422,37838
14.31235,31392
14.32047,34940
14.32860,32020
14.33672,33038
14.34483,33386
14.35297,33208
14.36108,30434
14.36920,33987
14.37733,30901
14.38545,36683
14.39358,50739
14.40170,66749
14.40982,84150
14.41795,99508
14.42607,106526
14.43420,92021
14.44232,80358
14.45043,64677
14.45857,53359
14.46668,44530
14.47482,43573
14.48293,37480
14.49105,40349
14.49918,36281
14.50730,35551
14.51542,34432
14.52355,32880
14.53167,33149
14.53980,33031
14.54792,32938
14.55603,31810
14.56417,31431
14.57228,29837
14.58042,30141
14.58853,27417
14.59665,28723
14.60478,27466
14.61290,27525
14.62102,29355
14.62915,28963
14.63727,30245
14.64540,26929
14.65352,28404
14.66163,26725
14.66977,26719
14.67788,27606
14.68602,26092
14.69413,27801
14.70225,23376
14.71038,27269
14.71850,24276
14.72663,27940
14.73475,30357
14.74287,25717
14.75100,26125
14.75912,29730
14.76723,28586
14.77537,30382
14.78348,40820
14.79162,62853
14.79973,128534
14.80785,269196
14.81598,457279
14.82410,705272
14.83223,847488
14.84035,772567
14.84847,594244
14.85660,394656
14.86472,275877
14.87285,198879
14.88097,155935
14.88908,132267
14.89722,114189
14.90533,99761
14.91345,91984
14.92158,81155
14.92970,76390
14.93783,74360
14.94595,66373
14.95407,66694
14.96220,59729
14.97032,60867
14.97845,56838
14.98657,52060
14.99468,48070
15.00282,51571
15.01093,49479
15.01905,50076
15.02718,43618
15.03530,44693
15.04343,43947
15.05155,41038
15.05967,43046
15.06780,41386
15.07592,40549
15.08405,38472
15.09217,39711
15.10028,38703
15.10842,39832
15.11653,37325
15.12467,45714
15.13278,40165
15.14090,40968
15.14903,38532
15.15715,38234
15.16527,35848
15.17340,39532
15.18152,34662
15.18965,31951
15.19777,29346
15.20588,29858
15.21402,29451
15.22213,31687
15.23027,30721
15.23838,31987
15.24650,36247
15.25463,30267
15.26275,28362
15.27087,32806
15.27900,29246
15.28712,27720
15.29525,30719
15.30337,30767
15.31148,29380
15.31962,26688
15.32773,26877
15.33587,27060
15.34398,26976
15.35210,28339
15.36023,28292
15.36835,26361
15.37648,24266
15.38460,29092
15.39272,26853
15.40085,28053
15.40897,28027
15.41708,27930
15.42522,29496
15.43333,26418
15.44147,26548
15.44958,28209
15.45770,29770
15.46583,32719
15.47395,37224
15.48208,38428
15.49020,43005
15.49832,46566
15.50645,45683
15.51457,41731
15.52270,41522
15.53082,41180
15.53893,38686
15.54707,41088
15.55518,33278
15.56330,41270
15.57143,31919
15.57955,28756
15.58768,36172
15.59580,30695
15.60392,29099
15.61205,29165
15.62017,28322
15.62830,29777
15.63642,31019
15.64453,28961
15.65267,26846
15.66078,27235
15.66890,26701
15.67703,26563
15.68515,27472
15.69328,27923
15.70140,28595
15.70952,29629
15.71765,24714
15.72577,25814
15.73390,25664
15.74202,31497
15.75013,32593
15.75827,42549
15.76638,50730
15.77452,67422
15.78263,83241
15.79075,84768
15.79888,73411
15.80700,62020
15.81512,50854
15.82325,45167
15.83137,43570
15.83950,35674
15.84762,36109
15.85573,36543
15.86387,35766
15.87198,36357
15.88012,34023
15.88823,34645
15.89635,34446
15.90448,33581
15.91260,31599
15.92073,30589
15.92885,29782
15.93697,31137
15.94510,30153
15.95322,30311
15.96133,31763
15.96947,31669
15.97758,32967
15.98572,36229
15.99383,32755
16.00195,34277
16.01008,31726
16.01820,33742
16.02633,32256
16.03445,29209
16.04257,30493
16.05070,30183
16.05882,28082
16.06693,29569
16.07507,27511
16.08318,25970
16.09132,29651
16.09943,29482
16.10755,28704
16.11568,27440
16.12380,29903
16.13193,28321
16.14005,28091
16.14817,27428
16.15630,27657
16.16442,27262
16.17255,27170
16.18067,28668
16.18878,28745
16.19692,26714
16.20503,29823
16.21315,26032
16.22128,25453
16.22940,23918
16.23753,25350
16.24565,24517
16.25377,25226
16.26190,24772
16.27002,28513
16.27815,27200
16.28627,29295
16.29438,30419
16.30252,29624
16.31063,27489
16.31875,26080
16.32688,26866
16.33500,32639
16.34313,29323
16.35125,25681
16.35937,27584
16.36750,30016
16.37562,31490
16.38375,32834
16.39187,28000
16.39998,25406
16.40812,27827
16.41623,24081
16.42437,31347
16.43248,31986
16.44060,30776
16.44873,40353
16.45685,52505
16.46497,66380
16.47310,87597
16.48122,90430
16.48935,83919
16.49747,71712
16.50558,60558
16.51372,49389
16.52183,42368
16.52997,41150
16.53808,37134
16.54620,37354
16.55433,34549
16.56245,33193
16.57058,33150
16.57870,33685
16.58682,36637
16.59495,34684
16.60307,31404
16.61118,30826
16.61932,34914
16.62743,31546
16.63557,31200
16.64368,29656
16.65180,30178
16.65993,29318
16.66805,30282
16.67618,27158
16.68430,28299
16.69242,27043
16.70055,26442
16.70867,28641
16.71680,28480
16.72492,25322
16.73303,28772
16.74117,26160
16.74928,27333
16.75740,28527
16.76553,31003
16.77365,27720
16.78178,32382
16.78990,26906
16.79802,30159
16.80615,28195
16.81427,25684
16.82240,28482
16.83052,26808
16.83863,23323
16.84677,27221
16.85488,29564
16.86300,25554
16.87113,29767
16.87925,26770
16.88738,27070
16.89550,26196
16.90362,23762
16.91175,25208
16.91987,27571
16.92800,26825
16.93612,24058
16.94423,27858
16.95237,28428
16.96048,26876
16.96862,28207
16.97673,25683
16.98485,26911
16.99298,23440
17.00110,25130
17.00922,26130
17.01735,25400
17.02547,24268
17.03360,26846
17.04172,25090
17.04983,29086
17.05797,27475
17.06608,26892
17.07422,28183
17.08233,30367
17.09045,32202
17.09858,30052
17.10670,29207
17.11482,31589
17.12295,29472
17.13107,33578
17.13920,31434
17.14732,29480
17.15543,28210
17.16357,27157
17.17168,26458
17.17982,25969
17.18793,27119
17.19605,29619
17.20418,26578
17.21230,25192
17.22043,25623
17.22855,27149
17.23667,27017
17.24480,24529
17.25292,26015
17.26103,28914
17.26917,28091
17.27728,24111
17.28542,28015
17.29353,23710
17.30165,27282
17.30978,26724
17.31790,27447
17.32603,27536
17.33415,29893
17.34227,28585
17.35040,27890
17.35852,28278
17.36665,28994
17.37477,25608
17.38288,29921
17.39102,29328
17.39913,26377
17.40725,28375
17.41538,27888
17.42350,28100
17.43163,28865
17.43975,25886
17.44787,26852
17.45600,27175
17.46412,26572
17.47225,26243
17.48037,30285
17.48848,27546
17.49662,28371
17.50473,29121
17.51285,29367
17.52098,33572
17.52910,32050
17.53723,33547
17.54535,36411
17.55347,39460
17.56160,46393
17.56972,53425
17.57785,69153
17.58597,86584
17.59408,97057
17.60222,104444
17.61033,96128
17.61847,83884
17.62658,71578
17.63470,59870
17.64283,54927
17.65095,48142
17.65907,45489
17.66720,49161
17.67532,42095
17.68345,39536
17.69157,42326
17.69968,38550
17.70782,36752
17.71593,37377
17.72407,36817
17.73218,37451
17.74030,33592
17.74843,29410
17.75655,34377
17.76468,31297
17.77280,29780
17.78092,31539
17.78905,31777
17.79717,30309
17.80528,28377
17.81342,32696
17.82153,34188
17.82967,31354
17.83778,34372
17.84590,32329
17.85403,34210
17.86215,36677
17.87028,38241
17.87840,34342
17.88652,31968
17.89465,31383
17.90277,31235
17.91088,30823
17.91902,31543
17.92713,27915
17.93527,26581
17.94338,28126
17.95150,31126
17.95963,26658
17.96775,27108
17.97588,29142
17.98400,29418
17.99212,29659
18.00025,27994
18.00837,32029
18.01650,34544
18.02462,36843
18.03273,39266
18.04087,36602
18.04898,38979
18.05710,39564
18.06523,49061
18.07335,70515
18.08148,111137
18.08960,174651
18.09772,229231
18.10585,264654
18.11397,293475
18.12210,292655
18.13022,290100
18.13833,296950
18.14647,298969
18.15458,299605
18.16270,301603
18.17083,299365
18.17895,297150
18.18708,288653
18.19520,293989
18.20332,280002
18.21145,286607
18.21957,277008
18.22770,270639
18.23582,263890
18.24393,251771
18.25207,258499
18.26018,245431
18.26832,249379
18.27643,238976
18.28455,234965
18.29268,218910
18.30080,221530
18.30892,217808
18.31705,212065
18.32517,209772
18.33330,204539
18.34142,200534
18.34953,202799
18.35767,195207
18.36578,186464
18.37392,187131
18.38203,175480
18.39015,175937
18.39828,179659
18.40640,176547
18.41453,169863
18.42265,162949
18.43077,168951
18.43890,170176
18.44702,172563
18.45513,179661
18.46327,180003
18.47138,184360
18.47952,176503
18.48763,182221
18.49575,169272
18.50388,156669
18.51200,144922
18.52013,145859
18.52825,143542
18.53637,130979
18.54450,134115
18.55262,133626
18.56073,119814
18.56887,122861
18.57698,126908
18.58512,121187
18.59323,119987
18.60135,119502
18.60948,112396
18.61760,117053
18.62573,111877
18.63385,108260
18.64197,109115
18.65010,106103
18.65822,99036
18.66635,102380
18.67447,97090
18.68258,95311
18.69072,95662
18.69883,96594
18.70695,89969
18.71508,88943
18.72320,90448
18.73133,85391
18.73945,87422
18.74757,87492
18.75570,81160
18.76382,77278
18.77195,79876
18.78007,76393
18.78818,78141
18.79632,78757
18.80443,75440
18.81257,72883
18.82068,72421
18.82880,70782
18.83693,70809
18.84505,72766
18.85317,68798
18.86130,67166
18.86942,70607
18.87755,66416
18.88567,65898
18.89378,61973
18.90192,65087
18.91003,67728
18.91817,66340
18.92628,63496
18.93440,63730
18.94253,63994
18.95065,62842
18.95877,61397
18.96690,58210
18.97502,62561
18.98315,58554
18.99127,56819
18.99938,58481
19.00752,58013
19.01563,56023
19.02377,55765
19.03188,58307
19.04000,58054
19.04813,50156
19.05625,52062
19.06438,56710
19.07250,58107
19.08062,60912
19.08875,66200
19.09687,67426
19.10498,67869
19.11312,68285
19.12123,64159
19.12937,59903
19.13748,61271
19.14560,64124
19.15373,56996
19.16185,56692
19.16998,55762
19.17810,57260
19.18622,52848
19.19435,50128
19.20247,50536
19.21060,47717
19.21872,47593
19.22683,49057
19.23497,47336
19.24308,46838
19.25120,43897
19.25933,43040
19.26745,44595
19.27558,44504
19.28370,41990
19.29182,42217
19.29995,42476
19.30807,45174
19.31620,42420
19.32432,39810
19.33243,44045
19.34057,41192
19.34868,45093
19.35680,43767
19.36493,48954
19.37305,49595
19.38118,48819
19.38930,48378
19.39742,45256
19.40555,47180
19.41367,47606
19.42180,50637
19.42992,59053
19.43803,70004
19.44617,74892
19.45428,78631
19.46242,72897
19.47053,64927
19.47865,52889
19.48678,45168
19.49490,45449
19.50302,43946
19.51115,44621
19.51927,44196
19.52740,42355
19.53552,42027
19.54363,39347
19.55177,37414
19.55988,37031
19.56802,37671
19.57613,39844
19.58425,35618
19.59238,38141
19.60050,40494
19.60862,40596
19.61675,49531
19.62487,68627
19.63300,92209
19.64112,136233
19.64923,163101
19.65737,170896
19.66548,174360
19.67362,152758
19.68173,132326
19.68985,111021
19.69798,89776
19.70610,84887
19.71423,70678
19.72235,65296
19.73047,63757
19.73860,50732
19.74672,52754
19.75483,48629
19.76297,51673
19.77108,47746
19.77922,49475
19.78733,51956
19.79545,48980
19.80358,47803
19.81170,44126
19.81983,42487
19.82795,44977
19.83607,45425
19.84420,48192
19.85232,54703
19.86045,74918
19.86857,110877
19.87668,174219
19.88482,238104
19.89293,314826
19.90105,340746
19.90918,334970
19.91730,282602
19.92543,227315
19.93355,172056
19.94167,141832
19.94980,126407
19.95792,116273
19.96605,111226
19.97417,101119
19.98228,95567
19.99042,89289
19.99853,84544
20.00665,84104
20.01478,79335
20.02290,79214
20.03103,73697
20.03915,67863
20.04727,64293
20.05540,57153
20.06352,55373
20.07165,55800
20.07977,57280
20.08788,53737
20.09602,51995
20.10413,47285
20.11227,47902
20.12038,45146
20.12850,44546
20.13663,41787
20.14475,47965
20.15287,46115
20.16100,49763
20.16912,50930
20.17725,51422
20.18537,53167
20.19348,50664
20.20162,53715
20.20973,52508
20.21787,56326
20.22598,69609
20.23410,85812
20.24223,103190
20.25035,115354
20.25848,114086
20.26660,104493
20.27472,104772
20.28285,89570
20.29097,71597
20.29908,63042
20.30722,57389
20.31533,54550
20.32347,47682
20.33158,42077
20.33970,42310
20.34783,41861
20.35595,42298
20.36408,37796
20.37220,42043
20.38032,46195
20.38845,43266
20.39657,44577
20.40468,53266
20.41282,52431
20.42093,54679
20.42907,55866
20.43718,52390
20.44530,45542
20.45343,46306
20.46155,42634
20.46968,38441
20.47780,40243
20.48592,37620
20.49405,32937
20.50217,36260
20.51030,35413
20.51842,37152
20.52653,37348
20.53467,37356
20.54278,33270
20.55090,33620
20.55903,33058
20.56715,38823
20.57528,38903
20.58340,32352
20.59152,32590
20.59965,30624
20.60777,33640
20.61590,32093
20.62402,35075
20.63213,33926
20.64027,30565
20.64838,35208
20.65650,31456
20.66463,34715
20.67275,33741
20.68088,34068
20.68900,32456
20.69712,31536
20.70525,33411
20.71337,33709
20.72150,31144
20.72962,32206
20.73773,29338
20.74587,33762
20.75398,34689
20.76212,36417
20.77023,38374
20.77835,42985
20.78648,46960
20.79460,58333
20.80272,68367
20.81085,68636
20.81897,65823
20.82710,68381
20.83522,57251
20.84333,50628
20.85147,43520
20.85958,42787
20.86772,38328
20.87583,36992
20.88395,36845
20.89208,35853
20.90020,34840
20.90833,33810
20.91645,31853
20.92457,34894
20.93270,33892
20.94082,32516
20.94893,35157
20.95707,33198
20.96518,33346
20.97332,32583
20.98143,33317
20.98955,30628
20.99768,33753
21.00580,29896
21.01393,30613
21.02205,27706
21.03017,30413
21.03830,32861
21.04642,33434
21.05453,29967
21.06267,34989
21.07078,31641
21.07892,33214
21.08703,29538
21.09515,29180
21.10328,30575
21.11140,32655
21.11953,36241
21.12765,36215
21.13577,39172
21.14390,43484
21.15202,47102
21.16015,48600
21.16827,44186
21.17638,44804
21.18452,36488
21.19263,35896
21.20075,38920
21.20888,36011
21.21700,36421
21.22513,34374
21.23325,33721
21.24137,34918
21.24950,39942
21.25762,41672
21.26575,42635
21.27387,42097
21.28198,40494
21.29012,40509
21.29823,45542
21.30637,44462
21.31448,44397
21.32260,39453
21.33073,40972
21.33885,43556
21.34697,44915
21.35510,41476
21.36322,45119
21.37135,41935
21.37947,41577
21.38758,45906
21.39572,43758
21.40383,44832
21.41197,48068
21.42008,45319
21.42820,45799
21.43633,43700
21.44445,41763
21.45257,42633
21.46070,41684
21.46882,40774
21.47695,43134
21.48507,41552
21.49318,41953
21.50132,41532
21.50943,43521
21.51757,48737
21.52568,43530
21.53380,41283
21.54193,42108
21.55005,41240
21.55818,43511
21.56630,45729
21.57442,52603
21.58255,59071
21.59067,71428
21.59878,64691
21.60692,64271
21.61503,57977
21.62317,52317
21.63128,49904
21.63940,48588
21.64753,40845
21.65565,45453
21.66378,43539
21.67190,42890
21.68002,38739
21.68815,37553
21.69627,42344
21.70438,39686
21.71252,34202
21.72063,35825
21.72877,34767
21.73688,35411
21.74500,35965
21.75313,37642
21.76125,37390
21.76938,40630
21.77750,46069
21.78562,49344
21.79375,51589
21.80187,50406
21.81000,49320
21.81812,43206
21.82623,40325
21.83437,34704
21.84248,35100
21.85060,35243
21.85873,34416
21.86685,33960
21.87498,33447
21.88310,30876
21.89122,33925
21.89935,29363
21.90747,34899
21.91560,32722
21.92372,32736
21.93183,33369
21.93997,34489
21.94808,44255
21.95622,60297
21.96433,72404
21.97245,84515
21.98058,84164
21.98870,89829
21.99682,94675
22.00495,95151
22.01307,96776
22.02120,95518
22.02932,95879
22.03743,95833
22.04557,99270
22.05368,96888
22.06182,92048
22.06993,93800
22.07805,94136
22.08618,92043
22.09430,96254
22.10243,93674
22.11055,91621
22.11867,88558
22.12680,93185
22.13492,83331
22.14303,88699
22.15117,84876
22.15928,84752
22.16742,88487
22.17553,84725
22.18365,82879
22.19178,83901
22.19990,76361
22.20803,76556
22.21615,69107
22.22427,71761
22.23240,65760
22.24052,68542
22.24863,65405
22.25677,67031
22.26488,62505
22.27302,65843
22.28113,60097
22.28925,65928
22.29738,67301
22.30550,65865
22.31363,63912
22.32175,58179
22.32987,59444
22.33800,56821
22.34612,58593
22.35425,54074
22.36237,54068
22.37048,53292
22.37862,54729
22.38673,58001
22.39485,56584
22.40298,59627
22.41110,60574
22.41923,63938
22.42735,59479
22.43547,52465
22.44360,55761
22.45172,50766
22.45985,50565
22.46797,47668
22.47608,46130
22.48422,48208
22.49233,46404
22.50045,49235
22.50858,52063
22.51670,47840
22.52483,45331
22.53295,43322
22.54107,43598
22.54920,47418
22.55732,43608
22.56545,41711
22.57357,40349
22.58168,39193
22.58982,43174
22.59793,37564
22.60607,38112
22.61418,37282
22.62230,39293
22.63043,37304
22.63855,37569
22.64667,39621
22.65480,36053
22.66292,38947
22.67105,36842
22.67917,38251
22.68728,38360
22.69542,44699
22.70353,44538
22.71167,42443
22.71978,49685
22.72790,42411
22.73603,44871
22.74415,41207
22.75228,39348
22.76040,35586
22.76852,37128
22.77665,38328
22.78477,40807
22.79288,41901
22.80102,41146
22.80913,42672
22.81727,40330
22.82538,40619
22.83350,40435
22.84163,40021
22.84975,38991
22.85788,39270
22.86600,39344
22.87412,42615
22.88225,49556
22.89037,53327
22.89848,56269
22.90662,69489
22.91473,77497
22.92287,81875
22.93098,91440
22.93910,85773
22.94723,83687
22.95535,72709
22.96348,67154
22.97160,58844
22.97972,61808
22.98785,50875
22.99597,49903
23.00410,46326
23.01222,48125
23.02033,44960
23.02847,38141
23.03658,40606
23.04470,38049
23.05283,39226
23.06095,40263
23.06908,36947
23.07720,40971
23.08532,33288
23.09345,36273
23.10157,33562
23.10970,36120
23.11782,33843
23.12593,34742
23.13407,33187
23.14218,34207
23.15032,34935
23.15843,35460
23.16655,35125
23.17468,33541
23.18280,33323
23.19092,31230
23.19905,33611
23.20717,31344
23.21530,32223
23.22342,32446
23.23153,31836
23.23967,32824
23.24778,31580
23.25592,33729
23.26403,32641
23.27215,37066
23.28028,35676
23.28840,32303
23.29652,35410
23.30465,30602
23.31277,34041
23.32090,32732
23.32902,32781
23.33713,35921
23.34527,37570
23.35338,39470
23.36152,37854
23.36963,40414
23.37775,40884
23.38588,37875
23.39400,35572
23.40213,34421
23.41025,37786
23.41837,35148
23.42650,31112
23.43462,31222
23.44273,28676
23.45087,36531
23.45898,33343
23.46712,30601
23.47523,28916
23.48335,29582
23.49148,33778
23.49960,33077
23.50773,34441
23.51585,29070
23.52397,34344
23.53210,33783
23.54022,31935
23.54833,30958
23.55647,36594
23.56458,37820
23.57272,39027
23.58083,42976
23.58895,49448
23.59708,50811
23.60520,50992
23.61333,50950
23.62145,46010
23.62957,47487
23.63770,45966
23.64582,44146
23.65395,46386
23.66207,42092
23.67018,46428
23.67832,44795
23.68643,44607
23.69455,43491
23.70268,45338
23.71080,47526
23.71893,67174
23.72705,94885
23.73517,170478
23.74330,314003
23.75142,712149
23.75955,1487837
23.76767,2701509
23.77578,3913391
23.78392,4418442
23.79203,4125468
23.80017,3523875
23.80828,2746811
23.81640,1975607
23.82453,1427695
23.83265,1081433
23.84077,837432
23.84890,677790
23.85702,586017
23.86515,508177
23.87327,441753
23.88138,402637
23.88952,362741
23.89763,332828
23.90577,315020
23.91388,293025
23.92200,266415
23.93013,260950
23.93825,247427
23.94637,230634
23.95450,217872
23.96262,201841
23.97075,194529
23.97887,185024
23.98698,182954
23.99512,179682
24.00323,181625
24.01137,172140
24.01948,174063
24.02760,168005
24.03573,168315
24.04385,160680
24.05198,156123
24.06010,147331
24.06822,152805
24.07635,136674
24.08447,135060
24.09258,131442
24.10072,131080
24.10883,120422
24.11697,120451
24.12508,118191
24.13320,120294
24.14133,126937
24.14945,124266
24.15758,127081
24.16570,118198
24.17382,119246
24.18195,115516
24.19007,106955
24.19820,100272
24.20632,94400
24.21443,87655
24.22257,85967
24.23068,87952
24.23880,90055
24.24693,81127
24.25505,81265
24.26318,77389
24.27130,81354
24.27942,77207
24.28755,76381
24.29567,82425
24.30380,80569
24.31192,86888
24.32003,93513
24.32817,97304
24.33628,100241
24.34440,88263
24.35253,80934
24.36065,72717
24.36878,75012
24.37690,66572
24.38502,64238
24.39315,66748
24.40127,64288
24.40940,61669
24.41752,67568
24.42563,63701
24.43377,70090
24.44188,72542
24.45002,72956
24.45813,76532
24.46625,71560
24.47438,71186
24.48250,65024
24.49062,60086
24.49875,63113
24.50687,59146
24.51500,60388
24.52312,61029
24.53123,63600
24.53937,60608
24.54748,60320
24.55562,61101
24.56373,58853
24.57185,57812
24.57998,54710
24.58810,55180
24.59623,51738
24.60435,55129
24.61247,50892
24.62060,52060
24.62872,49200
24.63683,51077
24.64497,49236
24.65308,50962
24.66122,48391
24.66933,49450
24.67745,48797
24.68558,47397
24.69370,50532
24.70183,44789
24.70995,43088
24.71807,48904
24.72620,45467
24.73432,46215
24.74243,44044
24.75057,43837
24.75868,39875
24.76682,46225
24.77493,45825
24.78305,44693
24.79118,45971
24.79930,47931
24.80743,47075
24.81555,49792
24.82367,47094
24.83180,51404
24.83992,55699
24.84805,58408
24.85617,65063
24.86428,77673
24.87242,83843
24.88053,90250
24.88865,97005
24.89678,88853
24.90490,85523
24.91303,67007
24.92115,60214
24.92927,57712
24.93740,63381
24.94552,72591
24.95365,86625
24.96177,103161
24.96988,113160
24.97802,114827
24.98613,107956
24.99425,113945
25.00238,117339
25.01050,118052
25.01863,109619
25.02675,112698
25.03487,110620
25.04300,116647
25.05112,110216
25.05925,108758
25.06737,111702
25.07548,115158
25.08362,113880
25.09173,121187
25.09987,135578
25.10798,176380
25.11610,237628
25.12423,315394
25.13235,407004
25.14047,465575
25.14860,468559
25.15672,419268
25.16485,336437
25.17297,271671
25.18108,210636
25.18922,169959
25.19733,141530
25.20547,131642
25.21358,121804
25.22170,122758
25.22983,122937
25.23795,141455
25.24608,161613
25.25420,191620
25.26232,210278
25.27045,220034
25.27857,204160
25.28668,184136
25.29482,148983
25.30293,125965
25.31107,111857
25.31918,102820
25.32730,90995
25.33543,86485
25.34355,81620
25.35168,77962
25.35980,78655
25.36792,71916
25.37605,73681
25.38417,71183
25.39228,71202
25.40042,71780
25.40853,73143
25.41667,75234
25.42478,64907
25.43290,66153
25.44103,61904
25.44915,64616
25.45728,61171
25.46540,55361
25.47352,55121
25.48165,57977
25.48977,58235
25.49790,54462
25.50602,55853
25.51413,57845
25.52227,54596
25.53038,48009
25.53850,49790
25.54663,51489
25.55475,58586
25.56288,53115
25.57100,48045
25.57912,47767
25.58725,47767
25.59537,49935
25.60350,50682
25.61162,54049
25.61973,52391
25.62787,50648
25.63598,46628
25.64412,47894
25.65223,44660
25.66035,45299
25.66848,44809
25.67660,43329
25.68472,41990
25.69285,42198
25.70097,45109
25.70910,40899
25.71722,46359
25.72533,42649
25.73347,42937
25.74158,41925
25.74972,39145
25.75783,44605
25.76595,42839
25.77408,42103
25.78220,41664
25.79032,42633
25.79845,44275
25.80657,39724
25.81470,41553
25.82282,38767
25.83093,37749
25.83907,42130
25.84718,39854
25.85532,39388
25.86343,38147
25.87155,38347
25.87968,37619
25.88780,40002
25.89593,38375
25.90405,38782
25.91217,41469
25.92030,38966
25.92842,37073
25.93653,36980
25.94467,41914
25.95278,41935
25.96092,42961
25.96903,41949
25.97715,39323
25.98528,38362
25.99340,39029
26.00153,36899
26.00965,38803
26.01777,36780
26.02590,39480
26.03402,36045
26.04213,37242
26.05027,35227
26.05838,34270
26.06652,35603
26.07463,34211
26.08275,37770
26.09088,36979
26.09900,39208
26.10713,39081
26.11525,39899
26.12337,40610
26.13150,38642
26.13962,39341
26.14775,39588
26.15587,41162
26.16398,39968
26.17212,45135
26.18023,40172
26.18835,36123
26.19648,40861
26.20460,38137
26.21273,35636
26.22085,39792
26.22897,37859
26.23710,36848
26.24522,34514
26.25335,37162
26.26147,39801
26.26958,38204
26.27772,37675
26.28583,36965
26.29397,39426
26.30208,36034
26.31020,36355
26.31833,36082
26.32645,37050
26.33457,34212
26.34270,37178
26.35082,39259
26.35895,38100
26.36707,39397
26.37518,41409
26.38332,38720
26.39143,39534
26.39957,37281
26.40768,40623
26.41580,38341
26.42393,40571
26.43205,38457
26.44018,34731
26.44830,37384
26.45642,38823
26.46455,35354
26.47267,37053
26.48078,36839
26.48892,37507
26.49703,36872
26.50517,35706
26.51328,35064
26.52140,33668
26.52953,35082
26.53765,34716
26.54578,34141
26.55390,35024
26.56202,35533
26.57015,30852
26.57827,36846
26.58638,32960
26.59452,34780
26.60263,33241
26.61077,31506
26.61888,31079
26.62700,36652
26.63513,33533
26.64325,35511
26.65138,37011
26.65950,35193
26.66762,35023
26.67575,38501
26.68387,37324
26.69200,38526
26.70012,37262
26.70823,34913
26.71637,33894
26.72448,35309
26.73260,36399
26.74073,33225
26.74885,36035
26.75698,32340
26.76510,36943
26.77322,36073
26.78135,36048
26.78947,35179
26.79760,35150
26.80572,37286
26.81383,35394
26.82197,32873
26.83008,34581
26.83820,31712
26.84633,34051
26.85445,30700
26.86258,32986
26.87070,36534
26.87882,35644
26.88695,33516
26.89507,35601
26.90320,34547
26.91132,36810
26.91943,36099
26.92757,37295
26.93568,42766
26.94382,56800
26.95193,80435
26.96005,132727
26.96818,213742
26.97630,325894
26.98442,449166
26.99255,529405
27.00067,620087
27.00880,596962
27.01692,532063
27.02503,431620
27.03317,350204
27.04128,283396
27.04942,218257
27.05753,172703
27.06565,140890
27.07378,124042
27.08190,106250
27.09003,95959
27.09815,89580
27.10627,83111
27.11440,80739
27.12252,74102
27.13063,74960
27.13877,70072
27.14688,70623
27.15502,66412
27.16313,69719
27.17125,68910
27.17938,68099
27.18750,61716
27.19563,56851
27.20375,54288
27.21187,53166
27.22000,50899
27.22812,48169
27.23623,45407
27.24437,47905
27.25248,48384
27.26062,46300
27.26873,46640
27.27685,44236
27.28498,43517
27.29310,45567
27.30123,45394
27.30935,41963
27.31747,41020
27.32560,42855
27.33372,42586
27.34185,42805
27.34997,41097
27.35808,43957
27.36622,41091
27.37433,40738
27.38245,41743
27.39058,42803
27.39870,40822
27.40683,38371
27.41495,38960
27.42307,39765
27.43120,40535
27.43932,41921
27.44745,39669
27.45557,38755
27.46368,38547
27.47182,35614
27.47993,39451
27.48807,39074
27.49618,40260
27.50430,37195
27.51243,39306
27.52055,35701
27.52867,34547
27.53680,42729
27.54492,36908
27.55305,36512
27.56117,36929
27.56928,37263
27.57742,37069
27.58553,39794
27.59367,37423
27.60178,42814
27.60990,37268
27.61803,37261
27.62615,37373
27.63427,34843
27.64240,30195
27.65052,32220
27.65865,32600
27.66677,32273
27.67488,35857
27.68302,35004
27.69113,36300
27.69927,32529
27.70738,31348
27.71550,36914
27.72363,36520
27.73175,37556
27.73988,38926
27.74800,36547
27.75612,39116
27.76425,41347
27.77237,39628
27.78048,39273
27.78862,41101
27.79673,37633
27.80487,37612
27.81298,33373
27.82110,34581
27.82923,33589
27.83735,32878
27.84548,32520
27.85360,32538
27.86172,32477
27.86985,28585
27.87797,31383
27.88608,30022
27.89422,31901
27.90233,29685
27.91047,33072
27.91858,33534
27.92670,31041
27.93483,27382
27.94295,31845
27.95108,30348
27.95920,32863
27.96732,35950
27.97545,34748
27.98357,32354
27.99170,35288
27.99982,34532
28.00793,37373
28.01607,36273
28.02418,37599
28.03230,39098
28.04043,37184
28.04855,35639
28.05668,35524
28.06480,35681
28.07292,34631
28.08105,34931
28.08917,34814
28.09730,35573
28.10542,38766
28.11353,42982
28.12167,38751
28.12978,39242
28.13792,37655
28.14603,34755
28.15415,37447
28.16228,32823
28.17040,30937
28.17852,29124
28.18665,30868
28.19477,33658
28.20290,36509
28.21102,34919
28.21913,37561
28.22727,33020
28.23538,33882
28.24352,37334
28.25163,37825
28.25975,42634
28.26788,56180
28.27600,65010
28.28412,80692
28.29225,91056
28.30037,111011
28.30850,112600
28.31662,123077
28.32473,122327
28.33287,118365
28.34098,111604
28.34912,102616
28.35723,91478
28.36535,83357
28.37348,79509
28.38160,70491
28.38973,62496
28.39785,59232
28.40597,59445
28.41410,54143
28.42222,47989
28.43033,50663
28.43847,46083
28.44658,44614
28.45472,41248
28.46283,40500
28.47095,41141
28.47908,41367
28.48720,41367
28.49533,39320
28.50345,39790
28.51157,39560
28.51970,36990
28.52782,36544
28.53595,38311
28.54407,37581
28.55218,36986
28.56032,37307
28.56843,35498
28.57655,37062
28.58468,38310
28.59280,36784
28.60093,35924
28.60905,37605
28.61717,34789
28.62530,35001
28.63342,36664
28.64155,35611
28.64967,36251
28.65778,40621
28.66592,41665
28.67403,43298
28.68215,46674
28.69028,51450
28.69840,45367
28.70653,43116
28.71465,40332
28.72277,34804
28.73090,32734
28.73902,33884
28.74715,33730
28.75527,33460
28.76338,34558
28.77152,35661
28.77963,30675
28.78777,35592
28.79588,37246
28.80400,33904
28.81213,35686
28.82025,32199
28.82837,30529
28.83650,29947
28.84462,31146
28.85275,32637
28.86087,30255
28.86898,33365
28.87712,33253
28.88523,33478
28.89337,33278
28.90148,33107
28.90960,31228
28.91773,34889
28.92585,33330
28.93397,32931
28.94210,32099
28.95022,39204
28.95835,33217
28.96647,35925
28.97458,35314
28.98272,32295
28.99083,32233
28.99897,34188
29.00708,33006
29.01520,30592
29.02333,33084
29.03145,31750
29.03958,33777
29.04770,31117
29.05582,31698
29.06395,34031
29.07207,32398
29.08018,32098
29.08832,31815
29.09643,36358
29.10457,32929
29.11268,30626
29.12080,30149
29.12893,30654
29.13705,32962
29.14518,27907
29.15330,30924
29.16142,28809
29.16955,31766
29.17767,32032
29.18580,29407
29.19392,32677
29.20203,33328
29.21017,34646
29.21828,33736
29.22640,33389
29.23453,35653
29.24265,42356
29.25078,38714
29.25890,32536
29.26702,36061
29.27515,31664
29.28327,30116
29.29140,29247
29.29952,25978
29.30763,29662
29.31577,27491
29.32388,29213
29.33200,31048
29.34013,30750
29.34825,29522
29.35638,28372
29.36450,28488
29.37262,27587
29.38075,27930
29.38887,32348
29.39700,26376
29.40512,30656
29.41323,31872
29.42137,33867
29.42948,30783
29.43762,27736
29.44573,28146
29.45385,29454
29.46198,27244
29.47010,29764
29.47822,28185
29.48635,33230
29.49447,31678
29.50260,32540
29.51072,33255
29.51883,30745
29.52697,32481
29.53508,30455
29.54322,32019
29.55133,31391
29.55945,27396
29.56758,30564
29.57570,30358
29.58383,29240
29.59195,30734
29.60007,30603
29.60820,34566
29.61632,29901
29.62443,30991
29.63257,28644
29.64068,27894
29.64882,30228
29.65693,28341
29.66505,30472
29.67318,28548
29.68130,29583
29.68943,28818
29.69755,30050
29.70567,29647
29.71380,29165
29.72192,30139
29.73003,25802
29.73817,28420
29.74628,26187
29.75442,27636
29.76253,26219
29.77065,28755
29.77878,26411
29.78690,27505
29.79503,27074
29.80315,27068
29.81127,29621
29.81940,25641
29.82752,26780
29.83565,26035
29.84377,25256
29.85188,30376
29.86002,31250
29.86813,36051
29.87625,42116
29.88438,49676
29.89250,52328
29.90063,59880
29.90875,61755
29.91687,64299
29.92500,59956
29.93312,65218
29.94125,66612
29.94937,69341
29.95748,66038
29.96562,64258
29.97373,61729
29.98187,66718
29.98998,64132
29.99810,58867
30.00623,56300
30.01435,50129
30.02247,51206
30.03060,46762
30.03872,47158
30.04685,47759
30.05497,51358
30.06308,49195
30.07122,48886
30.07933,46799
30.08747,43059
30.09558,43811
30.10370,45957
30.11183,43939
30.11995,45085
30.12807,42289
30.13620,42980
30.14432,44474
30.15245,43966
30.16057,45755
30.16868,41768
30.17682,43807
30.18493,40053
30.19307,38741
30.20118,39425
30.20930,39748
30.21743,36936
30.22555,35215
30.23368,36994
30.24180,38554
30.24992,34032
30.25805,35847
30.26617,35387
30.27428,31467
30.28242,35728
30.29053,37948
30.29867,32225
30.30678,36734
30.31490,34658
30.32303,36083
30.33115,34830
30.33928,34836
30.34740,34087
30.35552,35150
30.36365,33001
30.37177,32614
30.37988,35110
30.38802,33406
30.39613,33322
30.40427,32420
30.41238,32250
30.42050,31597
30.42863,35101
30.43675,28721
30.44488,30020
30.45300,31910
30.46112,28093
30.46925,27953
30.47737,28558
30.48550,31398
30.49362,27112
30.50173,29346
30.50987,33374
30.51798,29559
30.52610,27845
30.53423,27846
30.54235,28665
30.55048,32021
30.55860,28230
30.56672,30315
30.57485,28665
30.58297,29701
30.59110,28125
30.59922,26169
30.60733,28019
30.61547,29247
30.62358,29156
30.63172,29995
30.63983,33251
30.64795,29105
30.65608,28686
30.66420,26964
30.67232,25925
30.68045,27566
30.68857,28011
30.69670,27757
30.70482,30195
30.71293,32304
30.72107,27812
30.72918,29465
30.73732,28478
30.74543,27692
30.75355,30727
30.76168,30364
30.76980,33050
30.77792,38515
30.78605,41993
30.79417,44285
30.80230,50255
30.81042,47085
30.81853,41256
30.82667,37639
30.83478,35046
30.84292,32861
30.85103,30589
30.85915,31838
30.86728,30566
30.87540,28469
30.88353,27378
30.89165,28331
30.89977,28812
30.90790,30646
30.91602,30831
30.92413,28437
30.93227,29519
30.94038,30245
30.94852,27140
30.95663,27011
30.96475,30541
30.97288,27772
30.98100,31268
30.98913,27298
30.99725,33737
31.00537,27899
31.01350,29394
31.02162,29240
31.02975,27482
31.03787,29110
31.04598,29371
31.05412,29433
31.06223,34720
31.07035,33963
31.07848,36583
31.08660,38953
31.09473,39187
31.10285,41827
31.11097,36897
31.11910,38743
31.12722,35821
31.13535,32686
31.14347,32633
31.15158,31684
31.15972,33647
31.16783,37754
31.17595,37975
31.18408,46875
31.19220,53712
31.20033,55398
31.20845,62922
31.21657,65029
31.22470,50907
31.23282,47467
31.24095,40963
31.24907,39470
31.25718,32809
31.26532,30211
31.27343,31567
31.28157,33368
31.28968,29996
31.29780,30863
31.30593,30640
31.31405,29877
31.32217,32979
31.33030,31040
31.33842,33143
31.34655,32742
31.35467,30350
31.36278,28571
31.37092,28862
31.37903,28070
31.38717,28214
31.39528,28784
31.40340,27576
31.41153,28028
31.41965,28975
31.42777,28051
31.43590,29290
31.44402,28050
31.45215,30501
31.46027,31799
31.46838,33824
31.47652,33240
31.48463,33764
31.49277,29894
31.50088,32056
31.50900,31233
31.51713,31219
31.52525,34189
31.53338,31966
31.54150,32555
31.54962,34289
31.55775,38211
31.56587,33392
31.57398,31063
31.58212,30174
31.59023,31618
31.59837,31896
31.60648,31069
31.61460,26156
31.62273,31015
31.63085,34737
31.63898,30093
31.64710,28305
31.65522,30253
31.66335,32302
31.67147,35581
31.67960,30892
31.68772,33466
31.69583,31602
31.70397,33591
31.71208,33092
31.72020,27406
31.72833,29567
31.73645,27095
31.74458,27223
31.75270,29367
31.76082,30191
31.76895,28173
31.77707,30376
31.78520,31559
31.79332,33560
31.80143,31378
31.80957,33379
31.81768,34205
31.82582,35393
31.83393,41489
31.84205,39741
31.85018,43409
31.85830,48251
31.86642,53811
31.87455,52000
31.88267,57299
31.89080,49143
31.89892,52385
31.90703,50836
31.91517,50227
31.92328,49688
31.93142,44630
31.93953,45146
31.94765,43175
31.95578,47071
31.96390,48050
31.97202,40416
31.98015,45184
31.98827,43072
31.99640,42816
32.00452,38217
32.01263,38014
32.02077,36574
32.02888,35460
32.03702,33356
32.04513,34794
32.05325,35120
32.06138,31598
32.06950,32766
32.07763,32905
32.08575,31969
32.09387,32142
32.10200,31672
32.11012,29690
32.11823,27394
32.12637,28621
32.13448,29512
32.14262,31076
32.15073,28607
32.15885,29677
32.16698,34288
32.17510,30191
32.18323,30747
32.19135,30731
32.19947,32474
32.20760,30522
32.21572,30713
32.22383,29944
32.23197,31690
32.24008,28284
32.24822,28145
32.25633,30431
32.26445,28038
32.27258,31597
32.28070,32759
32.28883,30588
32.29695,31709
32.30507,30023
32.31320,29739
32.32132,26425
32.32945,30829
32.33757,31038
32.34568,27854
32.35382,30009
32.36193,30441
32.37005,33407
32.37818,31371
32.38630,28713
32.39443,27259
32.40255,28537
32.41067,28116
32.41880,30034
32.42692,28648
32.43505,27931
32.44317,32621
32.45128,33254
32.45942,28922
32.46753,29425
32.47567,29450
32.48378,29289
32.49190,29116
32.50003,30987
32.50815,31369
32.51627,28037
32.52440,30182
32.53252,30294
32.54065,29694
32.54877,28781
32.55688,32812
32.56502,31867
32.57313,36903
32.58127,37068
32.58938,38811
32.59750,37460
32.60563,34119
32.61375,32836
32.62187,29683
32.63000,27462
32.63812,29548
32.64625,30725
32.65437,25491
32.66248,28104
32.67062,28499
32.67873,31957
32.68687,29547
32.69498,30822
32.70310,31256
32.71123,33354
32.71935,31302
32.72748,33600
32.73560,30641
32.74372,28304
32.75185,34105
32.75997,28202
32.76808,29564
32.77622,28796
32.78433,30004
32.79247,27349
32.80058,29244
32.80870,29683
32.81683,28717
32.82495,32366
32.83308,28769
32.84120,30095
32.84932,29264
32.85745,26471
32.86557,29133
32.87370,30869
32.88182,31773
32.88993,25869
32.89807,28469
32.90618,24816
32.91430,30298
32.92243,26908
32.93055,30735
32.93868,28739
32.94680,29509
32.95492,32980
32.96305,33166
32.97117,38400
32.97930,38103
32.98742,45655
32.99553,41634
33.00367,42532
33.01178,42509
33.01990,36458
33.02803,36673
33.03615,35170
33.04428,34990
33.05240,33918
33.06052,30850
33.06865,35323
33.07677,29681
33.08490,37569
33.09302,37167
33.10113,42104
33.10927,43851
33.11738,41590
33.12552,38276
33.13363,38645
33.14175,37398
33.14988,32699
33.15800,33582
33.16612,31390
33.17425,32424
33.18237,33348
33.19050,29093
33.19862,28903
33.20673,30628
33.21487,30109
33.22298,32298
33.23112,31634
33.23923,28509
33.24735,28893
33.25548,28115
33.26360,28055
33.27172,29508
33.27985,30624
33.28797,29727
33.29610,30633
33.30422,28593
33.31233,28651
33.32047,30139
33.32858,27706
33.33672,30377
33.34483,28870
33.35295,32440
33.36108,29412
33.36920,29468
33.37733,34654
33.38545,30851
33.39357,33097
33.40170,28969
33.40982,28301
33.41793,29157
33.42607,29379
33.43418,28691
33.44232,33560
33.45043,29258
33.45855,30855
33.46668,32008
33.47480,31555
33.48293,29780
33.49105,30335
33.49917,30472
33.50730,31960
33.51542,35976
33.52355,30389
33.53167,31378
33.53978,30882
33.54792,31206
33.55603,34516
33.56415,29711
33.57228,33081
33.58040,29941
33.58853,27777
33.59665,29922
33.60477,29964
33.61290,30485
33.62102,30504
33.62915,31047
33.63727,33033
33.64538,30986
33.65352,28638
33.66163,28124
33.66975,31636
33.67788,29393
33.68600,31612
33.69413,31916
33.70225,32976
33.71037,30782
33.71850,31123
33.72662,30446
33.73475,33519
33.74287,32043
33.75098,31470
33.75912,33298
33.76723,31120
33.77537,31645
33.78348,27925
33.79160,33210
33.79973,33027
33.80785,31334
33.81597,30173
33.82410,29380
33.83222,32533
33.84035,34380
33.84847,33631
33.85658,30842
33.86472,30923
33.87283,29824
33.88097,32862
33.88908,30190
33.89720,33714
33.90533,31237
33.91345,30581
33.92158,30371
33.92970,29875
33.93782,31505
33.94595,30347
33.95407,27721
33.96218,34936
33.97032,31438
33.97843,32392
33.98657,29398
33.99468,32137
34.00280,30337
34.01093,29491
34.01905,32083
34.02718,28923
34.03530,32092
34.04342,34356
34.05155,30968
34.05967,29784
34.06778,31959
34.07592,32497
34.08403,31131
34.09217,32633
34.10028,31934
34.10840,30199
34.11653,28532
34.12465,29474
34.13278,29013
34.14090,32443
34.14902,30650
34.15715,29488
34.16527,28964
34.17340,30952
34.18152,32363
34.18963,30202
34.19777,29200
34.20588,31720
34.21400,30101
34.22213,29603
34.23025,30717
34.23838,28474
34.24650,27769
34.25462,28260
34.26275,29450
34.27087,30825
34.27900,32662
34.28712,31248
34.29523,31430
34.30337,33710
34.31148,30831
34.31962,30096
34.32773,30256
34.33585,28153
34.34398,30701
34.35210,29818
34.36022,28528
34.36835,30453
34.37647,35210
34.38460,29115
34.39272,28898
34.40083,33102
34.40897,27466
34.41708,29223
34.42522,35830
34.43333,35115
34.44145,39737
34.44958,44792
34.45770,46962
34.46582,51877
34.47395,55613
34.48207,56796
34.49020,52732
34.49832,49938
34.50643,52878
34.51457,52237
34.52268,44139
34.53082,42181
34.53893,42757
34.54705,40893
34.55518,41078
34.56330,38150
34.57143,39149
34.57955,34103
34.58767,37315
34.59580,35220
34.60392,36764
34.61203,34684
34.62017,36394
34.62828,40216
34.63642,37266
34.64453,35271
34.65265,37824
34.66078,37713
34.66890,36977
34.67703,36014
34.68515,35378
34.69327,35554
34.70140,28739
34.70952,33192
34.71763,29021
34.72577,33935
34.73388,36251
34.74202,33517
34.75013,34811
34.75825,33487
34.76638,33154
34.77450,32828
34.78263,32998
34.79075,33366
34.79887,31307
34.80700,37637
34.81512,33804
34.82325,34609
34.83137,32877
34.83948,31087
34.84762,32977
34.85573,35384
34.86385,35893
34.87198,33913
34.88010,34578
34.88823,34087
34.89635,31892
34.90447,33187
34.91260,36278
34.92072,33419
34.92885,33601
34.93697,34023
34.94508,33998
34.95322,37658
34.96133,34716
34.96947,36932
34.97758,32834
34.98570,33361
34.99383,36460
35.00195,34323
35.01007,31288
35.01820,31703
35.02632,34791
35.03445,37222
35.04257,35516
35.05068,37045
35.05882,33200
35.06693,40462
35.07507,36593
35.08318,32104
35.09130,35224
35.09943,33718
35.10755,33748
35.11567,35229
35.12380,34292
35.13192,34605
35.14005,34059
35.14817,36609
35.15628,33761
35.16442,36587
35.17253,33332
35.18067,35255
35.18878,36307
35.19690,34210
35.20503,30606
35.21315,34640
35.22128,35294
35.22940,35745
35.23752,34909
35.24565,33856
35.25377,34551
35.26188,36606
35.27002,38033
35.27813,34730
35.28627,34571
35.29438,31572
35.30250,33798
35.31063,34743
35.31875,36334
35.32688,34950
35.33500,34007
35.34312,34195
35.35125,34831
35.35937,36622
35.36750,34072
35.37562,35046
35.38373,32242
35.39187,34024
35.39998,34196
35.40810,38716
35.41623,35396
35.42435,38868
35.43248,39774
35.44060,37930
35.44872,38274
35.45685,38004
35.46497,39765
35.47310,36797
35.48122,39394
35.48933,40256
35.49747,36617
35.50558,39694
35.51370,36766
35.52183,36101
35.52995,38478
35.53808,37394
35.54620,43174
35.55432,37639
35.56245,41350
35.57057,45164
35.57870,41874
35.58682,44538
35.59493,42562
35.60307,38386
35.61118,38986
35.61932,35404
35.62743,39766
35.63555,37996
35.64368,38290
35.65180,38287
35.65992,34905
35.66805,40732
35.67617,36318
35.68430,40017
35.69242,36195
35.70053,38335
35.70867,39056
35.71678,38994
35.72492,36774
35.73303,35743
35.74115,36742
35.74928,35968
35.75740,36603
35.76552,38064
35.77365,36204
35.78177,40072
35.78990,38213
35.79802,38109
35.80613,36556
35.81427,39937
35.82238,40960
35.83052,39411
35.83863,40919
35.84675,38481
35.85488,37084
35.86300,41396
35.87113,40010
35.87925,38065
35.88737,37072
35.89550,36711
35.90362,36711
35.91173,38161
35.91987,35746
35.92798,34720
35.93612,38109
35.94423,36715
35.95235,36557
35.96048,39016
35.96860,37333
35.97673,38599
35.98485,42361
35.99297,38529
36.00110,42088
36.00922,40200
36.01735,38931
36.02547,41385
36.03358,39712
36.04172,40791
36.04983,43616
36.05795,41290
36.06608,40022
36.07420,40727
36.08233,41716
36.09045,40121
36.09857,39153
36.10670,38076
36.11482,42191
36.12295,39147
36.13107,37901
36.13918,37289
36.14732,39675
36.15543,39892
36.16355,37628
36.17168,41133
36.17980,37996
36.18793,37052
36.19605,37420
36.20417,42040
36.21230,43581
36.22042,46248
36.22855,49190
36.23667,46552
36.24478,46311
36.25292,45765
36.26103,39948
36.26917,39447
36.27728,41791
36.28540,40525
36.29353,38964
36.30165,40586
36.30977,40504
36.31790,36839
36.32602,37462
36.33415,39809
36.34227,39800
36.35038,39428
36.35852,37345
36.36663,40194
36.37477,41839
36.38288,38993
36.39100,43067
36.39913,43099
36.40725,40146
36.41538,41184
36.42350,38346
36.43162,40639
36.43975,40437
36.44787,36323
36.45598,38694
36.46412,46467
36.47223,41806
36.48037,40612
36.48848,42931
36.49660,39061
36.50473,40479
36.51285,38135
36.52098,40349
36.52910,41949
36.53722,42347
36.54535,42580
36.55347,43559
36.56158,42840
36.56972,43024
36.57783,44214
36.58597,42581
36.59408,41302
36.60220,39281
36.61033,40097
36.61845,44945
36.62658,43107
36.63470,38964
36.64282,41911
36.65095,39238
36.65907,38345
36.66720,40174
36.67532,38924
36.68343,40846
36.69157,38350
36.69968,40578
36.70780,41329
36.71593,41293
36.72405,40124
36.73218,43449
36.74030,41749
36.74842,40134
36.75655,39197
36.76467,38120
36.77280,40467
36.78092,41911
36.78903,42391
36.79717,42616
36.80528,43722
36.81340,40605
36.82153,39872
36.82965,41918
36.83778,42195
36.84590,45741
36.85402,41887
36.86215,43047
36.87027,41838
36.87840,42023
36.88652,38811
36.89463,42354
36.90277,42771
36.91088,40836
36.91902,40215
36.92713,48640
36.93525,44566
36.94338,49881
36.95150,46017
36.95962,50146
36.96775,47163
36.97587,44488
36.98400,44522
36.99212,46584
37.00023,45662
37.00837,50649
37.01648,47996
37.02462,49357
37.03273,51430
37.04085,50687
37.04898,46769
37.05710,45159
37.06523,43774
37.07335,45407
37.08147,45869
37.08960,47078
37.09772,47981
37.10583,45398
37.11397,45464
37.12208,45232
37.13022,43364
37.13833,45363
37.14645,47205
37.15458,44095
37.16270,46348
37.17083,41883
37.17895,46716
37.18707,46990
37.19520,45862
37.20332,46809
37.21145,46328
37.21957,46092
37.22768,48807
37.23582,49796
37.24393,53640
37.25205,57251
37.26018,61218
37.26830,67444
37.27643,65497
37.28455,65080
37.29267,62546
37.30080,60285
37.30892,53554
37.31705,52678
37.32517,56043
37.33328,53548
37.34142,52114
37.34953,51013
37.35765,51708
37.36578,51301
37.37390,48522
37.38203,50471
37.39015,48443
37.39827,49206
37.40640,45623
37.41452,46903
37.42265,45522
37.43077,46743
37.43888,45095
37.44702,50693
37.45513,49340
37.46327,48799
37.47138,49132
37.47950,46051
37.48763,47668
