Z:\data\JTB-E02\BACandBLUE\JTB-E02-206-14.D Wed Mar 13 15:00:01 2019
Start of data points
2.09522	57105
2.10335	52903
2.11147	55934
2.11960	54620
2.12772	54961
2.13583	54209
2.14397	54045
2.15208	55232
2.16022	55019
2.16833	49006
2.17645	50422
2.18458	52889
2.19270	47413
2.20082	47490
2.20895	53159
2.21707	44597
2.22520	47893
2.23332	46467
2.24143	45473
2.24957	47107
2.25768	40603
2.26582	52646
2.27393	345540
2.28205	1671919
2.29018	1816195
2.29830	830590
2.30642	529914
2.31455	426945
2.32267	364374
2.33080	324006
2.33892	282960
2.34703	268380
2.35517	233997
2.36328	211262
2.37142	194488
2.37953	178950
2.38765	177128
2.39578	168772
2.40390	161665
2.41203	163808
2.42015	172590
2.42827	190733
2.43640	166174
2.44452	148841
2.45263	148735
2.46077	143789
2.46888	134476
2.47702	131444
2.48513	129570
2.49325	131219
2.50138	149467
2.50950	135956
2.51763	124621
2.52575	118514
2.53387	122190
2.54200	122077
2.55012	132801
2.55825	382732
2.56637	1150239
2.57448	1125263
2.58262	563240
2.59073	371985
2.59885	305450
2.60698	389498
2.61510	1111746
2.62323	1673093
2.63135	1125117
2.63947	649127
2.64760	475915
2.65572	377392
2.66385	319358
2.67197	269921
2.68008	236035
2.68822	217564
2.69633	211136
2.70445	191480
2.71258	177277
2.72070	174690
2.72883	169725
2.73695	153516
2.74507	161150
2.75320	159107
2.76132	149774
2.76945	143049
2.77757	140579
2.78568	145201
2.79382	144174
2.80193	151744
2.81007	140436
2.81818	145914
2.82630	145153
2.83443	172979
2.84255	210040
2.85067	183366
2.85880	155964
2.86692	140391
2.87505	141117
2.88317	127803
2.89128	134553
2.89942	124383
2.90753	124436
2.91567	117036
2.92378	119988
2.93190	115890
2.94003	115073
2.94815	109856
2.95628	112495
2.96440	117899
2.97252	121230
2.98065	122503
2.98877	114745
2.99688	118613
3.00502	129044
3.01313	123856
3.02127	131727
3.02938	119695
3.03750	111088
3.04563	110764
3.05375	108996
3.06188	114518
3.07000	122381
3.07812	124013
3.08625	191890
3.09437	562112
3.10248	1326753
3.11062	2824767
3.11873	4401896
3.12687	3632830
3.13498	2249322
3.14310	1615538
3.15123	1275828
3.15935	1027749
3.16748	864226
3.17560	733183
3.18372	613820
3.19185	534892
3.19997	476613
3.20810	423207
3.21622	400209
3.22433	367760
3.23247	334591
3.24058	295358
3.24870	274124
3.25683	256676
3.26495	241440
3.27308	225483
3.28120	221896
3.28932	249330
3.29745	530000
3.30557	1604719
3.31370	3330258
3.32182	4265527
3.32993	3532365
3.33807	2332014
3.34618	1584812
3.35430	1179295
3.36243	973244
3.37055	822967
3.37868	720747
3.38680	624738
3.39492	560954
3.40305	514413
3.41117	479044
3.41930	443993
3.42742	419403
3.43553	387140
3.44367	371145
3.45178	351223
3.45992	338705
3.46803	331632
3.47615	340453
3.48428	364805
3.49240	349945
3.50052	315132
3.50865	300626
3.51677	284501
3.52490	266647
3.53302	264090
3.54113	252864
3.54927	237089
3.55738	240074
3.56552	228501
3.57363	228908
3.58175	224665
3.58988	232113
3.59800	221497
3.60613	204651
3.61425	207976
3.62237	208869
3.63050	221235
3.63862	256557
3.64673	293645
3.65487	277534
3.66298	232321
3.67112	205205
3.67923	205300
3.68735	205371
3.69548	203307
3.70360	193193
3.71173	188768
3.71985	182456
3.72797	173752
3.73610	167327
3.74422	174238
3.75233	180970
3.76047	175250
3.76858	175478
3.77672	162096
3.78483	167883
3.79295	161862
3.80108	231340
3.80920	696254
3.81733	2092072
3.82545	3447569
3.83357	3096104
3.84170	1956551
3.84982	1272125
3.85795	1017762
3.86607	835470
3.87418	711980
3.88232	638440
3.89043	565859
3.89855	528291
3.90668	472369
3.91480	438338
3.92293	403602
3.93105	382305
3.93917	365198
3.94730	376450
3.95542	518737
3.96355	1066705
3.97167	1863764
3.97978	2039641
3.98792	1510844
3.99603	978357
4.00417	961455
4.01228	1677293
4.02040	2690050
4.02853	2813006
4.03665	1969923
4.04477	1188318
4.05290	809026
4.06102	613801
4.06915	521782
4.07727	442311
4.08538	398912
4.09352	355361
4.10163	332291
4.10977	311783
4.11788	301751
4.12600	274458
4.13413	270900
4.14225	263388
4.15037	271578
4.15850	277455
4.16662	283559
4.17475	294255
4.18287	318388
4.19098	314769
4.19912	269235
4.20723	254776
4.21537	389464
4.22348	1258597
4.23160	3412348
4.23973	5631032
4.24785	5790903
4.25598	4123396
4.26410	2682543
4.27222	1851424
4.28035	1403580
4.28847	1080209
4.29658	859212
4.30472	724597
4.31283	587396
4.32097	522756
4.32908	463170
4.33720	421094
4.34533	381071
4.35345	353500
4.36158	318438
4.36970	295026
4.37782	282962
4.38595	270562
4.39407	259426
4.40218	241473
4.41032	236584
4.41843	227175
4.42657	219288
4.43468	215613
4.44280	212480
4.45093	193801
4.45905	191711
4.46718	186226
4.47530	181568
4.48342	176055
4.49155	177635
4.49967	185363
4.50780	179689
4.51592	178186
4.52403	171613
4.53217	166673
4.54028	158531
4.54840	160739
4.55653	164223
4.56465	155925
4.57278	151350
4.58090	149923
4.58902	153541
4.59715	150536
4.60527	158235
4.61340	152374
4.62152	144676
4.62963	144438
4.63777	141585
4.64588	140787
4.65402	144451
4.66213	128762
4.67025	132472
4.67838	131574
4.68650	132019
4.69462	135512
4.70275	135165
4.71087	137821
4.71900	137492
4.72712	131256
4.73523	130545
4.74337	126678
4.75148	132598
4.75962	121023
4.76773	124784
4.77585	127377
4.78398	123587
4.79210	124351
4.80023	128437
4.80835	137819
4.81647	144158
4.82460	144282
4.83272	146801
4.84083	168062
4.84897	182126
4.85708	190074
4.86522	169640
4.87333	147518
4.88145	140807
4.88958	131159
4.89770	129467
4.90583	125257
4.91395	126686
4.92207	123322
4.93020	125671
4.93832	126625
4.94643	174966
4.95457	320569
4.96268	565879
4.97082	837881
4.97893	961863
4.98705	912309
4.99518	744878
5.00330	588995
5.01143	482989
5.01955	416084
5.02767	368865
5.03580	341006
5.04392	299098
5.05205	289825
5.06017	275876
5.06828	266795
5.07642	239769
5.08453	224660
5.09265	234628
5.10078	221069
5.10890	208298
5.11703	209732
5.12515	205684
5.13327	207312
5.14140	205164
5.14952	192650
5.15765	186555
5.16577	190955
5.17388	192262
5.18202	190843
5.19013	191670
5.19825	188731
5.20638	188838
5.21450	186784
5.22263	177491
5.23075	176925
5.23887	186922
5.24700	194616
5.25512	196030
5.26325	181715
5.27137	161307
5.27948	163270
5.28762	148436
5.29573	140270
5.30387	141094
5.31198	141587
5.32010	140358
5.32823	151515
5.33635	189748
5.34447	231265
5.35260	251384
5.36072	230425
5.36885	195742
5.37697	163020
5.38508	151636
5.39322	141269
5.40133	137273
5.40947	151089
5.41758	151041
5.42570	136952
5.43383	138727
5.44195	135713
5.45008	144260
5.45820	137498
5.46632	137889
5.47445	137955
5.48257	130912
5.49068	127002
5.49882	122790
5.50693	130695
5.51507	134518
5.52318	140124
5.53130	148432
5.53943	143325
5.54755	139738
5.55568	124828
5.56380	128444
5.57192	125107
5.58005	138513
5.58817	166431
5.59628	217458
5.60442	228862
5.61253	200736
5.62067	176489
5.62878	153031
5.63690	150781
5.64503	153660
5.65315	147924
5.66128	136874
5.66940	128873
5.67752	136860
5.68565	152065
5.69377	192446
5.70190	200856
5.71002	214736
5.71813	192884
5.72627	158667
5.73438	143187
5.74250	127630
5.75063	131938
5.75875	125050
5.76688	117178
5.77500	121652
5.78312	114264
5.79125	107061
5.79937	110573
5.80750	117109
5.81562	106757
5.82373	109650
5.83187	108546
5.83998	112739
5.84812	105516
5.85623	107609
5.86435	110433
5.87248	114335
5.88060	108031
5.88872	106977
5.89685	102048
5.90497	97668
5.91310	93412
5.92122	86656
5.92933	82361
5.93747	86018
5.94558	87131
5.95372	101974
5.96183	131875
5.96995	190748
5.97808	327949
5.98620	489998
5.99432	588241
6.00245	561021
6.01057	416584
6.01870	280720
6.02682	221939
6.03493	181539
6.04307	157330
6.05118	143202
6.05932	135430
6.06743	130413
6.07555	119265
6.08368	116535
6.09180	108823
6.09993	111177
6.10805	102545
6.11617	112208
6.12430	104424
6.13242	106352
6.14053	107257
6.14867	114158
6.15678	119051
6.16492	114040
6.17303	123654
6.18115	118571
6.18928	116112
6.19740	112908
6.20553	116425
6.21365	124235
6.22177	127215
6.22990	131777
6.23802	128825
6.24613	129691
6.25427	122857
6.26238	129306
6.27052	132385
6.27863	133621
6.28675	126032
6.29488	135087
6.30300	138037
6.31113	130198
6.31925	141129
6.32737	141590
6.33550	139545
6.34362	141742
6.35175	143950
6.35987	148334
6.36798	144735
6.37612	148287
6.38423	149642
6.39235	140666
6.40048	155672
6.40860	155105
6.41673	154327
6.42485	152871
6.43297	155543
6.44110	158540
6.44922	165695
6.45735	160309
6.46547	165519
6.47358	170575
6.48172	166542
6.48983	171596
6.49797	173940
6.50608	170320
6.51420	169485
6.52233	168523
6.53045	172113
6.53857	177530
6.54670	174616
6.55482	175787
6.56295	170999
6.57107	182886
6.57918	183389
6.58732	184938
6.59543	186177
6.60357	185350
6.61168	183308
6.61980	180291
6.62793	190425
6.63605	198939
6.64417	294200
6.65230	801806
6.66042	2772990
6.66855	7262811
6.67667	1.240302E+07
6.68478	1.433861E+07
6.69292	1.184258E+07
6.70103	7537915
6.70917	4427200
6.71728	2854008
6.72540	2118750
6.73353	1685892
6.74165	1433769
6.74978	1236729
6.75790	1108945
6.76602	991218
6.77415	918078
6.78227	819353
6.79038	720608
6.79852	670544
6.80663	619793
6.81477	563001
6.82288	528632
6.83100	505295
6.83913	470305
6.84725	460619
6.85538	448603
6.86350	430783
6.87162	390036
6.87975	361447
6.88787	340909
6.89600	318376
6.90412	294735
6.91223	276789
6.92037	269912
6.92848	257368
6.93660	250245
6.94473	239315
6.95285	222729
6.96098	217064
6.96910	230719
6.97722	259530
6.98535	279173
6.99347	281097
7.00160	247967
7.00972	203393
7.01783	163538
7.02597	127533
7.03408	122269
7.04220	154435
7.05033	199739
7.05845	234883
7.06658	243254
7.07470	242292
7.08282	243288
7.09095	245160
7.09907	231853
7.10720	225494
7.11532	217866
7.12343	209291
7.13157	209554
7.13968	203869
7.14782	200098
7.15593	192122
7.16405	199933
7.17218	194595
7.18030	189301
7.18842	183160
7.19655	174584
7.20467	170464
7.21280	162193
7.22092	177318
7.22903	227165
7.23717	319179
7.24528	489654
7.25342	601794
7.26153	590676
7.26965	450263
7.27778	321400
7.28590	244223
7.29403	202720
7.30215	179931
7.31027	166862
7.31840	153827
7.32652	144558
7.33463	133816
7.34277	133009
7.35088	139857
7.35902	126549
7.36713	126970
7.37525	130430
7.38338	128966
7.39150	129844
7.39963	118520
7.40775	120463
7.41587	117455
7.42400	120057
7.43212	117827
7.44023	117796
7.44837	113684
7.45648	118310
7.46462	119973
7.47273	111586
7.48085	107215
7.48898	102292
7.49710	106385
7.50523	98269
7.51335	97849
7.52147	100391
7.52960	100794
7.53772	100839
7.54585	93441
7.55397	93998
7.56208	91355
7.57022	99591
7.57833	90387
7.58645	89997
7.59458	93336
7.60270	93894
7.61083	91712
7.61895	93623
7.62707	89150
7.63520	94497
7.64332	86402
7.65145	81793
7.65957	86191
7.66768	81851
7.67582	82121
7.68393	85809
7.69205	82871
7.70018	76805
7.70830	84797
7.71643	78056
7.72455	83973
7.73267	79068
7.74080	83461
7.74892	78338
7.75705	76420
7.76517	80198
7.77328	81093
7.78142	84084
7.78953	84024
7.79767	84344
7.80578	86551
7.81390	85863
7.82203	79334
7.83015	79109
7.83827	72035
7.84640	73382
7.85452	69889
7.86265	73749
7.87077	79488
7.87888	84207
7.88702	79980
7.89513	89978
7.90327	83056
7.91138	77607
7.91950	89146
7.92763	113430
7.93575	183039
7.94388	311757
7.95200	420463
7.96012	456845
7.96825	415971
7.97637	300074
7.98448	209461
7.99262	143019
8.00073	113141
8.00887	97036
8.01698	87958
8.02510	80190
8.03323	80316
8.04135	75465
8.04948	82045
8.05760	71464
8.06572	71040
8.07385	74175
8.08197	69691
8.09008	67327
8.09822	63641
8.10633	62655
8.11447	70117
8.12258	66822
8.13070	67972
8.13883	77606
8.14695	80832
8.15508	81525
8.16320	78597
8.17132	75868
8.17945	71830
8.18757	68156
8.19570	70696
8.20382	67984
8.21193	67455
8.22007	70605
8.22818	75677
8.23630	74493
8.24443	71848
8.25255	67846
8.26068	61613
8.26880	62358
8.27692	60174
8.28505	58586
8.29317	56489
8.30130	59273
8.30942	57408
8.31753	65805
8.32567	69428
8.33378	70461
8.34192	65633
8.35003	64660
8.35815	67128
8.36628	67553
8.37440	74858
8.38252	74435
8.39065	77378
8.39877	78865
8.40690	69489
8.41502	64321
8.42313	55302
8.43127	55338
8.43938	51474
8.44752	54134
8.45563	56772
8.46375	62881
8.47188	66867
8.48000	67946
8.48812	68083
8.49625	63127
8.50437	50447
8.51250	56151
8.52062	73485
8.52873	146820
8.53687	431355
8.54498	1200763
8.55312	2526875
8.56123	3823664
8.56935	4394304
8.57748	3772661
8.58560	2404149
8.59373	1291361
8.60185	623245
8.60997	349958
8.61810	248826
8.62622	205731
8.63433	186557
8.64247	170897
8.65058	164743
8.65872	143270
8.66683	136401
8.67495	131484
8.68308	125228
8.69120	116955
8.69933	119444
8.70745	115676
8.71557	106615
8.72370	103898
8.73182	103068
8.73993	98587
8.74807	100692
8.75618	110461
8.76432	168090
8.77243	315831
8.78055	618207
8.78868	1018223
8.79680	1340155
8.80493	1420695
8.81305	1136903
8.82117	806734
8.82930	484705
8.83742	319162
8.84555	229455
8.85367	202584
8.86178	186820
8.86992	181809
8.87803	174108
8.88615	165977
8.89428	151572
8.90240	148083
8.91053	133681
8.91865	127342
8.92677	122915
8.93490	116439
8.94302	107232
8.95115	106016
8.95927	107027
8.96738	98138
8.97552	96353
8.98363	105528
8.99177	93920
8.99988	97015
9.00800	92507
9.01613	93538
9.02425	91435
9.03237	89142
9.04050	82391
9.04862	87390
9.05675	79418
9.06487	84539
9.07298	87140
9.08112	79026
9.08923	79057
9.09737	77862
9.10548	81361
9.11360	78242
9.12173	79300
9.12985	76566
9.13798	70897
9.14610	73033
9.15422	74138
9.16235	78042
9.17047	72217
9.17858	73302
9.18672	69952
9.19483	70826
9.20297	68756
9.21108	72795
9.21920	65555
9.22733	67256
9.23545	72100
9.24358	70925
9.25170	79158
9.25982	77595
9.26795	74170
9.27607	76016
9.28418	72236
9.29232	70126
9.30043	71914
9.30857	64046
9.31668	59916
9.32480	65541
9.33293	58785
9.34105	57742
9.34918	59012
9.35730	64829
9.36542	64119
9.37355	60055
9.38167	61889
9.38980	58947
9.39792	58014
9.40603	60237
9.41417	61019
9.42228	59341
9.43040	60879
9.43853	64620
9.44665	61986
9.45478	61750
9.46290	59936
9.47102	60118
9.47915	57994
9.48727	58782
9.49540	56581
9.50352	66273
9.51163	71208
9.51977	87990
9.52788	100646
9.53600	98761
9.54413	103550
9.55225	100844
9.56038	98294
9.56850	94132
9.57662	89777
9.58475	82293
9.59287	71820
9.60100	66274
9.60912	63694
9.61723	54985
9.62537	49131
9.63348	51056
9.64162	53226
9.64973	45698
9.65785	45468
9.66598	44191
9.67410	44112
9.68222	40817
9.69035	39400
9.69847	41932
9.70660	43207
9.71472	46409
9.72283	40201
9.73097	41509
9.73908	38884
9.74722	43331
9.75533	42990
9.76345	38064
9.77158	42840
9.77970	41530
9.78783	43591
9.79595	38129
9.80407	38692
9.81220	40466
9.82032	42842
9.82843	39326
9.83657	38133
9.84468	38378
9.85282	42942
9.86093	40203
9.86905	38930
9.87718	43244
9.88530	42390
9.89343	42720
9.90155	39705
9.90967	42396
9.91780	37700
9.92592	37446
9.93403	42437
9.94217	48139
9.95028	51233
9.95842	52027
9.96653	55148
9.97465	53016
9.98278	49298
9.99090	44527
9.99903	42680
10.00715	47512
10.01527	51130
10.02340	53260
10.03152	48868
10.03965	48354
10.04777	44238
10.05588	37160
10.06402	38835
10.07213	40454
10.08025	41514
10.08838	42604
10.09650	44199
10.10463	39661
10.11275	40508
10.12087	40090
10.12900	40588
10.13712	38090
10.14525	38921
10.15337	38001
10.16148	36403
10.16962	39211
10.17773	35303
10.18587	35709
10.19398	35835
10.20210	35662
10.21023	35399
10.21835	37143
10.22647	37827
10.23460	42547
10.24272	51125
10.25085	60514
10.25897	66205
10.26708	101214
10.27522	213335
10.28333	536212
10.29147	1283886
10.29958	2466212
10.30770	4076717
10.31583	6142854
10.32395	9511120
10.33207	1.499319E+07
10.34020	2.256573E+07
10.34832	3.127859E+07
10.35645	3.822796E+07
10.36457	3.924848E+07
10.37268	3.229188E+07
10.38082	1.859151E+07
10.38893	7699863
10.39707	2987342
10.40518	1505128
10.41330	1076282
10.42143	894480
10.42955	738958
10.43768	654642
10.44580	573036
10.45392	522616
10.46205	472782
10.47017	428232
10.47828	401364
10.48642	372496
10.49453	336639
10.50267	327582
10.51078	291812
10.51890	282090
10.52703	267112
10.53515	250729
10.54328	238629
10.55140	250767
10.55952	219164
10.56765	218519
10.57577	198419
10.58388	196900
10.59202	184162
10.60013	183524
10.60827	177190
10.61638	170376
10.62450	169784
10.63263	155668
10.64075	155974
10.64888	147610
10.65700	146536
10.66512	140967
10.67325	140036
10.68137	127488
10.68950	126218
10.69762	127818
10.70573	123120
10.71387	118227
10.72198	109189
10.73010	111962
10.73823	113033
10.74635	105070
10.75448	111621
10.76260	111277
10.77072	106053
10.77885	100550
10.78697	101380
10.79510	99491
10.80322	95296
10.81133	89196
10.81947	91493
10.82758	84889
10.83572	91626
10.84383	79932
10.85195	83667
10.86008	81529
10.86820	77869
10.87632	78943
10.88445	77844
10.89257	76440
10.90070	73782
10.90882	79240
10.91693	73490
10.92507	70771
10.93318	73312
10.94132	68111
10.94943	66092
10.95755	75131
10.96568	64451
10.97380	67000
10.98192	68255
10.99005	69129
10.99817	69968
11.00630	64839
11.01442	63128
11.02253	59326
11.03067	60668
11.03878	61799
11.04692	57981
11.05503	57630
11.06315	58886
11.07128	58499
11.07940	53589
11.08753	56221
11.09565	57041
11.10377	53601
11.11190	50182
11.12002	49889
11.12813	52739
11.13627	49253
11.14438	53551
11.15252	45544
11.16063	53752
11.16875	63531
11.17688	61946
11.18500	62306
11.19313	66051
11.20125	57319
11.20937	52701
11.21750	51316
11.22562	53643
11.23375	45552
11.24187	41216
11.24998	41327
11.25812	42405
11.26623	40665
11.27435	45410
11.28248	43752
11.29060	39475
11.29873	43321
11.30685	42916
11.31497	45393
11.32310	38287
11.33122	38868
11.33935	43911
11.34747	47143
11.35558	41258
11.36372	42629
11.37183	41839
11.37995	40247
11.38808	36106
11.39620	42562
11.40433	33385
11.41245	36915
11.42057	36212
11.42870	33054
11.43682	37362
11.44495	37604
11.45307	39988
11.46118	34362
11.46932	35824
11.47743	43449
11.48557	54871
11.49368	77421
11.50180	106823
11.50993	122502
11.51805	113859
11.52617	105355
11.53430	96482
11.54242	82958
11.55055	82457
11.55867	83018
11.56678	83087
11.57492	67106
11.58303	55333
11.59117	51900
11.59928	48155
11.60740	43062
11.61553	48605
11.62365	48659
11.63177	46806
11.63990	47305
11.64802	45443
11.65615	47465
11.66427	39947
11.67238	41720
11.68052	49599
11.68863	54590
11.69677	64514
11.70488	72901
11.71300	74724
11.72113	69917
11.72925	67864
11.73738	53787
11.74550	53367
11.75362	47475
11.76175	45507
11.76987	39504
11.77798	45759
11.78612	45467
11.79423	45585
11.80237	40758
11.81048	40709
11.81860	40202
11.82673	43614
11.83485	42198
11.84298	36555
11.85110	38673
11.85922	37715
11.86735	40002
11.87547	39516
11.88360	40404
11.89172	39434
11.89983	38404
11.90797	39656
11.91608	41846
11.92420	43339
11.93233	44063
11.94045	46558
11.94858	47048
11.95670	43778
11.96482	38930
11.97295	39822
11.98107	37130
11.98920	39056
11.99732	47886
12.00543	60112
12.01357	68947
12.02168	76417
12.02980	84398
12.03793	70959
12.04605	58561
12.05418	52265
12.06230	48983
12.07042	40506
12.07855	40380
12.08667	38799
12.09480	36112
12.10292	39047
12.11103	42129
12.11917	40498
12.12728	42571
12.13542	40426
12.14353	39384
12.15165	40046
12.15978	41355
12.16790	39794
12.17602	42808
12.18415	35607
12.19227	37011
12.20040	42526
12.20852	39131
12.21663	35473
12.22477	37613
12.23288	37507
12.24102	37286
12.24913	40477
12.25725	38956
12.26538	38633
12.27350	35082
12.28163	38128
12.28975	39954
12.29787	35620
12.30600	35816
12.31412	34534
12.32223	36270
12.33037	36202
12.33848	35488
12.34662	35626
12.35473	37480
12.36285	34822
12.37098	35281
12.37910	35398
12.38723	35762
12.39535	36558
12.40347	36336
12.41160	39937
12.41972	42050
12.42783	48468
12.43597	50909
12.44408	55906
12.45222	55056
12.46033	53625
12.46845	46027
12.47658	40168
12.48470	36145
12.49283	36954
12.50095	36301
12.50907	35406
12.51720	34844
12.52532	35786
12.53345	35723
12.54157	39688
12.54968	42449
12.55782	56962
12.56593	83293
12.57405	97672
12.58218	108054
12.59030	89867
12.59843	84283
12.60655	66142
12.61467	54574
12.62280	52813
12.63092	52773
12.63905	48844
12.64717	47862
12.65528	43236
12.66342	41041
12.67153	38914
12.67967	44439
12.68778	36321
12.69590	35609
12.70403	37397
12.71215	37305
12.72027	38547
12.72840	40675
12.73652	40798
12.74465	43449
12.75277	41172
12.76088	42814
12.76902	46155
12.77713	36868
12.78527	34750
12.79338	34472
12.80150	35750
12.80963	34600
12.81775	33399
12.82587	28020
12.83400	36349
12.84212	33736
12.85025	29557
12.85837	31326
12.86648	27991
12.87462	33588
12.88273	31365
12.89087	33680
12.89898	36042
12.90710	39809
12.91523	37378
12.92335	36086
12.93148	33129
12.93960	34047
12.94772	33523
12.95585	30826
12.96397	34682
12.97208	35560
12.98022	36325
12.98833	41173
12.99647	44989
13.00458	45240
13.01270	41749
13.02083	39315
13.02895	35662
13.03708	33785
13.04520	37809
13.05332	29924
13.06145	33422
13.06957	34785
13.07768	37678
13.08582	36126
13.09393	35783
13.10207	39788
13.11018	39321
13.11830	41975
13.12643	36573
13.13455	34874
13.14268	31630
13.15080	37510
13.15892	33279
13.16705	32566
13.17517	33438
13.18330	33579
13.19142	37157
13.19953	38626
13.20767	40969
13.21578	33064
13.22390	39512
13.23203	39068
13.24015	37632
13.24828	34749
13.25640	35564
13.26452	32951
13.27265	35894
13.28077	32374
13.28890	30921
13.29702	29447
13.30513	28093
13.31327	30938
13.32138	32579
13.32952	30684
13.33763	31345
13.34575	29815
13.35388	32315
13.36200	31946
13.37012	34200
13.37825	32941
13.38637	33169
13.39450	36733
13.40262	34185
13.41073	33180
13.41887	32703
13.42698	28889
13.43512	30510
13.44323	30723
13.45135	30974
13.45948	28382
13.46760	28976
13.47572	28666
13.48385	30055
13.49197	30412
13.50010	31697
13.50822	30309
13.51633	32079
13.52447	30121
13.53258	28334
13.54072	28821
13.54883	31726
13.55695	32263
13.56508	39487
13.57320	40295
13.58133	36172
13.58945	37075
13.59757	38393
13.60570	34163
13.61382	31902
13.62193	34316
13.63007	33580
13.63818	32600
13.64632	32886
13.65443	28868
13.66255	33628
13.67068	29071
13.67880	27578
13.68693	34213
13.69505	30628
13.70317	29069
13.71130	28751
13.71942	29459
13.72755	31012
13.73567	30170
13.74378	38921
13.75192	34264
13.76003	51078
13.76815	76343
13.77628	112757
13.78440	143603
13.79253	177820
13.80065	164567
13.80877	144940
13.81690	115420
13.82502	87047
13.83315	69589
13.84127	56065
13.84938	47406
13.85752	51892
13.86563	46329
13.87375	42648
13.88188	44963
13.89000	40665
13.89813	41617
13.90625	39857
13.91437	40529
13.92250	40591
13.93062	39137
13.93875	37548
13.94687	44113
13.95498	46967
13.96312	60005
13.97123	80604
13.97937	116333
13.98748	149856
13.99560	188054
14.00373	174307
14.01185	146053
14.01997	119026
14.02810	93034
14.03622	76834
14.04435	65606
14.05247	60570
14.06058	62803
14.06872	60477
14.07683	58675
14.08497	55997
14.09308	56089
14.10120	50686
14.10933	50513
14.11745	46880
14.12557	44081
14.13370	41274
14.14182	45021
14.14995	46447
14.15807	44456
14.16618	47460
14.17432	46074
14.18243	46368
14.19057	48800
14.19868	59152
14.20680	79129
14.21493	103560
14.22305	130658
14.23118	139935
14.23930	129869
14.24742	120668
14.25555	117353
14.26367	97363
14.27178	94067
14.27992	84167
14.28803	86285
14.29617	74190
14.30428	64498
14.31240	61276
14.32053	67206
14.32865	62354
14.33678	60458
14.34490	59490
14.35302	57085
14.36115	55351
14.36927	54357
14.37740	47955
14.38552	44848
14.39363	45362
14.40177	41228
14.40988	33887
14.41800	36844
14.42613	37559
14.43425	37949
14.44238	39600
14.45050	38165
14.45862	38410
14.46675	36421
14.47487	39744
14.48300	35353
14.49112	38381
14.49923	34788
14.50737	33482
14.51548	36848
14.52362	37604
14.53173	43037
14.53985	36744
14.54798	41851
14.55610	38097
14.56422	36715
14.57235	33153
14.58047	32390
14.58860	35552
14.59672	32249
14.60483	33974
14.61297	32627
14.62108	30717
14.62922	32271
14.63733	31910
14.64545	30896
14.65358	31969
14.66170	30086
14.66982	28883
14.67795	33677
14.68607	27625
14.69420	30586
14.70232	30311
14.71043	33004
14.71857	34988
14.72668	33610
14.73482	33452
14.74293	31728
14.75105	37183
14.75918	32281
14.76730	31954
14.77543	38228
14.78355	35299
14.79167	33915
14.79980	39838
14.80792	38476
14.81603	41874
14.82417	50424
14.83228	65318
14.84042	75144
14.84853	78577
14.85665	78015
14.86478	69292
14.87290	58948
14.88103	51169
14.88915	46298
14.89727	44111
14.90540	40259
14.91352	40809
14.92163	37737
14.92977	41737
14.93788	40452
14.94602	38455
14.95413	43102
14.96225	43217
14.97038	41326
14.97850	41194
14.98663	36921
14.99475	40692
15.00287	42456
15.01100	42482
15.01912	38741
15.02725	38418
15.03537	40950
15.04348	38876
15.05162	39022
15.05973	38091
15.06785	38033
15.07598	37681
15.08410	36961
15.09223	30870
15.10035	34773
15.10847	33973
15.11660	32168
15.12472	33876
15.13285	33648
15.14097	32952
15.14908	32830
15.15722	31033
15.16533	32766
15.17347	34306
15.18158	31650
15.18970	36049
15.19783	37783
15.20595	36208
15.21407	33275
15.22220	30208
15.23032	31210
15.23845	32169
15.24657	29109
15.25468	35207
15.26282	32030
15.27093	29385
15.27907	29531
15.28718	35557
15.29530	28228
15.30343	28864
15.31155	31655
15.31967	26519
15.32780	30286
15.33592	31380
15.34405	33717
15.35217	28378
15.36028	32418
15.36842	29034
15.37653	29928
15.38467	26186
15.39278	24288
15.40090	27447
15.40903	30604
15.41715	29362
15.42528	29181
15.43340	27202
15.44152	30313
15.44965	31056
15.45777	31738
15.46588	28994
15.47402	30107
15.48213	25942
15.49027	28248
15.49838	30958
15.50650	43578
15.51463	42839
15.52275	53313
15.53088	85121
15.53900	128607
15.54712	171295
15.55525	190784
15.56337	197729
15.57150	162668
15.57962	124563
15.58773	93717
15.59587	70939
15.60398	51114
15.61210	43931
15.62023	39967
15.62835	37737
15.63648	38853
15.64460	39263
15.65272	34331
15.66085	37751
15.66897	35128
15.67710	35473
15.68522	33083
15.69333	32086
15.70147	33109
15.70958	29783
15.71770	28589
15.72583	32583
15.73395	30503
15.74208	34016
15.75020	30485
15.75832	33103
15.76645	34782
15.77457	35100
15.78270	39367
15.79082	48613
15.79893	49984
15.80707	58432
15.81518	52218
15.82332	46792
15.83143	40347
15.83955	36584
15.84768	33262
15.85580	35336
15.86392	36713
15.87205	36019
15.88017	33709
15.88830	41045
15.89642	46278
15.90453	45518
15.91267	45754
15.92078	39323
15.92892	41489
15.93703	39232
15.94515	36945
15.95328	37096
15.96140	39576
15.96952	47986
15.97765	55942
15.98577	64374
15.99390	67728
16.00202	67048
16.01013	64343
16.01827	56024
16.02638	53988
16.03452	53094
16.04263	55349
16.05075	51696
16.05888	44655
16.06700	43005
16.07513	38572
16.08325	38037
16.09137	38943
16.09950	36648
16.10762	33469
16.11573	37940
16.12387	36297
16.13198	32532
16.14012	34634
16.14823	37906
16.15635	36612
16.16448	36170
16.17260	38329
16.18073	29929
16.18885	30931
16.19697	31963
16.20510	35050
16.21322	35550
16.22135	36345
16.22947	32027
16.23758	36182
16.24572	29935
16.25383	34635
16.26195	32602
16.27008	32741
16.27820	35132
16.28633	32690
16.29445	34195
16.30257	34906
16.31070	32737
16.31882	35717
16.32695	34364
16.33507	32808
16.34318	37064
16.35132	39536
16.35943	44526
16.36755	59617
16.37568	70648
16.38380	82948
16.39193	95440
16.40005	91087
16.40817	74498
16.41630	65834
16.42442	55803
16.43255	45656
16.44067	43458
16.44878	40136
16.45692	41028
16.46503	40210
16.47317	39783
16.48128	36173
16.48940	39287
16.49753	35930
16.50565	36175
16.51377	34502
16.52190	39692
16.53002	33833
16.53815	35114
16.54627	32160
16.55438	31404
16.56252	35971
16.57063	33137
16.57877	33283
16.58688	38282
16.59500	37719
16.60313	40598
16.61125	47564
16.61938	53357
16.62750	57354
16.63562	54972
16.64375	54736
16.65187	48716
16.65998	44482
16.66812	37359
16.67623	36305
16.68437	35484
16.69248	37640
16.70060	35323
16.70873	36911
16.71685	38246
16.72498	32630
16.73310	29466
16.74122	31000
16.74935	32869
16.75747	30269
16.76558	30779
16.77372	29937
16.78183	27420
16.78997	36828
16.79808	33149
16.80620	33448
16.81433	31672
16.82245	33099
16.83058	29832
16.83870	29866
16.84682	29679
16.85495	27454
16.86307	29950
16.87120	30065
16.87932	32509
16.88743	28227
16.89557	28791
16.90368	28882
16.91180	28081
16.91993	28189
16.92805	30791
16.93618	29386
16.94430	28358
16.95242	29449
16.96055	26618
16.96867	30280
16.97680	30556
16.98492	30391
16.99303	31234
17.00117	28944
17.00928	28867
17.01740	29936
17.02553	30221
17.03365	27539
17.04178	30154
17.04990	28739
17.05802	28743
17.06615	27765
17.07427	31638
17.08240	31779
17.09052	33691
17.09863	39548
17.10677	38086
17.11488	39644
17.12302	38746
17.13113	47185
17.13925	42790
17.14738	38228
17.15550	42140
17.16362	44722
17.17175	31020
17.17987	38564
17.18800	30504
17.19612	33073
17.20423	32622
17.21237	28699
17.22048	32826
17.22862	39495
17.23673	28283
17.24485	27964
17.25298	30349
17.26110	31419
17.26923	31099
17.27735	32801
17.28547	33106
17.29360	30929
17.30172	32305
17.30983	32530
17.31797	32644
17.32608	33614
17.33422	29627
17.34233	33908
17.35045	40806
17.35858	36154
17.36670	33030
17.37483	34402
17.38295	34496
17.39107	32526
17.39920	35654
17.40732	36786
17.41543	34417
17.42357	33856
17.43168	34490
17.43982	31855
17.44793	33225
17.45605	32191
17.46418	34000
17.47230	35552
17.48043	35387
17.48855	34317
17.49667	32011
17.50480	33819
17.51292	31593
17.52105	32185
17.52917	31838
17.53728	32125
17.54542	30802
17.55353	34320
17.56165	34465
17.56978	37033
17.57790	37315
17.58603	33891
17.59415	32657
17.60227	34651
17.61040	33188
17.61852	31585
17.62665	36094
17.63477	44262
17.64288	54222
17.65102	83107
17.65913	119337
17.66727	178342
17.67538	209425
17.68350	243249
17.69163	225478
17.69975	186330
17.70787	141763
17.71600	104605
17.72412	84100
17.73225	72660
17.74037	61619
17.74848	57856
17.75662	53697
17.76473	51631
17.77287	51616
17.78098	48734
17.78910	48309
17.79723	46872
17.80535	46044
17.81347	45990
17.82160	43757
17.82972	41915
17.83785	43838
17.84597	41001
17.85408	39415
17.86222	41419
17.87033	43227
17.87847	39118
17.88658	38227
17.89470	34721
17.90283	35102
17.91095	32117
17.91908	36015
17.92720	36269
17.93532	33386
17.94345	37878
17.95157	35833
17.95968	30181
17.96782	32661
17.97593	37566
17.98407	34259
17.99218	34813
18.00030	32029
18.00843	31063
18.01655	35240
18.02468	34501
18.03280	34929
18.04092	40576
18.04905	41347
18.05717	41746
18.06530	37432
18.07342	38294
18.08153	38056
18.08967	38568
18.09778	37551
18.10590	37876
18.11403	44551
18.12215	42847
18.13028	38825
18.13840	40924
18.14652	42711
18.15465	44005
18.16277	40627
18.17090	45257
18.17902	44118
18.18713	52422
18.19527	51898
18.20338	51600
18.21150	46985
18.21963	41469
18.22775	39996
18.23588	38966
18.24400	34959
18.25212	34067
18.26025	37263
18.26837	34735
18.27650	37720
18.28462	38010
18.29273	40548
18.30087	36946
18.30898	32687
18.31712	34244
18.32523	33491
18.33335	32270
18.34148	35100
18.34960	29446
18.35772	32856
18.36585	34078
18.37397	33586
18.38210	36542
18.39022	30447
18.39833	33211
18.40647	29616
18.41458	32488
18.42272	29833
18.43083	30331
18.43895	31269
18.44708	29769
18.45520	30722
18.46332	34029
18.47145	34474
18.47957	32909
18.48770	29347
18.49582	30450
18.50393	29046
18.51207	32034
18.52018	29096
18.52832	29684
18.53643	31158
18.54455	30796
18.55268	27077
18.56080	30136
18.56893	29354
18.57705	33341
18.58517	32322
18.59330	34767
18.60142	32750
18.60953	35692
18.61767	35801
18.62578	37485
18.63392	32917
18.64203	37911
18.65015	37530
18.65828	36883
18.66640	35601
18.67453	33238
18.68265	31455
18.69077	35633
18.69890	31112
18.70702	30016
18.71515	32267
18.72327	30495
18.73138	34392
18.73952	31657
18.74763	27338
18.75575	31324
18.76388	31575
18.77200	33520
18.78013	29784
18.78825	30422
18.79637	30785
18.80450	31274
18.81262	31007
18.82075	31815
18.82887	30926
18.83698	32642
18.84512	27894
18.85323	25884
18.86135	29652
18.86948	30216
18.87760	27729
18.88573	31399
18.89385	31352
18.90197	28437
18.91010	29761
18.91822	31777
18.92635	31542
18.93447	30860
18.94258	37514
18.95072	32819
18.95883	40312
18.96697	42135
18.97508	41440
18.98320	44494
18.99133	38430
18.99945	44280
19.00757	38526
19.01570	37270
19.02382	38776
19.03195	33644
19.04007	30144
19.04818	35939
19.05632	29180
19.06443	31123
19.07257	33675
19.08068	37223
19.08880	40330
19.09693	42874
19.10505	56356
19.11318	65628
19.12130	67290
19.12942	74767
19.13755	65669
19.14567	62667
19.15378	60930
19.16192	63817
19.17003	67596
19.17817	68099
19.18628	75507
19.19440	81189
19.20253	78351
19.21065	73203
19.21878	68848
19.22690	61451
19.23502	53388
19.24315	54170
19.25127	48348
19.25938	40654
19.26752	45052
19.27563	39318
19.28377	43002
19.29188	44899
19.30000	51287
19.30813	49509
19.31625	53044
19.32438	53717
19.33250	56403
19.34062	60589
19.34875	62558
19.35687	61294
19.36500	60536
19.37312	52927
19.38123	52878
19.38937	47220
19.39748	45754
19.40560	45609
19.41373	43373
19.42185	41642
19.42998	44682
19.43810	40222
19.44622	37247
19.45435	34587
19.46247	42409
19.47060	37158
19.47872	34678
19.48683	36878
19.49497	36527
19.50308	46389
19.51120	58276
19.51933	71384
19.52745	89005
19.53558	94013
19.54370	90687
19.55182	77507
19.55995	61219
19.56807	51264
19.57620	43019
19.58432	36801
19.59243	35910
19.60057	42286
19.60868	38250
19.61682	33770
19.62493	34551
19.63305	33913
19.64118	40167
19.64930	45910
19.65742	62408
19.66555	85660
19.67367	115166
19.68180	126638
19.68992	138566
19.69803	134054
19.70617	115104
19.71428	94208
19.72242	74423
19.73053	68142
19.73865	59542
19.74678	54575
19.75490	52274
19.76303	54251
19.77115	48911
19.77927	49301
19.78740	43528
19.79552	42959
19.80363	40866
19.81177	39299
19.81988	40777
19.82802	47391
19.83613	43871
19.84425	38566
19.85238	38352
19.86050	45266
19.86863	49516
19.87675	71225
19.88487	118131
19.89300	220770
19.90112	383114
19.90925	597753
19.91737	829685
19.92548	1081767
19.93362	1236488
19.94173	1313547
19.94985	1344591
19.95798	1267014
19.96610	1197386
19.97423	1143611
19.98235	1134117
19.99047	1061964
19.99860	984934
20.00672	972640
20.01485	909090
20.02297	867629
20.03108	824640
20.03922	760798
20.04733	682842
20.05545	627296
20.06358	506672
20.07170	386505
20.07983	287861
20.08795	221868
20.09607	183262
20.10420	166528
20.11232	151065
20.12045	148105
20.12857	136261
20.13668	136530
20.14482	136342
20.15293	134167
20.16107	135596
20.16918	146726
20.17730	138063
20.18543	137672
20.19355	136524
20.20167	122441
20.20980	117993
20.21792	116412
20.22605	108460
20.23417	105805
20.24228	109480
20.25042	103752
20.25853	105829
20.26667	110519
20.27478	122726
20.28290	133698
20.29103	151538
20.29915	155304
20.30727	157889
20.31540	149210
20.32352	140054
20.33165	127746
20.33977	104573
20.34788	91300
20.35602	71399
20.36413	65248
20.37227	51804
20.38038	48182
20.38850	48577
20.39663	38188
20.40475	38465
20.41288	40732
20.42100	39797
20.42912	41196
20.43725	48200
20.44537	53272
20.45348	53773
20.46162	62386
20.46973	69217
20.47787	72845
20.48598	68070
20.49410	62725
20.50223	58598
20.51035	52206
20.51848	48841
20.52660	46717
20.53472	45499
20.54285	42708
20.55097	43100
20.55910	48127
20.56722	46232
20.57533	48383
20.58347	46990
20.59158	45774
20.59970	50022
20.60783	45948
20.61595	41630
20.62408	40076
20.63220	42973
20.64032	41012
20.64845	40030
20.65657	40056
20.66470	43130
20.67282	46783
20.68093	43422
20.68907	42300
20.69718	41758
20.70530	38725
20.71343	41217
20.72155	39891
20.72968	40242
20.73780	44536
20.74592	40474
20.75405	42738
20.76217	38945
20.77030	42800
20.77842	41223
20.78653	41152
20.79467	39521
20.80278	40974
20.81092	41968
20.81903	44375
20.82715	46527
20.83528	42435
20.84340	47848
20.85152	39174
20.85965	39843
20.86777	40852
20.87590	39841
20.88402	40129
20.89213	37166
20.90027	34991
20.90838	40381
20.91652	37955
20.92463	40541
20.93275	36914
20.94088	37107
20.94900	37805
20.95713	39416
20.96525	36587
20.97337	39232
20.98150	37701
20.98962	39146
20.99773	39156
21.00587	39704
21.01398	35462
21.02212	37320
21.03023	35520
21.03835	35749
21.04648	37646
21.05460	38491
21.06273	40551
21.07085	38743
21.07897	37342
21.08710	34644
21.09522	36777
21.10333	35868
21.11147	36037
21.11958	40611
21.12772	41630
21.13583	53706
21.14395	70892
21.15208	101164
21.16020	146283
21.16833	180011
21.17645	204883
21.18457	193748
21.19270	177476
21.20082	126777
21.20895	99667
21.21707	79951
21.22518	70797
21.23332	60784
21.24143	59155
21.24955	50344
21.25768	55319
21.26580	55004
21.27393	50309
21.28205	46801
21.29017	51816
21.29830	50414
21.30642	48884
21.31455	45500
21.32267	43486
21.33078	42620
21.33892	39517
21.34703	39061
21.35515	41300
21.36328	40043
21.37140	41156
21.37953	42958
21.38765	42081
21.39577	42336
21.40390	40256
21.41202	40826
21.42015	39395
21.42827	41664
21.43638	34910
21.44452	40936
21.45263	43024
21.46077	41676
21.46888	39978
21.47700	41020
21.48513	34936
21.49325	37901
21.50137	39319
21.50950	39872
21.51762	39023
21.52575	39631
21.53387	39903
21.54198	40590
21.55012	38605
21.55823	35706
21.56637	35245
21.57448	40170
21.58260	38328
21.59073	37465
21.59885	40558
21.60698	39835
21.61510	39040
21.62322	39895
21.63135	40481
21.63947	44131
21.64758	48732
21.65572	54076
21.66383	55572
21.67197	53000
21.68008	49729
21.68820	50660
21.69633	46154
21.70445	41420
21.71258	41435
21.72070	42291
21.72882	42900
21.73695	38493
21.74507	40984
21.75318	41487
21.76132	41924
21.76943	35238
21.77757	38721
21.78568	37517
21.79380	37575
21.80193	37569
21.81005	40043
21.81818	41365
21.82630	39469
21.83442	44157
21.84255	50959
21.85067	56399
21.85880	60106
21.86692	64284
21.87503	62454
21.88317	58930
21.89128	54209
21.89940	45636
21.90753	43472
21.91565	41632
21.92378	41873
21.93190	42924
21.94002	40224
21.94815	38486
21.95627	37245
21.96440	38350
21.97252	36434
21.98063	43302
21.98877	34918
21.99688	36009
22.00502	34183
22.01313	33188
22.02125	33664
22.02938	36372
22.03750	33705
22.04562	34201
22.05375	32629
22.06187	32581
22.07000	32477
22.07812	36743
22.08623	31457
22.09437	31724
22.10248	34066
22.11062	32452
22.11873	32896
22.12685	31587
22.13498	39269
22.14310	35867
22.15122	38481
22.15935	35857
22.16747	31926
22.17560	35635
22.18372	41342
22.19183	40177
22.19997	36061
22.20808	33457
22.21622	35927
22.22433	34305
22.23245	32192
22.24058	33937
22.24870	33775
22.25683	35735
22.26495	33969
22.27307	41808
22.28120	36271
22.28932	39517
22.29743	41511
22.30557	49857
22.31368	72561
22.32182	90119
22.32993	118967
22.33805	147013
22.34618	176101
22.35430	170541
22.36243	161948
22.37055	134908
22.37867	106003
22.38680	84906
22.39492	68197
22.40303	64753
22.41117	58268
22.41928	53954
22.42742	55875
22.43553	46616
22.44365	44349
22.45178	43596
22.45990	41639
22.46803	41949
22.47615	40325
22.48427	39297
22.49240	38478
22.50052	35558
22.50865	36201
22.51677	36920
22.52488	34963
22.53302	36698
22.54113	32962
22.54925	35410
22.55738	35406
22.56550	35120
22.57363	36788
22.58175	37074
22.58987	35275
22.59800	30856
22.60612	33940
22.61425	29009
22.62237	32394
22.63048	30734
22.63862	32509
22.64673	35945
22.65487	35593
22.66298	39760
22.67110	39078
22.67923	46997
22.68735	51375
22.69547	56870
22.70360	58091
22.71172	58245
22.71985	60178
22.72797	49424
22.73608	46716
22.74422	40108
22.75233	37747
22.76047	35442
22.76858	38407
22.77670	35091
22.78483	32535
22.79295	32410
22.80107	32456
22.80920	33766
22.81732	34465
22.82545	33202
22.83357	32711
22.84168	30174
22.84982	31880
22.85793	36014
22.86607	34536
22.87418	36741
22.88230	35102
22.89043	35774
22.89855	38302
22.90668	43455
22.91480	40606
22.92292	46591
22.93105	53314
22.93917	53620
22.94728	63249
22.95542	58818
22.96353	60078
22.97167	57775
22.97978	57583
22.98790	52146
22.99603	50948
23.00415	49390
23.01228	49461
23.02040	50228
23.02852	46193
23.03665	42790
23.04477	40661
23.05290	41880
23.06102	36877
23.06913	36134
23.07727	36040
23.08538	31833
23.09350	35464
23.10163	39898
23.10975	34732
23.11788	33895
23.12600	34748
23.13412	32593
23.14225	34624
23.15037	32515
23.15850	35857
23.16662	31026
23.17473	36247
23.18287	28833
23.19098	35951
23.19910	31050
23.20723	33044
23.21535	32964
23.22348	35093
23.23160	36571
23.23972	36562
23.24785	44188
23.25597	46705
23.26410	51592
23.27222	49432
23.28033	54749
23.28847	47570
23.29658	41933
23.30472	35695
23.31283	36966
23.32095	37984
23.32908	34203
23.33720	35803
23.34532	35861
23.35345	38267
23.36157	39571
23.36970	40585
23.37782	45897
23.38593	48580
23.39407	48257
23.40218	42461
23.41032	46100
23.41843	41323
23.42655	44569
23.43468	42495
23.44280	39896
23.45093	37593
23.45905	38950
23.46717	41879
23.47530	38106
23.48342	40100
23.49153	36396
23.49967	38549
23.50778	37757
23.51592	43330
23.52403	41549
23.53215	41705
23.54028	39328
23.54840	38827
23.55653	37938
23.56465	40288
23.57277	41940
23.58090	44318
23.58902	49766
23.59713	65280
23.60527	70265
23.61338	82702
23.62152	92299
23.62963	99699
23.63775	121528
23.64588	175900
23.65400	276488
23.66213	430101
23.67025	590287
23.67837	687483
23.68650	716155
23.69462	602440
23.70275	463245
23.71087	336309
23.71898	243744
23.72712	186114
23.73523	139772
23.74335	113843
23.75148	101117
23.75960	108328
23.76773	167175
23.77585	318703
23.78397	628080
23.79210	1121186
23.80022	1642480
23.80835	2040296
23.81647	2062541
23.82458	1713601
23.83272	1399787
23.84083	1068702
23.84895	765317
23.85708	566836
23.86520	462477
23.87333	359178
23.88145	312353
23.88957	274139
23.89770	237195
23.90582	211281
23.91395	193534
23.92207	179076
23.93018	155620
23.93832	159378
23.94643	142494
23.95457	137486
23.96268	132727
23.97080	122625
23.97893	119237
23.98705	115559
23.99517	108447
24.00330	102863
24.01142	106477
24.01955	104463
24.02767	115141
24.03578	120172
24.04392	127694
24.05203	137556
24.06017	139102
24.06828	140821
24.07640	135853
24.08453	131875
24.09265	115864
24.10078	104049
24.10890	96669
24.11702	92733
24.12515	78674
24.13327	84372
24.14138	80853
24.14952	93973
24.15763	98336
24.16577	97841
24.17388	94587
24.18200	91569
24.19013	82258
24.19825	78536
24.20638	75951
24.21450	72022
24.22262	71021
24.23075	73453
24.23887	69429
24.24698	67345
24.25512	66120
24.26323	63457
24.27137	58592
24.27948	58632
24.28760	55811
24.29573	57315
24.30385	60486
24.31198	52394
24.32010	51197
24.32822	56465
24.33635	51395
24.34447	54229
24.35260	54174
24.36072	53860
24.36883	52320
24.37697	50094
24.38508	56866
24.39320	58351
24.40133	61729
24.40945	75170
24.41758	81118
24.42570	80899
24.43382	80536
24.44195	70682
24.45007	59739
24.45820	52979
24.46632	48146
24.47443	47414
24.48257	48269
24.49068	47797
24.49882	48163
24.50693	50044
24.51505	50830
24.52318	56377
24.53130	57530
24.53942	57262
24.54755	65277
24.55567	56385
24.56380	53188
24.57192	55549
24.58003	51083
24.58817	50963
24.59628	53498
24.60442	51158
24.61253	52882
24.62065	47622
24.62878	53671
24.63690	51259
24.64502	46930
24.65315	52742
24.66127	46919
24.66940	47193
24.67752	50832
24.68563	46748
24.69377	47201
24.70188	43563
24.71002	42940
24.71813	43609
24.72625	40195
24.73438	41334
24.74250	41583
24.75063	42739
24.75875	39690
24.76687	40199
24.77500	40531
24.78312	45569
24.79123	40103
24.79937	39987
24.80748	43270
24.81562	37380
24.82373	41698
24.83185	37730
24.83998	40885
24.84810	46853
24.85623	39453
24.86435	41216
24.87247	41621
24.88060	41514
24.88872	41664
24.89683	40669
24.90497	40887
24.91308	40199
24.92122	39228
24.92933	39957
24.93745	39450
24.94558	42246
24.95370	39076
24.96183	35836
24.96995	34805
24.97807	39473
24.98620	37096
24.99432	38342
25.00245	34372
25.01057	35416
25.01868	35031
25.02682	34522
25.03493	34071
25.04305	34072
25.05118	32594
25.05930	34354
25.06743	36172
25.07555	36011
25.08367	42019
25.09180	41582
25.09992	38298
25.10805	39886
25.11617	36778
25.12428	38938
25.13242	41857
25.14053	45440
25.14867	47049
25.15678	53919
25.16490	52559
25.17303	54743
25.18115	52807
25.18927	50480
25.19740	48246
25.20552	48424
25.21365	42417
25.22177	41487
25.22988	41051
25.23802	38983
25.24613	40015
25.25427	35393
25.26238	38309
25.27050	39033
25.27863	39362
25.28675	38292
25.29488	37466
25.30300	41269
25.31112	43770
25.31925	47779
25.32737	47128
25.33548	45378
25.34362	44576
25.35173	44270
25.35987	41951
25.36798	43800
25.37610	40249
25.38423	35549
25.39235	39183
25.40048	35821
25.40860	33184
25.41672	42917
25.42485	36300
25.43297	35458
25.44108	36561
25.44922	37149
25.45733	38772
25.46547	33227
25.47358	35311
25.48170	39986
25.48983	39814
25.49795	36636
25.50608	42874
25.51420	42421
25.52232	40069
25.53045	38313
25.53857	38073
25.54670	33754
25.55482	34050
25.56293	37660
25.57107	37042
25.57918	31090
25.58730	31014
25.59543	33460
25.60355	36752
25.61168	35551
25.61980	34679
25.62792	36064
25.63605	38001
25.64417	45754
25.65230	49905
25.66042	47079
25.66853	53083
25.67667	47180
25.68478	48380
25.69290	41973
25.70103	36713
25.70915	36076
25.71728	33411
25.72540	38136
25.73352	47321
25.74165	43554
25.74977	45923
25.75790	48084
25.76602	53185
25.77413	40955
25.78227	46252
25.79038	39769
25.79852	41889
25.80663	38021
25.81475	41546
25.82288	42896
25.83100	44920
25.83912	48886
25.84725	50282
25.85537	50544
25.86350	47356
25.87162	46430
25.87973	45731
25.88787	36176
25.89598	42720
25.90412	39323
25.91223	37248
25.92035	37581
25.92848	36398
25.93660	36541
25.94473	36469
25.95285	32893
25.96097	36179
25.96910	37035
25.97722	31901
25.98533	31539
25.99347	30075
26.00158	31854
26.00972	32647
26.01783	28273
26.02595	40332
26.03408	30819
26.04220	28932
26.05033	26597
26.05845	32626
26.06657	33197
26.07470	32053
26.08282	30230
26.09093	31541
26.09907	28943
26.10718	29812
26.11532	31368
26.12343	34344
26.13155	35265
26.13968	37250
26.14780	41091
26.15593	40998
26.16405	44783
26.17217	43301
26.18030	41861
26.18842	44279
26.19655	42681
26.20467	39771
26.21278	37604
26.22092	35716
26.22903	37100
26.23715	34938
26.24528	35128
26.25340	33312
26.26153	31731
26.26965	30376
26.27777	33078
26.28590	30720
26.29402	29699
26.30215	32076
26.31027	32338
26.31838	33119
26.32652	32691
26.33463	28984
26.34277	36024
26.35088	31557
26.35900	33982
26.36713	34444
26.37525	34310
26.38337	33943
26.39150	33539
26.39962	33407
26.40775	31828
26.41587	33415
26.42398	31694
26.43212	32581
26.44023	31908
26.44837	35023
26.45648	32913
26.46460	32057
26.47273	27357
26.48085	26284
26.48897	34935
26.49710	33137
26.50522	31984
26.51335	32281
26.52147	28980
26.52958	29566
26.53772	31068
26.54583	29279
26.55397	30374
26.56208	29819
26.57020	28557
26.57833	31455
26.58645	31900
26.59458	28821
26.60270	33746
26.61082	33057
26.61895	29969
26.62707	30474
26.63518	27770
26.64332	29470
26.65143	31635
26.65957	34516
26.66768	36091
26.67580	38029
26.68393	38225
26.69205	39047
26.70018	43247
26.70830	36623
26.71642	40319
26.72455	39522
26.73267	35499
26.74078	35961
26.74892	37380
26.75703	32058
26.76517	32987
26.77328	32631
26.78140	30859
26.78953	33956
26.79765	32719
26.80578	33700
26.81390	30686
26.82202	35586
26.83015	37318
26.83827	35992
26.84640	35548
26.85452	35766
26.86263	34111
26.87077	36204
26.87888	35223
26.88700	34670
26.89513	37076
26.90325	36743
26.91138	35314
26.91950	35690
26.92762	35624
26.93575	32239
26.94387	31665
26.95200	30099
26.96012	35255
26.96823	42733
26.97637	62499
26.98448	126109
26.99262	249320
27.00073	497708
27.00885	938589
27.01698	1556718
27.02510	2077715
27.03322	2186543
27.04135	1927678
27.04947	1437540
27.05760	975599
27.06572	652895
27.07383	447511
27.08197	324499
27.09008	242506
27.09822	206374
27.10633	177853
27.11445	160164
27.12258	144531
27.13070	129360
27.13882	113144
27.14695	112093
27.15507	110147
27.16320	100245
27.17132	95604
27.17943	95330
27.18757	84272
27.19568	87928
27.20382	82199
27.21193	81202
27.22005	83910
27.22818	78654
27.23630	76896
27.24443	73999
27.25255	67945
27.26067	64256
27.26880	65934
27.27692	73556
27.28503	63029
27.29317	62110
27.30128	60225
27.30942	61292
27.31753	60407
27.32565	58258
27.33378	56068
27.34190	58512
27.35003	58108
27.35815	55240
27.36627	51383
27.37440	53327
27.38252	54838
27.39065	53375
27.39877	54536
27.40688	50251
27.41502	53651
27.42313	53855
27.43125	50207
27.43938	50537
27.44750	54331
27.45563	48824
27.46375	48599
27.47187	48701
27.48000	47033
27.48812	46473
27.49625	47049
27.50437	48148
27.51248	49072
27.52062	50056
27.52873	51406
27.53685	49366
27.54498	50210
27.55310	45411
27.56123	51133
27.56935	45036
27.57747	45339
27.58560	45910
27.59372	43218
27.60185	45259
27.60997	45308
27.61808	48588
27.62622	45781
27.63433	50721
27.64247	48276
27.65058	47822
27.65870	40659
27.66683	42571
27.67495	41700
27.68307	42213
27.69120	41757
27.69932	36809
27.70745	40335
27.71557	39597
27.72368	44929
27.73182	42911
27.73993	44084
27.74807	39121
27.75618	38461
27.76430	39114
27.77243	39757
27.78055	39266
27.78867	39323
27.79680	40894
27.80492	39881
27.81305	45209
27.82117	41436
27.82928	40945
27.83742	41676
27.84553	43514
27.85367	41988
27.86178	45980
27.86990	44843
27.87803	46194
27.88615	41828
27.89428	40843
27.90240	40853
27.91052	38791
27.91865	35559
27.92677	41347
27.93488	39888
27.94302	38076
27.95113	41539
27.95927	35157
27.96738	36912
27.97550	34383
27.98363	40894
27.99175	40190
27.99988	41907
28.00800	38045
28.01612	37496
28.02425	35616
28.03237	36011
28.04050	36453
28.04862	40607
28.05673	37445
28.06487	38268
28.07298	31810
28.08110	39307
28.08923	39054
28.09735	38371
28.10548	37622
28.11360	38208
28.12172	38278
28.12985	39017
28.13797	42140
28.14610	38709
28.15422	39134
28.16233	38980
28.17047	38332
28.17858	36766
28.18670	40575
28.19483	37615
28.20295	42586
28.21108	45180
28.21920	43803
28.22732	47757
28.23545	51288
28.24357	49297
28.25170	47878
28.25982	44781
28.26793	44242
28.27607	42962
28.28418	37542
28.29232	38930
28.30043	38881
28.30855	39100
28.31668	40860
28.32480	43615
28.33292	40155
28.34105	48373
28.34917	51627
28.35730	55827
28.36542	67912
28.37353	71156
28.38167	72935
28.38978	81387
28.39792	84335
28.40603	89037
28.41415	84748
28.42228	88634
28.43040	95190
28.43853	87304
28.44665	90739
28.45477	91070
28.46290	87766
28.47102	76194
28.47913	73615
28.48727	70404
28.49538	70083
28.50352	58859
28.51163	59313
28.51975	55763
28.52788	48039
28.53600	47886
28.54413	48004
28.55225	51380
28.56037	47387
28.56850	48007
28.57662	48758
28.58473	44143
28.59287	45407
28.60098	42438
28.60912	47835
28.61723	42693
28.62535	45463
28.63348	47075
28.64160	42569
28.64973	49317
28.65785	48530
28.66597	49131
28.67410	53165
28.68222	54255
28.69035	56197
28.69847	48545
28.70658	48925
28.71472	45474
28.72283	40643
28.73095	44857
28.73908	42192
28.74720	41912
28.75533	46303
28.76345	43981
28.77157	53021
28.77970	47339
28.78782	47682
28.79595	54217
28.80407	50440
28.81218	46272
28.82032	48885
28.82843	42387
28.83657	39323
28.84468	36506
28.85280	37286
28.86093	36272
28.86905	36715
28.87717	39177
28.88530	35721
28.89342	41252
28.90155	36801
28.90967	37264
28.91778	36241
28.92592	38219
28.93403	44448
28.94217	41267
28.95028	41057
28.95840	45715
28.96653	44827
28.97465	45308
28.98277	46047
28.99090	43910
28.99902	46267
29.00715	40460
29.01527	39169
29.02338	34759
29.03152	38996
29.03963	40113
29.04777	34337
29.05588	36288
29.06400	35315
29.07213	37005
29.08025	39054
29.08838	37010
29.09650	35827
29.10462	35538
29.11275	36048
29.12087	40400
29.12898	36996
29.13712	37028
29.14523	39797
29.15337	36125
29.16148	37456
29.16960	37387
29.17773	35956
29.18585	38877
29.19398	38934
29.20210	39510
29.21022	41908
29.21835	41908
29.22647	38181
29.23458	42188
29.24272	43092
29.25083	47154
29.25897	47388
29.26708	52250
29.27520	42805
29.28333	43736
29.29145	53189
29.29958	39342
29.30770	41954
29.31582	39581
29.32395	41188
29.33207	36544
29.34020	36244
29.34832	35373
29.35643	39912
29.36457	38692
29.37268	40550
29.38080	39998
29.38893	38633
29.39705	40437
29.40518	41006
29.41330	42016
29.42142	48158
29.42955	47230
29.43767	56724
29.44580	52143
29.45392	50650
29.46203	49594
29.47017	47083
29.47828	43772
29.48642	43589
29.49453	39967
29.50265	40474
29.51078	47963
29.51890	43132
29.52702	42547
29.53515	43019
29.54327	39179
29.55140	39621
29.55952	33363
29.56763	39430
29.57577	37405
29.58388	36203
29.59202	38385
29.60013	34982
29.60825	35982
29.61638	34094
29.62450	32718
29.63262	37075
29.64075	36837
29.64887	37700
29.65700	38529
29.66512	36181
29.67323	35277
29.68137	34160
29.68948	33726
29.69762	32365
29.70573	34208
29.71385	38002
29.72198	36001
29.73010	44374
29.73823	50018
29.74635	56463
29.75447	57319
29.76260	57096
29.77072	54190
29.77883	50686
29.78697	45756
29.79508	41990
29.80322	37267
29.81133	35011
29.81945	37794
29.82758	35667
29.83570	38661
29.84383	38261
29.85195	36774
29.86007	43723
29.86820	66505
29.87632	106552
29.88445	221125
29.89257	399372
29.90068	629679
29.90882	827664
29.91693	892517
29.92505	822213
29.93318	566211
29.94130	378440
29.94943	223151
29.95755	129655
29.96567	96201
29.97380	84787
29.98192	73167
29.99005	74742
29.99817	74996
30.00628	82329
30.01442	84052
30.02253	86614
30.03065	86638
30.03878	89291
30.04690	87381
30.05503	80999
30.06315	75257
30.07127	75402
30.07940	74005
30.08752	72710
30.09565	68951
30.10377	64085
30.11188	68066
30.12002	62636
30.12813	62020
30.13627	67189
30.14438	67972
30.15250	60305
30.16063	56440
30.16875	62751
30.17687	57805
30.18500	54945
30.19312	54523
30.20125	49692
30.20937	52950
30.21748	48914
30.22562	55547
30.23373	51119
30.24187	47403
30.24998	49099
30.25810	46495
30.26623	49922
30.27435	43201
30.28247	46276
30.29060	45080
30.29872	42771
30.30685	48086
30.31497	47765
30.32308	43849
30.33122	42930
30.33933	42183
30.34747	43696
30.35558	43641
30.36370	44511
30.37183	42195
30.37995	39809
30.38808	42249
30.39620	40472
30.40432	40626
30.41245	42341
30.42057	42446
30.42868	41083
30.43682	43959
30.44493	40615
30.45307	36918
30.46118	41533
30.46930	38108
30.47743	38650
30.48555	38808
30.49368	41061
30.50180	38872
30.50992	34101
30.51805	37035
30.52617	40249
30.53430	39851
30.54242	41700
30.55053	39644
30.55867	39667
30.56678	39046
30.57490	37465
30.58303	38165
30.59115	34546
30.59928	39578
30.60740	35984
30.61552	38352
30.62365	36108
30.63177	37574
30.63990	38438
30.64802	36751
30.65613	36290
30.66427	36003
30.67238	34864
30.68052	32970
30.68863	34381
30.69675	32285
30.70488	35498
30.71300	40027
30.72112	38744
30.72925	34907
30.73737	36700
30.74550	37793
30.75362	37257
30.76173	37531
30.76987	38758
30.77798	41124
30.78612	43427
30.79423	52983
30.80235	59341
30.81048	73445
30.81860	78998
30.82672	88214
30.83485	81408
30.84297	72910
30.85110	57640
30.85922	48101
30.86733	44684
30.87547	43082
30.88358	41800
30.89172	40515
30.89983	45948
30.90795	41010
30.91608	37470
30.92420	37117
30.93233	43491
30.94045	41203
30.94857	40814
30.95670	36935
30.96482	33065
30.97293	42152
30.98107	35516
30.98918	36859
30.99732	38674
31.00543	40051
31.01355	45191
31.02168	52604
31.02980	60662
31.03793	68682
31.04605	76771
31.05417	71265
31.06230	64629
31.07042	59321
31.07853	62962
31.08667	74003
31.09478	94661
31.10292	126666
31.11103	163938
31.11915	187804
31.12728	202533
31.13540	171762
31.14353	134287
31.15165	99592
31.15977	70078
31.16790	53209
31.17602	53564
31.18415	51955
31.19227	56005
31.20038	58035
31.20852	70136
31.21663	82733
31.22475	99797
31.23288	108857
31.24100	106656
31.24913	100159
31.25725	79792
31.26537	67891
31.27350	56239
31.28162	52084
31.28975	41049
31.29787	45111
31.30598	38860
31.31412	39207
31.32223	37919
31.33037	38844
31.33848	35935
31.34660	40007
31.35473	38927
31.36285	41704
31.37097	41530
31.37910	44790
31.38722	54542
31.39535	60458
31.40347	58847
31.41158	58461
31.41972	52654
31.42783	55469
31.43597	48871
31.44408	46298
31.45220	45587
31.46033	41308
31.46845	40631
31.47657	35505
31.48470	36729
31.49282	34679
31.50095	36874
31.50907	39659
31.51718	38907
31.52532	39693
31.53343	42856
31.54157	38394
31.54968	36456
31.55780	34441
31.56593	40221
31.57405	38237
31.58218	37444
31.59030	40449
31.59842	38049
31.60655	38712
31.61467	38356
31.62278	35654
31.63092	38670
31.63903	37445
31.64717	38306
31.65528	41328
31.66340	39396
31.67153	40379
31.67965	40741
31.68778	38425
31.69590	38366
31.70402	38060
31.71215	40593
31.72027	39776
31.72840	37145
31.73652	37857
31.74463	40507
31.75277	37340
31.76088	35139
31.76900	39416
31.77713	40138
31.78525	42855
31.79338	39015
31.80150	38474
31.80962	41863
31.81775	44337
31.82587	44775
31.83400	44245
31.84212	41481
31.85023	44290
31.85837	43333
31.86648	45886
31.87460	49549
31.88273	42185
31.89085	45964
31.89898	47854
31.90710	48920
31.91522	46410
31.92335	50654
31.93147	51112
31.93960	52958
31.94772	51997
31.95583	54738
31.96397	53928
31.97208	53884
31.98022	52923
31.98833	57477
31.99645	56531
32.00458	57970
32.01270	56271
32.02082	60176
32.02895	57109
32.03707	53761
32.04520	54088
32.05332	51322
32.06143	51459
32.06957	54503
32.07768	46541
32.08582	50167
32.09393	49659
32.10205	51122
32.11018	50893
32.11830	45994
32.12642	43928
32.13455	42355
32.14267	40246
32.15080	39908
32.15892	44386
32.16703	37253
32.17517	41466
32.18328	37958
32.19142	37320
32.19953	38422
32.20765	38829
32.21578	39323
32.22390	41617
32.23203	40724
32.24015	39174
32.24827	39067
32.25640	44521
32.26452	39684
32.27263	44901
32.28077	44627
32.28888	43462
32.29702	43094
32.30513	45812
32.31325	53109
32.32138	85318
32.32950	136186
32.33763	248970
32.34575	449625
32.35387	836568
32.36200	1309187
32.37012	1640888
32.37825	1759109
32.38637	1526544
32.39448	1098263
32.40262	716218
32.41073	434968
32.41885	277872
32.42698	199880
32.43510	154077
32.44323	132554
32.45135	117850
32.45947	104315
32.46760	97725
32.47572	93320
32.48385	91914
32.49197	82952
32.50008	80740
32.50822	74448
32.51633	71806
32.52445	70864
32.53258	71328
32.54070	67733
32.54883	66581
32.55695	64080
32.56507	64030
32.57320	64483
32.58132	61875
32.58945	57479
32.59757	60597
32.60568	57118
32.61382	59148
32.62193	58551
32.63007	57793
32.63818	53515
32.64630	55245
32.65443	56792
32.66255	54559
32.67067	56309
32.67880	61706
32.68692	66812
32.69505	63373
32.70317	64399
32.71128	60383
32.71942	61693
32.72753	58660
32.73567	55756
32.74378	57525
32.75190	53958
32.76003	52672
32.76815	54774
32.77628	49824
32.78440	47446
32.79252	48988
32.80065	53101
32.80877	51048
32.81688	44174
32.82502	46531
32.83313	48746
32.84127	44525
32.84938	47463
32.85750	50236
32.86563	49835
32.87375	47011
32.88188	46367
32.89000	46257
32.89812	44498
32.90625	51963
32.91437	47065
32.92248	47255
32.93062	46513
32.93873	46834
32.94687	50601
32.95498	47494
32.96310	47311
32.97123	46688
32.97935	50161
32.98748	43947
32.99560	44089
33.00372	48453
33.01185	49074
33.01997	47800
33.02810	44111
33.03622	45876
33.04433	45663
33.05247	40614
33.06058	43213
33.06870	43284
33.07683	47274
33.08495	53847
33.09308	59479
33.10120	79266
33.10932	126882
33.11745	200279
33.12557	263822
33.13370	309688
33.14182	292130
33.14993	229820
33.15807	162859
33.16618	109997
33.17432	78139
33.18243	64437
33.19055	57164
33.19868	53781
33.20680	52628
33.21492	57973
33.22305	54025
33.23117	51432
33.23930	55025
33.24742	51421
33.25553	48203
33.26367	59524
33.27178	49619
33.27992	51031
33.28803	48848
33.29615	49522
33.30428	56824
33.31240	53762
33.32052	49494
33.32865	49370
33.33677	51326
33.34490	49904
33.35302	48763
33.36113	45804
33.36927	53823
33.37738	51898
33.38552	45134
33.39363	48179
33.40175	48303
33.40988	45859
33.41800	45836
33.42613	46721
33.43425	53964
33.44237	49596
33.45050	49075
33.45862	55131
33.46673	49649
33.47487	45013
33.48298	45869
33.49112	47756
33.49923	42872
33.50735	46789
33.51548	42783
33.52360	44951
33.53173	44187
33.53985	47786
33.54797	45125
33.55610	45817
33.56422	43581
33.57233	45675
33.58047	44177
33.58858	44015
33.59672	46570
33.60483	48531
33.61295	46285
33.62108	41731
33.62920	41307
33.63733	40559
33.64545	48707
33.65357	48407
33.66170	52932
33.66982	46329
33.67795	48534
33.68607	50490
33.69418	49970
33.70232	49700
33.71043	56790
33.71855	51428
33.72668	53577
33.73480	54988
33.74293	49181
33.75105	46288
33.75917	46591
33.76730	50051
33.77542	46703
33.78355	40907
33.79167	43688
33.79978	47820
33.80792	41562
33.81603	44362
33.82417	44398
33.83228	46756
33.84040	46069
33.84853	46914
33.85665	46482
33.86477	48299
33.87290	50226
33.88102	44618
33.88915	42902
33.89727	43384
33.90538	48374
33.91352	43771
33.92163	48156
33.92977	43228
33.93788	45237
33.94600	49678
33.95413	44440
33.96225	43097
33.97037	46738
33.97850	43536
33.98662	44724
33.99475	45046
34.00287	37448
34.01098	43359
34.01912	43476
34.02723	41885
34.03537	39268
34.04348	42225
34.05160	46777
34.05973	38754
34.06785	41930
34.07598	44878
34.08410	46889
34.09222	48004
34.10035	42077
34.10847	41170
34.11658	42870
34.12472	41419
34.13283	41389
34.14097	46235
34.14908	45938
34.15720	47299
34.16533	41701
34.17345	43682
34.18158	38748
34.18970	43970
34.19782	40799
34.20595	40046
34.21407	37461
34.22220	38384
34.23032	45743
34.23843	44571
34.24657	41547
34.25468	38883
34.26280	39831
34.27093	45433
34.27905	47139
34.28718	41521
34.29530	43499
34.30342	41964
34.31155	41771
34.31967	45196
34.32780	43922
34.33592	44700
34.34403	41155
34.35217	41258
34.36028	41588
34.36840	46822
34.37653	42742
34.38465	41070
34.39278	42489
34.40090	44777
34.40902	46268
34.41715	39783
34.42527	44217
34.43340	44312
34.44152	42169
34.44963	48776
34.45777	44932
34.46588	40898
34.47402	40095
34.48213	41291
34.49025	40910
34.49838	47185
34.50650	44190
34.51462	48891
34.52275	48283
34.53087	58492
34.53900	64963
34.54712	64422
34.55523	72646
34.56337	69770
34.57148	65713
34.57962	67345
34.58773	65318
34.59585	62718
34.60398	57313
34.61210	58089
34.62022	53833
34.62835	53930
34.63647	53488
34.64460	48302
34.65272	49849
34.66083	50307
34.66897	48042
34.67708	46393
34.68522	49191
34.69333	44106
34.70145	48822
34.70958	47870
34.71770	46484
34.72583	46700
34.73395	42529
34.74207	43764
34.75020	51278
34.75832	44529
34.76643	46066
34.77457	48168
34.78268	42040
34.79082	41054
34.79893	41800
34.80705	42324
34.81518	41997
34.82330	43757
34.83143	44551
34.83955	52025
34.84767	44674
34.85580	43580
34.86392	47819
34.87205	47006
34.88017	45152
34.88828	45329
34.89642	47712
34.90453	46473
34.91265	46827
34.92078	44194
34.92890	46441
34.93703	52777
34.94515	59674
34.95327	76136
34.96140	121006
34.96952	181921
34.97765	259965
34.98577	344564
34.99388	386767
35.00202	348412
35.01013	258943
35.01827	165961
35.02638	116459
35.03450	80209
35.04263	72734
35.05075	62293
35.05887	60301
35.06700	60456
35.07512	58283
35.08325	56227
35.09137	57167
35.09948	57759
35.10762	58168
35.11573	51892
35.12387	53339
35.13198	51307
35.14010	51205
35.14823	49811
35.15635	50871
35.16447	48102
35.17260	49772
35.18072	50372
35.18885	48837
35.19697	48860
35.20508	48163
35.21322	46079
35.22133	50947
35.22947	47397
35.23758	47072
35.24570	44865
35.25383	49384
35.26195	55447
35.27008	51137
35.27820	49245
35.28632	56950
35.29445	46596
35.30257	46072
35.31068	44704
35.31882	44824
35.32693	44013
35.33507	50400
35.34318	48214
35.35130	45793
35.35943	48320
35.36755	46504
35.37568	45776
35.38380	45064
35.39192	45621
35.40005	48884
35.40817	49403
35.41628	47474
35.42442	49086
35.43253	51608
35.44067	42502
35.44878	49187
35.45690	49578
35.46503	50511
35.47315	49219
35.48128	50205
35.48940	48871
35.49752	50815
35.50565	47430
35.51377	46373
35.52190	48916
35.53002	49603
35.53813	51792
35.54627	52229
35.55438	48192
35.56250	46373
35.57063	47158
35.57875	46952
35.58688	51654
35.59500	52110
35.60312	51003
35.61125	54435
35.61937	57168
35.62750	48849
35.63562	53090
35.64373	50884
35.65187	54432
35.65998	48476
35.66812	44688
35.67623	47721
35.68435	47379
35.69248	52768
35.70060	51886
35.70872	50692
35.71685	48281
35.72497	50437
35.73310	51679
35.74122	49725
35.74933	50450
35.75747	47281
35.76558	47943
35.77372	47087
35.78183	50143
35.78995	52372
35.79808	47790
35.80620	46168
35.81432	48286
35.82245	48488
35.83057	47225
35.83870	47159
35.84682	49780
35.85493	45196
35.86307	44500
35.87118	45571
35.87932	44239
35.88743	49210
35.89555	44078
35.90368	45088
35.91180	45830
35.91993	50180
35.92805	51907
35.93617	48161
35.94430	47494
35.95242	44249
35.96053	47543
35.96867	45232
35.97678	47335
35.98492	48225
35.99303	47774
36.00115	48591
36.00928	47061
36.01740	51738
36.02553	49852
36.03365	48686
36.04177	47288
36.04990	53404
36.05802	48207
36.06615	48705
36.07427	51744
36.08238	52982
36.09052	46642
36.09863	46597
36.10675	48405
36.11488	46774
36.12300	50107
36.13113	49193
36.13925	58239
36.14737	53988
36.15550	49087
36.16362	57082
36.17175	54133
36.17987	49188
36.18798	59861
36.19612	46010
36.20423	44210
36.21235	44099
36.22048	46126
36.22860	47081
36.23673	44259
36.24485	46782
36.25297	46229
36.26110	52956
36.26922	45651
36.27735	45862
36.28547	48453
36.29358	48988
36.30172	53260
36.30983	51108
36.31797	50912
36.32608	56406
36.33420	55826
36.34233	59548
36.35045	54843
36.35857	52058
36.36670	51150
36.37482	50042
36.38295	48998
36.39107	48220
36.39918	49051
36.40732	48928
36.41543	48679
36.42357	47212
36.43168	45066
36.43980	48001
36.44793	49792
36.45605	52020
36.46417	46806
36.47230	51904
36.48042	47822
36.48855	43585
36.49667	46631
36.50478	48111
36.51292	45206
36.52103	42363
36.52917	47732
36.53728	47036
36.54540	50463
36.55353	49212
36.56165	49454
36.56978	46171
36.57790	53418
36.58602	43646
36.59415	49274
36.60227	51924
36.61038	46198
36.61852	48000
36.62663	51335
36.63477	49891
36.64288	47935
36.65100	46024
36.65913	47916
36.66725	50006
36.67538	47533
36.68350	49569
36.69162	46808
36.69975	47207
36.70787	51452
36.71600	46290
36.72412	48884
36.73223	54904
36.74037	52368
36.74848	46640
36.75660	48303
36.76473	48097
36.77285	46932
36.78098	48346
36.78910	42821
36.79722	48653
36.80535	46421
36.81347	47172
36.82160	47514
36.82972	51626
36.83783	49225
36.84597	48674
36.85408	51885
36.86220	46398
36.87033	47482
36.87845	51398
36.88658	53870
36.89470	47984
36.90282	52764
36.91095	53390
36.91907	50699
36.92720	49044
36.93532	49213
36.94343	46448
36.95157	50107
36.95968	51239
36.96782	48964
36.97593	48441
36.98405	50572
36.99218	51509
37.00030	49045
37.00842	53559
37.01655	52502
37.02467	48555
37.03280	50978
37.04092	47243
37.04903	47120
37.05717	49781
37.06528	49712
37.07342	46324
37.08153	51461
37.08965	49077
37.09778	52635
37.10590	55084
37.11403	49223
37.12215	48447
37.13027	52275
37.13840	52275
37.14652	48088
37.15463	54946
37.16277	54230
37.17088	57156
37.17902	54019
37.18713	57832
37.19525	51679
37.20338	53290
37.21150	58082
37.21963	55105
37.22775	50310
37.23587	56819
37.24400	59026
37.25212	55508
37.26023	58481
37.26837	62173
37.27648	56400
37.28462	57121
37.29273	55842
37.30085	53077
37.30898	53372
37.31710	51853
37.32523	55086
37.33335	51903
37.34147	53327
37.34960	61592
37.35772	55091
37.36585	60049
37.37397	59503
37.38208	61580
37.39022	60521
37.39833	59817
37.40645	60319
37.41458	60202
37.42270	58754
37.43083	58092
37.43895	60707
37.44707	57781
37.45520	58996
37.46332	58179
37.47145	53096
37.47957	56130
37.48768	56217
