Z:\data\JTB-E02\BACandBLUE\JTB-E02-205-11.D Sun Mar 10 10:57:51 2019
Start of data points
2.09523,51990
2.10335,51545
2.11148,53576
2.11960,52178
2.12773,51510
2.13585,51766
2.14397,48498
2.15210,47313
2.16022,51440
2.16833,45186
2.17647,48683
2.18458,44640
2.19272,45944
2.20083,43539
2.20895,42578
2.21708,44272
2.22520,41600
2.23333,43394
2.24145,41783
2.24957,38373
2.25770,40110
2.26582,98176
2.27395,594883
2.28207,1159563
2.29018,770665
2.29832,397714
2.30643,291672
2.31455,237865
2.32268,225757
2.33080,198974
2.33893,177029
2.34705,162857
2.35517,159764
2.36330,138424
2.37142,127593
2.37955,121985
2.38767,122274
2.39578,115496
2.40392,111098
2.41203,104514
2.42015,108027
2.42828,102810
2.43640,106457
2.44453,100404
2.45265,99765
2.46077,94646
2.46890,92018
2.47702,92096
2.48515,90894
2.49327,98921
2.50138,95550
2.50952,96507
2.51763,94411
2.52577,88620
2.53388,83917
2.54200,84066
2.55013,101113
2.55825,143913
2.56637,174226
2.57450,146286
2.58262,123315
2.59075,107810
2.59887,149816
2.60698,560922
2.61512,1325742
2.62323,1150610
2.63137,630072
2.63948,412223
2.64760,300411
2.65573,233060
2.66385,190831
2.67197,166557
2.68010,152218
2.68822,134981
2.69635,121820
2.70447,113451
2.71258,107787
2.72072,101027
2.72883,104193
2.73697,93916
2.74508,92793
2.75320,89006
2.76133,88979
2.76945,89052
2.77758,161931
2.78570,425350
2.79382,561985
2.80195,362033
2.81007,243789
2.81818,205806
2.82632,186648
2.83443,162223
2.84257,143155
2.85068,133320
2.85880,120653
2.86693,116892
2.87505,115930
2.88318,101702
2.89130,100328
2.89942,99956
2.90755,98816
2.91567,87075
2.92380,92496
2.93192,90362
2.94003,80200
2.94817,81200
2.95628,94058
2.96440,118355
2.97253,132794
2.98065,113000
2.98878,102367
2.99690,95605
3.00502,96961
3.01315,101662
3.02127,91630
3.02940,86065
3.03752,80815
3.04563,83030
3.05377,80471
3.06188,79078
3.07002,83191
3.07813,204755
3.08625,1103566
3.09438,3239153
3.10250,5142413
3.11062,6817430
3.11875,6590602
3.12687,4451884
3.13500,2950708
3.14312,2244954
3.15123,1797592
3.15937,1446707
3.16748,1203887
3.17562,1044569
3.18373,1039628
3.19185,1407708
3.19998,1706503
3.20810,1474240
3.21622,1096678
3.22435,899627
3.23247,759709
3.24060,657727
3.24872,586377
3.25683,522911
3.26497,476451
3.27308,431098
3.28122,411178
3.28933,583977
3.29745,1490650
3.30558,3488351
3.31370,5259980
3.32183,5042661
3.32995,3468528
3.33807,2229531
3.34620,1584607
3.35432,1241292
3.36243,1009178
3.37057,863224
3.37868,753064
3.38682,672413
3.39493,608057
3.40305,555313
3.41118,519659
3.41930,487788
3.42743,449024
3.43555,436424
3.44367,419972
3.45180,385898
3.45992,361340
3.46803,367970
3.47617,370725
3.48428,353441
3.49242,329287
3.50053,316821
3.50865,303116
3.51678,284524
3.52490,278042
3.53303,276633
3.54115,277961
3.54927,272292
3.55740,266972
3.56552,319259
3.57365,472661
3.58177,598798
3.58988,516465
3.59802,417259
3.60613,348950
3.61425,334531
3.62238,315881
3.63050,303755
3.63863,284651
3.64675,265214
3.65487,287947
3.66300,795922
3.67112,3591083
3.67925,9259603
3.68737,1.193486E+07
3.69548,8972955
3.70362,5312111
3.71173,3715062
3.71987,2945761
3.72798,2448329
3.73610,2107641
3.74423,1859355
3.75235,1637172
3.76047,1471026
3.76860,1327321
3.77672,1265552
3.78485,1184053
3.79297,1099591
3.80108,1252189
3.80922,1968454
3.81733,3311512
3.82547,3656432
3.83358,2807804
3.84170,2031918
3.84983,1617947
3.85795,1384035
3.86607,1239466
3.87420,1123478
3.88232,1017377
3.89045,960769
3.89857,885555
3.90668,832783
3.91482,802464
3.92293,851811
3.93107,920964
3.93918,953041
3.94730,1187700
3.95543,2483265
3.96355,5274136
3.97168,7224195
3.97980,6337463
3.98792,4238298
3.99605,4425089
4.00417,1.10126E+07
4.01228,2.421683E+07
4.02042,3.292421E+07
4.02853,2.884066E+07
4.03667,1.784809E+07
4.04478,9792829
4.05290,6095892
4.06103,4399055
4.06915,3411476
4.07728,2769568
4.08540,2320152
4.09352,1978619
4.10165,1725023
4.10977,1523730
4.11790,1373702
4.12602,1224362
4.13413,1137376
4.14227,1058766
4.15038,1011844
4.15850,949294
4.16663,925353
4.17475,896667
4.18288,855780
4.19100,797676
4.19912,733581
4.20725,870169
4.21537,1964747
4.22350,5564826
4.23162,1.154448E+07
4.23973,1.527728E+07
4.24787,1.420158E+07
4.25598,9943924
4.26410,6423885
4.27223,4519786
4.28035,3341990
4.28848,2601625
4.29660,2106415
4.30472,1740737
4.31285,1498631
4.32097,1262232
4.32910,1111510
4.33722,1020254
4.34533,920271
4.35347,863694
4.36158,821799
4.36972,793068
4.37783,758267
4.38595,685970
4.39408,637835
4.40220,588256
4.41032,551601
4.41845,524258
4.42657,497185
4.43470,487327
4.44282,464323
4.45093,448785
4.45907,434556
4.46718,411106
4.47532,408922
4.48343,392904
4.49155,387339
4.49968,379884
4.50780,372341
4.51592,355437
4.52405,356278
4.53217,342419
4.54030,339558
4.54842,341266
4.55653,340833
4.56467,331514
4.57278,322963
4.58092,309114
4.58903,308324
4.59715,296868
4.60528,290330
4.61340,295541
4.62153,300440
4.62965,360891
4.63777,475309
4.64590,576159
4.65402,545272
4.66213,466501
4.67027,375915
4.67838,347629
4.68652,327036
4.69463,308276
4.70275,284430
4.71088,282074
4.71900,263269
4.72713,255249
4.73525,256243
4.74337,237969
4.75150,236985
4.75962,236697
4.76775,234058
4.77587,239052
4.78398,227680
4.79212,262243
4.80023,331602
4.80835,397743
4.81648,425661
4.82460,373901
4.83273,325913
4.84085,331267
4.84897,339454
4.85710,335500
4.86522,324149
4.87335,307580
4.88147,280452
4.88958,253051
4.89772,239545
4.90583,230569
4.91395,224952
4.92208,226404
4.93020,231781
4.93833,318938
4.94645,616913
4.95457,1295036
4.96270,2129856
4.97082,2689213
4.97895,2497575
4.98707,1882432
4.99518,1307816
5.00332,926824
5.01143,715227
5.01957,608034
5.02768,563999
5.03580,592941
5.04393,653302
5.05205,635929
5.06017,574428
5.06830,492991
5.07642,447359
5.08455,409263
5.09267,378920
5.10078,356323
5.10892,329997
5.11703,323296
5.12517,310005
5.13328,301038
5.14140,295050
5.14953,305521
5.15765,321535
5.16578,382116
5.17390,398326
5.18202,379111
5.19015,338263
5.19827,326473
5.20638,336394
5.21452,344373
5.22263,333516
5.23077,320613
5.23888,313323
5.24700,297264
5.25513,280572
5.26325,268675
5.27138,239626
5.27950,223075
5.28762,221050
5.29575,218187
5.30387,208514
5.31198,223505
5.32012,210749
5.32823,216324
5.33637,233157
5.34448,264264
5.35260,253795
5.36073,239944
5.36885,225830
5.37698,206303
5.38510,208046
5.39322,214239
5.40135,227823
5.40947,213567
5.41760,202629
5.42572,193260
5.43383,190265
5.44197,185353
5.45008,197324
5.45820,199369
5.46633,206881
5.47445,189477
5.48258,190044
5.49070,171104
5.49882,174787
5.50695,171289
5.51507,169008
5.52320,185311
5.53132,173365
5.53943,170507
5.54757,172497
5.55568,185284
5.56382,221735
5.57193,269014
5.58005,299110
5.58818,314559
5.59630,287047
5.60442,250065
5.61255,225644
5.62067,205387
5.62880,193351
5.63692,194902
5.64503,208107
5.65317,192634
5.66128,190660
5.66942,183772
5.67753,190909
5.68565,229133
5.69378,265597
5.70190,287087
5.71002,268674
5.71815,224239
5.72627,201789
5.73440,181507
5.74252,174699
5.75063,162740
5.75877,154920
5.76688,153627
5.77502,147965
5.78313,149822
5.79125,150203
5.79938,142680
5.80750,146190
5.81563,142398
5.82375,143977
5.83187,137136
5.84000,146357
5.84812,140253
5.85623,139027
5.86437,132752
5.87248,136625
5.88062,134701
5.88873,136211
5.89685,127668
5.90498,130280
5.91310,127147
5.92123,117841
5.92935,121216
5.93747,121428
5.94560,124095
5.95372,147030
5.96183,156421
5.96997,196814
5.97808,239803
5.98622,299375
5.99433,326436
6.00245,308716
6.01058,270722
6.01870,220406
6.02683,182192
6.03495,162431
6.04307,153345
6.05120,137607
6.05932,127411
6.06745,122715
6.07557,123949
6.08368,123731
6.09182,111829
6.09993,112023
6.10805,112780
6.11618,120062
6.12430,138784
6.13243,193033
6.14055,289859
6.14867,398498
6.15680,404226
6.16492,354659
6.17305,276267
6.18117,212667
6.18928,187143
6.19742,170887
6.20553,163991
6.21367,162735
6.22178,151251
6.22990,154341
6.23803,150380
6.24615,158725
6.25427,150850
6.26240,167164
6.27052,159857
6.27865,160272
6.28677,156258
6.29488,155999
6.30302,149708
6.31113,149885
6.31927,152868
6.32738,151361
6.33550,166940
6.34363,176136
6.35175,164874
6.35987,166183
6.36800,161592
6.37612,165264
6.38425,162910
6.39237,159100
6.40048,168521
6.40862,156781
6.41673,158639
6.42487,166932
6.43298,164943
6.44110,163661
6.44923,170354
6.45735,172705
6.46548,163442
6.47360,167700
6.48172,164521
6.48985,165480
6.49797,169486
6.50608,168630
6.51422,170619
6.52233,173168
6.53047,172992
6.53858,170157
6.54670,176268
6.55483,172516
6.56295,185963
6.57108,205205
6.57920,236076
6.58732,243996
6.59545,241746
6.60357,217913
6.61170,202188
6.61982,194249
6.62793,196074
6.63607,201355
6.64418,193386
6.65230,227077
6.66043,303567
6.66855,416914
6.67668,495325
6.68480,453627
6.69292,362626
6.70105,283646
6.70917,249950
6.71730,227380
6.72542,214484
6.73353,203397
6.74167,179945
6.74978,166343
6.75790,144524
6.76603,139978
6.77415,133292
6.78228,123455
6.79040,118845
6.79852,120783
6.80665,114420
6.81477,119669
6.82290,112599
6.83102,108063
6.83913,113561
6.84727,127629
6.85538,145178
6.86352,172991
6.87163,181684
6.87975,173440
6.88788,135794
6.89600,115496
6.90412,95156
6.91225,93018
6.92037,82374
6.92850,84818
6.93662,81144
6.94473,81700
6.95287,86675
6.96098,89592
6.96912,105624
6.97723,130346
6.98535,149750
6.99348,151213
7.00160,132006
7.00972,108556
7.01785,102060
7.02597,87853
7.03410,87408
7.04222,86334
7.05033,85292
7.05847,85828
7.06658,85435
7.07472,85402
7.08283,80063
7.09095,82573
7.09908,76030
7.10720,81395
7.11533,76317
7.12345,69770
7.13157,76000
7.13970,83502
7.14782,104189
7.15593,148176
7.16407,187676
7.17218,204104
7.18032,185886
7.18843,149916
7.19655,126459
7.20468,150781
7.21280,312466
7.22093,737509
7.22905,1425273
7.23717,2066363
7.24530,2104360
7.25342,1534072
7.26155,983446
7.26967,559059
7.27778,362765
7.28592,227005
7.29403,160650
7.30215,111833
7.31028,98507
7.31840,101040
7.32653,102961
7.33465,112607
7.34277,95890
7.35090,97552
7.35902,91478
7.36715,90609
7.37527,89537
7.38338,89323
7.39152,88451
7.39963,92013
7.40775,89295
7.41588,87758
7.42400,82110
7.43213,79588
7.44025,76125
7.44837,78470
7.45650,77423
7.46462,78865
7.47275,79548
7.48087,72484
7.48898,70982
7.49712,68800
7.50523,70369
7.51337,73856
7.52148,90007
7.52960,123570
7.53773,181478
7.54585,272329
7.55397,372347
7.56210,431199
7.57022,426627
7.57835,385701
7.58647,287011
7.59458,221815
7.60272,157270
7.61083,125004
7.61897,101492
7.62708,90304
7.63520,86236
7.64333,78562
7.65145,75358
7.65958,75193
7.66770,75501
7.67582,69368
7.68395,68527
7.69207,66041
7.70018,64626
7.70832,68467
7.71643,60567
7.72457,69130
7.73268,63695
7.74080,67754
7.74893,62008
7.75705,59361
7.76518,65822
7.77330,65386
7.78142,67958
7.78955,70841
7.79767,78516
7.80578,85815
7.81392,84835
7.82203,83497
7.83017,81780
7.83828,76216
7.84640,64303
7.85453,60788
7.86265,60647
7.87078,66682
7.87890,73802
7.88702,74709
7.89515,72885
7.90327,71191
7.91140,71806
7.91952,81862
7.92763,116098
7.93577,178144
7.94388,261744
7.95200,311819
7.96013,307628
7.96825,261371
7.97638,179167
7.98450,133761
7.99262,105534
8.00075,82423
8.00887,73975
8.01700,67246
8.02512,70084
8.03323,67056
8.04137,69224
8.04948,63100
8.05760,60611
8.06573,62153
8.07385,59128
8.08198,58517
8.09010,59167
8.09822,54132
8.10635,52545
8.11447,56553
8.12260,57364
8.13072,62630
8.13883,68605
8.14697,80579
8.15508,94136
8.16322,95406
8.17133,80153
8.17945,73680
8.18758,67812
8.19570,61186
8.20382,64177
8.21195,57458
8.22007,54826
8.22820,54701
8.23632,51727
8.24443,55446
8.25257,53531
8.26068,53501
8.26882,52066
8.27693,50163
8.28505,51108
8.29318,56169
8.30130,53725
8.30943,59213
8.31755,62536
8.32567,67822
8.33380,68235
8.34192,59582
8.35003,57094
8.35817,57229
8.36628,56153
8.37442,57070
8.38253,52499
8.39065,58181
8.39878,60390
8.40690,53616
8.41503,53468
8.42315,55556
8.43127,51051
8.43940,51128
8.44752,50176
8.45565,51002
8.46377,48761
8.47188,45983
8.48002,49103
8.48813,48754
8.49625,54815
8.50438,47462
8.51250,54377
8.52063,65288
8.52875,106617
8.53687,194957
8.54500,312374
8.55312,436195
8.56125,433686
8.56937,350997
8.57748,236503
8.58562,149495
8.59373,107566
8.60185,88678
8.60998,87282
8.61810,76958
8.62623,80766
8.63435,71530
8.64247,75676
8.65060,70157
8.65872,66043
8.66685,63495
8.67497,64118
8.68308,58487
8.69122,62386
8.69933,59146
8.70747,57567
8.71558,54441
8.72370,54803
8.73183,55618
8.73995,55138
8.74807,52112
8.75620,59225
8.76432,80118
8.77245,135921
8.78057,240189
8.78868,362500
8.79682,445011
8.80493,460716
8.81307,373867
8.82118,281887
8.82930,198189
8.83743,147205
8.84555,141832
8.85367,125844
8.86180,125637
8.86992,120367
8.87805,120861
8.88617,112474
8.89428,101945
8.90242,105097
8.91053,97049
8.91867,95959
8.92678,98215
8.93490,107331
8.94303,124267
8.95115,137379
8.95928,135525
8.96740,125989
8.97552,113972
8.98365,110812
8.99177,102273
8.99988,99914
9.00802,93860
9.01613,94755
9.02427,86245
9.03238,78952
9.04050,72235
9.04863,70808
9.05675,70377
9.06488,75233
9.07300,74474
9.08112,73462
9.08925,78865
9.09737,77576
9.10550,88395
9.11362,96906
9.12173,98911
9.12987,98394
9.13798,95259
9.14610,84677
9.15423,81669
9.16235,74809
9.17048,73417
9.17860,70766
9.18672,69932
9.19485,66806
9.20297,68230
9.21110,65163
9.21922,62800
9.22733,64398
9.23547,61720
9.24358,60424
9.25170,63152
9.25983,70337
9.26795,67739
9.27608,60275
9.28420,61645
9.29232,59466
9.30045,57683
9.30857,60538
9.31670,57000
9.32482,60963
9.33293,57620
9.34107,54330
9.34918,54440
9.35732,56888
9.36543,61195
9.37355,54766
9.38168,53778
9.38980,61847
9.39792,57804
9.40605,58490
9.41417,64114
9.42230,70687
9.43042,82100
9.43853,88158
9.44667,90079
9.45478,87462
9.46292,77206
9.47103,73948
9.47915,63245
9.48728,56489
9.49540,55205
9.50353,61868
9.51165,65929
9.51977,68892
9.52790,79660
9.53602,82796
9.54413,74914
9.55227,70317
9.56038,70813
9.56852,68166
9.57663,70010
9.58475,74893
9.59288,77406
9.60100,75095
9.60913,66526
9.61725,57000
9.62537,57810
9.63350,44448
9.64162,41295
9.64973,46809
9.65787,41112
9.66598,38081
9.67412,44567
9.68223,41714
9.69035,38996
9.69848,41333
9.70660,44222
9.71473,42463
9.72285,39551
9.73097,43027
9.73910,41027
9.74722,39934
9.75535,45113
9.76347,41182
9.77158,42568
9.77972,38046
9.78783,40297
9.79595,38383
9.80408,37662
9.81220,39014
9.82033,35021
9.82845,39710
9.83657,43662
9.84470,39136
9.85282,36699
9.86095,44485
9.86907,45117
9.87718,46067
9.88532,43206
9.89343,44562
9.90155,38022
9.90968,36477
9.91780,38427
9.92593,46553
9.93405,48493
9.94217,66420
9.95030,86419
9.95842,109814
9.96655,116624
9.97467,110645
9.98278,93938
9.99092,78223
9.99903,69298
10.00717,69854
10.01528,62752
10.02340,60680
10.03153,56690
10.03965,54761
10.04777,48279
10.05590,51193
10.06402,47548
10.07215,45734
10.08027,51967
10.08838,49982
10.09652,56346
10.10463,51597
10.11277,53990
10.12088,51731
10.12900,48300
10.13713,46165
10.14525,43892
10.15338,46372
10.16150,44818
10.16962,45689
10.17775,40644
10.18587,44915
10.19398,40708
10.20212,42061
10.21023,39785
10.21837,42771
10.22648,47148
10.23460,49172
10.24273,48393
10.25085,52505
10.25898,66264
10.26710,138620
10.27522,327506
10.28335,742898
10.29147,1422410
10.29958,2290530
10.30772,3204273
10.31583,4537767
10.32397,6639357
10.33208,9365441
10.34020,1.116686E+07
10.34833,1.072995E+07
10.35645,7987265
10.36458,4709998
10.37270,2483417
10.38082,1305316
10.38895,808606
10.39707,552685
10.40520,415355
10.41332,338729
10.42143,282830
10.42957,242815
10.43768,219489
10.44580,199731
10.45393,196892
10.46205,180019
10.47018,161571
10.47830,151401
10.48642,151766
10.49455,144032
10.50267,138487
10.51080,127596
10.51892,123541
10.52703,118604
10.53517,114208
10.54328,114844
10.55142,113430
10.55953,104965
10.56765,109118
10.57578,104406
10.58390,97923
10.59202,93601
10.60015,95810
10.60827,91882
10.61640,89386
10.62452,83073
10.63263,79482
10.64077,78250
10.64888,75725
10.65702,76772
10.66513,71972
10.67325,77658
10.68138,82642
10.68950,75103
10.69762,76987
10.70575,77425
10.71387,75196
10.72200,73516
10.73012,76084
10.73823,75599
10.74637,73631
10.75448,71170
10.76262,71593
10.77073,75318
10.77885,72520
10.78698,69791
10.79510,66348
10.80323,63367
10.81135,62545
10.81947,66785
10.82760,66416
10.83572,59841
10.84383,57362
10.85197,56296
10.86008,63285
10.86822,51150
10.87633,53785
10.88445,54571
10.89258,50555
10.90070,55559
10.90883,51981
10.91695,52646
10.92507,50637
10.93320,51844
10.94132,49410
10.94945,49778
10.95757,50550
10.96568,49358
10.97382,54063
10.98193,51198
10.99005,52201
10.99818,50061
11.00630,46340
11.01443,51857
11.02255,47301
11.03067,48894
11.03880,46082
11.04692,45197
11.05505,45737
11.06317,46830
11.07128,49015
11.07942,45694
11.08753,45448
11.09565,50552
11.10378,47800
11.11190,47330
11.12003,42201
11.12815,43422
11.13627,44050
11.14440,39995
11.15252,39151
11.16065,42146
11.16877,41531
11.17688,43158
11.18502,46184
11.19313,46631
11.20127,46015
11.20938,45667
11.21750,49676
11.22563,40154
11.23375,38493
11.24187,34813
11.25000,37111
11.25812,39393
11.26625,42033
11.27437,34054
11.28248,39804
11.29062,40463
11.29873,41641
11.30687,54074
11.31498,81896
11.32310,114297
11.33123,166035
11.33935,226031
11.34747,256539
11.35560,253643
11.36372,219555
11.37185,159410
11.37997,125750
11.38808,96127
11.39622,75102
11.40433,72196
11.41247,69466
11.42058,66811
11.42870,67053
11.43683,62371
11.44495,62038
11.45308,57567
11.46120,62441
11.46932,58913
11.47745,69911
11.48557,95267
11.49368,131191
11.50182,155287
11.50993,167767
11.51807,154473
11.52618,132107
11.53430,112967
11.54243,90177
11.55055,87456
11.55868,74769
11.56680,72318
11.57492,68319
11.58305,65720
11.59117,62969
11.59930,74965
11.60742,91548
11.61553,120299
11.62367,143040
11.63178,148349
11.63990,128494
11.64803,116449
11.65615,83653
11.66428,67131
11.67240,58258
11.68052,57958
11.68865,53592
11.69677,56015
11.70490,52955
11.71302,54021
11.72113,53544
11.72927,53895
11.73738,51543
11.74550,48059
11.75363,49252
11.76175,44181
11.76988,45258
11.77800,44237
11.78612,44103
11.79425,45404
11.80237,46984
11.81050,48188
11.81862,45640
11.82673,43216
11.83487,48304
11.84298,58720
11.85112,63623
11.85923,74462
11.86735,77436
11.87548,71392
11.88360,66203
11.89172,57564
11.89985,47143
11.90797,44926
11.91610,45318
11.92422,46278
11.93233,48864
11.94047,48496
11.94858,47907
11.95672,42776
11.96483,41490
11.97295,41111
11.98108,42829
11.98920,46346
11.99733,60288
12.00545,71378
12.01357,84399
12.02170,81113
12.02982,77160
12.03793,65140
12.04607,59181
12.05418,51434
12.06232,47431
12.07043,43643
12.07855,42684
12.08668,41696
12.09480,40389
12.10293,42082
12.11105,45772
12.11917,53621
12.12730,56204
12.13542,59802
12.14353,57699
12.15167,57889
12.15978,51504
12.16792,46488
12.17603,44831
12.18415,42332
12.19228,40270
12.20040,35923
12.20853,45687
12.21665,43621
12.22477,42879
12.23290,41536
12.24102,42575
12.24915,41275
12.25727,39366
12.26538,40012
12.27352,42789
12.28163,38149
12.28975,38141
12.29788,37625
12.30600,38124
12.31413,41678
12.32225,33568
12.33037,36265
12.33850,39697
12.34662,38603
12.35475,40805
12.36287,36767
12.37098,39496
12.37912,40669
12.38723,37056
12.39535,37691
12.40348,39528
12.41160,45324
12.41973,56208
12.42785,70370
12.43597,72388
12.44410,73265
12.45222,66546
12.46035,69421
12.46847,55815
12.47658,49616
12.48472,45697
12.49283,49257
12.50097,44150
12.50908,43266
12.51720,44056
12.52533,37671
12.53345,42179
12.54157,47838
12.54970,47755
12.55782,55250
12.56595,66120
12.57407,68993
12.58218,68523
12.59032,59573
12.59843,54454
12.60657,50694
12.61468,44858
12.62280,42715
12.63093,39913
12.63905,45380
12.64718,39726
12.65530,37904
12.66342,40865
12.67155,38535
12.67967,37187
12.68778,36116
12.69592,38853
12.70403,35953
12.71217,37923
12.72028,41728
12.72840,46275
12.73653,54093
12.74465,55901
12.75278,53750
12.76090,46981
12.76902,51960
12.77715,39080
12.78527,40307
12.79340,40515
12.80152,36381
12.80963,36193
12.81777,37446
12.82588,32993
12.83400,32085
12.84213,36399
12.85025,35218
12.85838,34022
12.86650,37258
12.87462,34281
12.88275,33962
12.89087,33885
12.89900,32058
12.90712,32962
12.91523,34317
12.92337,31929
12.93148,34173
12.93960,32676
12.94773,31374
12.95585,30574
12.96398,31036
12.97210,37081
12.98022,37912
12.98835,38611
12.99647,38800
13.00460,38499
13.01272,35855
13.02083,32252
13.02897,30161
13.03708,31536
13.04522,32245
13.05333,32686
13.06145,36228
13.06958,34701
13.07770,32574
13.08582,37612
13.09395,35248
13.10207,32860
13.11020,37063
13.11832,31401
13.12643,34263
13.13457,31456
13.14268,31896
13.15082,32567
13.15893,30974
13.16705,34194
13.17518,35987
13.18330,35397
13.19142,35037
13.19955,36755
13.20767,35877
13.21580,36392
13.22392,39297
13.23203,36734
13.24017,36885
13.24828,36651
13.25642,38972
13.26453,34838
13.27265,35346
13.28078,37297
13.28890,34047
13.29703,36172
13.30515,33055
13.31327,30531
13.32140,31595
13.32952,31027
13.33763,30114
13.34577,29821
13.35388,31332
13.36202,30152
13.37013,33375
13.37825,30929
13.38638,29986
13.39450,28782
13.40263,29096
13.41075,28503
13.41887,30002
13.42700,31298
13.43512,28438
13.44325,32694
13.45137,34119
13.45948,31397
13.46762,30704
13.47573,31865
13.48385,32235
13.49198,28857
13.50010,37148
13.50823,33010
13.51635,35137
13.52447,30314
13.53260,30645
13.54072,33230
13.54885,33736
13.55697,32875
13.56508,33115
13.57322,32336
13.58133,36693
13.58945,35641
13.59758,34335
13.60570,38523
13.61383,39462
13.62195,40748
13.63007,44700
13.63820,43755
13.64632,40894
13.65445,34914
13.66257,31778
13.67068,30682
13.67882,30831
13.68693,29501
13.69507,30203
13.70318,29861
13.71130,32942
13.71943,31279
13.72755,34666
13.73567,32120
13.74380,38817
13.75192,47099
13.76005,72473
13.76817,90191
13.77628,129932
13.78442,163830
13.79253,178133
13.80067,187362
13.80878,173625
13.81690,169264
13.82503,155161
13.83315,163080
13.84128,166401
13.84940,159852
13.85752,140379
13.86565,123467
13.87377,97134
13.88188,84766
13.89002,73811
13.89813,65119
13.90627,55987
13.91438,51112
13.92250,50925
13.93063,47182
13.93875,44338
13.94688,49538
13.95500,56547
13.96312,74425
13.97125,95189
13.97937,136283
13.98748,167958
13.99562,168392
14.00373,152803
14.01187,138193
14.01998,98822
14.02810,78805
14.03623,67756
14.04435,58102
14.05248,55198
14.06060,56398
14.06872,59047
14.07685,53823
14.08497,57672
14.09310,51004
14.10122,48090
14.10933,45216
14.11747,43666
14.12558,46202
14.13370,46117
14.14183,49457
14.14995,47607
14.15808,47190
14.16620,46409
14.17432,48685
14.18245,48788
14.19057,56856
14.19870,66600
14.20682,81944
14.21493,98767
14.22307,116439
14.23118,127623
14.23930,130225
14.24743,124429
14.25555,122450
14.26368,113923
14.27180,112696
14.27992,98781
14.28805,86631
14.29617,77699
14.30430,72414
14.31242,63265
14.32053,64165
14.32867,61012
14.33678,59218
14.34492,65289
14.35303,59018
14.36115,52057
14.36928,51348
14.37740,45578
14.38552,44964
14.39365,42596
14.40177,43334
14.40990,48815
14.41802,54054
14.42613,58927
14.43427,62920
14.44238,63992
14.45052,54356
14.45863,52693
14.46675,47234
14.47488,44173
14.48300,45833
14.49113,41063
14.49925,39405
14.50737,41953
14.51550,43168
14.52362,46139
14.53173,42424
14.53987,42716
14.54798,43660
14.55612,36522
14.56423,41768
14.57235,35287
14.58048,38249
14.58860,35676
14.59673,38745
14.60485,37717
14.61297,37370
14.62110,33357
14.62922,32194
14.63733,36913
14.64547,31898
14.65358,32145
14.66172,32306
14.66983,33045
14.67795,30131
14.68608,30718
14.69420,28171
14.70233,30761
14.71045,35510
14.71857,31919
14.72670,31414
14.73482,32705
14.74295,37035
14.75107,36268
14.75918,36749
14.76732,35899
14.77543,35950
14.78355,42550
14.79168,61098
14.79980,135819
14.80793,353278
14.81605,842768
14.82417,1846813
14.83230,2941459
14.84042,3769641
14.84855,3716423
14.85667,2976758
14.86478,2040787
14.87292,1297880
14.88103,758403
14.88917,494884
14.89728,358874
14.90540,303754
14.91353,256749
14.92165,226605
14.92977,205131
14.93790,178172
14.94602,161557
14.95415,155462
14.96227,147854
14.97038,133736
14.97852,129485
14.98663,123982
14.99477,120698
15.00288,112828
15.01100,107710
15.01913,112197
15.02725,101290
15.03537,94313
15.04350,89283
15.05162,86803
15.05975,86086
15.06787,88236
15.07598,79335
15.08412,74923
15.09223,73266
15.10037,74047
15.10848,71969
15.11660,68567
15.12473,73098
15.13285,74339
15.14098,88985
15.14910,87622
15.15722,97266
15.16535,87027
15.17347,77034
15.18158,66880
15.18972,56310
15.19783,55220
15.20597,48452
15.21408,54229
15.22220,49600
15.23033,45399
15.23845,46953
15.24658,41283
15.25470,42876
15.26282,41701
15.27095,42471
15.27907,37627
15.28720,37347
15.29532,38742
15.30343,40300
15.31157,37159
15.31968,37415
15.32780,40983
15.33593,39110
15.34405,38434
15.35218,38723
15.36030,34697
15.36842,37612
15.37655,35693
15.38467,38674
15.39280,41286
15.40092,42995
15.40903,42669
15.41717,38450
15.42528,34808
15.43340,40832
15.44153,36752
15.44965,37755
15.45778,36336
15.46590,38851
15.47402,41435
15.48215,47939
15.49027,54070
15.49840,61175
15.50652,68679
15.51463,68162
15.52277,67493
15.53088,65085
15.53902,56865
15.54713,53345
15.55525,51459
15.56338,47930
15.57150,43950
15.57962,42493
15.58775,41450
15.59587,37570
15.60400,42299
15.61212,37549
15.62023,35831
15.62837,35310
15.63648,34647
15.64462,35658
15.65273,39331
15.66085,36711
15.66898,35717
15.67710,36886
15.68522,31658
15.69335,34023
15.70147,33071
15.70960,33353
15.71772,34311
15.72583,32537
15.73397,38752
15.74208,33978
15.75022,34428
15.75833,45561
15.76645,69528
15.77458,113048
15.78270,174002
15.79083,243875
15.79895,285179
15.80707,278503
15.81520,226342
15.82332,162978
15.83143,112763
15.83957,82820
15.84768,76294
15.85582,65220
15.86393,61032
15.87205,60387
15.88018,51137
15.88830,50750
15.89643,46635
15.90455,48671
15.91267,46819
15.92080,46860
15.92892,45458
15.93705,48798
15.94517,47596
15.95328,45126
15.96142,47433
15.96953,51775
15.97765,61064
15.98578,72601
15.99390,65848
16.00203,67821
16.01015,69864
16.01827,72836
16.02640,74644
16.03452,79737
16.04265,71504
16.05077,67914
16.05888,63782
16.06702,54695
16.07513,53451
16.08325,46562
16.09138,44117
16.09950,43878
16.10763,41716
16.11575,43564
16.12387,41930
16.13200,45295
16.14012,43745
16.14825,46000
16.15637,50794
16.16448,43465
16.17262,42644
16.18073,43652
16.18887,39270
16.19698,35821
16.20510,37803
16.21323,38384
16.22135,41713
16.22947,43171
16.23760,44670
16.24572,45285
16.25385,38816
16.26197,36511
16.27008,37477
16.27822,40659
16.28633,39931
16.29447,37938
16.30258,42840
16.31070,42457
16.31883,46755
16.32695,43894
16.33508,43745
16.34320,42497
16.35132,45693
16.35945,53719
16.36757,65283
16.37568,72464
16.38382,84410
16.39193,87877
16.40007,82209
16.40818,71046
16.41630,57605
16.42443,51710
16.43255,49220
16.44068,48714
16.44880,63096
16.45692,103870
16.46505,202808
16.47317,389344
16.48128,622902
16.48942,815028
16.49753,872705
16.50567,732580
16.51378,506885
16.52190,327363
16.53003,207207
16.53815,143257
16.54628,110742
16.55440,98306
16.56252,93718
16.57065,85561
16.57877,79144
16.58690,70458
16.59502,70625
16.60313,76631
16.61127,76137
16.61938,78401
16.62750,79478
16.63563,71221
16.64375,65233
16.65188,60765
16.66000,62705
16.66812,54094
16.67625,55214
16.68437,47442
16.69250,46676
16.70062,48763
16.70873,48320
16.71687,44045
16.72498,43482
16.73310,43303
16.74123,42345
16.74935,47232
16.75748,44687
16.76560,49278
16.77372,56357
16.78185,50650
16.78997,50870
16.79810,47582
16.80622,46464
16.81433,44365
16.82247,43726
16.83058,40463
16.83872,34448
16.84683,37708
16.85495,39017
16.86308,37237
16.87120,33406
16.87932,32536
16.88745,32084
16.89557,31184
16.90370,35572
16.91182,36242
16.91993,34445
16.92807,38359
16.93618,35456
16.94432,36029
16.95243,38926
16.96055,35790
16.96868,33188
16.97680,36767
16.98493,35685
16.99305,36285
17.00117,32882
17.00930,35257
17.01742,32720
17.02553,37034
17.03367,32851
17.04178,38827
17.04992,38903
17.05803,40697
17.06615,46031
17.07428,43491
17.08240,45436
17.09053,38848
17.09865,36480
17.10677,37698
17.11490,34821
17.12302,36492
17.13115,34944
17.13927,34927
17.14738,37422
17.15552,35322
17.16363,36427
17.17175,36993
17.17988,36575
17.18800,37332
17.19613,37027
17.20425,36089
17.21237,36937
17.22050,34483
17.22862,36584
17.23675,34081
17.24487,37408
17.25298,35808
17.26112,38263
17.26923,35743
17.27735,34788
17.28548,40945
17.29360,32350
17.30173,38018
17.30985,34052
17.31797,41951
17.32610,42180
17.33422,39487
17.34235,43402
17.35047,42388
17.35858,44068
17.36672,43834
17.37483,45667
17.38297,45982
17.39108,45043
17.39920,45050
17.40733,44506
17.41545,40418
17.42357,43170
17.43170,41541
17.43982,42029
17.44795,40732
17.45607,43314
17.46418,35694
17.47232,41569
17.48043,37866
17.48857,39251
17.49668,42914
17.50480,36222
17.51293,36198
17.52105,36691
17.52917,36958
17.53730,38683
17.54542,38346
17.55355,40805
17.56167,44469
17.56978,61453
17.57792,91216
17.58603,148591
17.59417,232534
17.60228,326938
17.61040,407979
17.61853,455477
17.62665,424336
17.63478,358601
17.64290,288917
17.65102,245810
17.65915,235481
17.66727,252299
17.67538,269558
17.68352,264344
17.69163,224930
17.69977,180498
17.70788,147997
17.71600,117601
17.72413,93844
17.73225,84186
17.74038,80125
17.74850,70064
17.75662,67947
17.76475,62595
17.77287,60220
17.78100,59652
17.78912,61722
17.79723,61611
17.80537,78157
17.81348,97882
17.82160,135648
17.82973,167698
17.83785,188771
17.84598,180099
17.85410,171933
17.86222,140206
17.87035,113018
17.87847,101699
17.88660,87102
17.89472,75383
17.90283,66969
17.91097,66704
17.91908,58462
17.92720,53305
17.93533,52269
17.94345,52866
17.95158,50522
17.95970,46634
17.96782,45135
17.97595,48008
17.98407,47496
17.99220,45568
18.00032,47817
18.00843,46216
18.01657,48990
18.02468,54862
18.03282,58730
18.04093,69769
18.04905,78862
18.05718,108652
18.06530,188715
18.07342,393181
18.08155,774025
18.08967,1312109
18.09780,1838731
18.10592,2013000
18.11403,1884686
18.12217,1517628
18.13028,1095514
18.13842,769500
18.14653,572609
18.15465,452140
18.16278,371049
18.17090,328506
18.17903,289863
18.18715,264745
18.19527,247285
18.20340,224032
18.21152,201458
18.21963,182731
18.22777,163664
18.23588,156657
18.24402,146254
18.25213,138358
18.26025,138488
18.26838,119215
18.27650,108459
18.28463,99338
18.29275,86376
18.30087,79549
18.30900,60098
18.31712,56008
18.32523,50567
18.33337,52958
18.34148,45546
18.34962,50843
18.35773,48079
18.36585,45352
18.37398,48174
18.38210,47275
18.39023,45310
18.39835,47199
18.40647,42249
18.41460,44337
18.42272,44733
18.43085,46213
18.43897,52331
18.44708,57786
18.45522,70251
18.46333,89107
18.47145,114467
18.47958,145666
18.48770,166265
18.49583,173929
18.50395,166614
18.51207,140273
18.52020,106288
18.52832,84508
18.53645,79076
18.54457,65217
18.55268,59070
18.56082,52050
18.56893,52938
18.57705,48779
18.58518,49480
18.59330,50390
18.60143,50529
18.60955,52388
18.61767,49794
18.62580,51616
18.63392,51134
18.64205,44673
18.65017,45843
18.65828,45078
18.66642,44369
18.67453,42863
18.68267,41916
18.69078,35772
18.69890,40737
18.70703,47884
18.71515,88308
18.72327,117165
18.73140,157451
18.73952,180069
18.74765,187808
18.75577,203508
18.76388,200251
18.77202,203268
18.78013,204052
18.78827,210736
18.79638,211841
18.80450,207089
18.81263,219674
18.82075,211143
18.82888,216345
18.83700,222076
18.84512,216736
18.85325,219099
18.86137,219378
18.86948,211892
18.87762,210588
18.88573,213942
18.89387,206692
18.90198,211151
18.91010,206109
18.91823,207107
18.92635,206060
18.93448,213545
18.94260,213972
18.95072,212317
18.95885,219940
18.96697,217255
18.97508,213384
18.98322,211528
18.99133,204179
18.99947,200728
19.00758,199152
19.01570,195454
19.02383,210282
19.03195,190696
19.04008,188694
19.04820,188787
19.05632,191064
19.06445,197987
19.07257,183490
19.08070,189978
19.08882,196512
19.09693,202681
19.10507,220375
19.11318,228855
19.12130,220831
19.12943,224281
19.13755,219642
19.14568,203551
19.15380,197973
19.16192,195824
19.17005,192099
19.17817,194559
19.18630,195471
19.19442,192136
19.20253,195803
19.21067,188627
19.21878,178305
19.22692,183027
19.23503,176455
19.24315,170694
19.25128,173127
19.25940,167824
19.26752,166775
19.27565,169916
19.28377,177228
19.29190,176925
19.30002,193451
19.30813,191167
19.31627,188540
19.32438,183911
19.33252,180634
19.34063,169720
19.34875,177571
19.35688,178563
19.36500,186402
19.37312,194669
19.38125,223378
19.38937,218338
19.39750,204055
19.40562,194141
19.41373,177161
19.42187,167524
19.42998,152971
19.43812,157868
19.44623,144943
19.45435,155251
19.46248,147989
19.47060,149016
19.47873,146178
19.48685,140351
19.49497,153415
19.50310,153500
19.51122,162372
19.51933,181055
19.52747,199220
19.53558,202923
19.54372,188480
19.55183,184276
19.55995,165819
19.56808,147043
19.57620,139730
19.58433,135492
19.59245,133945
19.60057,122624
19.60870,120889
19.61682,126196
19.62495,126425
19.63307,133318
19.64118,143124
19.64932,162663
19.65743,193000
19.66555,248624
19.67368,300745
19.68180,353663
19.68993,363267
19.69805,331632
19.70617,310983
19.71430,259331
19.72242,237923
19.73055,203204
19.73867,192104
19.74678,175680
19.75492,159581
19.76303,149551
19.77115,148986
19.77928,133995
19.78740,137662
19.79553,140785
19.80365,140796
19.81177,143233
19.81990,135729
19.82802,131314
19.83615,139171
19.84427,156715
19.85238,266936
19.86052,674149
19.86863,1953046
19.87677,4880699
19.88488,1.022563E+07
19.89300,1.72408E+07
19.90113,2.46865E+07
19.90925,2.908143E+07
19.91737,2.944809E+07
19.92550,2.595126E+07
19.93362,1.990336E+07
19.94175,1.353851E+07
19.94987,8806671
19.95798,6180417
19.96612,4587996
19.97423,3853676
19.98237,3333572
19.99048,2984887
19.99860,2644312
20.00673,2450304
20.01485,2275412
20.02297,2125916
20.03110,1955071
20.03922,1754475
20.04735,1561269
20.05547,1329832
20.06358,1045716
20.07172,810647
20.07983,634494
20.08797,493716
20.09608,431720
20.10420,397718
20.11233,363850
20.12045,352899
20.12858,323554
20.13670,303613
20.14482,303070
20.15295,294146
20.16107,290108
20.16918,300384
20.17732,319781
20.18543,313901
20.19357,309084
20.20168,304770
20.20980,305583
20.21793,282039
20.22605,279203
20.23418,260040
20.24230,258756
20.25042,264958
20.25855,288948
20.26667,344679
20.27480,426189
20.28292,518385
20.29103,573841
20.29917,608099
20.30728,560683
20.31540,495039
20.32353,406240
20.33165,327352
20.33978,269596
20.34790,231409
20.35602,195285
20.36415,178414
20.37227,155242
20.38040,134512
20.38852,129426
20.39663,122864
20.40477,115803
20.41288,117045
20.42100,109848
20.42913,116117
20.43725,123747
20.44538,126882
20.45350,139657
20.46162,135414
20.46975,141802
20.47787,132335
20.48600,125805
20.49412,116223
20.50223,109827
20.51037,101085
20.51848,100454
20.52662,97598
20.53473,95756
20.54285,95183
20.55098,93901
20.55910,91150
20.56722,91641
20.57535,97757
20.58347,89797
20.59160,84747
20.59972,81867
20.60783,79719
20.61597,82451
20.62408,83342
20.63222,83362
20.64033,78880
20.64845,82385
20.65658,81795
20.66470,74659
20.67283,81028
20.68095,84650
20.68907,77223
20.69720,81541
20.70532,77363
20.71343,78264
20.72157,73283
20.72968,74255
20.73782,74105
20.74593,78486
20.75405,77616
20.76218,75583
20.77030,74532
20.77843,85507
20.78655,86639
20.79467,99871
20.80280,116174
20.81092,146100
20.81903,178245
20.82717,195040
20.83528,195323
20.84342,175510
20.85153,141367
20.85965,112849
20.86778,97228
20.87590,90420
20.88403,81713
20.89215,79003
20.90027,78683
20.90840,73259
20.91652,77320
20.92465,75441
20.93277,76719
20.94088,75667
20.94902,82608
20.95713,75408
20.96525,71747
20.97338,76856
20.98150,71029
20.98963,67806
20.99775,71525
21.00587,69364
21.01400,70004
21.02212,75141
21.03025,69776
21.03837,70499
21.04648,70703
21.05462,74998
21.06273,71366
21.07085,72457
21.07898,71090
21.08710,70502
21.09523,65714
21.10335,65823
21.11147,64342
21.11960,64511
21.12772,72035
21.13585,73470
21.14397,77774
21.15208,82683
21.16022,89746
21.16833,100319
21.17647,97788
21.18458,88760
21.19270,91392
21.20083,83913
21.20895,77264
21.21707,73916
21.22520,72668
21.23332,71721
21.24145,70570
21.24957,67711
21.25768,63157
21.26582,67733
21.27393,65882
21.28207,63839
21.29018,60463
21.29830,65509
21.30643,58133
21.31455,60417
21.32268,60102
21.33080,61087
21.33892,59833
21.34705,58019
21.35517,59548
21.36328,59331
21.37142,60345
21.37953,64218
21.38767,59345
21.39578,71787
21.40390,84822
21.41203,82935
21.42015,94087
21.42828,97462
21.43640,91283
21.44452,82656
21.45265,77756
21.46077,73487
21.46888,66528
21.47702,65218
21.48513,59357
21.49327,58046
21.50138,54838
21.50950,54180
21.51763,51989
21.52575,51127
21.53388,49073
21.54200,49323
21.55012,50110
21.55825,47050
21.56637,51204
21.57450,51706
21.58262,54176
21.59073,56466
21.59887,57997
21.60698,62093
21.61510,61682
21.62323,58627
21.63135,55911
21.63948,60496
21.64760,69659
21.65572,73649
21.66385,78865
21.67197,82103
21.68010,83535
21.68822,72367
21.69633,76334
21.70447,65159
21.71258,60370
21.72072,57671
21.72883,51249
21.73695,56881
21.74508,56436
21.75320,50362
21.76132,49617
21.76945,51971
21.77757,48447
21.78570,49800
21.79382,50672
21.80193,46423
21.81007,44910
21.81818,52963
21.82632,53935
21.83443,59993
21.84255,67692
21.85068,75288
21.85880,77590
21.86692,85578
21.87505,79134
21.88317,74136
21.89130,67044
21.89942,62219
21.90753,55542
21.91567,53964
21.92378,49857
21.93192,50897
21.94003,48786
21.94815,50870
21.95628,48278
21.96440,39613
21.97253,46808
21.98065,44208
21.98877,40045
21.99690,41880
22.00502,43186
22.01313,38618
22.02127,36945
22.02938,43563
22.03752,38927
22.04563,40928
22.05375,46270
22.06188,45300
22.07000,44125
22.07813,42583
22.08625,44619
22.09437,41290
22.10250,41865
22.11062,40105
22.11873,46486
22.12687,37858
22.13498,43673
22.14312,43331
22.15123,44437
22.15935,40577
22.16748,40317
22.17560,40717
22.18373,41372
22.19185,43563
22.19997,43046
22.20810,42003
22.21622,44690
22.22435,55459
22.23247,70981
22.24058,76893
22.24872,83135
22.25683,87218
22.26495,91414
22.27308,94255
22.28120,98607
22.28933,98578
22.29745,98457
22.30557,108114
22.31370,119925
22.32182,122063
22.32995,144488
22.33807,168596
22.34618,175952
22.35432,177416
22.36243,163059
22.37057,147283
22.37868,130706
22.38680,127368
22.39493,130530
22.40305,135661
22.41117,147491
22.41930,157472
22.42742,165863
22.43555,154018
22.44367,148216
22.45178,139887
22.45992,126874
22.46803,120472
22.47617,109505
22.48428,114479
22.49240,113309
22.50053,116401
22.50865,116112
22.51678,112113
22.52490,114420
22.53302,111240
22.54115,104839
22.54927,110232
22.55738,104519
22.56552,102665
22.57363,100139
22.58177,93553
22.58988,89893
22.59800,92915
22.60613,83035
22.61425,83859
22.62238,82866
22.63050,82298
22.63862,87529
22.64675,80157
22.65487,88169
22.66298,87060
22.67112,88479
22.67923,97702
22.68737,93191
22.69548,91371
22.70360,98957
22.71173,92811
22.71985,87678
22.72798,85942
22.73610,79220
22.74422,70418
22.75235,69497
22.76047,61020
22.76860,59941
22.77672,62126
22.78483,62499
22.79297,72658
22.80108,72172
22.80920,83272
22.81733,90616
22.82545,86011
22.83358,83899
22.84170,76851
22.84982,72678
22.85795,67615
22.86607,62751
22.87420,65874
22.88232,66772
22.89043,72470
22.89857,72620
22.90668,74860
22.91480,90702
22.92293,104127
22.93105,117402
22.93918,132664
22.94730,132572
22.95542,124938
22.96355,104102
22.97167,96848
22.97980,95150
22.98792,106603
22.99603,115647
23.00417,122758
23.01228,130809
23.02042,142223
23.02853,130801
23.03665,129459
23.04478,128512
23.05290,137457
23.06102,131901
23.06915,140262
23.07727,148517
23.08540,141368
23.09352,137084
23.10163,137763
23.10977,134062
23.11788,134253
23.12602,138395
23.13413,132398
23.14225,144311
23.15038,133632
23.15850,143065
23.16663,134664
23.17475,132418
23.18287,134127
23.19100,126386
23.19912,128287
23.20723,130221
23.21537,133424
23.22348,129470
23.23162,130454
23.23973,137234
23.24785,146583
23.25598,157631
23.26410,163476
23.27223,181014
23.28035,169953
23.28847,164381
23.29660,144869
23.30472,143095
23.31283,131736
23.32097,125457
23.32908,127195
23.33722,126072
23.34533,139319
23.35345,164110
23.36158,185859
23.36970,248860
23.37783,326353
23.38595,425185
23.39407,529966
23.40220,671377
23.41032,779470
23.41845,879569
23.42657,914838
23.43468,931822
23.44282,917119
23.45093,900124
23.45905,870788
23.46718,800721
23.47530,749881
23.48343,709335
23.49155,633110
23.49967,579658
23.50780,548582
23.51592,487273
23.52405,466292
23.53217,436605
23.54028,398628
23.54842,368501
23.55653,358022
23.56467,336506
23.57278,318144
23.58090,323744
23.58903,315604
23.59715,316032
23.60527,323866
23.61340,327273
23.62152,310058
23.62965,297047
23.63777,315028
23.64588,345432
23.65402,419799
23.66213,529648
23.67027,627210
23.67838,682628
23.68650,648044
23.69463,559784
23.70275,453736
23.71087,369940
23.71900,309098
23.72712,263473
23.73525,234139
23.74337,208444
23.75148,205086
23.75962,223655
23.76773,305632
23.77587,498525
23.78398,822465
23.79210,1263860
23.80023,1637968
23.80835,1881453
23.81648,1814326
23.82460,1551345
23.83272,1243596
23.84085,977255
23.84897,762768
23.85708,609859
23.86522,504829
23.87333,442500
23.88147,368883
23.88958,336744
23.89770,316808
23.90583,294498
23.91395,281747
23.92208,266804
23.93020,249851
23.93832,234827
23.94645,232169
23.95457,223043
23.96268,215580
23.97082,196496
23.97893,189302
23.98707,188697
23.99518,183204
24.00330,177425
24.01143,167744
24.01955,177053
24.02768,175796
24.03580,181633
24.04392,186356
24.05205,185012
24.06017,188232
24.06830,172905
24.07642,159600
24.08453,156932
24.09267,159108
24.10078,144287
24.10890,143073
24.11703,141365
24.12515,127568
24.13328,121282
24.14140,125079
24.14952,116583
24.15765,119738
24.16577,117943
24.17390,114511
24.18202,116784
24.19013,114406
24.19827,102558
24.20638,108615
24.21452,106537
24.22263,104155
24.23075,110990
24.23888,95235
24.24700,92066
24.25512,98461
24.26325,91317
24.27137,84355
24.27950,85749
24.28762,81193
24.29573,83037
24.30387,87707
24.31198,79552
24.32012,85481
24.32823,81489
24.33635,79599
24.34448,76279
24.35260,76706
24.36072,75080
24.36885,75250
24.37697,80219
24.38510,74541
24.39322,73647
24.40133,86008
24.40947,94623
24.41758,105354
24.42572,103936
24.43383,96995
24.44195,89854
24.45008,75478
24.45820,78384
24.46633,79530
24.47445,85352
24.48257,89934
24.49070,96873
24.49882,113734
24.50693,121870
24.51507,125831
24.52318,149147
24.53132,163517
24.53943,181484
24.54755,174312
24.55568,164189
24.56380,150716
24.57193,137970
24.58005,127075
24.58817,108472
24.59630,100298
24.60442,88163
24.61255,84372
24.62067,77487
24.62878,74467
24.63692,72896
24.64503,72807
24.65315,73273
24.66128,73854
24.66940,91431
24.67753,133565
24.68565,164274
24.69377,185204
24.70190,194282
24.71002,200135
24.71815,212875
24.72627,214337
24.73438,218803
24.74252,220626
24.75063,227742
24.75875,225477
24.76688,233814
24.77500,229293
24.78313,228636
24.79125,224046
24.79937,227322
24.80750,235414
24.81562,237670
24.82375,236301
24.83187,242729
24.83998,255096
24.84812,258565
24.85623,289250
24.86437,321799
24.87248,377233
24.88060,437605
24.88873,523304
24.89685,590421
24.90497,601366
24.91310,574270
24.92122,514270
24.92935,425390
24.93747,345802
24.94558,308478
24.95372,268743
24.96183,244266
24.96997,245550
24.97808,233726
24.98620,230396
24.99433,235033
25.00245,231579
25.01057,221880
25.01870,217657
25.02682,216220
25.03495,214057
25.04307,210135
25.05118,205788
25.05932,202721
25.06743,211593
25.07557,197758
25.08368,201767
25.09180,207026
25.09993,215336
25.10805,243093
25.11618,335425
25.12430,525936
25.13242,882746
25.14055,1324863
25.14867,1721861
25.15678,1984474
25.16492,1962003
25.17303,1574259
25.18117,1166688
25.18928,819859
25.19740,553621
25.20553,395962
25.21365,298607
25.22178,256677
25.22990,242050
25.23802,223709
25.24615,231008
25.25427,229098
25.26240,244764
25.27052,252976
25.27863,252002
25.28677,237296
25.29488,202086
25.30300,168922
25.31113,141457
25.31925,125261
25.32738,114233
25.33550,103016
25.34362,98431
25.35175,91960
25.35987,85761
25.36800,87308
25.37612,79594
25.38423,76414
25.39237,73814
25.40048,74777
25.40860,73608
25.41673,71052
25.42485,67647
25.43298,67829
25.44110,65900
25.44922,67940
25.45735,66719
25.46547,66685
25.47360,65001
25.48172,64267
25.48983,69652
25.49797,61427
25.50608,65031
25.51422,66977
25.52233,59602
25.53045,57330
25.53858,60208
25.54670,60664
25.55482,57241
25.56295,57878
25.57107,52034
25.57920,56875
25.58732,56084
25.59543,54813
25.60357,53762
25.61168,55320
25.61982,57845
25.62793,57645
25.63605,58023
25.64418,56406
25.65230,62500
25.66043,61259
25.66855,63035
25.67667,77080
25.68480,83563
25.69292,113977
25.70103,172210
25.70917,211865
25.71728,256343
25.72542,278619
25.73353,289833
25.74165,297453
25.74978,310185
25.75790,308709
25.76603,303515
25.77415,301489
25.78227,298439
25.79040,314675
25.79852,307336
25.80663,298712
25.81477,312986
25.82288,311508
25.83102,311271
25.83913,315560
25.84725,303560
25.85538,302561
25.86350,309108
25.87163,305638
25.87975,294759
25.88787,302044
25.89600,281717
25.90412,288151
25.91225,289427
25.92037,286118
25.92848,282743
25.93662,274042
25.94473,269562
25.95285,268516
25.96098,268245
25.96910,265898
25.97723,269891
25.98535,259124
25.99347,249171
26.00160,253606
26.00972,254976
26.01785,249841
26.02597,250030
26.03408,237486
26.04222,245676
26.05033,231200
26.05847,230363
26.06658,227189
26.07470,237060
26.08283,233347
26.09095,238104
26.09907,230639
26.10720,229737
26.11532,219904
26.12345,227137
26.13157,230200
26.13968,228398
26.14782,216567
26.15593,228139
26.16407,226572
26.17218,218268
26.18030,222877
26.18843,215792
26.19655,212769
26.20467,214374
26.21280,203663
26.22092,199871
26.22905,194611
26.23717,192451
26.24528,195485
26.25342,190553
26.26153,184015
26.26967,184775
26.27778,181188
26.28590,181661
26.29403,180796
26.30215,177986
26.31028,169163
26.31840,165848
26.32652,176960
26.33465,175903
26.34277,163978
26.35088,165776
26.35902,167217
26.36713,167799
26.37527,168017
26.38338,167920
26.39150,176110
26.39963,182611
26.40775,174455
26.41588,174690
26.42400,171402
26.43212,160374
26.44025,162835
26.44837,156236
26.45648,152141
26.46462,146475
26.47273,149302
26.48087,139688
26.48898,137731
26.49710,142578
26.50523,133305
26.51335,135471
26.52148,136669
26.52960,133513
26.53772,130415
26.54585,127357
26.55397,123053
26.56210,122029
26.57022,116932
26.57833,121628
26.58647,126608
26.59458,124690
26.60270,122669
26.61083,119599
26.61895,114498
26.62708,112961
26.63520,106689
26.64332,111517
26.65145,113772
26.65957,115881
26.66770,114503
26.67582,115963
26.68393,119435
26.69207,125690
26.70018,124830
26.70832,115954
26.71643,107320
26.72455,106069
26.73268,99126
26.74080,98295
26.74892,95338
26.75705,97122
26.76517,95193
26.77330,100201
26.78142,103546
26.78953,99214
26.79767,95875
26.80578,97404
26.81392,100539
26.82203,97191
26.83015,102252
26.83828,100473
26.84640,96111
26.85452,94856
26.86265,92872
26.87077,92792
26.87890,88039
26.88702,87082
26.89513,91596
26.90327,81411
26.91138,84053
26.91952,84827
26.92763,83164
26.93575,84930
26.94388,84666
26.95200,78830
26.96013,78471
26.96825,80717
26.97637,80669
26.98450,92543
26.99262,119089
27.00073,147329
27.00887,202516
27.01698,269890
27.02512,343146
27.03323,402884
27.04135,416813
27.04948,399135
27.05760,355340
27.06573,306248
27.07385,262900
27.08197,221087
27.09010,189168
27.09822,166034
27.10635,154554
27.11447,142225
27.12258,138471
27.13072,124238
27.13883,122952
27.14695,124400
27.15508,115291
27.16320,118390
27.17133,112360
27.17945,106300
27.18757,111168
27.19570,108871
27.20382,114123
27.21195,110810
27.22007,112538
27.22818,97663
27.23632,91395
27.24443,87076
27.25255,86107
27.26068,81306
27.26880,89867
27.27693,82848
27.28505,80852
27.29317,78811
27.30130,74935
27.30942,81460
27.31755,75220
27.32567,73041
27.33378,74674
27.34192,68948
27.35003,76658
27.35817,72884
27.36628,76099
27.37440,76017
27.38253,69856
27.39065,72578
27.39877,80414
27.40690,73217
27.41502,63488
27.42315,58472
27.43127,69183
27.43938,63277
27.44752,61216
27.45563,61088
27.46377,62956
27.47188,66794
27.48000,62271
27.48813,64796
27.49625,67479
27.50437,62983
27.51250,57830
27.52062,66003
27.52875,65439
27.53687,59472
27.54498,60726
27.55312,61921
27.56123,59602
27.56937,65864
27.57748,63484
27.58560,67213
27.59373,74986
27.60185,75233
27.60998,79156
27.61810,79872
27.62622,75311
27.63435,66409
27.64247,71964
27.65058,62865
27.65872,60740
27.66683,58841
27.67497,53170
27.68308,51982
27.69120,55240
27.69933,53701
27.70745,52899
27.71558,54638
27.72370,55831
27.73182,52259
27.73995,57063
27.74807,59388
27.75620,52675
27.76432,51409
27.77243,47326
27.78057,47409
27.78868,52841
27.79680,58559
27.80493,55388
27.81305,58593
27.82118,58261
27.82930,58841
27.83742,56005
27.84555,59038
27.85367,58260
27.86180,58819
27.86992,50929
27.87803,50614
27.88617,55048
27.89428,51479
27.90242,50737
27.91053,53222
27.91865,57517
27.92678,46785
27.93490,48233
27.94302,47846
27.95115,49858
27.95927,49536
27.96740,46115
27.97552,47148
27.98363,48574
27.99177,48042
27.99988,48352
28.00802,48230
28.01613,52260
28.02425,53608
28.03238,49904
28.04050,58101
28.04862,48172
28.05675,52335
28.06487,53410
28.07300,55076
28.08112,50867
28.08923,52698
28.09737,56695
28.10548,53940
28.11362,56081
28.12173,51710
28.12985,56335
28.13798,47513
28.14610,50133
28.15423,47935
28.16235,49222
28.17047,44706
28.17860,47772
28.18672,52879
28.19483,54278
28.20297,55547
28.21108,60764
28.21922,66165
28.22733,70723
28.23545,76033
28.24358,77293
28.25170,75973
28.25983,64796
28.26795,56121
28.27607,51582
28.28420,57168
28.29232,50160
28.30043,46415
28.30857,49719
28.31668,52603
28.32482,58072
28.33293,60699
28.34105,57378
28.34918,61556
28.35730,72246
28.36543,75791
28.37355,80953
28.38167,80477
28.38980,89373
28.39792,90293
28.40605,93320
28.41417,92851
28.42228,89981
28.43042,86575
28.43853,85815
28.44665,75154
28.45478,77592
28.46290,71213
28.47103,74653
28.47915,65468
28.48727,61627
28.49540,70574
28.50352,60149
28.51165,62499
28.51977,61039
28.52788,60079
28.53602,61791
28.54413,60470
28.55227,58056
28.56038,56075
28.56850,54887
28.57663,55994
28.58475,57555
28.59287,50438
28.60100,53422
28.60912,55367
28.61725,50459
28.62537,48469
28.63348,52401
28.64162,49701
28.64973,53591
28.65787,59294
28.66598,59212
28.67410,63780
28.68223,60904
28.69035,60281
28.69847,56888
28.70660,54316
28.71472,55033
28.72285,49488
28.73097,47992
28.73908,54961
28.74722,48859
28.75533,47622
28.76347,52948
28.77158,51976
28.77970,58480
28.78783,55831
28.79595,63425
28.80408,60362
28.81220,62498
28.82032,60528
28.82845,61647
28.83657,62272
28.84468,59965
28.85282,56744
28.86093,57014
28.86907,51195
28.87718,51976
28.88530,58540
28.89343,61927
28.90155,64121
28.90968,67770
28.91780,66298
28.92592,62900
28.93405,60125
28.94217,61632
28.95030,65177
28.95842,64001
28.96653,68628
28.97467,69787
28.98278,68016
28.99090,59856
28.99903,62641
29.00715,55653
29.01528,50007
29.02340,48787
29.03152,48864
29.03965,43408
29.04777,49085
29.05590,48933
29.06402,47276
29.07213,51844
29.08027,51003
29.08838,51448
29.09650,55008
29.10463,48116
29.11275,54336
29.12088,50339
29.12900,53238
29.13712,49856
29.14525,52060
29.15337,50923
29.16150,46947
29.16962,47417
29.17773,50141
29.18587,51981
29.19398,58885
29.20212,72451
29.21023,72813
29.21835,85419
29.22648,89810
29.23460,84578
29.24272,79106
29.25085,76462
29.25897,67973
29.26710,58146
29.27522,59087
29.28333,50009
29.29147,49040
29.29958,54163
29.30772,48186
29.31583,44974
29.32395,44342
29.33208,45190
29.34020,43194
29.34832,42907
29.35645,45150
29.36457,43822
29.37270,45417
29.38082,42114
29.38893,42510
29.39707,45039
29.40518,41768
29.41332,48580
29.42143,43861
29.42955,47919
29.43768,47798
29.44580,46513
29.45393,46455
29.46205,51151
29.47017,41774
29.47830,41078
29.48642,45154
29.49453,43533
29.50267,50433
29.51078,47586
29.51892,51479
29.52703,52128
29.53515,50815
29.54328,49607
29.55140,49982
29.55953,48323
29.56765,52301
29.57577,45208
29.58390,42243
29.59202,41833
29.60015,41744
29.60827,43608
29.61638,45961
29.62452,41425
29.63263,37045
29.64075,44941
29.64888,50848
29.65700,43045
29.66513,47636
29.67325,44987
29.68137,47709
29.68950,46201
29.69762,48201
29.70575,48996
29.71387,48934
29.72198,50694
29.73012,47456
29.73823,46054
29.74635,43164
29.75448,42902
29.76260,41916
29.77073,40775
29.77885,41925
29.78697,40061
29.79510,40568
29.80322,36599
29.81135,43263
29.81947,40833
29.82758,42734
29.83572,38416
29.84383,41145
29.85197,40017
29.86008,43188
29.86820,44585
29.87633,59698
29.88445,76174
29.89257,98949
29.90070,128512
29.90882,166978
29.91695,167860
29.92507,146038
29.93318,127012
29.94132,99700
29.94943,78530
29.95757,63685
29.96568,59263
29.97380,54155
29.98193,55030
29.99005,54022
29.99818,59959
30.00630,54680
30.01442,56373
30.02255,63564
30.03067,62153
30.03878,65901
30.04692,60337
30.05503,62784
30.06317,65909
30.07128,63663
30.07940,69229
30.08753,64748
30.09565,68227
30.10378,61478
30.11190,65109
30.12002,59718
30.12815,62643
30.13627,55888
30.14438,61356
30.15252,59089
30.16063,60940
30.16877,58976
30.17688,59992
30.18500,55814
30.19313,57040
30.20125,49744
30.20938,53560
30.21750,53235
30.22562,53593
30.23375,57242
30.24187,50940
30.25000,52927
30.25812,49915
30.26623,52419
30.27437,46526
30.28248,48621
30.29060,45006
30.29873,44219
30.30685,50439
30.31498,50593
30.32310,46997
30.33122,48003
30.33935,44888
30.34747,47728
30.35560,44302
30.36372,50256
30.37183,52022
30.37997,50020
30.38808,46690
30.39620,44882
30.40433,43317
30.41245,46951
30.42058,45936
30.42870,46507
30.43682,45037
30.44495,42785
30.45307,51861
30.46120,49064
30.46932,47393
30.47743,53525
30.48557,50110
30.49368,49692
30.50182,48736
30.50993,48680
30.51805,55565
30.52618,53008
30.53430,46951
30.54242,50161
30.55055,50212
30.55867,57833
30.56680,52194
30.57492,56384
30.58303,56897
30.59117,52331
30.59928,53326
30.60742,52327
30.61553,55842
30.62365,52460
30.63178,50418
30.63990,51922
30.64803,47232
30.65615,49459
30.66427,52082
30.67240,53462
30.68052,48506
30.68863,47847
30.69677,48572
30.70488,47484
30.71302,49003
30.72113,48259
30.72925,54942
30.73738,49799
30.74550,49083
30.75363,48413
30.76175,50860
30.76987,54641
30.77800,47816
30.78612,56064
30.79423,61637
30.80237,77684
30.81048,80855
30.81862,92873
30.82673,95612
30.83485,86606
30.84298,80998
30.85110,68363
30.85923,62445
30.86735,54190
30.87547,53219
30.88360,49329
30.89172,49521
30.89985,46960
30.90797,49281
30.91608,50363
30.92422,52512
30.93233,46419
30.94045,42946
30.94858,45585
30.95670,44025
30.96483,46887
30.97295,48836
30.98107,48570
30.98920,48252
30.99732,43241
31.00545,47077
31.01357,49487
31.02168,44206
31.02982,47871
31.03793,46980
31.04607,53494
31.05418,49777
31.06230,49877
31.07043,53386
31.07855,61493
31.08667,70323
31.09480,103985
31.10292,134892
31.11105,159257
31.11917,174922
31.12728,184525
31.13542,158275
31.14353,123647
31.15167,88683
31.15978,76126
31.16790,65767
31.17603,60224
31.18415,60420
31.19227,64238
31.20040,73332
31.20852,83488
31.21665,96814
31.22477,112953
31.23288,131145
31.24102,131579
31.24913,114143
31.25727,99721
31.26538,81748
31.27350,60965
31.28163,52566
31.28975,49166
31.29788,58072
31.30600,51823
31.31412,48065
31.32225,50635
31.33037,56760
31.33848,54240
31.34662,57430
31.35473,64839
31.36287,70444
31.37098,75776
31.37910,76272
31.38723,95156
31.39535,95718
31.40348,101094
31.41160,92608
31.41972,88572
31.42785,78276
31.43597,74970
31.44410,76225
31.45222,74732
31.46033,74894
31.46847,69898
31.47658,77318
31.48470,69125
31.49283,74434
31.50095,72193
31.50908,70994
31.51720,74818
31.52532,74033
31.53345,74451
31.54157,74588
31.54970,71445
31.55782,77436
31.56593,70049
31.57407,70459
31.58218,68992
31.59030,71239
31.59843,70719
31.60655,72307
31.61468,75244
31.62280,71542
31.63092,71256
31.63905,65259
31.64717,69580
31.65530,75278
31.66342,72200
31.67153,74201
31.67967,77731
31.68778,67294
31.69592,72653
31.70403,69427
31.71215,68082
31.72028,65280
31.72840,65802
31.73652,64091
31.74465,65496
31.75277,59405
31.76090,61316
31.76902,63988
31.77713,59294
31.78527,60369
31.79338,61489
31.80152,69535
31.80963,63151
31.81775,61632
31.82588,62779
31.83400,65325
31.84212,60961
31.85025,63472
31.85837,68158
31.86650,75501
31.87462,65877
31.88273,74859
31.89087,68739
31.89898,76002
31.90712,75857
31.91523,74139
31.92335,76629
31.93148,88816
31.93960,78907
31.94773,76697
31.95585,75237
31.96397,75517
31.97210,73837
31.98022,73652
31.98833,74734
31.99647,83532
32.00458,77000
32.01272,79621
32.02083,71862
32.02895,78621
32.03708,74756
32.04520,70820
32.05333,69131
32.06145,64415
32.06957,67847
32.07770,65097
32.08582,64568
32.09395,66564
32.10207,57159
32.11018,59155
32.11832,58937
32.12643,61666
32.13455,56528
32.14268,56814
32.15080,62341
32.15893,54947
32.16705,56582
32.17517,54339
32.18330,59756
32.19142,49716
32.19955,55608
32.20767,52359
32.21578,57301
32.22392,54852
32.23203,54854
32.24015,51723
32.24828,53170
32.25640,58341
32.26453,54234
32.27265,57288
32.28077,56238
32.28890,60384
32.29702,55707
32.30515,52572
32.31327,57833
32.32138,51591
32.32952,48544
32.33763,51304
32.34577,52298
32.35388,54618
32.36200,50880
32.37013,50930
32.37825,50382
32.38637,48192
32.39450,54809
32.40262,46584
32.41075,49581
32.41887,47997
32.42698,49197
32.43512,52367
32.44323,45176
32.45137,45004
32.45948,47462
32.46760,48881
32.47573,48721
32.48385,44272
32.49198,48279
32.50010,48672
32.50822,43556
32.51635,45003
32.52447,44277
32.53258,44619
32.54072,47456
32.54883,45273
32.55697,45741
32.56508,47704
32.57320,46182
32.58133,42266
32.58945,45507
32.59758,47758
32.60570,43321
32.61382,44972
32.62195,46614
32.63007,44025
32.63818,42548
32.64632,45341
32.65443,39101
32.66257,44971
32.67068,51301
32.67880,48193
32.68693,55226
32.69505,51141
32.70318,57047
32.71130,55773
32.71942,49697
32.72755,50963
32.73567,44605
32.74380,45329
32.75192,43440
32.76003,43970
32.76817,45424
32.77628,45931
32.78440,41648
32.79253,43630
32.80065,41917
32.80878,42502
32.81690,43401
32.82502,42825
32.83315,44166
32.84127,51367
32.84940,44214
32.85752,45330
32.86563,44574
32.87377,44058
32.88188,43386
32.89000,46192
32.89813,42621
32.90625,41172
32.91438,46851
32.92250,44536
32.93062,45114
32.93875,50128
32.94687,43086
32.95500,43520
32.96312,46758
32.97123,49209
32.97937,49206
32.98748,55200
32.99562,50982
33.00373,60717
33.01185,56393
33.01998,62304
33.02810,59704
33.03622,58123
33.04435,52229
33.05247,49829
33.06060,50401
33.06872,51948
33.07683,57100
33.08497,59330
33.09308,63056
33.10122,65259
33.10933,78103
33.11745,77820
33.12558,84163
33.13370,83848
33.14183,85193
33.14995,72188
33.15807,66458
33.16620,56514
33.17432,57398
33.18243,49742
33.19057,46512
33.19868,47523
33.20682,41546
33.21493,42310
33.22305,43636
33.23118,47863
33.23930,48176
33.24743,49318
33.25555,46556
33.26367,47072
33.27180,44239
33.27992,42946
33.28805,46017
33.29617,42552
33.30428,42886
33.31242,46720
33.32053,45214
33.32865,41010
33.33678,45602
33.34490,46943
33.35303,48251
33.36115,46831
33.36927,44113
33.37740,47706
33.38552,45615
33.39365,48799
33.40177,46612
33.40988,44726
33.41802,42053
33.42613,48121
33.43425,39924
33.44238,43477
33.45050,40650
33.45863,43272
33.46675,42488
33.47487,37567
33.48300,45550
33.49112,44975
33.49925,44452
33.50737,41453
33.51548,42994
33.52362,45713
33.53173,45712
33.53987,45770
33.54798,48304
33.55610,53448
33.56423,51552
33.57235,56309
33.58047,51961
33.58860,49275
33.59672,47961
33.60485,43976
33.61297,38551
33.62108,41744
33.62922,44765
33.63733,44276
33.64547,49984
33.65358,43683
33.66170,46688
33.66983,45566
33.67795,41907
33.68607,48448
33.69420,50681
33.70232,43005
33.71045,43318
33.71857,44757
33.72668,43900
33.73482,42888
33.74293,44493
33.75107,44649
33.75918,39555
33.76730,41497
33.77543,41703
33.78355,40628
33.79168,44055
33.79980,43384
33.80792,43281
33.81605,44923
33.82417,42294
33.83228,48075
33.84042,45208
33.84853,48645
33.85667,51787
33.86478,47566
33.87290,46406
33.88103,48655
33.88915,50441
33.89728,49611
33.90540,44171
33.91352,47862
33.92165,46901
33.92977,48887
33.93790,44226
33.94602,45665
33.95413,45666
33.96227,45223
33.97038,46182
33.97850,41269
33.98663,42674
33.99475,43320
34.00288,47332
34.01100,48538
34.01912,46284
34.02725,42906
34.03537,45306
34.04350,43882
34.05162,42253
34.05973,48689
34.06787,47383
34.07598,48526
34.08410,46751
34.09223,44869
34.10035,41917
34.10848,50212
34.11660,50962
34.12472,43110
34.13285,45257
34.14097,41665
34.14910,42300
34.15722,42498
34.16533,45578
34.17347,44358
34.18158,42454
34.18972,40593
34.19783,46881
34.20595,49807
34.21408,43149
34.22220,44333
34.23032,42436
34.23845,44954
34.24657,43150
34.25470,47576
34.26282,43061
34.27093,43255
34.27907,44470
34.28718,41149
34.29532,43478
34.30343,44256
34.31155,44108
34.31968,44315
34.32780,44046
34.33593,47713
34.34405,45291
34.35217,48885
34.36030,42640
34.36842,44040
34.37653,47555
34.38467,48008
34.39278,41015
34.40092,45112
34.40903,50326
34.41715,49283
34.42528,45404
34.43340,45295
34.44153,42115
34.44965,43920
34.45777,45656
34.46590,42996
34.47402,43851
34.48213,43567
34.49027,43683
34.49838,44580
34.50652,41952
34.51463,44381
34.52275,45106
34.53088,48554
34.53900,48431
34.54713,47746
34.55525,50889
34.56337,55300
34.57150,56210
34.57962,61015
34.58775,55502
34.59587,53919
34.60398,55176
34.61212,53900
34.62023,52787
34.62835,49563
34.63648,51014
34.64460,55571
34.65273,50764
34.66085,51939
34.66897,52158
34.67710,46790
34.68522,50585
34.69335,53955
34.70147,47586
34.70958,47970
34.71772,44037
34.72583,46602
34.73395,48404
34.74208,45739
34.75020,45958
34.75833,48292
34.76645,49535
34.77457,47480
34.78270,46512
34.79082,45795
34.79895,48836
34.80707,45363
34.81518,42324
34.82332,49869
34.83143,44292
34.83957,45773
34.84768,48393
34.85580,49096
34.86393,43649
34.87205,44508
34.88017,44888
34.88830,45735
34.89642,51730
34.90455,48335
34.91267,45628
34.92078,47581
34.92892,54517
34.93703,52069
34.94517,63517
34.95328,89392
34.96140,139430
34.96953,207717
34.97765,285523
34.98578,382277
34.99390,393071
35.00202,336742
35.01015,245394
35.01827,168185
35.02638,110952
35.03452,79353
35.04263,63389
35.05077,63095
35.05888,63156
35.06700,60857
35.07513,53589
35.08325,59929
35.09138,59209
35.09950,56210
35.10762,55495
35.11575,57338
35.12387,59675
35.13198,53184
35.14012,54563
35.14823,55328
35.15637,55627
35.16448,50206
35.17260,50130
35.18073,54577
35.18885,54478
35.19698,53322
35.20510,54300
35.21322,52465
35.22135,48433
35.22947,49506
35.23760,48293
35.24572,52139
35.25383,45571
35.26197,51700
35.27008,49996
35.27820,50371
35.28633,52206
35.29445,51545
35.30258,50627
35.31070,48815
35.31882,48190
35.32695,47294
35.33507,46114
35.34320,46800
35.35132,52266
35.35943,44884
35.36757,47655
35.37568,46249
35.38382,50245
35.39193,48109
35.40005,51319
35.40818,57815
35.41630,48544
35.42442,52279
35.43255,49194
35.44067,48002
35.44880,51612
35.45692,50467
35.46503,52165
35.47317,48386
35.48128,52365
35.48942,52079
35.49753,58692
35.50565,49754
35.51378,52147
35.52190,54171
35.53002,51506
35.53815,51493
35.54627,50077
35.55440,55330
35.56252,50852
35.57063,50507
35.57877,49019
35.58688,52984
35.59502,51179
35.60313,50698
35.61125,49785
35.61938,46718
35.62750,49295
35.63563,47633
35.64375,48134
35.65187,49343
35.66000,51439
35.66812,47804
35.67623,49803
35.68437,51718
35.69248,55722
35.70062,51081
35.70873,50721
35.71685,50025
35.72498,48347
35.73310,52837
35.74123,49476
35.74935,54209
35.75747,50652
35.76560,54676
35.77372,51786
35.78183,53955
35.78997,56343
35.79808,54659
35.80622,52928
35.81433,50860
35.82245,48993
35.83058,45616
35.83870,48257
35.84683,48433
35.85495,51756
35.86307,53093
35.87120,48910
35.87932,52995
35.88745,49614
35.89557,51171
35.90368,51072
35.91182,51567
35.91993,47769
35.92805,50466
35.93618,50046
35.94430,47833
35.95243,49602
35.96055,45994
35.96867,50755
35.97680,48431
35.98492,53370
35.99305,52607
36.00117,54297
36.00928,50401
36.01742,56091
36.02553,51234
36.03367,52130
36.04178,54284
36.04990,52532
36.05803,51259
36.06615,51424
36.07427,55374
36.08240,50353
36.09052,49741
36.09865,49083
36.10677,49380
36.11488,49683
36.12302,46883
36.13113,50342
36.13927,49141
36.14738,53082
36.15550,52699
36.16363,53383
36.17175,50869
36.17987,53190
36.18800,53436
36.19612,53789
36.20425,52339
36.21237,49928
36.22048,45136
36.22862,49124
36.23673,49950
36.24487,47814
36.25298,51607
36.26110,50247
36.26923,49692
36.27735,48724
36.28548,52663
36.29360,53913
36.30172,48954
36.30985,53068
36.31797,62754
36.32608,55461
36.33422,60548
36.34233,54991
36.35047,54027
36.35858,57442
36.36670,54642
36.37483,51390
36.38295,52298
36.39108,51924
36.39920,47813
36.40732,51543
36.41545,52444
36.42357,54971
36.43170,53699
36.43982,52272
36.44793,55046
36.45607,53230
36.46418,52862
36.47230,50819
36.48043,45774
36.48855,49124
36.49668,47276
36.50480,52703
36.51292,50317
36.52105,46825
36.52917,50692
36.53730,51163
36.54542,54108
36.55353,49519
36.56167,52207
36.56978,57180
36.57790,46915
36.58603,53602
36.59415,51447
36.60228,50810
36.61040,51376
36.61852,52067
36.62665,51189
36.63477,47242
36.64290,48663
36.65102,47144
36.65913,53237
36.66727,50255
36.67538,50745
36.68352,49776
36.69163,54067
36.69975,57666
36.70788,55282
36.71600,51589
36.72412,51227
36.73225,51242
36.74037,53036
36.74850,48506
36.75662,52600
36.76473,52059
36.77287,48478
36.78098,46221
36.78912,53604
36.79723,55412
36.80535,61252
36.81348,58251
36.82160,60967
36.82973,65872
36.83785,62282
36.84597,62826
36.85410,63080
36.86222,73750
36.87033,67607
36.87847,73636
36.88658,68414
36.89472,68674
36.90283,69667
36.91095,66116
36.91908,70917
36.92720,72559
36.93533,68400
36.94345,69728
36.95157,77312
36.95970,77495
36.96782,82107
36.97593,81030
36.98407,78091
36.99218,83226
37.00032,79792
37.00843,70757
37.01655,71910
37.02468,68480
37.03280,73590
37.04093,69420
37.04905,67224
37.05717,68473
37.06530,66950
37.07342,74720
37.08155,69340
37.08967,72595
37.09778,71545
37.10592,68303
37.11403,69777
37.12215,69661
37.13028,69003
37.13840,77142
37.14653,65842
37.15465,67585
37.16277,65843
37.17090,66691
37.17902,65230
37.18715,70807
37.19527,68052
37.20338,68718
37.21152,67045
37.21963,65741
37.22775,70031
37.23588,64671
37.24400,65402
37.25213,66723
37.26025,62850
37.26837,68471
37.27650,66313
37.28462,66451
37.29275,65662
37.30087,64966
37.30898,71711
37.31712,67304
37.32523,63437
37.33337,67842
37.34148,65276
37.34960,66756
37.35773,68282
37.36585,69980
37.37397,67745
37.38210,70931
37.39022,70210
37.39835,67856
37.40647,71684
37.41458,66968
37.42272,69178
37.43083,63985
37.43897,66871
37.44708,63265
37.45520,68604
37.46333,66629
37.47145,62420
37.47958,67798
37.48770,65986
