C:\MassHunter\GCMS\1\data\JTB-E18\JTB-E18-036-08.D Thu Oct 17 14:43:05 2019
Start of data points
2.09517,240944
2.10330,235930
2.11142,227444
2.11955,214808
2.12767,203933
2.13578,199938
2.14392,188647
2.15203,191046
2.16017,176036
2.16828,176587
2.17640,167438
2.18453,167711
2.19265,159883
2.20077,155678
2.20890,151039
2.21702,141643
2.22515,144071
2.23327,133271
2.24138,142792
2.24952,140857
2.25763,159330
2.26577,613166
2.27388,2089638
2.28200,1929407
2.29013,940474
2.29825,611820
2.30638,504060
2.31450,448399
2.32262,392891
2.33075,360737
2.33887,325415
2.34698,294406
2.35512,279226
2.36323,260485
2.37137,254512
2.37948,263469
2.38760,258244
2.39573,229708
2.40385,219135
2.41198,214866
2.42010,220597
2.42822,209568
2.43635,199541
2.44447,211835
2.45258,194852
2.46072,188304
2.46883,182645
2.47697,175638
2.48508,180342
2.49320,181728
2.50133,166857
2.50945,166960
2.51758,171564
2.52570,166604
2.53382,154256
2.54195,161341
2.55007,183230
2.55820,198890
2.56632,184872
2.57443,167771
2.58257,152203
2.59068,160136
2.59880,155577
2.60693,176634
2.61505,195233
2.62318,186049
2.63130,171904
2.63942,165045
2.64755,143941
2.65567,153579
2.66380,144124
2.67192,156138
2.68003,161566
2.68817,154365
2.69628,143394
2.70442,140605
2.71253,139166
2.72065,134041
2.72878,134641
2.73690,131689
2.74502,129459
2.75315,128523
2.76127,128262
2.76940,126201
2.77752,142179
2.78563,163209
2.79377,153429
2.80188,142125
2.81002,153423
2.81813,194600
2.82625,278213
2.83438,343226
2.84250,269690
2.85062,211077
2.85875,187077
2.86687,186549
2.87500,165040
2.88312,152997
2.89123,146916
2.89937,140620
2.90748,135348
2.91562,132078
2.92373,131384
2.93185,127927
2.93998,126996
2.94810,117801
2.95623,120968
2.96435,116447
2.97247,115133
2.98060,117318
2.98872,116576
2.99683,124950
3.00497,126808
3.01308,131266
3.02122,190847
3.02933,349622
3.03745,532632
3.04558,1055132
3.05370,3183427
3.06183,5229052
3.06995,4085336
3.07807,2267638
3.08620,1515182
3.09432,1667143
3.10245,3481627
3.11057,5190110
3.11868,4206468
3.12682,2607137
3.13493,1852001
3.14305,1433224
3.15118,1116738
3.15930,934633
3.16743,822249
3.17555,774480
3.18367,972314
3.19180,1416749
3.19992,1465108
3.20805,1084729
3.21617,836490
3.22428,705018
3.23242,603711
3.24053,521736
3.24865,469404
3.25678,415523
3.26490,372826
3.27303,355856
3.28115,424747
3.28927,723344
3.29740,1357038
3.30552,1900263
3.31365,1909488
3.32177,1539371
3.32988,1207595
3.33802,1006748
3.34613,849026
3.35427,759600
3.36238,720308
3.37050,774781
3.37863,897565
3.38675,873501
3.39487,824374
3.40300,1167566
3.41112,2028947
3.41925,2395071
3.42737,1781704
3.43548,1156353
3.44362,838191
3.45173,703685
3.45987,624034
3.46798,575792
3.47610,530344
3.48423,510895
3.49235,471190
3.50047,434810
3.50860,407952
3.51672,388244
3.52485,391764
3.53297,375761
3.54108,363737
3.54922,356443
3.55733,335900
3.56547,337450
3.57358,315585
3.58170,300584
3.58983,289904
3.59795,286352
3.60608,297478
3.61420,377625
3.62232,647733
3.63045,1113654
3.63857,1364326
3.64668,1108028
3.65482,790452
3.66293,940791
3.67107,1996603
3.67918,3343077
3.68730,3275645
3.69543,2339801
3.70355,1679892
3.71168,1330781
3.71980,1109432
3.72792,976992
3.73605,858057
3.74417,759806
3.75230,707825
3.76042,676429
3.76853,685463
3.77667,679675
3.78478,624477
3.79290,602082
3.80103,698474
3.80915,1062963
3.81728,1418470
3.82540,1327714
3.83352,1041883
3.84165,825096
3.84977,706919
3.85790,622107
3.86602,551244
3.87413,496990
3.88227,471257
3.89038,431684
3.89850,414951
3.90663,388148
3.91475,411331
3.92288,479095
3.93100,535225
3.93912,493983
3.94725,453038
3.95537,440041
3.96350,468405
3.97162,457790
3.97973,415691
3.98787,389055
3.99598,466124
4.00412,804027
4.01223,1289266
4.02035,1334978
4.02848,1024407
4.03660,724006
4.04472,536150
4.05285,437125
4.06097,380643
4.06910,348836
4.07722,314824
4.08533,302554
4.09347,274566
4.10158,257531
4.10972,250537
4.11783,250417
4.12595,244727
4.13408,273752
4.14220,352173
4.15033,446005
4.15845,451121
4.16657,383009
4.17470,310516
4.18282,274231
4.19093,246554
4.19907,273352
4.20718,750001
4.21532,3257439
4.22343,9087486
4.23155,1.579558E+07
4.23968,1.916855E+07
4.24780,1.677819E+07
4.25593,1.041779E+07
4.26405,5905558
4.27217,3829407
4.28030,2746241
4.28842,2044477
4.29653,1617449
4.30467,1331455
4.31278,1108727
4.32092,950310
4.32903,820387
4.33715,748230
4.34528,699462
4.35340,657526
4.36153,631365
4.36965,579563
4.37777,538950
4.38590,502394
4.39402,474994
4.40215,452802
4.41027,424742
4.41838,401565
4.42652,380658
4.43463,375076
4.44275,372684
4.45088,363554
4.45900,367421
4.46713,351304
4.47525,339443
4.48337,316419
4.49150,304678
4.49962,299335
4.50775,285818
4.51587,279252
4.52398,270895
4.53212,267032
4.54023,266444
4.54835,264521
4.55648,259839
4.56460,250277
4.57273,244851
4.58085,235597
4.58897,236085
4.59710,231222
4.60522,232929
4.61335,229654
4.62147,249308
4.62958,300323
4.63772,385373
4.64583,395898
4.65397,362321
4.66208,304963
4.67020,269875
4.67833,252326
4.68645,245310
4.69457,238298
4.70270,227966
4.71082,221476
4.71895,208417
4.72707,203771
4.73518,201762
4.74332,192747
4.75143,191630
4.75957,189647
4.76768,191737
4.77580,189139
4.78393,199400
4.79205,254179
4.80018,372454
4.80830,489612
4.81642,473563
4.82455,400126
4.83267,346136
4.84078,327269
4.84892,296049
4.85703,278834
4.86517,252367
4.87328,235855
4.88140,235802
4.88953,223496
4.89765,205121
4.90578,205290
4.91390,224448
4.92202,286597
4.93015,408280
4.93827,591616
4.94638,721279
4.95452,739324
4.96263,639532
4.97077,532805
4.97888,451270
4.98700,395996
4.99513,366830
5.00325,333498
5.01138,332496
5.01950,363959
5.02762,515382
5.03575,780252
5.04387,970910
5.05200,947706
5.06012,815789
5.06823,676260
5.07637,579040
5.08448,527856
5.09260,481426
5.10073,482674
5.10885,494815
5.11698,507684
5.12510,480226
5.13322,427471
5.14135,392488
5.14947,366127
5.15760,353806
5.16572,378553
5.17383,410410
5.18197,435955
5.19008,432215
5.19822,415944
5.20633,376099
5.21445,339663
5.22258,328049
5.23070,323813
5.23882,335096
5.24695,330575
5.25507,296201
5.26320,272421
5.27132,254826
5.27943,241991
5.28757,237937
5.29568,227514
5.30382,237568
5.31193,216408
5.32005,209691
5.32818,215876
5.33630,218389
5.34442,214154
5.35255,216589
5.36067,208689
5.36880,201507
5.37692,203401
5.38503,203915
5.39317,195363
5.40128,197769
5.40942,198250
5.41753,179687
5.42565,177787
5.43378,180650
5.44190,171027
5.45003,177282
5.45815,173181
5.46627,168373
5.47440,171992
5.48252,165804
5.49063,162492
5.49877,163640
5.50688,159701
5.51502,163450
5.52313,165405
5.53125,169756
5.53938,163376
5.54750,158245
5.55563,155002
5.56375,161142
5.57187,165626
5.58000,173456
5.58812,177408
5.59623,171114
5.60437,163642
5.61248,160384
5.62062,159365
5.62873,166287
5.63685,177133
5.64498,168879
5.65310,170144
5.66123,163977
5.66935,162217
5.67747,173323
5.68560,192532
5.69372,212348
5.70185,229093
5.70997,229533
5.71808,225953
5.72622,233036
5.73433,229096
5.74245,214377
5.75058,210366
5.75870,209572
5.76683,215495
5.77495,225242
5.78307,209364
5.79120,210539
5.79932,226655
5.80745,320452
5.81557,523876
5.82368,841992
5.83182,1119865
5.83993,1178914
5.84807,944836
5.85618,679712
5.86430,472299
5.87243,360907
5.88055,303206
5.88867,254853
5.89680,257055
5.90492,268921
5.91305,322150
5.92117,419653
5.92928,527160
5.93742,553691
5.94553,495108
5.95367,410878
5.96178,350627
5.96990,324626
5.97803,314903
5.98615,309267
5.99428,323203
6.00240,295426
6.01052,274339
6.01865,233617
6.02677,206277
6.03488,186766
6.04302,168879
6.05113,161642
6.05927,155666
6.06738,153777
6.07550,153259
6.08363,145619
6.09175,137711
6.09988,140172
6.10800,130162
6.11612,144660
6.12425,150919
6.13237,190523
6.14048,246489
6.14862,294936
6.15673,300661
6.16487,269120
6.17298,230052
6.18110,224351
6.18923,220732
6.19735,227001
6.20548,227715
6.21360,217251
6.22172,201265
6.22985,194316
6.23797,187253
6.24610,180973
6.25422,181311
6.26233,176238
6.27047,178633
6.27858,183981
6.28670,186803
6.29483,188627
6.30295,186635
6.31108,186539
6.31920,199958
6.32732,213470
6.33545,228030
6.34357,228857
6.35170,235919
6.35982,233296
6.36793,226936
6.37607,213450
6.38418,212816
6.39230,204211
6.40043,202323
6.40855,207185
6.41668,207349
6.42480,202539
6.43292,212221
6.44105,215236
6.44917,209065
6.45730,217763
6.46542,211908
6.47353,223266
6.48167,226375
6.48978,229027
6.49792,230131
6.50603,227786
6.51415,228185
6.52228,229387
6.53040,233092
6.53852,241454
6.54665,233824
6.55477,235657
6.56290,235033
6.57102,236080
6.57913,236217
6.58727,245410
6.59538,241540
6.60352,239977
6.61163,236582
6.61975,227907
6.62788,232599
6.63600,232724
6.64413,240123
6.65225,243349
6.66037,273968
6.66850,293217
6.67662,320468
6.68473,349275
6.69287,391058
6.70098,406590
6.70912,382720
6.71723,323270
6.72535,282995
6.73348,265257
6.74160,238159
6.74973,174115
6.75785,153700
6.76597,140656
6.77410,148478
6.78222,183022
6.79033,279002
6.79847,426264
6.80658,615475
6.81472,743680
6.82283,696414
6.83095,529758
6.83908,356422
6.84720,243279
6.85533,187300
6.86345,147638
6.87157,130860
6.87970,118409
6.88782,112916
6.89595,103022
6.90407,97578
6.91218,101903
6.92032,104866
6.92843,117466
6.93655,158145
6.94468,211311
6.95280,250798
6.96093,279299
6.96905,266428
6.97717,232011
6.98530,181585
6.99342,155111
7.00155,124948
7.00967,114268
7.01778,102943
7.02592,97065
7.03403,95612
7.04217,93177
7.05028,88303
7.05840,86458
7.06653,85247
7.07465,77738
7.08277,77254
7.09090,76855
7.09902,74592
7.10715,70445
7.11527,74246
7.12338,71867
7.13152,75621
7.13963,73683
7.14777,80444
7.15588,88712
7.16400,93382
7.17213,112804
7.18025,120112
7.18837,128862
7.19650,136494
7.20462,164313
7.21275,258071
7.22087,544502
7.22898,1056971
7.23712,1456350
7.24523,1439380
7.25337,1046806
7.26148,659165
7.26960,407910
7.27773,273627
7.28585,209901
7.29398,175111
7.30210,169377
7.31022,192231
7.31835,221672
7.32647,243187
7.33458,244899
7.34272,220956
7.35083,184238
7.35897,149111
7.36708,125262
7.37520,117437
7.38333,114490
7.39145,107713
7.39958,113104
7.40770,118158
7.41582,132319
7.42395,152247
7.43207,156766
7.44018,163568
7.44832,154706
7.45643,135701
7.46457,116050
7.47268,107139
7.48080,96351
7.48893,84243
7.49705,86545
7.50518,84647
7.51330,82576
7.52142,81040
7.52955,87291
7.53767,92785
7.54580,99512
7.55392,105642
7.56203,106078
7.57017,103787
7.57828,90135
7.58640,88344
7.59453,81938
7.60265,74974
7.61078,78518
7.61890,73719
7.62702,77012
7.63515,76242
7.64327,71312
7.65140,73786
7.65952,69257
7.66763,68136
7.67577,69463
7.68388,74798
7.69202,69951
7.70013,67830
7.70825,70640
7.71638,70030
7.72450,71169
7.73262,65333
7.74075,62684
7.74887,70953
7.75700,64779
7.76512,63469
7.77323,64276
7.78137,68102
7.78948,67415
7.79762,63303
7.80573,66140
7.81385,69482
7.82198,69060
7.83010,65601
7.83822,63504
7.84635,63797
7.85447,58614
7.86260,59431
7.87072,63264
7.87883,63913
7.88697,62461
7.89508,60844
7.90322,63326
7.91133,57378
7.91945,65945
7.92758,72726
7.93570,77064
7.94383,79816
7.95195,88546
7.96007,86494
7.96820,75663
7.97632,76795
7.98443,63373
7.99257,59452
8.00068,61008
8.00882,59939
8.01693,59816
8.02505,60649
8.03318,55175
8.04130,62329
8.04943,53527
8.05755,56716
8.06567,55657
8.07380,52901
8.08192,52075
8.09005,54949
8.09817,53762
8.10628,53206
8.11442,53865
8.12253,53058
8.13065,52943
8.13878,56427
8.14690,61737
8.15503,58095
8.16315,57290
8.17127,55737
8.17940,53754
8.18752,54182
8.19565,51156
8.20377,52421
8.21188,55732
8.22002,52004
8.22813,55286
8.23625,51370
8.24438,51918
8.25250,52415
8.26063,50171
8.26875,49274
8.27687,48471
8.28500,48491
8.29312,51714
8.30125,49753
8.30937,55172
8.31748,55570
8.32562,51915
8.33373,53386
8.34187,49721
8.34998,52595
8.35810,48393
8.36623,46267
8.37435,48340
8.38247,48485
8.39060,46756
8.39872,45534
8.40685,47123
8.41497,50722
8.42308,46303
8.43122,45432
8.43933,46207
8.44747,46481
8.45558,45759
8.46370,46722
8.47183,46381
8.47995,42737
8.48808,46232
8.49620,46719
8.50432,47416
8.51245,54085
8.52057,58674
8.52868,79840
8.53682,133162
8.54493,201800
8.55307,257218
8.56118,256176
8.56930,212199
8.57743,138998
8.58555,99598
8.59368,76517
8.60180,65616
8.60992,63731
8.61805,61737
8.62617,60946
8.63428,55246
8.64242,54300
8.65053,51959
8.65867,49492
8.66678,49455
8.67490,49469
8.68303,53439
8.69115,51717
8.69928,50461
8.70740,53514
8.71552,58975
8.72365,74469
8.73177,96929
8.73990,141371
8.74802,161357
8.75613,157282
8.76427,140976
8.77238,116359
8.78050,95960
8.78863,84824
8.79675,75808
8.80488,73281
8.81300,76270
8.82112,78265
8.82925,75103
8.83737,74679
8.84550,75288
8.85362,75238
8.86173,73191
8.86987,76933
8.87798,71413
8.88610,74004
8.89423,64904
8.90235,64901
8.91048,61073
8.91860,65224
8.92672,64784
8.93485,70199
8.94297,75241
8.95110,80489
8.95922,79591
8.96733,74960
8.97547,68438
8.98358,67913
8.99172,65659
8.99983,65519
9.00795,59550
9.01608,66950
9.02420,61787
9.03232,58721
9.04045,56689
9.04857,59127
9.05670,57885
9.06482,53337
9.07293,55114
9.08107,54287
9.08918,55596
9.09732,58779
9.10543,59367
9.11355,63291
9.12168,60983
9.12980,56729
9.13793,57555
9.14605,57149
9.15417,53036
9.16230,53322
9.17042,54869
9.17853,52148
9.18667,53776
9.19478,54453
9.20292,48262
9.21103,51604
9.21915,51248
9.22728,55610
9.23540,53663
9.24353,50914
9.25165,55251
9.25977,52250
9.26790,54505
9.27602,55107
9.28413,60889
9.29227,55309
9.30038,53085
9.30852,53183
9.31663,51640
9.32475,55277
9.33288,56059
9.34100,57819
9.34913,58781
9.35725,55013
9.36537,53503
9.37350,49363
9.38162,50861
9.38975,49197
9.39787,53742
9.40598,51629
9.41412,49392
9.42223,53318
9.43035,54703
9.43848,56901
9.44660,56399
9.45473,54697
9.46285,57113
9.47097,53339
9.47910,49832
9.48722,48373
9.49535,45887
9.50347,55809
9.51158,50357
9.51972,53845
9.52783,54406
9.53597,51258
9.54408,46433
9.55220,44648
9.56033,40324
9.56845,40646
9.57657,42049
9.58470,39576
9.59282,37600
9.60095,43123
9.60907,38959
9.61718,37042
9.62532,41122
9.63343,40863
9.64157,42678
9.64968,42551
9.65780,38208
9.66593,39664
9.67405,36895
9.68217,33825
9.69030,35981
9.69842,33856
9.70655,35652
9.71467,33197
9.72278,34598
9.73092,35109
9.73903,35975
9.74717,34086
9.75528,38066
9.76340,37853
9.77153,34333
9.77965,32083
9.78778,36904
9.79590,33109
9.80402,29505
9.81215,30080
9.82027,32717
9.82838,33251
9.83652,35689
9.84463,33326
9.85277,32872
9.86088,34429
9.86900,36267
9.87713,38300
9.88525,34927
9.89338,38728
9.90150,31930
9.90962,36913
9.91775,37009
9.92587,39464
9.93398,41083
9.94212,49590
9.95023,53015
9.95837,58845
9.96648,59257
9.97460,52513
9.98273,50883
9.99085,43901
9.99898,40435
10.00710,37165
10.01522,38496
10.02335,35247
10.03147,42718
10.03960,36466
10.04772,36389
10.05583,34525
10.06397,32231
10.07208,35738
10.08020,35619
10.08833,38854
10.09645,33251
10.10458,32723
10.11270,32232
10.12082,31122
10.12895,29972
10.13707,29860
10.14520,35939
10.15332,31658
10.16143,31417
10.16957,33643
10.17768,32951
10.18582,35160
10.19393,29706
10.20205,29725
10.21018,31843
10.21830,36063
10.22642,33618
10.23455,30015
10.24267,34690
10.25080,38056
10.25892,55210
10.26703,95844
10.27517,205138
10.28328,438477
10.29142,833338
10.29953,1380544
10.30765,2211307
10.31578,3441785
10.32390,5156548
10.33202,6523549
10.34015,6543120
10.34827,5235193
10.35640,3342335
10.36452,1835936
10.37263,1002518
10.38077,597798
10.38888,428884
10.39702,315268
10.40513,246983
10.41325,202837
10.42138,184376
10.42950,164344
10.43763,151237
10.44575,136665
10.45387,122177
10.46200,122823
10.47012,110237
10.47823,109283
10.48637,95062
10.49448,105244
10.50262,92690
10.51073,87500
10.51885,85106
10.52698,82677
10.53510,80513
10.54323,76484
10.55135,73569
10.55947,71530
10.56760,71560
10.57572,75548
10.58385,69671
10.59197,64850
10.60008,64688
10.60822,64033
10.61633,56326
10.62445,58768
10.63258,58980
10.64070,55686
10.64883,59283
10.65695,57154
10.66507,55607
10.67320,56530
10.68132,55253
10.68945,57012
10.69757,53217
10.70568,55867
10.71382,55009
10.72193,48831
10.73005,53017
10.73818,50253
10.74630,57002
10.75443,52446
10.76255,45635
10.77067,53109
10.77880,46746
10.78692,48142
10.79505,47219
10.80317,44417
10.81128,42624
10.81942,44474
10.82753,44321
10.83567,43530
10.84378,42946
10.85190,41014
10.86003,43800
10.86815,43932
10.87627,43389
10.88440,40508
10.89252,40826
10.90065,40830
10.90877,46283
10.91688,40247
10.92502,38198
10.93313,40923
10.94127,39613
10.94938,41798
10.95750,41682
10.96563,41196
10.97375,43121
10.98187,40935
10.99000,40102
10.99812,34538
11.00625,36638
11.01437,38983
11.02248,35139
11.03062,35462
11.03873,35626
11.04687,36434
11.05498,36414
11.06310,34184
11.07123,35953
11.07935,34666
11.08748,35818
11.09560,35464
11.10372,39795
11.11185,39633
11.11997,38324
11.12808,35635
11.13622,33818
11.14433,35126
11.15247,37854
11.16058,33015
11.16870,34235
11.17683,34132
11.18495,34162
11.19308,34528
11.20120,35666
11.20932,34569
11.21745,33570
11.22557,33528
11.23370,31214
11.24182,33237
11.24993,38060
11.25807,45234
11.26618,54001
11.27430,60668
11.28243,66710
11.29055,71175
11.29868,70416
11.30680,70447
11.31492,74313
11.32305,72438
11.33117,84528
11.33930,96018
11.34742,89951
11.35553,83339
11.36367,74149
11.37178,66110
11.37992,59066
11.38803,51855
11.39615,52283
11.40428,51491
11.41240,50302
11.42052,45424
11.42865,46043
11.43677,45332
11.44490,40646
11.45302,41312
11.46113,39672
11.46927,44496
11.47738,45199
11.48552,54680
11.49363,57586
11.50175,62980
11.50988,65226
11.51800,65344
11.52612,60244
11.53425,60549
11.54237,57826
11.55050,53184
11.55862,51146
11.56673,44927
11.57487,45839
11.58298,42599
11.59112,47416
11.59923,51002
11.60735,58396
11.61548,64301
11.62360,71777
11.63173,64827
11.63985,59362
11.64797,53711
11.65610,47496
11.66422,42727
11.67233,45205
11.68047,45919
11.68858,47798
11.69672,48719
11.70483,50003
11.71295,54219
11.72108,54076
11.72920,52032
11.73733,49603
11.74545,47352
11.75357,46670
11.76170,44673
11.76982,42066
11.77793,38608
11.78607,36882
11.79418,40810
11.80232,36313
11.81043,37751
11.81855,37055
11.82668,37894
11.83480,38054
11.84293,37602
11.85105,34352
11.85917,36153
11.86730,34546
11.87542,36028
11.88355,35636
11.89167,37487
11.89978,38344
11.90792,36617
11.91603,42738
11.92415,48515
11.93228,47279
11.94040,46358
11.94853,42568
11.95665,42883
11.96477,36755
11.97290,39084
11.98102,37841
11.98915,38911
11.99727,38451
12.00538,44444
12.01352,46846
12.02163,48965
12.02977,44069
12.03788,37065
12.04600,35567
12.05413,34053
12.06225,32768
12.07037,36519
12.07850,36499
12.08662,32505
12.09475,34230
12.10287,36045
12.11098,32953
12.11912,35670
12.12723,33186
12.13537,34169
12.14348,32186
12.15160,33346
12.15973,35085
12.16785,32797
12.17597,29822
12.18410,30818
12.19222,30557
12.20035,31413
12.20847,31457
12.21658,29653
12.22472,31218
12.23283,35226
12.24097,31816
12.24908,31330
12.25720,30547
12.26533,32852
12.27345,28502
12.28158,27294
12.28970,29165
12.29782,29232
12.30595,30016
12.31407,28232
12.32218,26099
12.33032,29343
12.33843,31710
12.34657,27760
12.35468,27029
12.36280,27848
12.37093,27820
12.37905,32513
12.38718,31217
12.39530,33129
12.40342,41476
12.41155,50717
12.41967,58166
12.42780,63192
12.43592,56018
12.44403,50461
12.45217,43137
12.46028,44483
12.46840,39291
12.47653,36316
12.48465,31141
12.49278,32513
12.50090,30923
12.50902,31458
12.51715,29341
12.52527,33726
12.53340,34094
12.54152,42296
12.54963,52899
12.55777,69354
12.56588,78323
12.57400,78978
12.58213,76516
12.59025,59791
12.59838,50223
12.60650,42180
12.61462,39622
12.62275,36112
12.63087,34886
12.63900,32930
12.64712,34952
12.65523,32141
12.66337,32673
12.67148,28667
12.67962,31104
12.68773,29806
12.69585,30135
12.70398,29448
12.71210,30974
12.72022,31156
12.72835,32887
12.73647,34764
12.74460,30134
12.75272,31700
12.76083,32305
12.76897,29227
12.77708,28039
12.78522,36032
12.79333,31911
12.80145,33591
12.80958,30624
12.81770,28217
12.82582,27474
12.83395,28107
12.84207,30475
12.85020,30331
12.85832,28565
12.86643,28113
12.87457,26915
12.88268,27685
12.89082,27781
12.89893,33554
12.90705,34358
12.91518,26194
12.92330,28841
12.93143,32756
12.93955,40524
12.94767,44833
12.95580,54806
12.96392,57175
12.97203,66812
12.98017,72828
12.98828,69348
12.99642,60408
13.00453,54080
13.01265,52458
13.02078,46816
13.02890,43491
13.03703,41948
13.04515,38360
13.05327,38291
13.06140,35686
13.06952,32403
13.07765,33966
13.08577,33930
13.09388,33964
13.10202,29536
13.11013,31848
13.11825,31267
13.12638,30422
13.13450,31277
13.14263,29289
13.15075,32218
13.15887,32343
13.16700,33791
13.17512,32191
13.18325,31666
13.19137,33074
13.19948,32019
13.20762,31285
13.21573,30154
13.22385,31390
13.23198,32979
13.24010,30775
13.24823,34964
13.25635,33814
13.26447,34556
13.27260,34064
13.28072,37075
13.28885,33677
13.29697,35316
13.30508,32100
13.31322,36281
13.32133,34658
13.32947,36061
13.33758,32765
13.34570,29598
13.35383,27789
13.36195,31790
13.37007,29788
13.37820,28913
13.38632,26109
13.39445,27825
13.40257,27508
13.41068,29182
13.41882,26962
13.42693,27562
13.43507,29440
13.44318,23843
13.45130,28459
13.45943,27126
13.46755,24377
13.47568,30481
13.48380,28056
13.49192,26697
13.50005,28063
13.50817,28907
13.51628,26787
13.52442,32100
13.53253,27280
13.54067,31581
13.54878,33405
13.55690,33246
13.56503,34417
13.57315,34649
13.58128,33093
13.58940,35820
13.59752,44979
13.60565,57689
13.61377,77048
13.62188,86251
13.63002,89750
13.63813,80837
13.64627,72281
13.65438,54941
13.66250,48283
13.67063,43721
13.67875,36981
13.68688,37428
13.69500,35197
13.70312,35572
13.71125,35261
13.71937,36412
13.72750,34842
13.73562,38954
13.74373,41431
13.75187,57614
13.75998,67139
13.76810,94758
13.77623,123878
13.78435,143989
13.79248,138882
13.80060,133309
13.80872,117739
13.81685,114159
13.82497,105282
13.83310,99677
13.84122,96390
13.84933,85642
13.85747,76114
13.86558,71243
13.87372,61733
13.88183,65698
13.88995,58289
13.89808,55829
13.90620,54438
13.91432,57158
13.92245,52124
13.93057,48918
13.93870,46428
13.94682,43701
13.95493,42088
13.96307,43392
13.97118,45810
13.97932,44837
13.98743,44328
13.99555,42197
14.00368,43309
14.01180,40604
14.01992,37298
14.02805,40629
14.03617,38716
14.04430,40017
14.05242,38839
14.06053,34354
14.06867,34549
14.07678,36691
14.08492,32934
14.09303,35113
14.10115,34176
14.10928,30887
14.11740,36285
14.12553,41874
14.13365,45977
14.14177,57173
14.14990,72215
14.15802,73492
14.16613,81593
14.17427,73319
14.18238,63927
14.19052,64021
14.19863,60079
14.20675,60517
14.21488,55830
14.22300,51186
14.23113,55225
14.23925,50749
14.24737,50691
14.25550,44755
14.26362,49065
14.27173,42798
14.27987,42837
14.28798,39763
14.29612,38876
14.30423,40506
14.31235,33223
14.32048,30625
14.32860,33289
14.33673,30916
14.34485,33731
14.35297,34887
14.36110,38445
14.36922,34252
14.37735,33299
14.38547,36041
14.39358,49866
14.40172,66540
14.40983,89898
14.41795,114673
14.42608,132707
14.43420,115535
14.44233,103956
14.45045,77631
14.45857,60766
14.46670,54788
14.47482,52612
14.48295,44445
14.49107,39546
14.49918,44168
14.50732,39874
14.51543,38698
14.52357,40027
14.53168,36208
14.53980,33573
14.54793,36628
14.55605,35962
14.56417,29366
14.57230,31667
14.58042,31760
14.58855,32836
14.59667,31436
14.60478,32608
14.61292,31189
14.62103,29328
14.62917,31049
14.63728,29643
14.64540,29071
14.65353,29977
14.66165,30922
14.66977,27581
14.67790,27813
14.68602,27835
14.69415,31352
14.70227,25552
14.71038,29994
14.71852,27284
14.72663,27374
14.73477,27961
14.74288,28352
14.75100,29859
14.75913,30307
14.76725,28589
14.77538,32184
14.78350,33729
14.79162,57547
14.79975,114011
14.80787,226566
14.81598,448301
14.82412,751322
14.83223,1010233
14.84037,1045696
14.84848,859668
14.85660,619883
14.86473,399753
14.87285,280135
14.88098,218529
14.88910,175949
14.89722,139512
14.90535,130902
14.91347,115847
14.92160,100378
14.92972,88426
14.93783,84330
14.94597,80098
14.95408,76709
14.96220,72000
14.97033,65518
14.97845,62848
14.98658,63189
14.99470,58905
15.00282,58937
15.01095,52295
15.01907,55158
15.02720,53068
15.03532,55198
15.04343,50205
15.05157,47306
15.05968,48708
15.06780,44448
15.07593,48554
15.08405,41507
15.09218,47033
15.10030,43387
15.10842,41903
15.11655,42573
15.12467,42098
15.13280,47281
15.14092,45124
15.14903,45514
15.15717,44513
15.16528,43157
15.17342,38128
15.18153,36507
15.18965,38708
15.19778,41176
15.20590,38690
15.21402,35460
15.22215,33117
15.23027,35127
15.23840,31106
15.24652,31961
15.25463,32725
15.26277,31438
15.27088,31093
15.27902,31376
15.28713,29684
15.29525,35979
15.30338,33726
15.31150,31633
15.31962,31286
15.32775,29297
15.33587,32368
15.34400,29855
15.35212,28901
15.36023,32217
15.36837,30069
15.37648,24866
15.38462,30118
15.39273,27661
15.40085,30783
15.40898,28787
15.41710,28802
15.42523,28304
15.43335,24925
15.44147,29454
15.44960,26489
15.45772,29574
15.46583,31495
15.47397,33550
15.48208,34293
15.49022,37405
15.49833,39355
15.50645,39605
15.51458,41254
15.52270,44798
15.53083,35368
15.53895,36962
15.54707,36013
15.55520,33250
15.56332,37057
15.57145,34706
15.57957,30535
15.58768,32371
15.59582,32557
15.60393,28764
15.61205,30700
15.62018,29875
15.62830,32290
15.63643,29508
15.64455,29922
15.65267,29055
15.66080,28923
15.66892,29896
15.67705,24190
15.68517,26219
15.69328,26067
15.70142,27190
15.70953,27823
15.71765,27308
15.72578,29248
15.73390,31421
15.74203,32144
15.75015,35942
15.75827,44787
15.76640,55175
15.77452,73620
15.78265,86869
15.79077,99894
15.79888,92904
15.80702,82206
15.81513,70051
15.82327,60096
15.83138,49387
15.83950,44924
15.84763,41977
15.85575,41372
15.86387,41239
15.87200,41890
15.88012,42803
15.88825,44251
15.89637,44287
15.90448,40855
15.91262,39047
15.92073,37989
15.92887,32431
15.93698,35013
15.94510,34028
15.95323,32536
15.96135,35167
15.96948,35671
15.97760,37229
15.98572,36131
15.99385,39139
16.00197,38774
16.01008,33310
16.01822,38352
16.02633,38540
16.03447,38616
16.04258,36579
16.05070,31929
16.05883,35717
16.06695,30777
16.07508,28915
16.08320,27425
16.09132,29666
16.09945,29801
16.10757,31987
16.11568,28587
16.12382,31087
16.13193,30606
16.14007,30759
16.14818,32443
16.15630,31168
16.16443,30085
16.17255,26497
16.18068,31238
16.18880,28463
16.19692,28268
16.20505,28963
16.21317,30255
16.22130,29349
16.22942,23935
16.23753,27361
16.24567,25264
16.25378,25633
16.26190,27212
16.27003,27272
16.27815,29164
16.28628,29169
16.29440,31342
16.30252,27337
16.31065,29914
16.31877,27160
16.32690,31748
16.33502,28199
16.34313,27576
16.35127,26780
16.35938,28358
16.36752,31076
16.37563,26903
16.38375,30470
16.39188,29501
16.40000,27505
16.40812,29539
16.41625,27616
16.42437,27743
16.43250,28589
16.44062,32782
16.44873,38118
16.45687,52949
16.46498,65614
16.47312,87916
16.48123,99742
16.48935,97196
16.49748,89550
16.50560,74185
16.51372,60484
16.52185,52189
16.52997,45157
16.53810,42048
16.54622,38280
16.55433,35887
16.56247,37333
16.57058,34040
16.57872,36619
16.58683,36438
16.59495,38731
16.60308,31976
16.61120,34124
16.61933,32813
16.62745,34408
16.63557,31582
16.64370,32931
16.65182,29945
16.65993,32937
16.66807,32707
16.67618,30860
16.68432,31805
16.69243,29070
16.70055,30719
16.70868,28799
16.71680,31460
16.72493,29133
16.73305,28378
16.74117,31148
16.74930,29913
16.75742,30073
16.76555,30978
16.77367,28085
16.78178,28009
16.78992,28982
16.79803,28302
16.80615,25664
16.81428,26516
16.82240,26981
16.83053,26979
16.83865,29004
16.84677,26746
16.85490,25979
16.86302,24170
16.87115,29508
16.87927,28136
16.88738,26876
16.89552,27323
16.90363,28090
16.91175,25879
16.91988,25205
16.92800,23920
16.93613,27971
16.94425,25938
16.95237,26878
16.96050,28796
16.96862,28375
16.97675,27072
16.98487,25419
16.99298,27290
17.00112,30313
17.00923,25461
17.01737,27201
17.02548,25229
17.03360,28490
17.04173,27697
17.04985,29486
17.05797,30944
17.06610,28423
17.07422,30181
17.08235,29668
17.09047,24722
17.09858,28863
17.10672,30860
17.11483,29386
17.12297,28201
17.13108,28140
17.13920,28522
17.14733,27887
17.15545,26422
17.16357,26104
17.17170,28553
17.17982,24365
17.18795,24261
17.19607,26843
17.20418,27104
17.21232,28446
17.22043,26359
17.22857,24676
17.23668,27364
17.24480,24862
17.25293,30823
17.26105,24950
17.26918,24656
17.27730,24157
17.28542,24523
17.29355,22915
17.30167,26841
17.30978,26868
17.31792,27704
17.32603,28842
17.33417,25029
17.34228,29087
17.35040,29334
17.35853,27687
17.36665,30116
17.37478,28946
17.38290,27160
17.39102,34509
17.39915,31062
17.40727,29333
17.41540,28391
17.42352,30346
17.43163,28226
17.43977,30785
17.44788,28018
17.45600,26996
17.46413,24910
17.47225,29973
17.48038,27662
17.48850,29111
17.49662,28190
17.50475,29049
17.51287,31664
17.52100,30238
17.52912,34481
17.53723,36000
17.54537,36539
17.55348,37702
17.56160,43891
17.56973,53977
17.57785,71738
17.58598,94463
17.59410,114444
17.60222,120600
17.61035,122297
17.61847,113666
17.62660,86033
17.63472,74878
17.64283,59071
17.65097,53707
17.65908,50082
17.66722,46041
17.67533,47473
17.68345,45614
17.69158,43343
17.69970,40732
17.70782,40818
17.71595,35693
17.72407,38051
17.73220,35189
17.74032,35170
17.74843,36863
17.75657,34306
17.76468,39078
17.77282,32861
17.78093,32499
17.78905,39409
17.79718,32680
17.80530,35066
17.81343,31578
17.82155,34131
17.82967,32979
17.83780,34129
17.84592,38976
17.85403,37107
17.86217,35311
17.87028,36213
17.87842,36424
17.88653,36579
17.89465,36053
17.90278,28784
17.91090,31714
17.91903,28507
17.92715,29078
17.93527,27710
17.94340,30351
17.95152,30850
17.95963,25900
17.96777,25977
17.97588,30756
17.98402,30296
17.99213,28711
18.00025,32511
18.00838,31352
18.01650,38509
18.02463,39055
18.03275,40382
18.04087,45554
18.04900,72282
18.05712,110216
18.06525,184378
18.07337,253050
18.08148,295665
18.08962,338986
18.09773,360725
18.10585,383859
18.11398,384648
18.12210,386611
18.13023,379732
18.13835,376532
18.14647,378545
18.15460,357202
18.16272,363006
18.17085,354784
18.17897,360433
18.18708,351063
18.19522,333467
18.20333,330271
18.21145,321073
18.21958,313707
18.22770,316114
18.23583,308969
18.24395,307100
18.25207,291357
18.26020,291393
18.26832,275946
18.27645,265917
18.28457,267522
18.29268,264222
18.30082,249096
18.30893,246595
18.31707,240308
18.32518,244742
18.33330,230468
18.34143,232709
18.34955,225539
18.35767,213870
18.36580,224580
18.37392,211470
18.38205,209396
18.39017,202275
18.39828,198432
18.40642,196936
18.41453,187088
18.42267,189409
18.43078,188880
18.43890,187607
18.44703,188001
18.45515,196677
18.46328,206698
18.47140,213808
18.47952,219898
18.48765,209061
18.49577,189996
18.50388,184071
18.51202,172081
18.52013,165186
18.52827,166288
18.53638,155736
18.54450,155360
18.55263,143870
18.56075,142297
18.56888,137547
18.57700,139192
18.58512,136704
18.59325,140925
18.60137,134852
18.60948,131096
18.61762,131372
18.62573,126136
18.63387,126300
18.64198,121613
18.65010,119422
18.65823,118646
18.66635,114091
18.67448,105563
18.68260,107334
18.69072,109194
18.69885,108774
18.70697,99551
18.71510,100964
18.72322,95547
18.73133,100062
18.73947,100418
18.74758,97062
18.75570,93319
18.76383,91548
18.77195,90665
18.78008,92343
18.78820,96323
18.79632,85933
18.80445,87414
18.81257,91013
18.82070,84249
18.82882,83404
18.83693,79748
18.84507,78474
18.85318,80668
18.86132,78945
18.86943,75309
18.87755,76482
18.88568,74917
18.89380,72627
18.90192,75338
18.91005,72450
18.91817,73483
18.92630,70772
18.93442,70994
18.94253,75511
18.95067,73746
18.95878,75162
18.96692,70652
18.97503,70621
18.98315,66495
18.99128,68100
18.99940,64913
19.00752,66046
19.01565,62476
19.02377,61691
19.03190,63988
19.04002,61865
19.04813,57567
19.05627,61342
19.06438,62499
19.07252,66583
19.08063,73098
19.08875,77514
19.09688,80091
19.10500,81523
19.11313,87510
19.12125,82843
19.12937,79844
19.13750,70454
19.14562,74829
19.15373,71253
19.16187,69839
19.16998,59538
19.17812,59940
19.18623,60118
19.19435,56130
19.20248,52854
19.21060,56261
19.21873,56331
19.22685,53144
19.23497,52084
19.24310,52594
19.25122,48930
19.25935,54382
19.26747,51283
19.27558,49622
19.28372,55658
19.29183,59479
19.29995,50139
19.30808,55597
19.31620,46907
19.32433,49478
19.33245,48069
19.34057,46760
19.34870,53789
19.35682,50288
19.36495,50668
19.37307,51098
19.38118,50279
19.38932,51311
19.39743,50807
19.40555,48795
19.41368,51332
19.42180,50399
19.42993,59996
19.43805,61491
19.44617,73742
19.45430,74587
19.46242,81614
19.47055,72587
19.47867,61649
19.48678,57773
19.49492,51734
19.50303,49769
19.51117,49806
19.51928,42818
19.52740,46714
19.53553,48667
19.54365,48413
19.55177,42245
19.55990,43225
19.56802,42544
19.57615,42432
19.58427,41890
19.59238,41032
19.60052,38756
19.60863,42285
19.61677,44040
19.62488,56875
19.63300,74742
19.64113,96042
19.64925,119213
19.65737,130176
19.66550,143262
19.67362,134986
19.68175,126317
19.68987,109734
19.69798,93668
19.70612,82851
19.71423,72448
19.72237,64229
19.73048,59736
19.73860,59218
19.74673,51259
19.75485,48339
19.76298,49370
19.77110,45938
19.77922,50576
19.78735,51714
19.79547,47471
19.80358,45842
19.81172,42085
19.81983,44358
19.82797,45145
19.83608,42821
19.84420,46028
19.85233,45993
19.86045,57751
19.86858,73125
19.87670,111546
19.88482,151848
19.89295,195366
19.90107,231227
19.90920,233975
19.91732,209790
19.92543,176786
19.93357,146550
19.94168,118644
19.94980,104984
19.95793,97384
19.96605,89796
19.97418,82961
19.98230,77840
19.99042,80463
19.99855,76386
20.00667,72296
20.01480,74602
20.02292,66332
20.03103,65042
20.03917,60948
20.04728,61748
20.05540,58448
20.06353,49165
20.07165,46928
20.07978,49179
20.08790,42415
20.09602,48054
20.10415,42543
20.11227,48059
20.12040,43711
20.12852,44405
20.13663,47041
20.14477,48486
20.15288,42139
20.16102,45882
20.16913,45815
20.17725,46125
20.18538,44256
20.19350,49098
20.20162,45385
20.20975,48478
20.21787,53311
20.22600,55278
20.23412,73026
20.24223,84387
20.25037,93749
20.25848,101287
20.26662,99187
20.27473,91964
20.28285,77202
20.29098,68197
20.29910,66065
20.30723,56495
20.31535,48037
20.32347,49847
20.33160,42662
20.33972,36308
20.34783,41099
20.35597,38429
20.36408,43936
20.37222,40643
20.38033,42823
20.38845,43254
20.39658,45201
20.40470,46462
20.41283,55920
20.42095,54492
20.42907,49647
20.43720,51209
20.44532,50994
20.45343,45657
20.46157,40258
20.46968,39741
20.47782,40085
20.48593,35064
20.49405,35372
20.50218,37290
20.51030,36380
20.51843,36449
20.52655,35654
20.53467,37297
20.54280,34659
20.55092,33753
20.55905,30984
20.56717,32283
20.57528,36695
20.58342,34236
20.59153,32051
20.59965,35989
20.60778,35073
20.61590,34372
20.62403,38062
20.63215,32704
20.64027,33567
20.64840,37799
20.65652,33688
20.66465,35684
20.67277,35297
20.68088,35389
20.68902,34375
20.69713,33824
20.70525,31868
20.71338,34134
20.72150,32481
20.72963,33085
20.73775,32930
20.74587,34509
20.75400,32242
20.76212,40233
20.77025,32096
20.77837,37101
20.78648,45667
20.79462,51278
20.80273,60784
20.81087,70135
20.81898,66133
20.82710,62681
20.83523,57954
20.84335,55591
20.85147,42723
20.85960,47557
20.86772,42285
20.87585,38219
20.88397,41596
20.89208,36168
20.90022,33696
20.90833,33966
20.91647,35651
20.92458,35104
20.93270,35513
20.94083,31327
20.94895,29591
20.95708,29466
20.96520,29187
20.97332,32379
20.98145,28597
20.98957,29864
20.99768,33470
21.00582,31306
21.01393,29703
21.02207,31744
21.03018,34523
21.03830,28685
21.04643,31143
21.05455,32868
21.06268,31942
21.07080,30544
21.07892,34000
21.08705,30539
21.09517,28180
21.10328,30816
21.11142,32548
21.11953,32821
21.12767,33082
21.13578,42048
21.14390,37884
21.15203,43716
21.16015,45644
21.16828,45035
21.17640,45608
21.18452,45273
21.19265,39427
21.20077,36706
21.20890,34205
21.21702,33826
21.22513,36435
21.23327,33713
21.24138,34148
21.24950,35130
21.25763,39729
21.26575,38434
21.27388,44858
21.28200,41892
21.29012,44120
21.29825,45916
21.30637,45775
21.31450,45212
21.32262,42618
21.33073,44146
21.33887,47330
21.34698,43742
21.35512,43752
21.36323,45737
21.37135,43722
21.37948,44743
21.38760,49362
21.39572,46551
21.40385,48060
21.41197,45850
21.42010,48058
21.42822,49280
21.43633,49425
21.44447,47428
21.45258,48249
21.46072,46539
21.46883,44265
21.47695,46441
21.48508,49566
21.49320,47810
21.50132,47776
21.50945,47289
21.51757,47867
21.52570,47345
21.53382,46895
21.54193,46195
21.55007,43456
21.55818,48753
21.56632,49129
21.57443,58943
21.58255,60811
21.59068,62077
21.59880,64972
21.60693,68170
21.61505,61026
21.62317,57362
21.63130,55092
21.63942,47483
21.64753,45179
21.65567,50151
21.66378,41859
21.67192,43351
21.68003,46516
21.68815,43615
21.69628,37265
21.70440,39554
21.71253,36785
21.72065,35322
21.72877,41389
21.73690,39163
21.74502,37821
21.75315,39784
21.76127,42027
21.76938,45709
21.77752,46955
21.78563,50609
21.79375,51958
21.80188,49677
21.81000,48032
21.81813,49573
21.82625,40710
21.83437,43772
21.84250,35318
21.85062,36285
21.85875,32849
21.86687,33297
21.87498,30755
21.88312,33230
21.89123,33588
21.89935,35636
21.90748,30289
21.91560,35689
21.92373,30477
21.93185,34645
21.93997,36422
21.94810,53732
21.95622,72846
21.96435,83525
21.97247,96023
21.98058,100883
21.98872,103541
21.99683,112300
22.00497,105479
22.01308,106180
22.02120,109892
22.02933,111643
22.03745,111599
22.04557,116489
22.05370,112808
22.06182,114617
22.06995,112289
22.07807,109005
22.08618,107178
22.09432,108910
22.10243,104832
22.11057,108435
22.11868,100611
22.12680,103733
22.13493,99974
22.14305,103049
22.15118,99505
22.15930,96526
22.16742,102093
22.17555,95112
22.18367,94198
22.19178,92312
22.19992,91362
22.20803,91192
22.21617,87336
22.22428,83762
22.23240,80704
22.24053,79741
22.24865,77257
22.25678,72745
22.26490,72379
22.27302,81059
22.28115,75244
22.28927,71816
22.29738,68367
22.30552,73467
22.31363,70669
22.32177,69136
22.32988,65611
22.33800,68947
22.34613,60345
22.35425,71943
22.36238,59807
22.37050,62586
22.37862,59400
22.38675,63537
22.39487,61703
22.40300,62406
22.41112,66377
22.41923,65841
22.42737,69209
22.43548,69070
22.44360,60235
22.45173,59687
22.45985,55437
22.46798,55996
22.47610,58299
22.48422,54202
22.49235,60368
22.50047,54373
22.50860,56111
22.51672,49930
22.52483,48189
22.53297,53324
22.54108,48471
22.54920,50605
22.55733,48962
22.56545,45984
22.57358,47975
22.58170,46577
22.58982,44906
22.59795,41797
22.60607,42336
22.61420,39604
22.62232,43838
22.63043,42258
22.63857,39486
22.64668,41076
22.65482,41893
22.66293,42385
22.67105,41291
22.67918,41807
22.68730,46923
22.69542,45915
22.70355,46286
22.71167,49467
22.71980,51977
22.72792,45974
22.73603,47992
22.74417,42578
22.75228,46049
22.76042,41361
22.76853,41342
22.77665,43025
22.78478,46647
22.79290,43210
22.80103,45013
22.80915,47194
22.81727,45900
22.82540,46225
22.83352,47774
22.84163,44817
22.84977,43584
22.85788,44616
22.86602,43679
22.87413,39872
22.88225,43794
22.89038,48982
22.89850,55471
22.90663,66530
22.91475,81920
22.92287,92937
22.93100,96967
22.93912,101036
22.94723,89294
22.95537,80740
22.96348,72221
22.97162,61515
22.97973,59527
22.98785,59847
22.99598,50315
23.00410,51702
23.01223,49955
23.02035,43215
23.02847,43489
23.03660,42723
23.04472,40957
23.05285,37954
23.06097,37654
23.06908,36702
23.07722,36946
23.08533,39135
23.09345,36693
23.10158,38255
23.10970,36753
23.11783,33400
23.12595,36376
23.13407,37380
23.14220,38817
23.15032,34061
23.15845,34278
23.16657,35514
23.17468,33465
23.18282,34790
23.19093,33413
23.19907,33209
23.20718,36829
23.21530,32791
23.22343,34204
23.23155,33095
23.23967,32784
23.24780,35724
23.25592,36750
23.26405,35478
23.27217,39621
23.28028,36064
23.28842,33554
23.29653,36477
23.30467,34099
23.31278,33355
23.32090,35405
23.32903,39053
23.33715,36093
23.34527,39028
23.35340,44405
23.36152,42188
23.36965,41450
23.37777,45708
23.38588,39646
23.39402,39291
23.40213,38196
23.41027,37844
23.41838,42572
23.42650,37002
23.43463,36792
23.44275,35170
23.45088,35744
23.45900,35057
23.46712,34360
23.47525,33699
23.48337,33677
23.49148,33854
23.49962,32648
23.50773,34474
23.51587,36186
23.52398,31452
23.53210,30924
23.54023,31987
23.54835,33914
23.55648,34299
23.56460,37124
23.57272,41951
23.58085,45494
23.58897,50204
23.59708,53937
23.60522,60752
23.61333,54416
23.62147,57584
23.62958,53205
23.63770,48579
23.64583,48825
23.65395,48760
23.66208,49848
23.67020,47231
23.67832,44950
23.68645,43756
23.69457,42162
23.70270,50860
23.71082,67494
23.71893,85189
23.72707,108168
23.73518,144249
23.74330,240649
23.75143,446460
23.75955,873692
23.76768,1624842
23.77580,2615274
23.78392,3341827
23.79205,3319197
23.80017,2951916
23.80830,2406273
23.81642,1816016
23.82453,1360411
23.83267,1028804
23.84078,820470
23.84892,671463
23.85703,567370
23.86515,499336
23.87328,440391
23.88140,402629
23.88952,374307
23.89765,349142
23.90577,309847
23.91390,296316
23.92202,273917
23.93013,271249
23.93827,247872
23.94638,239174
23.95452,229549
23.96263,212359
23.97075,207878
23.97888,194065
23.98700,190655
23.99512,183011
24.00325,177722
24.01137,176582
24.01950,172718
24.02762,170263
24.03573,162717
24.04387,158138
24.05198,155367
24.06012,151745
24.06823,151506
24.07635,155997
24.08448,139180
24.09260,132069
24.10073,120756
24.10885,119619
24.11697,122011
24.12510,124317
24.13322,123404
24.14133,126984
24.14947,126010
24.15758,115986
24.16572,120975
24.17383,114314
24.18195,108110
24.19008,111237
24.19820,108255
24.20633,104018
24.21445,94430
24.22257,91979
24.23070,89389
24.23882,87303
24.24695,85788
24.25507,88417
24.26318,83740
24.27132,80561
24.27943,83822
24.28755,81472
24.29568,80796
24.30380,78727
24.31193,88445
24.32005,86667
24.32817,91634
24.33630,97183
24.34442,93722
24.35255,89680
24.36067,78668
24.36878,68974
24.37692,72498
24.38503,67796
24.39315,65259
24.40128,68092
24.40940,63852
24.41753,69045
24.42565,68982
24.43377,66845
24.44190,70372
24.45002,74169
24.45815,69720
24.46627,70445
24.47438,66219
24.48252,65128
24.49063,61551
24.49877,63567
24.50688,57559
24.51500,54037
24.52313,57913
24.53125,55353
24.53937,55384
24.54750,56541
24.55562,62844
24.56375,53476
24.57187,57396
24.57998,55738
24.58812,57475
24.59623,49633
24.60437,48997
24.61248,48172
24.62060,51155
24.62873,49425
24.63685,50729
24.64498,51959
24.65310,48966
24.66122,48415
24.66935,46536
24.67747,46841
24.68558,45466
24.69372,43973
24.70183,50023
24.70997,43625
24.71808,44911
24.72620,43914
24.73433,42286
24.74245,46235
24.75058,45685
24.75870,44209
24.76682,47460
24.77495,44574
24.78307,47441
24.79118,50768
24.79932,48186
24.80743,48454
24.81557,43260
24.82368,49055
24.83180,47568
24.83993,54216
24.84805,67619
24.85618,68206
24.86430,75766
24.87242,89047
24.88055,104104
24.88867,98213
24.89680,96931
24.90492,91797
24.91303,84989
24.92117,88952
24.92928,101283
24.93740,113270
24.94553,122562
24.95365,127229
24.96178,128841
24.96990,134865
24.97802,128384
24.98615,131054
24.99427,140513
25.00240,134003
25.01052,132850
25.01863,144515
25.02677,138434
25.03488,140010
25.04300,143199
25.05113,135141
25.05925,140293
25.06738,133103
25.07550,133619
25.08362,137147
25.09175,143601
25.09987,158253
25.10800,198838
25.11612,260663
25.12423,361252
25.13237,475564
25.14048,585448
25.14862,600789
25.15673,564933
25.16485,476576
25.17298,368825
25.18110,286126
25.18922,217501
25.19735,183628
25.20547,157455
25.21360,148151
25.22172,150421
25.22983,142176
25.23797,167398
25.24608,197531
25.25422,231694
25.26233,264655
25.27045,293058
25.27858,266188
25.28670,243486
25.29483,198246
25.30295,165168
25.31107,136809
25.31920,119740
25.32732,104618
25.33543,105045
25.34357,99812
25.35168,97139
25.35982,92458
25.36793,91317
25.37605,83974
25.38418,87230
25.39230,87137
25.40043,84999
25.40855,82854
25.41667,78677
25.42480,81232
25.43292,77309
25.44103,71396
25.44917,70457
25.45728,69958
25.46542,71051
25.47353,67507
25.48165,63519
25.48978,68102
25.49790,62764
25.50603,65061
25.51415,62018
25.52227,64080
25.53040,58007
25.53852,56877
25.54665,57595
25.55477,62820
25.56288,58875
25.57102,56665
25.57913,53405
25.58725,55170
25.59538,55923
25.60350,55970
25.61163,50992
25.61975,54195
25.62787,52440
25.63600,49719
25.64412,51215
25.65225,48869
25.66037,49914
25.66848,46981
25.67662,47762
25.68473,48476
25.69287,49031
25.70098,46947
25.70910,45691
25.71723,46078
25.72535,45696
25.73347,46649
25.74160,45491
25.74972,48349
25.75785,46772
25.76597,46884
25.77408,43610
25.78222,45236
25.79033,45917
25.79847,44635
25.80658,44046
25.81470,45039
25.82283,40820
25.83095,46423
25.83907,45221
25.84720,42839
25.85532,47585
25.86345,42883
25.87157,45601
25.87968,41407
25.88782,42029
25.89593,39470
25.90407,38567
25.91218,45551
25.92030,42425
25.92843,38397
25.93655,41331
25.94468,43651
25.95280,44174
25.96092,39480
25.96905,40376
25.97717,41879
25.98528,39380
25.99342,42046
26.00153,39099
26.00967,39039
26.01778,38950
26.02590,36603
26.03403,41577
26.04215,38604
26.05028,38880
26.05840,43533
26.06652,38069
26.07465,42842
26.08277,40100
26.09088,41665
26.09902,41403
26.10713,39820
26.11527,42252
26.12338,41172
26.13150,43468
26.13963,42750
26.14775,47932
26.15588,40233
26.16400,42232
26.17212,39815
26.18025,43172
26.18837,40181
26.19650,39258
26.20462,39756
26.21273,37717
26.22087,40572
26.22898,39221
26.23710,38611
26.24523,40538
26.25335,37344
26.26148,42275
26.26960,39455
26.27772,42615
26.28585,40097
26.29397,38229
26.30210,37714
26.31022,41771
26.31833,39253
26.32647,37829
26.33458,36308
26.34272,40106
26.35083,39803
26.35895,38524
26.36708,36432
26.37520,42387
26.38332,40060
26.39145,39748
26.39957,39547
26.40770,36494
26.41582,36412
26.42393,38474
26.43207,46867
26.44018,39620
26.44832,37905
26.45643,37097
26.46455,37728
26.47268,37028
26.48080,36767
26.48893,37574
26.49705,39159
26.50517,38249
26.51330,35543
26.52142,35345
26.52953,35922
26.53767,34381
26.54578,35302
26.55392,38510
26.56203,36175
26.57015,35793
26.57828,35326
26.58640,34008
26.59453,35893
26.60265,35152
26.61077,37100
26.61890,34692
26.62702,31621
26.63513,33832
26.64327,35749
26.65138,35444
26.65952,37053
26.66763,39333
26.67575,37988
26.68388,36752
26.69200,34647
26.70013,35476
26.70825,39399
26.71637,38798
26.72450,34583
26.73262,33692
26.74075,32467
26.74887,36434
26.75698,34231
26.76512,35206
26.77323,34692
26.78135,34568
26.78948,38097
26.79760,37032
26.80573,34910
26.81385,32851
26.82197,34128
26.83010,33498
26.83822,37022
26.84635,29839
26.85447,33130
26.86258,33233
26.87072,33017
26.87883,30435
26.88695,32895
26.89508,37850
26.90320,32821
26.91133,33023
26.91945,37454
26.92757,35851
26.93570,38610
26.94382,44513
26.95195,57413
26.96007,88231
26.96818,142494
26.97632,210444
26.98443,283368
26.99257,355095
27.00068,393881
27.00880,411156
27.01693,375902
27.02505,318203
27.03317,259077
27.04130,205205
27.04942,162718
27.05755,133653
27.06567,113571
27.07378,101123
27.08192,93738
27.09003,85813
27.09817,75625
27.10628,71439
27.11440,64600
27.12253,65242
27.13065,64377
27.13878,61171
27.14690,63230
27.15502,59653
27.16315,60634
27.17127,57355
27.17938,60688
27.18752,60199
27.19563,53093
27.20377,51573
27.21188,50382
27.22000,48823
27.22813,51384
27.23625,46084
27.24438,41541
27.25250,44197
27.26062,42917
27.26875,45387
27.27687,46754
27.28498,41127
27.29312,41080
27.30123,41884
27.30937,39938
27.31748,41683
27.32560,40622
27.33373,40922
27.34185,42680
27.34998,39306
27.35810,41643
27.36622,43073
27.37435,43427
27.38247,40660
27.39060,39400
27.39872,41078
27.40683,37146
27.41497,41541
27.42308,37649
27.43120,37815
27.43933,39030
27.44745,38477
27.45558,39876
27.46370,39027
27.47182,39140
27.47995,35964
27.48807,34778
27.49620,32842
27.50432,35173
27.51243,34517
27.52057,34792
27.52868,36238
27.53682,36020
27.54493,36027
27.55305,38578
27.56118,34629
27.56930,37070
27.57742,36715
27.58555,38682
27.59367,36804
27.60180,35944
27.60992,40711
27.61803,36406
27.62617,34030
27.63428,38909
27.64242,34516
27.65053,33344
27.65865,29302
27.66678,28831
27.67490,33977
27.68302,37007
27.69115,34683
27.69927,36826
27.70740,30797
27.71552,34481
27.72363,36099
27.73177,35234
27.73988,37730
27.74802,34518
27.75613,37626
27.76425,40743
27.77238,38296
27.78050,43416
27.78863,40952
27.79675,38676
27.80487,40855
27.81300,39726
27.82112,35117
27.82923,34716
27.83737,34788
27.84548,34228
27.85362,32287
27.86173,31304
27.86985,34059
27.87798,34075
27.88610,32638
27.89423,30519
27.90235,34383
27.91047,31494
27.91860,30783
27.92672,36718
27.93483,31979
27.94297,28219
27.95108,28205
27.95922,31740
27.96733,33265
27.97545,31758
27.98358,37177
27.99170,30092
27.99983,33923
28.00795,35002
28.01607,35699
28.02420,36152
28.03232,32289
28.04045,35439
28.04857,35213
28.05668,35633
28.06482,35852
28.07293,32078
28.08105,34762
28.08918,34529
28.09730,34344
28.10543,36219
28.11355,41143
28.12167,39489
28.12980,41008
28.13792,37316
28.14605,38566
28.15417,33915
28.16228,31072
28.17042,29707
28.17853,32923
28.18667,33659
28.19478,31785
28.20290,34057
28.21103,34269
28.21915,35033
28.22727,36512
28.23540,35488
28.24352,33778
28.25165,36546
28.25977,38315
28.26788,44990
28.27602,53511
28.28413,63005
28.29227,75591
28.30038,84985
28.30850,93427
28.31663,98659
28.32475,100439
28.33287,101182
28.34100,95296
28.34912,90345
28.35725,84567
28.36537,81969
28.37348,71289
28.38162,68304
28.38973,60025
28.39787,59451
28.40598,54860
28.41410,54621
28.42223,46230
28.43035,47119
28.43848,45008
28.44660,42534
28.45472,42564
28.46285,40812
28.47097,38036
28.47908,40151
28.48722,38424
28.49533,38299
28.50347,43026
28.51158,37505
28.51970,35516
28.52783,35807
28.53595,38022
28.54408,36614
28.55220,37597
28.56032,31707
28.56845,39557
28.57657,34225
28.58470,35199
28.59282,33989
28.60093,33397
28.60907,33298
28.61718,34579
28.62530,35454
28.63343,40249
28.64155,36676
28.64968,40554
28.65780,43242
28.66592,39730
28.67405,41420
28.68217,43733
28.69030,47217
28.69842,43307
28.70653,41688
28.71467,37617
28.72278,35871
28.73090,37429
28.73903,36116
28.74715,34066
28.75528,29873
28.76340,30313
28.77152,32499
28.77965,33088
28.78777,34063
28.79590,36034
28.80402,32367
28.81213,30465
28.82027,33294
28.82838,29852
28.83652,31628
28.84463,32740
28.85275,31050
28.86088,32360
28.86900,32073
28.87712,35295
28.88525,35731
28.89337,34118
28.90150,36301
28.90962,35375
28.91773,32426
28.92587,33744
28.93398,36186
28.94212,35926
28.95023,33511
28.95835,33807
28.96648,36743
28.97460,36198
28.98272,33284
28.99085,29702
28.99897,32811
29.00710,33624
29.01522,32611
29.02333,33349
29.03147,31065
29.03958,34401
29.04772,30206
29.05583,33612
29.06395,33884
29.07208,36281
29.08020,37610
29.08833,30649
29.09645,36013
29.10457,34757
29.11270,29608
29.12082,32254
29.12893,28728
29.13707,31916
29.14518,27454
29.15332,31614
29.16143,27034
29.16955,28912
29.17768,28736
29.18580,27663
29.19393,31921
29.20205,34649
29.21017,34975
29.21830,33133
29.22642,39922
29.23455,37041
29.24267,36709
29.25078,33114
29.25892,32892
29.26703,33789
29.27515,29809
29.28328,31797
29.29140,30326
29.29953,30751
29.30765,29166
29.31577,28365
29.32390,32542
29.33202,31310
29.34015,29985
29.34827,30761
29.35638,26211
29.36452,27775
29.37263,27912
29.38075,29144
29.38888,30543
29.39700,31520
29.40513,33262
29.41325,38032
29.42137,30703
29.42950,32161
29.43762,30945
29.44575,28969
29.45387,25643
29.46198,25751
29.47012,32081
29.47823,31900
29.48637,29639
29.49448,31099
29.50260,35460
29.51073,32767
29.51885,30453
29.52697,29986
29.53510,31964
29.54322,30820
29.55135,31905
29.55947,29573
29.56758,26189
29.57572,29026
29.58383,29374
29.59197,31162
29.60008,31222
29.60820,30743
29.61633,28443
29.62445,31345
29.63258,30677
29.64070,29863
29.64882,30011
29.65695,27629
29.66507,30983
29.67318,30009
29.68132,26614
29.68943,29726
29.69757,30225
29.70568,28760
29.71380,27188
29.72193,31293
29.73005,32757
29.73818,27293
29.74630,23741
29.75442,27570
29.76255,28647
29.77067,31541
29.77878,30747
29.78692,24921
29.79503,28374
29.80317,28922
29.81128,27949
29.81940,25736
29.82753,26801
29.83565,29561
29.84378,29900
29.85190,30201
29.86002,34406
29.86815,33772
29.87627,38455
29.88440,42055
29.89252,50562
29.90063,57084
29.90877,56327
29.91688,53652
29.92500,60501
29.93313,57523
29.94125,58358
29.94938,61770
29.95750,56467
29.96562,55343
29.97375,54628
29.98187,56945
29.99000,53376
29.99812,55481
30.00623,50553
30.01437,49448
30.02248,45975
30.03062,46765
30.03873,43469
30.04685,50017
30.05498,43877
30.06310,45955
30.07122,46130
30.07935,46557
30.08747,46315
30.09560,47185
30.10372,51172
30.11183,47537
30.11997,47001
30.12808,46164
30.13622,49001
30.14433,44731
30.15245,47341
30.16058,44205
30.16870,41431
30.17682,43310
30.18495,46646
30.19307,43440
30.20120,43400
30.20932,43126
30.21743,41154
30.22557,41438
30.23368,37229
30.24182,37430
30.24993,38201
30.25805,36489
30.26618,40869
30.27430,43109
30.28243,39243
30.29055,35502
30.29867,37563
30.30680,38340
30.31492,40779
30.32303,37420
30.33117,36496
30.33928,37200
30.34742,34958
30.35553,36360
30.36365,36456
30.37178,33579
30.37990,32337
30.38803,34584
30.39615,34405
30.40427,35608
30.41240,33405
30.42052,32306
30.42863,32267
30.43677,33960
30.44488,34358
30.45302,33195
30.46113,32525
30.46925,31042
30.47738,32277
30.48550,29009
30.49363,28781
30.50175,33313
30.50987,33532
30.51800,30378
30.52612,30375
30.53425,31782
30.54237,31326
30.55048,30199
30.55862,32381
30.56673,31354
30.57485,33343
30.58298,34097
30.59110,32689
30.59923,32550
30.60735,29419
30.61547,30939
30.62360,33876
30.63172,31486
30.63985,32319
30.64797,31408
30.65608,29874
30.66422,31043
30.67233,27208
30.68047,35682
30.68858,32056
30.69670,29932
30.70483,29964
30.71295,32002
30.72107,32252
30.72920,29850
30.73732,29498
30.74545,31280
30.75357,29530
30.76168,33971
30.76982,36823
30.77793,42635
30.78607,48639
30.79418,48969
30.80230,52947
30.81043,57032
30.81855,52616
30.82667,53010
30.83480,39858
30.84292,36669
30.85105,30647
30.85917,32471
30.86728,30112
30.87542,31989
30.88353,28960
30.89167,31274
30.89978,31599
30.90790,31556
30.91603,29681
30.92415,28879
30.93228,30159
30.94040,31479
30.94852,32270
30.95665,31693
30.96477,28560
30.97288,31241
30.98102,28384
30.98913,29180
30.99727,29559
31.00538,30856
31.01350,27654
31.02163,31064
31.02975,29350
31.03788,29599
31.04600,31098
31.05412,29160
31.06225,31913
31.07037,34377
31.07850,39309
31.08662,37298
31.09473,37142
31.10287,40249
31.11098,35144
31.11910,40509
31.12723,32219
31.13535,32360
31.14348,29190
31.15160,31550
31.15972,29821
31.16785,29379
31.17597,42199
31.18410,42795
31.19222,49407
31.20033,49659
31.20847,58171
31.21658,54619
31.22470,55292
31.23283,44183
31.24095,39275
31.24908,34916
31.25720,32383
31.26532,31656
31.27345,32402
31.28157,30127
31.28970,26568
31.29782,33402
31.30593,32940
31.31407,34291
31.32218,31985
31.33032,32566
31.33843,32659
31.34655,33898
31.35468,32738
31.36280,31366
31.37092,28338
31.37905,33120
31.38717,32838
31.39530,32444
31.40342,30726
31.41153,33623
31.41967,29781
31.42778,30356
31.43592,29982
31.44403,32093
31.45215,29076
31.46028,35701
31.46840,32870
31.47652,35713
31.48465,39346
31.49277,36655
31.50090,31778
31.50902,36182
31.51713,31214
31.52527,32389
31.53338,30778
31.54152,33010
31.54963,36892
31.55775,36489
31.56588,38028
31.57400,34810
31.58213,35395
31.59025,32481
31.59837,35625
31.60650,30620
31.61462,32380
31.62273,34079
31.63087,32138
31.63898,32060
31.64712,31235
31.65523,29838
31.66335,32994
31.67148,31063
31.67960,28450
31.68773,38683
31.69585,31436
31.70397,37896
31.71210,33368
31.72022,26980
31.72835,27767
31.73647,28372
31.74458,29677
31.75272,27805
31.76083,27818
31.76895,32519
31.77708,29058
31.78520,30871
31.79333,30407
31.80145,34611
31.80957,30726
31.81770,32371
31.82582,32527
31.83395,38742
31.84207,39887
31.85018,39437
31.85832,46204
31.86643,44306
31.87457,50572
31.88268,51941
31.89080,52692
31.89893,53663
31.90705,52647
31.91517,51700
31.92330,47980
31.93142,41233
31.93955,41315
31.94767,44135
31.95578,41003
31.96392,45816
31.97203,41447
31.98017,40741
31.98828,43594
31.99640,44796
32.00453,41257
32.01265,37086
32.02077,37107
32.02890,35015
32.03702,35687
32.04515,35652
32.05327,33273
32.06138,34857
32.06952,32048
32.07763,35401
32.08577,33122
32.09388,31295
32.10200,32449
32.11013,31742
32.11825,33050
32.12638,33572
32.13450,33390
32.14262,29493
32.15075,29493
32.15887,33078
32.16698,31679
32.17512,27122
32.18323,28944
32.19137,30864
32.19948,31107
32.20760,31357
32.21573,27900
32.22385,27255
32.23198,30223
32.24010,31108
32.24822,32074
32.25635,32280
32.26447,33506
32.27258,33400
32.28072,34120
32.28883,31748
32.29697,31507
32.30508,29638
32.31320,30448
32.32133,33622
32.32945,30008
32.33758,31777
32.34570,33078
32.35382,36637
32.36195,30685
32.37007,32732
32.37820,28178
32.38632,29190
32.39443,32973
32.40257,29094
32.41068,31691
32.41880,29162
32.42693,27275
32.43505,28224
32.44318,30391
32.45130,30749
32.45942,32686
32.46755,30597
32.47567,29047
32.48380,30827
32.49192,28321
32.50003,28428
32.50817,31296
32.51628,29918
32.52442,29501
32.53253,29966
32.54065,32174
32.54878,30140
32.55690,31277
32.56502,30403
32.57315,34664
32.58127,37251
32.58940,39747
32.59752,38782
32.60563,36269
32.61377,32101
32.62188,30430
32.63002,27511
32.63813,26849
32.64625,27664
32.65438,29697
32.66250,30698
32.67062,31087
32.67875,29957
32.68687,34474
32.69500,33107
32.70312,33451
32.71123,29830
32.71937,33380
32.72748,32047
32.73562,30190
32.74373,31850
32.75185,31002
32.75998,28989
32.76810,27965
32.77623,32813
32.78435,28078
32.79247,27266
32.80060,33062
32.80872,27917
32.81683,26676
32.82497,29274
32.83308,26525
32.84122,32517
32.84933,31507
32.85745,30784
32.86558,29097
32.87370,30746
32.88183,29041
32.88995,28574
32.89807,28245
32.90620,30437
32.91432,27223
32.92245,28805
32.93057,32842
32.93868,29506
32.94682,29128
32.95493,30151
32.96305,37874
32.97118,38385
32.97930,42990
32.98743,52634
32.99555,51810
33.00367,51740
33.01180,47107
33.01992,41896
33.02805,40667
33.03617,38299
33.04428,35568
33.05242,33106
33.06053,33066
33.06865,36632
33.07678,34216
33.08490,36181
33.09303,36626
33.10115,42278
33.10927,42057
33.11740,39057
33.12552,40776
33.13365,39644
33.14177,36369
33.14988,36410
33.15802,34271
33.16613,33014
33.17427,31806
33.18238,30666
33.19050,33154
33.19863,29403
33.20675,32548
33.21487,30325
33.22300,31315
33.23112,32784
33.23925,30909
33.24737,30794
33.25548,30804
33.26362,30430
33.27173,32544
33.27987,30538
33.28798,31570
33.29610,32118
33.30423,31677
33.31235,31073
33.32047,32102
33.32860,30729
33.33672,29379
33.34485,31457
33.35297,28250
33.36108,31802
33.36922,31416
33.37733,32535
33.38547,28860
33.39358,28965
33.40170,30171
33.40983,28669
33.41795,31211
33.42608,31159
33.43420,35166
33.44232,30608
33.45045,30737
33.45857,29071
33.46668,32099
33.47482,35429
33.48293,27182
33.49107,30923
33.49918,31293
33.50730,31286
33.51543,33921
33.52355,33219
33.53168,33234
33.53980,36105
33.54792,29051
33.55605,31070
33.56417,35235
33.57230,34417
33.58042,32174
33.58853,30381
33.59667,34837
33.60478,31083
33.61290,31250
33.62103,33097
33.62915,31669
33.63728,29204
33.64540,30586
33.65352,29871
33.66165,34640
33.66977,32673
33.67790,29184
33.68602,33327
33.69413,36779
33.70227,32581
33.71038,32793
33.71850,32328
33.72663,30866
33.73475,32853
33.74288,32504
33.75100,31438
33.75912,33040
33.76725,35451
33.77537,34158
33.78350,34729
33.79162,36264
33.79973,35096
33.80787,30933
33.81598,33569
33.82412,35503
33.83223,32248
33.84035,34645
33.84848,33436
33.85660,33501
33.86472,35304
33.87285,31090
33.88097,36687
33.88910,35118
33.89722,35137
33.90533,30759
33.91347,33089
33.92158,31499
33.92972,31594
33.93783,30926
33.94595,32999
33.95408,33500
33.96220,33052
33.97033,32486
33.97845,33124
33.98657,32220
33.99470,33596
34.00282,32035
34.01093,34468
34.01907,34545
34.02718,29574
34.03532,31621
34.04343,32548
34.05155,33889
34.05968,35895
34.06780,33296
34.07593,30529
34.08405,30002
34.09217,32198
34.10030,31592
34.10842,32399
34.11653,32495
34.12467,33931
34.13278,30546
34.14092,30636
34.14903,29103
34.15715,32129
34.16528,31071
34.17340,30376
34.18153,31442
34.18965,33358
34.19777,37396
34.20590,30449
34.21402,33987
34.22215,34503
34.23027,34065
34.23838,32941
34.24652,31469
34.25463,29455
34.26275,34042
34.27088,30654
34.27900,32408
34.28713,34039
34.29525,33784
34.30337,32430
34.31150,32529
34.31962,32436
34.32775,33439
34.33587,34175
34.34398,31786
34.35212,34137
34.36023,32062
34.36837,29587
34.37648,30367
34.38460,31976
34.39273,32652
34.40085,31949
34.40897,31256
34.41710,33404
34.42522,34947
34.43335,36715
34.44147,37440
34.44958,44411
34.45772,48182
34.46583,49895
34.47397,52369
34.48208,60441
34.49020,52574
34.49833,53811
34.50645,48276
34.51457,47457
34.52270,41392
34.53082,42486
34.53895,43317
34.54707,43516
34.55518,40637
34.56332,37468
34.57143,32546
34.57957,37200
34.58768,35333
34.59580,38401
34.60393,36270
34.61205,34216
34.62018,39106
34.62830,38103
34.63642,37870
34.64455,37718
34.65267,38939
34.66078,41931
34.66892,35710
34.67703,35410
34.68517,38276
34.69328,35636
34.70140,37097
34.70953,35715
34.71765,35645
34.72578,36456
34.73390,33896
34.74202,33745
34.75015,32630
34.75827,36027
34.76638,35250
34.77452,36277
34.78263,33604
34.79077,33114
34.79888,31726
34.80700,34516
34.81513,35081
34.82325,32488
34.83138,35922
34.83950,30563
34.84762,34537
34.85575,35108
34.86387,34579
34.87200,35121
34.88012,35777
34.88823,35528
34.89637,33419
34.90448,32674
34.91260,32193
34.92073,35744
34.92885,41928
34.93698,34874
34.94510,34927
34.95322,36556
34.96135,36180
34.96947,34453
34.97760,38282
34.98572,33922
34.99383,38235
35.00197,31875
35.01008,33496
35.01822,32928
35.02633,34821
35.03445,34311
35.04258,35605
35.05070,34107
35.05882,38199
35.06695,39404
35.07507,34215
35.08320,33571
35.09132,34901
35.09943,37579
35.10757,34835
35.11568,32275
35.12382,34077
35.13193,36231
35.14005,42431
35.14818,39258
35.15630,34944
35.16442,36318
35.17255,35948
35.18067,34765
35.18880,39523
35.19692,36369
35.20503,31398
35.21317,31726
35.22128,32292
35.22942,33417
35.23753,34947
35.24565,35138
35.25378,35923
35.26190,37641
35.27003,33206
35.27815,32704
35.28627,33465
35.29440,35882
35.30252,37196
35.31063,37100
35.31877,38222
35.32688,34146
35.33502,33607
35.34313,36564
35.35125,33385
35.35938,35840
35.36750,34614
35.37563,34080
35.38375,33541
35.39187,34394
35.40000,33710
35.40812,38680
35.41625,37037
35.42437,35936
35.43248,37517
35.44062,36311
35.44873,36981
35.45685,37311
35.46498,38115
35.47310,40118
35.48123,39269
35.48935,38761
35.49747,36831
35.50560,37553
35.51372,38855
35.52185,36199
35.52997,45043
35.53808,34954
35.54622,36800
35.55433,39303
35.56245,39265
35.57058,42888
35.57870,43444
35.58683,46697
35.59495,44433
35.60307,38654
35.61120,43377
35.61932,39911
35.62745,41626
35.63557,39071
35.64368,39905
35.65182,40157
35.65993,38241
35.66807,40572
35.67618,37760
35.68430,40113
35.69243,41559
35.70055,42126
35.70867,38045
35.71680,41821
35.72492,39392
35.73305,39758
35.74117,40239
35.74928,38165
35.75742,35670
35.76553,42416
35.77367,42987
35.78178,38201
35.78990,39315
35.79803,42751
35.80615,39978
35.81427,37778
35.82240,38516
35.83052,40918
35.83865,42307
35.84677,41002
35.85488,42031
35.86302,38249
35.87113,38643
35.87927,39213
35.88738,41592
35.89550,37192
35.90363,37711
35.91175,35770
35.91988,38260
35.92800,36293
35.93612,39047
35.94425,36853
35.95237,37060
35.96048,38694
35.96862,38811
35.97673,38285
35.98487,38264
35.99298,42754
36.00110,44154
36.00923,45325
36.01735,44500
36.02548,43988
36.03360,42159
36.04172,39788
36.04985,42836
36.05797,42020
36.06610,41411
36.07422,36128
36.08233,39985
36.09047,37867
36.09858,38217
36.10670,39919
36.11483,41345
36.12295,39604
36.13108,40637
36.13920,40848
36.14732,37925
36.15545,38537
36.16357,39439
36.17170,38853
36.17982,38143
36.18793,37842
36.19607,40725
36.20418,45037
36.21230,43399
36.22043,46143
36.22855,45132
36.23668,48855
36.24480,46747
36.25292,43492
36.26105,38712
36.26917,42829
36.27730,39083
36.28542,41692
36.29353,39347
36.30167,36535
36.30978,41250
36.31792,38861
36.32603,41699
36.33415,38632
36.34228,40634
36.35040,41164
36.35852,39275
36.36665,39231
36.37477,39583
36.38290,42794
36.39102,43660
36.39913,39617
36.40727,41451
36.41538,42303
36.42352,38079
36.43163,41065
36.43975,38213
36.44788,36225
36.45600,40712
36.46413,38204
36.47225,39052
36.48037,40594
36.48850,40540
36.49662,39726
36.50473,41242
36.51287,41303
36.52098,40208
36.52912,38866
36.53723,39393
36.54535,41593
36.55348,41050
36.56160,42436
36.56973,42218
36.57785,38589
36.58597,42438
36.59410,39820
36.60222,39390
36.61033,41626
36.61847,43965
36.62658,40905
36.63472,42052
36.64283,41072
36.65095,40722
36.65908,40275
36.66720,42186
36.67533,40190
36.68345,41277
36.69157,46958
36.69970,43618
36.70782,42434
36.71595,38618
36.72407,41569
36.73218,40126
36.74032,40454
36.74843,39759
36.75655,44239
36.76468,42080
36.77280,43252
36.78093,44089
36.78905,42843
36.79717,43518
36.80530,40240
36.81342,42882
36.82155,42883
36.82967,42105
36.83778,44514
36.84592,42347
36.85403,42566
36.86215,42333
36.87028,39971
36.87840,41108
36.88653,40315
36.89465,45041
36.90277,42250
36.91090,43448
36.91902,43572
36.92715,48146
36.93527,49673
36.94338,45451
36.95152,50197
36.95963,54937
36.96777,54992
36.97588,48393
36.98400,47057
36.99213,46292
37.00025,44913
37.00837,51271
37.01650,51350
37.02462,54176
37.03275,53976
37.04087,51977
37.04898,53791
37.05712,50565
37.06523,47659
37.07337,47729
37.08148,46139
37.08960,45450
37.09773,46651
37.10585,45058
37.11398,46035
37.12210,45658
37.13022,44644
37.13835,49032
37.14647,47586
37.15458,43188
37.16272,43958
37.17083,45154
37.17897,45713
37.18708,43755
37.19520,46758
37.20333,45215
37.21145,46535
37.21958,43055
37.22770,46538
37.23582,47080
37.24395,56695
37.25207,58868
37.26020,66305
37.26832,66241
37.27643,69141
37.28457,61750
37.29268,62920
37.30080,62148
37.30893,59041
37.31705,56214
37.32518,54678
37.33330,54485
37.34142,51422
37.34955,46499
37.35767,51795
37.36580,46141
37.37392,51192
37.38203,50134
37.39017,52999
37.39828,45509
37.40640,47303
37.41453,49692
37.42265,49791
37.43078,50493
37.43890,47176
37.44702,45289
37.45515,48230
37.46327,50894
37.47140,50759
37.47952,47354
37.48763,50137
