C:\MassHunter\GCMS\1\data\JTB-E02\BACandBLUE\JTB-E18-017-11.D Wed Jul 03 15:31:39 2019
Start of data points
2.09527	49130
2.10340	50371
2.11152	52055
2.11963	54058
2.12777	54418
2.13588	51116
2.14402	53873
2.15213	51132
2.16025	55445
2.16838	52713
2.17650	50262
2.18462	49415
2.19275	48844
2.20087	46994
2.20900	48059
2.21712	46700
2.22523	50001
2.23337	43041
2.24148	46542
2.24962	44922
2.25773	45154
2.26585	46302
2.27398	120372
2.28210	983576
2.29022	1723084
2.29835	729432
2.30647	334170
2.31460	247649
2.32272	214611
2.33083	189052
2.33897	177263
2.34708	188101
2.35522	161450
2.36333	140767
2.37145	133548
2.37958	123468
2.38770	123889
2.39583	115397
2.40395	108006
2.41207	113111
2.42020	103243
2.42832	103135
2.43643	103798
2.44457	98159
2.45268	104848
2.46082	96541
2.46893	87703
2.47705	90214
2.48518	90499
2.49330	104116
2.50143	175013
2.50955	147118
2.51767	109683
2.52580	106951
2.53392	103127
2.54205	95420
2.55017	98512
2.55828	117089
2.56642	186552
2.57453	191964
2.58265	133460
2.59078	115812
2.59890	111506
2.60703	118282
2.61515	283799
2.62327	519044
2.63140	386803
2.63952	231378
2.64765	172931
2.65577	145182
2.66388	124605
2.67202	109603
2.68013	110279
2.68825	106257
2.69638	102174
2.70450	96953
2.71263	94700
2.72075	92866
2.72887	88412
2.73700	93866
2.74512	83597
2.75325	88924
2.76137	86674
2.76948	87275
2.77762	87199
2.78573	109120
2.79387	180703
2.80198	178810
2.81010	132606
2.81823	122403
2.82635	158195
2.83447	163725
2.84260	176849
2.85072	145363
2.85885	117573
2.86697	106520
2.87508	103861
2.88322	97711
2.89133	88239
2.89947	91314
2.90758	89443
2.91570	82819
2.92383	77638
2.93195	80932
2.94007	77048
2.94820	83504
2.95632	80377
2.96445	78764
2.97257	86116
2.98068	79511
2.98882	77750
2.99693	78203
3.00507	85196
3.01318	86529
3.02130	83791
3.02943	80478
3.03755	80927
3.04568	77278
3.05380	77940
3.06192	83536
3.07005	89986
3.07817	98570
3.08628	137426
3.09442	471837
3.10253	1188103
3.11067	2528406
3.11878	4175046
3.12690	3398319
3.13503	1996551
3.14315	1400571
3.15128	1083250
3.15940	871944
3.16752	719908
3.17565	689341
3.18377	680270
3.19190	910207
3.20002	1769125
3.20813	2029600
3.21627	1424330
3.22438	1036105
3.23250	844898
3.24063	725907
3.24875	608109
3.25688	523481
3.26500	491424
3.27312	417631
3.28125	394926
3.28937	404269
3.29750	793433
3.30562	2269037
3.31373	4701764
3.32187	5908325
3.32998	4995406
3.33810	3543477
3.34623	2537115
3.35435	1954284
3.36248	1560275
3.37060	1307181
3.37872	1129641
3.38685	966361
3.39497	857303
3.40310	770365
3.41122	719567
3.41933	635440
3.42747	590892
3.43558	562166
3.44372	537592
3.45183	519118
3.45995	493218
3.46808	487899
3.47620	494232
3.48432	510367
3.49245	467289
3.50057	436467
3.50870	415097
3.51682	393652
3.52493	379202
3.53307	377303
3.54118	372938
3.54932	380053
3.55743	375377
3.56555	348033
3.57368	337478
3.58180	355762
3.58993	354668
3.59805	334584
3.60617	315300
3.61430	322744
3.62242	323207
3.63053	332444
3.63867	375295
3.64678	411648
3.65492	395437
3.66303	408926
3.67115	1117277
3.67928	4120781
3.68740	8085704
3.69553	7692919
3.70365	4765733
3.71177	2963241
3.71990	2247028
3.72802	1878912
3.73613	1626410
3.74427	1437748
3.75238	1265308
3.76052	1166369
3.76863	1046000
3.77675	981537
3.78488	914143
3.79300	845232
3.80113	842492
3.80925	999522
3.81737	1561915
3.82550	2092348
3.83362	1858472
3.84175	1361906
3.84987	1087056
3.85798	952254
3.86612	847004
3.87423	776463
3.88235	734946
3.89048	679351
3.89860	642384
3.90673	614872
3.91485	605812
3.92297	687234
3.93110	899415
3.93922	1018079
3.94735	955966
3.95547	997952
3.96358	1683936
3.97172	2765980
3.97983	2949744
3.98795	2082980
3.99608	1500097
4.00420	2736873
4.01233	7730994
4.02045	1.386226E+07
4.02857	1.463062E+07
4.03670	9618921
4.04482	4816304
4.05295	2666088
4.06107	1805692
4.06918	1396621
4.07732	1136160
4.08543	976306
4.09357	848877
4.10168	774088
4.10980	714760
4.11793	667490
4.12605	615604
4.13417	605670
4.14230	702935
4.15042	1029214
4.15855	1387383
4.16667	1386220
4.17478	1098791
4.18292	895857
4.19103	773558
4.19917	664542
4.20728	654119
4.21540	1335120
4.22353	4522376
4.23165	1.124136E+07
4.23978	1.710734E+07
4.24790	1.799171E+07
4.25602	1.327086E+07
4.26415	7860535
4.27227	5081750
4.28038	3676832
4.28852	2799043
4.29663	2201966
4.30477	1817647
4.31288	1559992
4.32100	1351459
4.32913	1220826
4.33725	1097835
4.34538	1021106
4.35350	1006823
4.36162	1014417
4.36975	1002990
4.37787	979201
4.38600	892657
4.39412	800314
4.40223	734415
4.41037	685325
4.41848	646184
4.42660	618185
4.43473	607396
4.44285	574565
4.45098	543154
4.45910	535677
4.46722	525462
4.47535	509366
4.48347	496526
4.49160	483702
4.49972	454691
4.50783	456304
4.51597	443316
4.52408	444560
4.53220	431645
4.54033	425415
4.54845	416091
4.55658	429449
4.56470	412425
4.57282	399044
4.58095	390921
4.58907	372417
4.59720	373973
4.60532	364847
4.61343	362033
4.62157	381549
4.62968	496986
4.63782	781050
4.64593	1182550
4.65405	1303560
4.66218	1078156
4.67030	758565
4.67842	590531
4.68655	496251
4.69467	467782
4.70280	424934
4.71092	385875
4.71903	355345
4.72717	344845
4.73528	340370
4.74342	332658
4.75153	313343
4.75965	313088
4.76778	305694
4.77590	298785
4.78402	304963
4.79215	329112
4.80027	435799
4.80840	626765
4.81652	749902
4.82463	680725
4.83277	553401
4.84088	483836
4.84902	472969
4.85713	466217
4.86525	441343
4.87338	390167
4.88150	370125
4.88963	344819
4.89775	339095
4.90587	329405
4.91400	305541
4.92212	312133
4.93023	329904
4.93837	430920
4.94648	787388
4.95462	1566849
4.96273	2510675
4.97085	3075415
4.97898	2970559
4.98710	2412016
4.99523	1807137
5.00335	1374196
5.01147	1110559
5.01960	926275
5.02772	903355
5.03585	1099492
5.04397	1451921
5.05208	1623236
5.06022	1442594
5.06833	1159014
5.07645	972920
5.08458	852949
5.09270	777246
5.10083	711599
5.10895	666794
5.11707	622489
5.12520	606307
5.13332	575208
5.14145	546138
5.14957	539735
5.15768	560514
5.16582	616728
5.17393	679324
5.18205	676709
5.19018	627776
5.19830	594792
5.20643	632272
5.21455	683393
5.22267	683101
5.23080	641606
5.23892	561755
5.24705	512650
5.25517	472711
5.26328	441390
5.27142	403919
5.27953	372815
5.28767	358127
5.29578	349477
5.30390	353545
5.31203	342539
5.32015	338002
5.32827	347275
5.33640	374368
5.34452	414289
5.35265	424605
5.36077	414224
5.36888	374960
5.37702	345186
5.38513	352070
5.39327	356759
5.40138	395150
5.40950	399053
5.41763	391376
5.42575	358914
5.43388	346559
5.44200	330470
5.45012	343746
5.45825	340554
5.46637	346417
5.47448	333942
5.48262	311173
5.49073	303579
5.49887	282022
5.50698	284615
5.51510	279622
5.52323	286837
5.53135	289503
5.53948	284498
5.54760	274378
5.55572	287205
5.56385	318815
5.57197	387942
5.58008	450195
5.58822	454730
5.59633	405323
5.60447	342949
5.61258	295841
5.62070	286574
5.62883	280698
5.63695	291085
5.64508	303207
5.65320	309421
5.66132	296397
5.66945	288901
5.67757	292897
5.68570	319045
5.69382	355917
5.70193	359731
5.71007	354214
5.71818	314493
5.72630	303665
5.73443	283757
5.74255	263136
5.75068	263962
5.75880	253024
5.76692	244092
5.77505	239776
5.78317	239312
5.79130	244852
5.79942	230393
5.80753	231124
5.81567	226776
5.82378	238221
5.83190	231331
5.84003	232580
5.84815	232207
5.85628	236574
5.86440	230075
5.87252	234681
5.88065	230201
5.88877	225382
5.89690	216184
5.90502	208476
5.91313	195531
5.92127	172395
5.92938	167966
5.93752	162813
5.94563	175267
5.95375	187575
5.96188	212333
5.97000	251679
5.97812	280108
5.98625	324983
5.99437	358915
6.00250	344502
6.01062	303345
6.01873	245893
6.02687	214479
6.03498	212149
6.04312	191661
6.05123	186375
6.05935	167145
6.06748	169538
6.07560	161135
6.08373	161205
6.09185	162500
6.09997	161790
6.10810	165051
6.11622	179189
6.12433	217534
6.13247	283639
6.14058	428852
6.14872	606579
6.15683	688789
6.16495	603327
6.17308	473277
6.18120	354173
6.18933	295480
6.19745	264732
6.20557	259189
6.21370	241049
6.22182	241608
6.22993	229809
6.23807	230201
6.24618	222403
6.25432	220342
6.26243	243174
6.27055	261175
6.27868	242869
6.28680	232580
6.29493	219846
6.30305	220072
6.31117	216746
6.31930	220087
6.32742	225736
6.33555	238628
6.34367	250968
6.35178	249919
6.35992	245330
6.36803	221421
6.37615	223230
6.38428	218956
6.39240	217911
6.40053	212872
6.40865	211662
6.41677	211199
6.42490	209710
6.43302	212054
6.44115	206639
6.44927	209339
6.45738	215537
6.46552	212919
6.47363	206484
6.48177	206687
6.48988	209625
6.49800	211756
6.50613	215229
6.51425	213579
6.52237	224965
6.53050	226633
6.53862	230148
6.54675	220366
6.55487	216215
6.56298	234450
6.57112	276801
6.57923	334920
6.58737	410008
6.59548	412034
6.60360	362417
6.61173	299433
6.61985	268851
6.62797	264182
6.63610	248453
6.64422	259685
6.65235	316082
6.66047	521765
6.66858	942110
6.67672	1344811
6.68483	1406897
6.69297	1084465
6.70108	741479
6.70920	534771
6.71733	420232
6.72545	380314
6.73358	349366
6.74170	329209
6.74982	309368
6.75795	270204
6.76607	253044
6.77418	236779
6.78232	221734
6.79043	211459
6.79857	198758
6.80668	184227
6.81480	190521
6.82293	180747
6.83105	182285
6.83918	181551
6.84730	185402
6.85542	189168
6.86355	203227
6.87167	191530
6.87980	176113
6.88792	161059
6.89603	137490
6.90417	123946
6.91228	114339
6.92040	112276
6.92853	110290
6.93665	112713
6.94478	106256
6.95290	107737
6.96102	111615
6.96915	126001
6.97727	140880
6.98540	159598
6.99352	163411
7.00163	141074
7.00977	121576
7.01788	116793
7.02600	112058
7.03413	118376
7.04225	112345
7.05038	123140
7.05850	123583
7.06662	131695
7.07475	128342
7.08287	129308
7.09100	122523
7.09912	110125
7.10723	108227
7.11537	97818
7.12348	101551
7.13162	102808
7.13973	111215
7.14785	150122
7.15598	198435
7.16410	261748
7.17222	305206
7.18035	279828
7.18847	216118
7.19660	176742
7.20472	158007
7.21283	225498
7.22097	470888
7.22908	962096
7.23722	1559556
7.24533	1702922
7.25345	1383609
7.26158	867589
7.26970	519599
7.27782	355057
7.28595	277692
7.29407	202416
7.30220	161904
7.31032	132203
7.31843	135414
7.32657	138006
7.33468	141777
7.34282	136354
7.35093	136347
7.35905	122973
7.36718	115515
7.37530	113497
7.38343	113765
7.39155	119079
7.39967	118003
7.40780	114296
7.41592	107462
7.42403	107349
7.43217	101100
7.44028	100534
7.44842	106348
7.45653	114048
7.46465	105846
7.47278	105395
7.48090	99387
7.48903	93625
7.49715	93048
7.50527	95460
7.51340	109671
7.52152	162975
7.52965	288244
7.53777	526064
7.54588	864654
7.55402	1267312
7.56213	1495337
7.57025	1537088
7.57838	1312494
7.58650	955170
7.59463	631700
7.60275	401032
7.61087	254810
7.61900	176756
7.62712	147965
7.63525	130212
7.64337	114664
7.65148	109669
7.65962	104938
7.66773	97783
7.67585	90699
7.68398	88244
7.69210	92259
7.70023	86544
7.70835	92958
7.71647	92803
7.72460	91605
7.73272	92657
7.74085	91060
7.74897	89128
7.75708	93436
7.76522	98490
7.77333	97069
7.78147	107392
7.78958	116286
7.79770	121027
7.80583	135146
7.81395	136146
7.82207	138629
7.83020	123187
7.83832	103698
7.84645	110454
7.85457	102535
7.86268	109076
7.87082	121802
7.87893	137536
7.88707	148063
7.89518	158785
7.90330	148996
7.91143	134600
7.91955	118443
7.92768	119206
7.93580	130726
7.94392	150620
7.95205	164467
7.96017	166272
7.96828	145200
7.97642	127233
7.98453	105019
7.99267	90830
8.00078	88141
8.00890	78459
8.01703	79175
8.02515	79522
8.03328	72877
8.04140	78058
8.04952	77435
8.05765	83458
8.06577	82326
8.07388	79772
8.08202	78071
8.09013	74180
8.09827	72872
8.10638	70648
8.11450	80416
8.12263	77123
8.13075	87211
8.13888	108183
8.14700	126651
8.15512	148865
8.16325	150232
8.17137	131167
8.17950	117978
8.18762	93554
8.19573	80415
8.20387	84212
8.21198	80354
8.22010	87552
8.22823	88562
8.23635	83510
8.24448	82901
8.25260	76799
8.26072	76131
8.26885	75096
8.27697	73064
8.28510	69232
8.29322	68819
8.30133	69194
8.30947	74618
8.31758	77421
8.32570	79075
8.33383	78022
8.34195	79564
8.35008	73965
8.35820	73962
8.36632	74334
8.37445	78174
8.38257	86367
8.39070	88080
8.39882	86645
8.40693	80603
8.41507	68777
8.42318	71937
8.43132	71259
8.43943	69354
8.44755	67104
8.45568	66264
8.46380	65277
8.47192	71128
8.48005	70095
8.48817	67712
8.49630	67553
8.50442	68031
8.51253	66954
8.52067	78850
8.52878	114850
8.53692	194692
8.54503	307846
8.55315	421812
8.56128	431611
8.56940	351923
8.57753	255937
8.58565	161543
8.59377	128471
8.60190	128919
8.61002	138475
8.61813	141279
8.62627	131058
8.63438	112494
8.64252	103386
8.65063	92728
8.65875	83337
8.66688	79020
8.67500	77420
8.68313	80943
8.69125	85062
8.69937	94394
8.70750	96694
8.71562	100933
8.72373	96143
8.73187	93397
8.73998	91917
8.74812	127684
8.75623	255555
8.76435	542742
8.77248	967732
8.78060	1400572
8.78873	1558139
8.79685	1326093
8.80497	967610
8.81310	607654
8.82122	397316
8.82935	277035
8.83747	236776
8.84558	222445
8.85372	229610
8.86183	221529
8.86995	212720
8.87808	195317
8.88620	186062
8.89433	173280
8.90245	169764
8.91057	158558
8.91870	152503
8.92682	156674
8.93495	164160
8.94307	176848
8.95118	181753
8.95932	184273
8.96743	186458
8.97557	183058
8.98368	174226
8.99180	180633
8.99993	177622
9.00805	171306
9.01617	163386
9.02430	148891
9.03242	141008
9.04055	129335
9.04867	132140
9.05678	126678
9.06492	119692
9.07303	119276
9.08117	119602
9.08928	132369
9.09740	141344
9.10553	158810
9.11365	200333
9.12177	216043
9.12990	215383
9.13802	196123
9.14615	168895
9.15427	147536
9.16238	134731
9.17052	132371
9.17863	128325
9.18677	118516
9.19488	112255
9.20300	112083
9.21113	105411
9.21925	110266
9.22738	109773
9.23550	109937
9.24362	105990
9.25175	110401
9.25987	110564
9.26798	106766
9.27612	106897
9.28423	111541
9.29237	108941
9.30048	106889
9.30860	105055
9.31673	102926
9.32485	98798
9.33298	104333
9.34110	97568
9.34922	93711
9.35735	94449
9.36547	90647
9.37358	90102
9.38172	90948
9.38983	96766
9.39797	104964
9.40608	118750
9.41420	146744
9.42233	196490
9.43045	243453
9.43858	305184
9.44670	324452
9.45482	312193
9.46295	251910
9.47107	202240
9.47920	163662
9.48732	132855
9.49543	111199
9.50357	117092
9.51168	128138
9.51980	152158
9.52793	163014
9.53605	166147
9.54418	151337
9.55230	131318
9.56042	107597
9.56855	94355
9.57667	83661
9.58480	87935
9.59292	80191
9.60103	81968
9.60917	74443
9.61728	75056
9.62542	68388
9.63353	66816
9.64165	65792
9.64978	66427
9.65790	67656
9.66602	70075
9.67415	72275
9.68227	67433
9.69040	69609
9.69852	66027
9.70663	64566
9.71477	67066
9.72288	63130
9.73102	59457
9.73913	57874
9.74725	59508
9.75538	54435
9.76350	54864
9.77163	58290
9.77975	60678
9.78787	59710
9.79600	60096
9.80412	56350
9.81223	58815
9.82037	63049
9.82848	61823
9.83662	65124
9.84473	58826
9.85285	59677
9.86098	59021
9.86910	58728
9.87723	65656
9.88535	59366
9.89347	62928
9.90160	57732
9.90972	67640
9.91783	71997
9.92597	71877
9.93408	97430
9.94222	124978
9.95033	172016
9.95845	220657
9.96658	242433
9.97470	269390
9.98283	247424
9.99095	211689
9.99907	176844
10.00720	135275
10.01532	109047
10.02345	95829
10.03157	80373
10.03968	79680
10.04782	81537
10.05593	73813
10.06405	73401
10.07218	76276
10.08030	78193
10.08843	81969
10.09655	81751
10.10467	80633
10.11280	87744
10.12092	91068
10.12905	89316
10.13717	89396
10.14528	89343
10.15342	83004
10.16153	81402
10.16965	75246
10.17778	72996
10.18590	70044
10.19403	68802
10.20215	70224
10.21027	66785
10.21840	69003
10.22652	75705
10.23465	85089
10.24277	91240
10.25088	106206
10.25902	124090
10.26713	200141
10.27527	410334
10.28338	853663
10.29150	1569095
10.29963	2380542
10.30775	3290814
10.31587	4636389
10.32400	6578139
10.33212	8745349
10.34025	1.001629E+07
10.34837	9697276
10.35648	8147254
10.36462	6450226
10.37273	5432377
10.38087	4564719
10.38898	3533710
10.39710	2488963
10.40523	1651271
10.41335	1061820
10.42148	751513
10.42960	582994
10.43772	515966
10.44585	508269
10.45397	485581
10.46208	475294
10.47022	432967
10.47833	409275
10.48647	367456
10.49458	334122
10.50270	297198
10.51083	277200
10.51895	262703
10.52708	247513
10.53520	233331
10.54332	237196
10.55145	221367
10.55957	215096
10.56768	213293
10.57582	212625
10.58393	200503
10.59207	197223
10.60018	196668
10.60830	181988
10.61643	182671
10.62455	167152
10.63268	163762
10.64080	163928
10.64892	163794
10.65705	161474
10.66517	149973
10.67330	155639
10.68142	156252
10.68953	153167
10.69767	156593
10.70578	157879
10.71390	161958
10.72203	151198
10.73015	148526
10.73828	145257
10.74640	145741
10.75452	145383
10.76265	139929
10.77077	137063
10.77890	127387
10.78702	125956
10.79513	126312
10.80327	130095
10.81138	141479
10.81952	143615
10.82763	131718
10.83575	133740
10.84388	118127
10.85200	111467
10.86012	105363
10.86825	104444
10.87637	105380
10.88450	103806
10.89262	103269
10.90073	106359
10.90887	106687
10.91698	102305
10.92512	108127
10.93323	93541
10.94135	95855
10.94948	91779
10.95760	95889
10.96572	89824
10.97385	97864
10.98197	97811
10.99010	105507
10.99822	109486
11.00633	114848
11.01447	110217
11.02258	109997
11.03072	100559
11.03883	100239
11.04695	91008
11.05508	85966
11.06320	86986
11.07133	92704
11.07945	105778
11.08757	112345
11.09570	121991
11.10382	116355
11.11193	116730
11.12007	113146
11.12818	102761
11.13632	87011
11.14443	85851
11.15255	83150
11.16068	86823
11.16880	92870
11.17693	87969
11.18505	82872
11.19317	89097
11.20130	90240
11.20942	88510
11.21753	89042
11.22567	81971
11.23378	86859
11.24192	85309
11.25003	81818
11.25815	78319
11.26628	74855
11.27440	73205
11.28253	77432
11.29065	83943
11.29877	118749
11.30690	220893
11.31502	457114
11.32315	925035
11.33127	1653846
11.33938	2438678
11.34752	2895842
11.35563	2905933
11.36375	2469569
11.37188	1769656
11.38000	1137162
11.38813	762084
11.39625	531012
11.40437	420333
11.41250	374001
11.42062	335837
11.42875	303937
11.43687	270070
11.44498	248490
11.45312	218271
11.46123	192963
11.46937	160817
11.47748	163713
11.48560	159895
11.49373	167070
11.50185	182850
11.50997	192005
11.51810	189486
11.52622	176093
11.53435	165471
11.54247	157337
11.55058	149852
11.55872	149230
11.56683	146129
11.57497	147896
11.58308	145201
11.59120	139585
11.59933	153245
11.60745	169766
11.61557	197426
11.62370	204231
11.63182	198662
11.63995	181831
11.64807	155886
11.65618	131212
11.66432	122197
11.67243	122317
11.68057	123720
11.68868	131543
11.69680	140385
11.70493	153558
11.71305	164996
11.72118	157831
11.72930	152898
11.73742	135535
11.74555	111609
11.75367	100146
11.76178	99563
11.76992	87438
11.77803	89677
11.78617	88305
11.79428	94998
11.80240	91531
11.81053	94506
11.81865	91424
11.82678	91747
11.83490	89832
11.84302	92239
11.85115	91096
11.85927	93096
11.86740	85743
11.87552	87361
11.88363	84026
11.89177	79779
11.89988	78248
11.90800	81432
11.91613	81324
11.92425	84749
11.93238	93422
11.94050	87336
11.94862	94784
11.95675	88151
11.96487	88804
11.97300	100652
11.98112	152550
11.98923	267556
11.99737	474606
12.00548	727600
12.01360	932027
12.02173	995537
12.02985	811412
12.03798	592889
12.04610	415814
12.05422	301294
12.06235	224902
12.07047	196069
12.07860	187939
12.08672	189906
12.09483	194342
12.10297	185111
12.11108	190057
12.11922	192572
12.12733	194599
12.13545	199495
12.14358	190028
12.15170	178133
12.15982	168452
12.16795	146135
12.17607	128100
12.18420	121834
12.19232	118436
12.20043	115342
12.20857	118233
12.21668	120670
12.22482	116698
12.23293	118650
12.24105	114241
12.24918	111711
12.25730	112241
12.26543	114833
12.27355	107962
12.28167	107288
12.28980	111638
12.29792	98162
12.30603	97021
12.31417	92300
12.32228	95848
12.33042	89752
12.33853	93062
12.34665	88454
12.35478	89800
12.36290	96664
12.37103	86656
12.37915	87437
12.38727	86801
12.39540	92832
12.40352	107125
12.41163	108514
12.41977	124643
12.42788	136030
12.43602	137848
12.44413	145899
12.45225	135135
12.46038	134764
12.46850	121313
12.47663	113032
12.48475	103908
12.49287	100183
12.50100	94259
12.50912	89658
12.51725	86886
12.52537	90441
12.53348	110457
12.54162	163846
12.54973	261403
12.55785	407512
12.56598	546492
12.57410	601914
12.58223	553031
12.59035	413816
12.59847	281418
12.60660	203735
12.61472	160207
12.62285	149238
12.63097	139899
12.63908	135215
12.64722	126733
12.65533	117029
12.66345	111763
12.67158	106564
12.67970	91479
12.68783	93850
12.69595	90087
12.70407	89982
12.71220	87905
12.72032	91300
12.72845	96548
12.73657	95492
12.74468	103658
12.75282	98505
12.76093	97517
12.76907	91759
12.77718	83013
12.78530	87620
12.79343	85091
12.80155	88076
12.80967	77430
12.81780	79967
12.82592	77543
12.83405	73133
12.84217	67862
12.85028	73816
12.85842	65408
12.86653	70138
12.87467	72488
12.88278	75189
12.89090	76844
12.89903	78923
12.90715	73390
12.91528	75653
12.92340	74080
12.93152	71442
12.93965	71238
12.94777	78933
12.95588	95088
12.96402	138703
12.97213	220081
12.98027	307030
12.98838	361889
12.99650	361765
13.00463	289145
13.01275	215378
13.02088	161521
13.02900	138683
13.03712	126013
13.04525	131313
13.05337	145321
13.06148	172352
13.06962	193018
13.07773	206592
13.08587	201002
13.09398	177874
13.10210	144424
13.11023	121351
13.11835	104881
13.12648	97888
13.13460	97614
13.14272	99038
13.15085	93679
13.15897	95444
13.16710	91461
13.17522	93341
13.18333	89064
13.19147	90084
13.19958	94807
13.20770	92718
13.21583	97150
13.22395	95964
13.23208	94806
13.24020	96076
13.24832	89911
13.25645	90353
13.26457	84393
13.27270	82567
13.28082	77993
13.28893	80401
13.29707	71233
13.30518	73809
13.31332	72820
13.32143	68625
13.32955	67612
13.33768	68600
13.34580	66626
13.35392	67445
13.36205	67344
13.37017	66598
13.37830	66610
13.38642	69532
13.39453	62655
13.40267	67591
13.41078	61443
13.41892	61728
13.42703	60129
13.43515	66253
13.44328	57165
13.45140	64273
13.45952	67974
13.46765	72819
13.47577	73101
13.48390	74785
13.49202	74954
13.50013	74966
13.50827	75099
13.51638	71434
13.52452	70717
13.53263	72255
13.54075	75140
13.54888	74556
13.55700	73253
13.56513	75206
13.57325	73979
13.58137	76872
13.58950	80045
13.59762	94588
13.60573	117770
13.61387	144000
13.62198	174370
13.63012	184619
13.63823	177405
13.64635	150855
13.65448	113731
13.66260	91658
13.67073	82840
13.67885	75689
13.68697	72593
13.69510	73203
13.70322	71679
13.71133	68227
13.71947	75732
13.72758	88767
13.73572	136677
13.74383	289039
13.75195	701402
13.76008	1525558
13.76820	2718031
13.77633	3815579
13.78445	4368152
13.79257	4208709
13.80070	3149310
13.80882	2178245
13.81695	1589171
13.82507	1295480
13.83318	1254967
13.84132	1216018
13.84943	1109996
13.85755	969505
13.86568	775002
13.87380	628846
13.88193	517609
13.89005	436826
13.89817	373814
13.90630	339963
13.91442	318292
13.92255	293037
13.93067	272949
13.93878	264016
13.94692	255556
13.95503	273848
13.96317	289729
13.97128	334188
13.97940	365193
13.98753	384431
13.99565	370723
14.00377	336106
14.01190	286946
14.02002	268859
14.02815	229769
14.03627	222716
14.04438	208545
14.05252	201432
14.06063	194031
14.06877	193450
14.07688	191486
14.08500	193245
14.09313	187034
14.10125	180897
14.10937	180063
14.11750	174192
14.12562	175877
14.13375	194027
14.14187	212176
14.14998	250482
14.15812	264312
14.16623	282000
14.17437	304587
14.18248	362648
14.19060	445485
14.19873	539369
14.20685	572600
14.21498	548208
14.22310	449915
14.23122	370705
14.23935	318086
14.24747	282250
14.25558	261875
14.26372	248905
14.27183	219947
14.27997	199674
14.28808	182185
14.29620	166775
14.30433	157578
14.31245	145695
14.32058	149687
14.32870	139351
14.33682	141884
14.34495	139179
14.35307	125984
14.36120	117623
14.36932	109864
14.37743	106650
14.38557	110150
14.39368	137124
14.40180	187771
14.40993	267293
14.41805	395779
14.42618	480926
14.43430	482183
14.44242	397184
14.45055	312207
14.45867	223341
14.46680	173372
14.47492	160995
14.48303	152659
14.49117	144720
14.49928	140268
14.50740	132383
14.51553	134386
14.52365	143553
14.53178	139746
14.53990	138201
14.54802	135187
14.55615	123989
14.56427	111452
14.57240	97825
14.58052	92961
14.58863	88363
14.59677	89172
14.60488	85910
14.61302	81128
14.62113	85476
14.62925	88826
14.63738	84037
14.64550	85550
14.65362	83417
14.66175	79801
14.66987	76612
14.67800	78104
14.68612	72008
14.69423	73391
14.70237	73083
14.71048	78172
14.71862	83204
14.72673	81726
14.73485	89927
14.74298	100767
14.75110	100488
14.75922	95062
14.76735	98796
14.77547	98324
14.78360	101049
14.79172	144875
14.79983	272171
14.80797	582173
14.81608	1221640
14.82422	2137901
14.83233	2848756
14.84045	3103974
14.84858	2780101
14.85670	2067880
14.86483	1392072
14.87295	862381
14.88107	566046
14.88920	420371
14.89732	332465
14.90543	277990
14.91357	249348
14.92168	223879
14.92982	217074
14.93793	201941
14.94605	194619
14.95418	189558
14.96230	186713
14.97043	185763
14.97855	180148
14.98667	174218
14.99480	165483
15.00292	158083
15.01105	143808
15.01917	145873
15.02728	134969
15.03542	131979
15.04353	132284
15.05165	128170
15.05978	121781
15.06790	116725
15.07603	113437
15.08415	111349
15.09227	110689
15.10040	100205
15.10852	106416
15.11665	99713
15.12477	102989
15.13288	107640
15.14102	112712
15.14913	116016
15.15727	117859
15.16538	107313
15.17350	104542
15.18163	100538
15.18975	91092
15.19787	86094
15.20600	88448
15.21412	87689
15.22225	86263
15.23037	86449
15.23848	82576
15.24662	78525
15.25473	84546
15.26287	81991
15.27098	80471
15.27910	73038
15.28723	70684
15.29535	62269
15.30347	65023
15.31160	68284
15.31972	67713
15.32785	63074
15.33597	65418
15.34408	61974
15.35222	55658
15.36033	60870
15.36847	61679
15.37658	62015
15.38470	64160
15.39283	70087
15.40095	75190
15.40908	83477
15.41720	88562
15.42532	94355
15.43345	93548
15.44157	88034
15.44968	81149
15.45782	88662
15.46593	108850
15.47407	150544
15.48218	248242
15.49030	382079
15.49843	528676
15.50655	605156
15.51468	636072
15.52280	554287
15.53092	464088
15.53905	373585
15.54717	295836
15.55528	240134
15.56342	185675
15.57153	146111
15.57967	124465
15.58778	109108
15.59590	95036
15.60403	82124
15.61215	79038
15.62028	74841
15.62840	80675
15.63652	71532
15.64465	69882
15.65277	73854
15.66090	62255
15.66902	62353
15.67713	63868
15.68527	61365
15.69338	61486
15.70150	62814
15.70963	60568
15.71775	58586
15.72588	65073
15.73400	65017
15.74212	71083
15.75025	79849
15.75837	87442
15.76650	126661
15.77462	184475
15.78273	261303
15.79087	315352
15.79898	326780
15.80712	293888
15.81523	236751
15.82335	175796
15.83148	141314
15.83960	108963
15.84772	105448
15.85585	92206
15.86397	92324
15.87210	89669
15.88022	90148
15.88833	93416
15.89647	92614
15.90458	90959
15.91272	91801
15.92083	87139
15.92895	81675
15.93708	84826
15.94520	103508
15.95332	127023
15.96145	171705
15.96957	226885
15.97770	262798
15.98582	290953
15.99393	278335
16.00207	233893
16.01018	196732
16.01832	158396
16.02643	137331
16.03455	131994
16.04268	120045
16.05080	116464
16.05893	105570
16.06705	97369
16.07517	89272
16.08330	84821
16.09142	84864
16.09953	82572
16.10767	81757
16.11578	85869
16.12392	88407
16.13203	92169
16.14015	100810
16.14828	102263
16.15640	102778
16.16453	107666
16.17265	96520
16.18077	100053
16.18890	86668
16.19702	80713
16.20515	79676
16.21327	80524
16.22138	84142
16.22952	90580
16.23763	87336
16.24575	83546
16.25388	86238
16.26200	85694
16.27013	82558
16.27825	85513
16.28637	93493
16.29450	99442
16.30262	98883
16.31075	96903
16.31887	96934
16.32698	97721
16.33512	92215
16.34323	87529
16.35135	109766
16.35948	144053
16.36760	197440
16.37573	245066
16.38385	265405
16.39197	250910
16.40010	215726
16.40822	165638
16.41635	128236
16.42447	108916
16.43258	91800
16.44072	92618
16.44883	110059
16.45697	145286
16.46508	204831
16.47320	304360
16.48133	423437
16.48945	448996
16.49757	414369
16.50570	325840
16.51382	247892
16.52195	169955
16.53007	137768
16.53818	110612
16.54632	99458
16.55443	93234
16.56257	91037
16.57068	89625
16.57880	94368
16.58693	98872
16.59505	116306
16.60317	135339
16.61130	158954
16.61942	177098
16.62755	178257
16.63567	167961
16.64378	140688
16.65192	119941
16.66003	102414
16.66817	97810
16.67628	85910
16.68440	79748
16.69253	75081
16.70065	73996
16.70878	72216
16.71690	71998
16.72502	72489
16.73315	72330
16.74127	62110
16.74938	71401
16.75752	70344
16.76563	64702
16.77377	65397
16.78188	70776
16.79000	67040
16.79813	64350
16.80625	62475
16.81438	60239
16.82250	64529
16.83062	64400
16.83875	58922
16.84687	59348
16.85500	60703
16.86312	57773
16.87123	59784
16.87937	58436
16.88748	59658
16.89560	56909
16.90373	58895
16.91185	55926
16.91998	54746
16.92810	56525
16.93622	56256
16.94435	56297
16.95247	56626
16.96060	56144
16.96872	56916
16.97683	53804
16.98497	59985
16.99308	58611
17.00120	59242
17.00933	60828
17.01745	58393
17.02558	63054
17.03370	62460
17.04182	67439
17.04995	73763
17.05807	77939
17.06620	82840
17.07432	82753
17.08243	88317
17.09057	105486
17.09868	136832
17.10682	166782
17.11493	199367
17.12305	221642
17.13118	214986
17.13930	204805
17.14742	190791
17.15555	163381
17.16367	141490
17.17180	121814
17.17992	103923
17.18803	86363
17.19617	81159
17.20428	73620
17.21242	64628
17.22053	60162
17.22865	60043
17.23678	59286
17.24490	58486
17.25303	62847
17.26115	58645
17.26927	60090
17.27740	55458
17.28552	56308
17.29363	57470
17.30177	57899
17.30988	65286
17.31802	65691
17.32613	74245
17.33425	90196
17.34238	102788
17.35050	109834
17.35863	114857
17.36675	114245
17.37487	104568
17.38300	105219
17.39112	94239
17.39923	92901
17.40737	88793
17.41548	89991
17.42362	95542
17.43173	95277
17.43985	93155
17.44798	86589
17.45610	83968
17.46423	79338
17.47235	73704
17.48047	70300
17.48860	64956
17.49672	61632
17.50485	58715
17.51297	59788
17.52108	62580
17.52922	65551
17.53733	65014
17.54545	63003
17.55358	73690
17.56170	94641
17.56983	136802
17.57795	220250
17.58607	385294
17.59420	635366
17.60232	912777
17.61045	1134493
17.61857	1129535
17.62668	939562
17.63482	715111
17.64293	520880
17.65105	410173
17.65918	365802
17.66730	353509
17.67543	339520
17.68355	300711
17.69167	266319
17.69980	214403
17.70792	169669
17.71605	155994
17.72417	140526
17.73228	126879
17.74042	121902
17.74853	114635
17.75667	115617
17.76478	109119
17.77290	102008
17.78103	96655
17.78915	100199
17.79727	103015
17.80540	110918
17.81352	129030
17.82165	158839
17.82977	176982
17.83788	190798
17.84602	179756
17.85413	168462
17.86227	158957
17.87038	144561
17.87850	131967
17.88663	125413
17.89475	106905
17.90288	91304
17.91100	83908
17.91912	79597
17.92725	73974
17.93537	70354
17.94348	70689
17.95162	66645
17.95973	63033
17.96787	66565
17.97598	67662
17.98410	62601
17.99223	68632
18.00035	60869
18.00848	65343
18.01660	76452
18.02472	89879
18.03285	99456
18.04097	115382
18.04908	140243
18.05722	180176
18.06533	290750
18.07347	545562
18.08158	946369
18.08970	1361130
18.09783	1668246
18.10595	1712528
18.11408	1447693
18.12220	1096420
18.13032	828680
18.13845	611149
18.14657	486477
18.15470	407337
18.16282	371424
18.17093	324313
18.17907	285437
18.18718	276520
18.19530	245707
18.20343	240206
18.21155	220525
18.21968	229425
18.22780	273045
18.23592	358158
18.24405	433689
18.25217	482753
18.26030	496776
18.26842	496673
18.27653	497741
18.28467	488096
18.29278	485579
18.30092	457629
18.30903	442637
18.31715	439118
18.32528	438043
18.33340	427280
18.34152	434850
18.34965	419982
18.35777	427393
18.36590	426347
18.37402	410265
18.38213	423364
18.39027	439762
18.39838	485971
18.40652	576646
18.41463	661645
18.42275	745650
18.43088	776995
18.43900	762425
18.44712	745028
18.45525	713627
18.46337	715668
18.47150	754568
18.47962	776956
18.48773	788299
18.49587	738224
18.50398	652630
18.51212	567351
18.52023	503763
18.52835	442526
18.53648	410644
18.54460	377911
18.55273	352833
18.56085	348241
18.56897	344294
18.57710	336254
18.58522	342922
18.59333	342650
18.60147	351521
18.60958	349338
18.61772	352290
18.62583	355955
18.63395	366340
18.64208	361511
18.65020	361986
18.65833	341876
18.66645	318620
18.67457	314009
18.68270	292783
18.69082	286509
18.69895	287825
18.70707	287758
18.71518	282091
18.72332	276487
18.73143	279031
18.73955	270548
18.74768	267094
18.75580	252415
18.76393	248999
18.77205	253962
18.78017	241899
18.78830	245656
18.79642	247193
18.80455	244467
18.81267	233125
18.82078	242144
18.82892	229109
18.83703	226328
18.84515	219002
18.85328	227222
18.86140	226612
18.86953	223949
18.87765	218581
18.88577	233220
18.89390	222575
18.90202	219968
18.91015	216947
18.91827	211774
18.92638	216850
18.93452	210627
18.94263	214187
18.95077	219890
18.95888	214989
18.96700	220174
18.97513	222586
18.98325	211169
18.99137	203542
18.99950	203207
19.00762	194522
19.01575	186168
19.02387	189063
19.03198	185219
19.04012	182498
19.04823	176713
19.05637	182976
19.06448	195051
19.07260	220837
19.08073	263067
19.08885	314374
19.09697	402479
19.10510	473816
19.11322	497739
19.12135	453300
19.12947	403209
19.13758	330904
19.14572	276287
19.15383	253069
19.16197	220362
19.17008	208626
19.17820	196838
19.18633	193438
19.19445	188151
19.20258	180348
19.21070	172181
19.21882	174576
19.22695	161957
19.23507	162282
19.24318	160452
19.25132	153051
19.25943	147786
19.26757	153100
19.27568	158834
19.28380	160836
19.29193	165722
19.30005	175376
19.30818	168679
19.31630	166671
19.32442	158432
19.33255	154688
19.34067	155038
19.34880	169450
19.35692	186263
19.36503	208839
19.37317	244138
19.38128	272486
19.38940	255598
19.39753	223931
19.40565	197072
19.41378	183722
19.42190	164898
19.43002	152410
19.43815	148700
19.44627	147459
19.45440	152297
19.46252	143433
19.47063	157889
19.47877	176488
19.48688	226255
19.49500	294288
19.50313	354995
19.51125	374251
19.51938	346948
19.52750	298113
19.53562	244452
19.54375	215348
19.55187	189259
19.56000	173102
19.56812	158130
19.57623	146969
19.58437	138113
19.59248	131951
19.60062	125549
19.60873	121065
19.61685	119959
19.62498	124460
19.63310	124981
19.64122	142453
19.64935	164492
19.65747	210532
19.66560	265936
19.67372	308776
19.68183	336721
19.68997	342391
19.69808	316908
19.70622	301699
19.71433	262626
19.72245	239877
19.73058	216176
19.73870	199363
19.74683	185486
19.75495	172773
19.76307	164695
19.77120	180153
19.77932	203195
19.78743	228422
19.79557	264135
19.80368	298593
19.81182	304020
19.81993	292553
19.82805	249275
19.83618	211657
19.84430	189596
19.85243	208015
19.86055	322095
19.86867	649989
19.87680	1357967
19.88492	2541609
19.89303	3921613
19.90117	5031652
19.90928	5289116
19.91742	4873512
19.92553	3922913
19.93365	2766009
19.94178	1946564
19.94990	1410915
19.95803	1097676
19.96615	914217
19.97427	824161
19.98240	763638
19.99052	709302
19.99865	678687
20.00677	636910
20.01488	611643
20.02302	594687
20.03113	546391
20.03925	505460
20.04738	456010
20.05550	412616
20.06363	396722
20.07175	414950
20.07987	432723
20.08800	442646
20.09612	442284
20.10425	412062
20.11237	359351
20.12048	304177
20.12862	258651
20.13673	223106
20.14485	228840
20.15298	272117
20.16110	372039
20.16923	529288
20.17735	764968
20.18547	987737
20.19360	1175083
20.20172	1241832
20.20985	1209596
20.21797	1069792
20.22608	856903
20.23422	680022
20.24233	582124
20.25047	564942
20.25858	620342
20.26670	729794
20.27483	831799
20.28295	886173
20.29107	860671
20.29920	730018
20.30732	606271
20.31545	461021
20.32357	360288
20.33168	264870
20.33982	208682
20.34793	183634
20.35607	157197
20.36418	140006
20.37230	130961
20.38043	127466
20.38855	125975
20.39668	125470
20.40480	122186
20.41292	110891
20.42105	119561
20.42917	125573
20.43728	125788
20.44542	132658
20.45353	133324
20.46167	142004
20.46978	145456
20.47790	144201
20.48603	143612
20.49415	134261
20.50228	122105
20.51040	110279
20.51852	104841
20.52665	97021
20.53477	93135
20.54290	90877
20.55102	91918
20.55913	90272
20.56727	92146
20.57538	87781
20.58350	88172
20.59163	81175
20.59975	84124
20.60788	83664
20.61600	82847
20.62412	81622
20.63225	87690
20.64037	90733
20.64850	97762
20.65662	102882
20.66473	103603
20.67287	102539
20.68098	90912
20.68910	87775
20.69723	81486
20.70535	81775
20.71348	78813
20.72160	76708
20.72972	75764
20.73785	78169
20.74597	82354
20.75410	84485
20.76222	89490
20.77033	95374
20.77847	115057
20.78658	160765
20.79472	261364
20.80283	421041
20.81095	631764
20.81908	795141
20.82720	854296
20.83532	766024
20.84345	568131
20.85157	374721
20.85970	232166
20.86782	155704
20.87593	122767
20.88407	109296
20.89218	104470
20.90032	112652
20.90843	108015
20.91655	118366
20.92468	121340
20.93280	129647
20.94092	125883
20.94905	128158
20.95717	123125
20.96530	107814
20.97342	95471
20.98153	94108
20.98967	91452
20.99778	82797
21.00592	83452
21.01403	83319
21.02215	87195
21.03028	86132
21.03840	88311
21.04653	88273
21.05465	87527
21.06277	85386
21.07090	82377
21.07902	78491
21.08713	77992
21.09527	74049
21.10338	71776
21.11152	71557
21.11963	73271
21.12775	79531
21.13588	94652
21.14400	121335
21.15213	153717
21.16025	190960
21.16837	202799
21.17650	197693
21.18462	178333
21.19275	148688
21.20087	122228
21.20898	108197
21.21712	93601
21.22523	90865
21.23335	86831
21.24148	87736
21.24960	84231
21.25773	87203
21.26585	80871
21.27397	82353
21.28210	79845
21.29022	79655
21.29835	75850
21.30647	70886
21.31458	67362
21.32272	64212
21.33083	68754
21.33895	69772
21.34708	67229
21.35520	64586
21.36333	70022
21.37145	69924
21.37957	73410
21.38770	85662
21.39582	91618
21.40395	101224
21.41207	114198
21.42018	116259
21.42832	110126
21.43643	96041
21.44457	93159
21.45268	83757
21.46080	81914
21.46893	77778
21.47705	74914
21.48517	75080
21.49330	72829
21.50142	69293
21.50955	73595
21.51767	66591
21.52578	70459
21.53392	66232
21.54203	68326
21.55017	72301
21.55828	65496
21.56640	71162
21.57453	72146
21.58265	76315
21.59078	90279
21.59890	92347
21.60702	95864
21.61515	97034
21.62327	96059
21.63138	109696
21.63952	108918
21.64763	112668
21.65577	115557
21.66388	113033
21.67200	121712
21.68013	126152
21.68825	118746
21.69638	117376
21.70450	108237
21.71262	94045
21.72075	85043
21.72887	76999
21.73698	75146
21.74512	76293
21.75323	72307
21.76137	79654
21.76948	81768
21.77760	79208
21.78573	89781
21.79385	92291
21.80198	91548
21.81010	96384
21.81822	102502
21.82635	100750
21.83447	98073
21.84260	97153
21.85072	97096
21.85883	94113
21.86697	86248
21.87508	88475
21.88320	76438
21.89133	77060
21.89945	75441
21.90758	79829
21.91570	71648
21.92382	71826
21.93195	69999
21.94007	69544
21.94820	65798
21.95632	64790
21.96443	61515
21.97257	57874
21.98068	57706
21.98880	57543
21.99693	58307
22.00505	56541
22.01318	60203
22.02130	65972
22.02942	65182
22.03755	62763
22.04567	67959
22.05380	65938
22.06192	67816
22.07003	63617
22.07817	63722
22.08628	60785
22.09442	56001
22.10253	60124
22.11065	58414
22.11878	55433
22.12690	57748
22.13502	56068
22.14315	57480
22.15127	57846
22.15940	56400
22.16752	54708
22.17563	54158
22.18377	55587
22.19188	55498
22.20002	57207
22.20813	58702
22.21625	60385
22.22438	58324
22.23250	61342
22.24063	59576
22.24875	55712
22.25687	62489
22.26500	68419
22.27312	68192
22.28123	75632
22.28937	83619
22.29748	87209
22.30562	94597
22.31373	91385
22.32185	89228
22.32998	85917
22.33810	79534
22.34623	77462
22.35435	73833
22.36247	68900
22.37060	64776
22.37872	71691
22.38683	84523
22.39497	101495
22.40308	135690
22.41122	177622
22.41933	220585
22.42745	236253
22.43558	227193
22.44370	202189
22.45183	157534
22.45995	137880
22.46807	115094
22.47620	115548
22.48432	118920
22.49245	145055
22.50057	164727
22.50868	173080
22.51682	177906
22.52493	166346
22.53305	161520
22.54118	144129
22.54930	132438
22.55743	115809
22.56555	105711
22.57367	94695
22.58180	86027
22.58992	81144
22.59805	77659
22.60617	78378
22.61428	74530
22.62242	70188
22.63053	72754
22.63867	68497
22.64678	67661
22.65490	73121
22.66303	66713
22.67115	80736
22.67927	75603
22.68740	77642
22.69552	88621
22.70365	98558
22.71177	107435
22.71988	119563
22.72802	119825
22.73613	107630
22.74427	99298
22.75238	87624
22.76050	84840
22.76863	74911
22.77675	80620
22.78487	88189
22.79300	98036
22.80112	120054
22.80925	135364
22.81737	143381
22.82548	138360
22.83362	124860
22.84173	112035
22.84987	99148
22.85798	93516
22.86610	103820
22.87423	116564
22.88235	140189
22.89048	167126
22.89860	188868
22.90672	205570
22.91485	220684
22.92297	237085
22.93108	245896
22.93922	236592
22.94733	213680
22.95547	186325
22.96358	154511
22.97170	142752
22.97983	124003
22.98795	120071
22.99608	115860
23.00420	114142
23.01232	107924
23.02045	103509
23.02857	101624
23.03668	103196
23.04482	101539
23.05293	100729
23.06107	102572
23.06918	108978
23.07730	109548
23.08543	107610
23.09355	112372
23.10168	102878
23.10980	100090
23.11792	99125
23.12605	95435
23.13417	90421
23.14230	91299
23.15042	94275
23.15853	94268
23.16667	93991
23.17478	93511
23.18290	95858
23.19103	94157
23.19915	95301
23.20728	96723
23.21540	99968
23.22352	91900
23.23165	91168
23.23977	91348
23.24790	93579
23.25602	97065
23.26413	99709
23.27227	116395
23.28038	106774
23.28852	99290
23.29663	92202
23.30475	96691
23.31288	95406
23.32100	98036
23.32912	104748
23.33725	130790
23.34537	136431
23.35350	167453
23.36162	193107
23.36973	220238
23.37787	232521
23.38598	225304
23.39412	218229
23.40223	199953
23.41035	192668
23.41848	175409
23.42660	169538
23.43472	167805
23.44285	157913
23.45097	158330
23.45910	148072
23.46722	141317
23.47533	149868
23.48347	137420
23.49158	134586
23.49972	125542
23.50783	129180
23.51595	120915
23.52408	119487
23.53220	116330
23.54033	111220
23.54845	111543
23.55657	121467
23.56470	132158
23.57282	155887
23.58093	199243
23.58907	253543
23.59718	319931
23.60532	347636
23.61343	349606
23.62155	319504
23.62968	269193
23.63780	231935
23.64593	203454
23.65405	208245
23.66217	221405
23.67030	232438
23.67842	213989
23.68655	190362
23.69467	165647
23.70278	135770
23.71092	125878
23.71903	112912
23.72715	98504
23.73528	104883
23.74340	118942
23.75153	171409
23.75965	315902
23.76777	613417
23.77590	1132527
23.78402	1755908
23.79215	2351058
23.80027	2678483
23.80838	2480941
23.81652	2104523
23.82463	1702826
23.83275	1307848
23.84088	1015657
23.84900	810556
23.85713	664298
23.86525	532645
23.87337	462747
23.88150	411835
23.88962	368645
23.89775	342702
23.90587	327968
23.91398	310386
23.92212	294476
23.93023	278588
23.93837	252994
23.94648	238226
23.95460	208742
23.96273	199557
23.97085	188938
23.97897	184162
23.98710	175069
23.99522	182582
24.00335	227166
24.01147	334969
24.01958	516628
24.02772	751719
24.03583	944132
24.04397	1031773
24.05208	880814
24.06020	679227
24.06833	479304
24.07645	324472
24.08458	247803
24.09270	198189
24.10082	163523
24.10895	151993
24.11707	141566
24.12518	141959
24.13332	143198
24.14143	149938
24.14957	158334
24.15768	155350
24.16580	158128
24.17393	153321
24.18205	149944
24.19018	154853
24.19830	152862
24.20642	153272
24.21455	144342
24.22267	137712
24.23078	126509
24.23892	116566
24.24703	108554
24.25517	108898
24.26328	100265
24.27140	91026
24.27953	94057
24.28765	91271
24.29578	94372
24.30390	88657
24.31202	92856
24.32015	89450
24.32827	92968
24.33640	92013
24.34452	85267
24.35263	89053
24.36077	91569
24.36888	104218
24.37700	125774
24.38513	153250
24.39325	182047
24.40138	184438
24.40950	162183
24.41762	135184
24.42575	112080
24.43387	100630
24.44200	92172
24.45012	111782
24.45823	134780
24.46637	157420
24.47448	167048
24.48260	187990
24.49073	217757
24.49885	237503
24.50698	250486
24.51510	261962
24.52322	296816
24.53135	328684
24.53947	379518
24.54760	442545
24.55572	477428
24.56383	519809
24.57197	506074
24.58008	461252
24.58822	413598
24.59633	363806
24.60445	319532
24.61258	301726
24.62070	287150
24.62882	271080
24.63695	273728
24.64507	267266
24.65320	260593
24.66132	253099
24.66943	258556
24.67757	252032
24.68568	245098
24.69382	246282
24.70193	241393
24.71005	233484
24.71818	239302
24.72630	232514
24.73443	232675
24.74255	219311
24.75067	219316
24.75880	209347
24.76692	228583
24.77503	227743
24.78317	226335
24.79128	225576
24.79942	216562
24.80753	218613
24.81565	219939
24.82378	222379
24.83190	239655
24.84003	273556
24.84815	307483
24.85627	377012
24.86440	452681
24.87252	537568
24.88063	661200
24.88877	767026
24.89688	800268
24.90502	753894
24.91313	641876
24.92125	477063
24.92938	339653
24.93750	241326
24.94563	173779
24.95375	138255
24.96187	125683
24.97000	115051
24.97812	107361
24.98625	98308
24.99437	98814
25.00248	95004
25.01062	88528
25.01873	95153
25.02685	93404
25.03498	85967
25.04310	82459
25.05123	85525
25.05935	83553
25.06747	84598
25.07560	89581
25.08372	96252
25.09185	113094
25.09997	165342
25.10808	321619
25.11622	692765
25.12433	1407231
25.13247	2426457
25.14058	3488860
25.14870	4165668
25.15683	4035214
25.16495	3345165
25.17307	2419370
25.18120	1509243
25.18932	825236
25.19745	483574
25.20557	291389
25.21368	200655
25.22182	169037
25.22993	152966
25.23807	165179
25.24618	193219
25.25430	250931
25.26243	305290
25.27055	361816
25.27867	390266
25.28680	364443
25.29492	316662
25.30305	279038
25.31117	258158
25.31928	267030
25.32742	306936
25.33553	336759
25.34367	357385
25.35178	368400
25.35990	378187
25.36803	377924
25.37615	384949
25.38428	375573
25.39240	377616
25.40052	377672
25.40865	381921
25.41677	383195
25.42488	383296
25.43302	377417
25.44113	387923
25.44927	378768
25.45738	379045
25.46550	373496
25.47363	372153
25.48175	376548
25.48988	369632
25.49800	365099
25.50612	357264
25.51425	362927
25.52237	352457
25.53048	347059
25.53862	339157
25.54673	341516
25.55487	340187
25.56298	332380
25.57110	339712
25.57923	335290
25.58735	331594
25.59548	323413
25.60360	329305
25.61172	317737
25.61985	309901
25.62797	301902
25.63610	307327
25.64422	314664
25.65233	298931
25.66047	296169
25.66858	289034
25.67670	287447
25.68483	299151
25.69295	299830
25.70108	297737
25.70920	292830
25.71732	282205
25.72545	276228
25.73357	268312
25.74170	268000
25.74982	253461
25.75793	260045
25.76607	245839
25.77418	249067
25.78232	249824
25.79043	244826
25.79855	251880
25.80668	258583
25.81480	247131
25.82292	256905
25.83105	260787
25.83917	266808
25.84730	282774
25.85542	286179
25.86353	281193
25.87167	257044
25.87978	242719
25.88792	230936
25.89603	221280
25.90415	211928
25.91228	208102
25.92040	197757
25.92853	201683
25.93665	195751
25.94477	195201
25.95290	194974
25.96102	195487
25.96913	188006
25.97727	184517
25.98538	181703
25.99352	178235
26.00163	176706
26.00975	173826
26.01788	171644
26.02600	174815
26.03413	166753
26.04225	167348
26.05037	156685
26.05850	161324
26.06662	160016
26.07473	161823
26.08287	172872
26.09098	165673
26.09912	162084
26.10723	169339
26.11535	160081
26.12348	161889
26.13160	162493
26.13973	168048
26.14785	166538
26.15597	166471
26.16410	169160
26.17222	165450
26.18035	157337
26.18847	156376
26.19658	145400
26.20472	141472
26.21283	137476
26.22095	137579
26.22908	133043
26.23720	129822
26.24533	132022
26.25345	134385
26.26157	129253
26.26970	131512
26.27782	130457
26.28595	122516
26.29407	128589
26.30218	123009
26.31032	120946
26.31843	119869
26.32655	119243
26.33468	116101
26.34280	112461
26.35093	122303
26.35905	136236
26.36717	158030
26.37530	193678
26.38342	242295
26.39155	298776
26.39967	337922
26.40778	358896
26.41592	340039
26.42403	300708
26.43217	249365
26.44028	199891
26.44840	163512
26.45653	135614
26.46465	125469
26.47277	118462
26.48090	119810
26.48902	109851
26.49715	110286
26.50527	109757
26.51338	98494
26.52152	97150
26.52963	98143
26.53777	94864
26.54588	97394
26.55400	92050
26.56213	89327
26.57025	86466
26.57837	88640
26.58650	87608
26.59462	90914
26.60275	89891
26.61087	86576
26.61898	84600
26.62712	87700
26.63523	83103
26.64337	86343
26.65148	83930
26.65960	87051
26.66773	88173
26.67585	92152
26.68398	89527
26.69210	85623
26.70022	84508
26.70835	80390
26.71647	80513
26.72458	83575
26.73272	83163
26.74083	85582
26.74897	81238
26.75708	84547
26.76520	82027
26.77333	88505
26.78145	83265
26.78958	84069
26.79770	95891
26.80582	91558
26.81395	92737
26.82207	91342
26.83020	86755
26.83832	81064
26.84643	79481
26.85457	76660
26.86268	75370
26.87080	75405
26.87893	72353
26.88705	72080
26.89518	73644
26.90330	70146
26.91142	69666
26.91955	74079
26.92767	71736
26.93580	70224
26.94392	71040
26.95203	74084
26.96017	72613
26.96828	81947
26.97642	103412
26.98453	137716
26.99265	204778
27.00078	295780
27.00890	405556
27.01702	510176
27.02515	596158
27.03327	649355
27.04140	642676
27.04952	616637
27.05763	533557
27.06577	436657
27.07388	364554
27.08202	309480
27.09013	266347
27.09825	229524
27.10638	220047
27.11450	191183
27.12262	180245
27.13075	171945
27.13887	167421
27.14700	157592
27.15512	152083
27.16323	159873
27.17137	161764
27.17948	166040
27.18762	168342
27.19573	165943
27.20385	163598
27.21198	142998
27.22010	138697
27.22823	132957
27.23635	128859
27.24447	120340
27.25260	121194
27.26072	112874
27.26883	108708
27.27697	110902
27.28508	100344
27.29322	99129
27.30133	102574
27.30945	100164
27.31758	96063
27.32570	101871
27.33383	99253
27.34195	96216
27.35007	98398
27.35820	99734
27.36632	102529
27.37443	100175
27.38257	98017
27.39068	87275
27.39882	81201
27.40693	88699
27.41505	80719
27.42318	87714
27.43130	86620
27.43943	82206
27.44755	84202
27.45567	79216
27.46380	77563
27.47192	69320
27.48005	71341
27.48817	75772
27.49628	74118
27.50442	78002
27.51253	83017
27.52065	84558
27.52878	90569
27.53690	81695
27.54503	82117
27.55315	82398
27.56127	79324
27.56940	80471
27.57752	84674
27.58565	97914
27.59377	111666
27.60188	111418
27.61002	117601
27.61813	105437
27.62627	96388
27.63438	92653
27.64250	82694
27.65063	85956
27.65875	87832
27.66687	96209
27.67500	107442
27.68312	119758
27.69125	131922
27.69937	132992
27.70748	127857
27.71562	117040
27.72373	101682
27.73187	86276
27.73998	80961
27.74810	68762
27.75623	67929
27.76435	70250
27.77247	69110
27.78060	75846
27.78872	71928
27.79685	67405
27.80497	71142
27.81308	71912
27.82122	68932
27.82933	67574
27.83747	68140
27.84558	64223
27.85370	64831
27.86183	65742
27.86995	64874
27.87808	58501
27.88620	60936
27.89432	62498
27.90245	61954
27.91057	61691
27.91868	59303
27.92682	63872
27.93493	64547
27.94307	58128
27.95118	59523
27.95930	63382
27.96743	58002
27.97555	65992
27.98368	60420
27.99180	62842
27.99992	68908
28.00805	77300
28.01617	102521
28.02430	134787
28.03242	179945
28.04053	233764
28.04867	297752
28.05678	310036
28.06490	283363
28.07303	242900
28.08115	189564
28.08928	147460
28.09740	118887
28.10552	99127
28.11365	89534
28.12177	86660
28.12990	74040
28.13802	71517
28.14613	75722
28.15427	65606
28.16238	66805
28.17050	68540
28.17863	71529
28.18675	78302
28.19488	86611
28.20300	97439
28.21112	104051
28.21925	109123
28.22737	109817
28.23550	106858
28.24362	103522
28.25173	94641
28.25987	76162
28.26798	73025
28.27612	68593
28.28423	70974
28.29235	68751
28.30048	75737
28.30860	89039
28.31672	108202
28.32485	122931
28.33297	133826
28.34110	157330
28.34922	172146
28.35733	183832
28.36547	214589
28.37358	219358
28.38172	236928
28.38983	248147
28.39795	243681
28.40608	240633
28.41420	236948
28.42232	221933
28.43045	210305
28.43857	199730
28.44670	187203
28.45482	168566
28.46293	166104
28.47107	158661
28.47918	158964
28.48732	157060
28.49543	151325
28.50355	142622
28.51168	137566
28.51980	135321
28.52793	119503
28.53605	118454
28.54417	104669
28.55230	99726
28.56042	94509
28.56853	94588
28.57667	90422
28.58478	90148
28.59292	86576
28.60103	88785
28.60915	85132
28.61728	92701
28.62540	94358
28.63353	97739
28.64165	94231
28.64977	97808
28.65790	97380
28.66602	94549
28.67415	96602
28.68227	93822
28.69038	83536
28.69852	83623
28.70663	78861
28.71475	77319
28.72288	74732
28.73100	76758
28.73913	82972
28.74725	85903
28.75537	97697
28.76350	108676
28.77162	110971
28.77975	106399
28.78787	97044
28.79598	93951
28.80412	93147
28.81223	84377
28.82035	89746
28.82848	83938
28.83660	82508
28.84473	78101
28.85285	77461
28.86097	71619
28.86910	76728
28.87722	83854
28.88535	85010
28.89347	98824
28.90158	102765
28.90972	99347
28.91783	95487
28.92597	84313
28.93408	85510
28.94220	84438
28.95033	80497
28.95845	82681
28.96657	84470
28.97470	79517
28.98282	73787
28.99095	69275
28.99907	65131
29.00718	66776
29.01532	67396
29.02343	66726
29.03157	67893
29.03968	66239
29.04780	64756
29.05593	58612
29.06405	63807
29.07218	66486
29.08030	65333
29.08842	68867
29.09655	68039
29.10467	68249
29.11278	66723
29.12092	60080
29.12903	65475
29.13717	64454
29.14528	61376
29.15340	63795
29.16153	61882
29.16965	68102
29.17778	69324
29.18590	75897
29.19402	86054
29.20215	98362
29.21027	117568
29.21838	130810
29.22652	152797
29.23463	195178
29.24277	271984
29.25088	391526
29.25900	523686
29.26713	616619
29.27525	646147
29.28338	565010
29.29150	424562
29.29962	302950
29.30775	197722
29.31587	130102
29.32400	94082
29.33212	75539
29.34023	72976
29.34837	65915
29.35648	68573
29.36460	63922
29.37273	62238
29.38085	60987
29.38898	62698
29.39710	65969
29.40522	61935
29.41335	70643
29.42147	63650
29.42960	64776
29.43772	68782
29.44583	62829
29.45397	66453
29.46208	65281
29.47022	64516
29.47833	64401
29.48645	66526
29.49458	63701
29.50270	67230
29.51082	65409
29.51895	62579
29.52707	63283
29.53520	59244
29.54332	62137
29.55143	62484
29.55957	60109
29.56768	58063
29.57582	52667
29.58393	59305
29.59205	52987
29.60018	52302
29.60830	51949
29.61642	52679
29.62455	54784
29.63267	50737
29.64080	52935
29.64892	56612
29.65703	57277
29.66517	54294
29.67328	59223
29.68142	62816
29.68953	69033
29.69765	65650
29.70578	67389
29.71390	67576
29.72203	67783
29.73015	64053
29.73827	68574
29.74640	63454
29.75452	64452
29.76263	65025
29.77077	59649
29.77888	59228
29.78702	60197
29.79513	52353
29.80325	51489
29.81138	50920
29.81950	49085
29.82763	53306
29.83575	59469
29.84387	51898
29.85200	52050
29.86012	53256
29.86823	58121
29.87637	62476
29.88448	72464
29.89262	92694
29.90073	96826
29.90885	99698
29.91698	95703
29.92510	87102
29.93323	81759
29.94135	78571
29.94947	73912
29.95760	74329
29.96572	83429
29.97385	94240
29.98197	119166
29.99008	128019
29.99822	144473
30.00633	155847
30.01445	169012
30.02258	159200
30.03070	156406
30.03883	154729
30.04695	146851
30.05507	150217
30.06320	148561
30.07132	138479
30.07945	137979
30.08757	135321
30.09568	133360
30.10382	131372
30.11193	132195
30.12007	123509
30.12818	127566
30.13630	121103
30.14443	114805
30.15255	113981
30.16067	107491
30.16880	106456
30.17692	102633
30.18505	112514
30.19317	114538
30.20128	119018
30.20942	116321
30.21753	114952
30.22567	106188
30.23378	97824
30.24190	88043
30.25003	89449
30.25815	82808
30.26627	77890
30.27440	72890
30.28252	69637
30.29065	72950
30.29877	70824
30.30688	64764
30.31502	68285
30.32313	69034
30.33127	67314
30.33938	73139
30.34750	74457
30.35563	71665
30.36375	69612
30.37188	64660
30.38000	65349
30.38812	66140
30.39625	66087
30.40437	62307
30.41248	62876
30.42062	63179
30.42873	58534
30.43687	63780
30.44498	62540
30.45310	61519
30.46123	61187
30.46935	57523
30.47748	61757
30.48560	62422
30.49372	57908
30.50185	60370
30.50997	56919
30.51810	55430
30.52622	60223
30.53433	55004
30.54247	57282
30.55058	61241
30.55870	55872
30.56683	61643
30.57495	63554
30.58308	64043
30.59120	64793
30.59932	61811
30.60745	65693
30.61557	61190
30.62370	57269
30.63182	55873
30.63993	57971
30.64807	55353
30.65618	52963
30.66430	52286
30.67243	52990
30.68055	66823
30.68868	71490
30.69680	78078
30.70492	82523
30.71305	85723
30.72117	89617
30.72930	90400
30.73742	99390
30.74553	99229
30.75367	96317
30.76178	101915
30.76992	110936
30.77803	116911
30.78615	128316
30.79428	147443
30.80240	162670
30.81052	171437
30.81865	177849
30.82677	168491
30.83490	153888
30.84302	145818
30.85113	131351
30.85927	129852
30.86738	121525
30.87552	122065
30.88363	126591
30.89175	133659
30.89988	122394
30.90800	120830
30.91612	117437
30.92425	122854
30.93237	110360
30.94050	114132
30.94862	110670
30.95673	111874
30.96487	109816
30.97298	109738
30.98112	112415
30.98923	114937
30.99735	110005
31.00548	102430
31.01360	106724
31.02173	111080
31.02985	111019
31.03797	106722
31.04610	110289
31.05422	112393
31.06233	107946
31.07047	114018
31.07858	116846
31.08672	117261
31.09483	126699
31.10295	138589
31.11108	145068
31.11920	133893
31.12733	123464
31.13545	118081
31.14357	115608
31.15170	111510
31.15982	114179
31.16795	109515
31.17607	117929
31.18418	123829
31.19232	134764
31.20043	169657
31.20855	197390
31.21668	228653
31.22480	245948
31.23293	254382
31.24105	232718
31.24917	205198
31.25730	162549
31.26542	134831
31.27355	118621
31.28167	101602
31.28978	97098
31.29792	92201
31.30603	91328
31.31415	93181
31.32228	89453
31.33040	92729
31.33853	95484
31.34665	87464
31.35477	93934
31.36290	85468
31.37102	88145
31.37915	86627
31.38727	92834
31.39538	94230
31.40352	91160
31.41163	87538
31.41977	81338
31.42788	86259
31.43600	85680
31.44413	81347
31.45225	86346
31.46037	78100
31.46850	76991
31.47662	83185
31.48475	83233
31.49287	80345
31.50098	85385
31.50912	89312
31.51723	98315
31.52537	99176
31.53348	101114
31.54160	102289
31.54973	99059
31.55785	94078
31.56598	89729
31.57410	87511
31.58222	82062
31.59035	78280
31.59847	80354
31.60658	75335
31.61472	73089
31.62283	74975
31.63097	75598
31.63908	74896
31.64720	71643
31.65533	77014
31.66345	79185
31.67158	79664
31.67970	79953
31.68782	75837
31.69595	72516
31.70407	74891
31.71218	68731
31.72032	73740
31.72843	67511
31.73657	69826
31.74468	63920
31.75280	66718
31.76093	69438
31.76905	69090
31.77718	69439
31.78530	61181
31.79342	65345
31.80155	69027
31.80967	69001
31.81780	68365
31.82592	70136
31.83403	67590
31.84217	68107
31.85028	65834
31.85840	68631
31.86653	71972
31.87465	68828
31.88278	75921
31.89090	77382
31.89902	80879
31.90715	94277
31.91527	97354
31.92340	108217
31.93152	107562
31.93963	111818
31.94777	118161
31.95588	127205
31.96400	131135
31.97213	129776
31.98025	134250
31.98838	139265
31.99650	135854
32.00462	127200
32.01275	136106
32.02087	129604
32.02900	131336
32.03712	118613
32.04523	112902
32.05337	119130
32.06148	108920
32.06962	103626
32.07773	102866
32.08585	100760
32.09398	94344
32.10210	90934
32.11022	86014
32.11835	87972
32.12647	84904
32.13460	78756
32.14272	78685
32.15083	80302
32.15897	74030
32.16708	76237
32.17522	77982
32.18333	82328
32.19145	73224
32.19958	74175
32.20770	76422
32.21583	72854
32.22395	73746
32.23207	70934
32.24020	70787
32.24832	70596
32.25643	74412
32.26457	70037
32.27268	76805
32.28082	70680
32.28893	75484
32.29705	66609
32.30518	71532
32.31330	68715
32.32143	68278
32.32955	65579
32.33767	70408
32.34580	74825
32.35392	70896
32.36205	70698
32.37017	70427
32.37828	67474
32.38642	68575
32.39453	67127
32.40265	65734
32.41078	64514
32.41890	60606
32.42703	61530
32.43515	63771
32.44327	64532
32.45140	61552
32.45952	58258
32.46765	59329
32.47577	63247
32.48388	63071
32.49202	64075
32.50013	59173
32.50825	62926
32.51638	59774
32.52450	60573
32.53263	57882
32.54075	58310
32.54887	62821
32.55700	55517
32.56512	61130
32.57325	60250
32.58137	58536
32.58948	60804
32.59762	58490
32.60573	61457
32.61387	57929
32.62198	60924
32.63010	58385
32.63823	67699
32.64635	77387
32.65447	79715
32.66260	81755
32.67072	83152
32.67885	77476
32.68697	72593
32.69508	70115
32.70322	69818
32.71133	66147
32.71947	67413
32.72758	62727
32.73570	61944
32.74383	67216
32.75195	60695
32.76007	57011
32.76820	58540
32.77632	56229
32.78445	58185
32.79257	56436
32.80068	55346
32.80882	55240
32.81693	59474
32.82507	59825
32.83318	64021
32.84130	58803
32.84943	54593
32.85755	58203
32.86568	59532
32.87380	60784
32.88192	69839
32.89005	74363
32.89817	79466
32.90628	86601
32.91442	93547
32.92253	89450
32.93067	78628
32.93878	67454
32.94690	62557
32.95503	61813
32.96315	60735
32.97128	63744
32.97940	73306
32.98752	78782
32.99565	84437
33.00377	87637
33.01190	89125
33.02002	83673
33.02813	79132
33.03627	75079
33.04438	70270
33.05250	71841
33.06063	71810
33.06875	79432
33.07688	79966
33.08500	91800
33.09312	95933
33.10125	112203
33.10937	112244
33.11750	110440
33.12562	111095
33.13373	99347
33.14187	89273
33.14998	80257
33.15810	73873
33.16623	68618
33.17435	71617
33.18248	67457
33.19060	63430
33.19872	65039
33.20685	66545
33.21497	67352
33.22310	67567
33.23122	69260
33.23933	64520
33.24747	59738
33.25558	60024
33.26372	61688
33.27183	63389
33.27995	59693
33.28808	60930
33.29620	65458
33.30432	63453
33.31245	63836
33.32057	66007
33.32870	65892
33.33682	67122
33.34493	67181
33.35307	73080
33.36118	73264
33.36932	70057
33.37743	69849
33.38555	67458
33.39368	63886
33.40180	63528
33.40993	59281
33.41805	56974
33.42617	54758
33.43430	61229
33.44242	58941
33.45053	52754
33.45867	54971
33.46678	59321
33.47492	54266
33.48303	61094
33.49115	59358
33.49928	56482
33.50740	60619
33.51553	60592
33.52365	57596
33.53177	57817
33.53990	62623
33.54802	58579
33.55613	70035
33.56427	70098
33.57238	69817
33.58052	63493
33.58863	61398
33.59675	64649
33.60488	58786
33.61300	58077
33.62113	59669
33.62925	59417
33.63737	64504
33.64550	67391
33.65362	65545
33.66175	66150
33.66987	68735
33.67798	67627
33.68612	61192
33.69423	58472
33.70235	59318
33.71048	61303
33.71860	57041
33.72673	53820
33.73485	54940
33.74297	53954
33.75110	56882
33.75922	51175
33.76735	55070
33.77547	58219
33.78358	56339
33.79172	57745
33.79983	55536
33.80795	52669
33.81608	54420
33.82420	55857
33.83233	53491
33.84045	58321
33.84857	57756
33.85670	56649
33.86482	59998
33.87295	64685
33.88107	60467
33.88918	65670
33.89732	66045
33.90543	67489
33.91357	69862
33.92168	71044
33.92980	68960
33.93793	64296
33.94605	58913
33.95417	58161
33.96230	54371
33.97042	54450
33.97855	55531
33.98667	56131
33.99478	58086
34.00292	59641
34.01103	56308
34.01917	54846
34.02728	58516
34.03540	60338
34.04353	60059
34.05165	56706
34.05978	64153
34.06790	57019
34.07602	60390
34.08415	61490
34.09227	57426
34.10038	59395
34.10852	61133
34.11663	64194
34.12477	59392
34.13288	63271
34.14100	60572
34.14913	64537
34.15725	61325
34.16538	62079
34.17350	58886
34.18162	59906
34.18975	60228
34.19787	60975
34.20598	62845
34.21412	62306
34.22223	61344
34.23037	63990
34.23848	59997
34.24660	61710
34.25473	58874
34.26285	58527
34.27098	60629
34.27910	62080
34.28722	60734
34.29535	58429
34.30347	62571
34.31160	56611
34.31972	60717
34.32783	57847
34.33597	60261
34.34408	61602
34.35220	56521
34.36033	58908
34.36845	58419
34.37658	63842
34.38470	59374
34.39282	55567
34.40095	59132
34.40907	60495
34.41720	61418
34.42532	57736
34.43343	63467
34.44157	62202
34.44968	60691
34.45782	56541
34.46593	62175
34.47405	62583
34.48218	56304
34.49030	61605
34.49842	68401
34.50655	73815
34.51467	81228
34.52280	92690
34.53092	105919
34.53903	110401
34.54717	125776
34.55528	126578
34.56342	123765
34.57153	119557
34.57965	116366
34.58778	106126
34.59590	98082
34.60402	93024
34.61215	87474
34.62027	86529
34.62840	83736
34.63652	81381
34.64463	81634
34.65277	81246
34.66088	77949
34.66902	75477
34.67713	69391
34.68525	67843
34.69338	70258
34.70150	72723
34.70963	68115
34.71775	70772
34.72587	70140
34.73400	65939
34.74212	67736
34.75023	66697
34.75837	71761
34.76648	70559
34.77462	67153
34.78273	71527
34.79085	70300
34.79898	68009
34.80710	66827
34.81523	74132
34.82335	74938
34.83147	75353
34.83960	73635
34.84772	74767
34.85585	66752
34.86397	68994
34.87208	64794
34.88022	61619
34.88833	69839
34.89645	67232
34.90458	71047
34.91270	69863
34.92083	68582
34.92895	69660
34.93707	70638
34.94520	77681
34.95332	75127
34.96145	80090
34.96957	86775
34.97768	81950
34.98582	77299
34.99393	76926
35.00205	77207
35.01018	70897
35.01830	65280
35.02643	63781
35.03455	63354
35.04267	61531
35.05080	63371
35.05892	70385
35.06705	66006
35.07517	63745
35.08328	61505
35.09142	62140
35.09953	59547
35.10767	61329
35.11578	55545
35.12390	58968
35.13203	67539
35.14015	64267
35.14827	64017
35.15640	64633
35.16452	66549
35.17265	60271
35.18077	62741
35.18888	66144
35.19702	61135
35.20513	62764
35.21327	60942
35.22138	61399
35.22950	56350
35.23763	59101
35.24575	55250
35.25387	62259
35.26200	59947
35.27012	64356
35.27825	63098
35.28637	62032
35.29448	64717
35.30262	62730
35.31073	64731
35.31887	54654
35.32698	56684
35.33510	61602
35.34323	61851
35.35135	61524
35.35948	62746
35.36760	64352
35.37572	64546
35.38385	71497
35.39197	77483
35.40008	88749
35.40822	101868
35.41633	124224
35.42447	136116
35.43258	137671
35.44070	147158
35.44883	126980
35.45695	114380
35.46508	99880
35.47320	92703
35.48132	76945
35.48945	75574
35.49757	77027
35.50570	70983
35.51382	69189
35.52193	71534
35.53007	71760
35.53818	67465
35.54630	74025
35.55443	66815
35.56255	66638
35.57068	61584
35.57880	63883
35.58692	66099
35.59505	64696
35.60317	66926
35.61130	59614
35.61942	60084
35.62753	60780
35.63567	61487
35.64378	62145
35.65190	63309
35.66003	64485
35.66815	68387
35.67628	65398
35.68440	71152
35.69252	66178
35.70065	70230
35.70877	60862
35.71690	63651
35.72502	67160
35.73313	71331
35.74127	71185
35.74938	71578
35.75752	76827
35.76563	77035
35.77375	75415
35.78188	73019
35.79000	69671
35.79812	67129
35.80625	61210
35.81437	66403
35.82250	63104
35.83062	66708
35.83873	62094
35.84687	62936
35.85498	62653
35.86312	66250
35.87123	62080
35.87935	60631
35.88748	60038
35.89560	64977
35.90373	66500
35.91185	63641
35.91997	64500
35.92810	61254
35.93622	62077
35.94433	64550
35.95247	59980
35.96058	64587
35.96872	67263
35.97683	58596
35.98495	67577
35.99308	62503
36.00120	65693
36.00933	66885
36.01745	67490
36.02557	63991
36.03370	68634
36.04182	64436
36.04993	68357
36.05807	64140
36.06618	62601
36.07432	66502
36.08243	63878
36.09055	58884
36.09868	69259
36.10680	65835
36.11493	68954
36.12305	68681
36.13117	71391
36.13930	68745
36.14742	68179
36.15555	70844
36.16367	70228
36.17178	71917
36.17992	66789
36.18803	61180
36.19615	64259
36.20428	63491
36.21240	62723
36.22053	69287
36.22865	76629
36.23677	79747
36.24490	81716
36.25302	82110
36.26115	84797
36.26927	91686
36.27738	88174
36.28552	99878
36.29363	108722
36.30175	118227
36.30988	123047
36.31800	113622
36.32613	108846
36.33425	103181
36.34237	97974
36.35050	100785
36.35862	99338
36.36675	102545
36.37487	94872
36.38298	98070
36.39112	96334
36.39923	97551
36.40737	97474
36.41548	104910
36.42360	100268
36.43173	104051
36.43985	95915
36.44797	96123
36.45610	98567
36.46422	98261
36.47235	95028
36.48047	95272
36.48858	94922
36.49672	98157
36.50483	95289
36.51297	95548
36.52108	90761
36.52920	94225
36.53733	92708
36.54545	93943
36.55358	91378
36.56170	92744
36.56982	94360
36.57795	93460
36.58607	94099
36.59418	91118
36.60232	91067
36.61043	91036
36.61857	88574
36.62668	90804
36.63480	91190
36.64293	93156
36.65105	86946
36.65918	92869
36.66730	90941
36.67542	89493
36.68355	82081
36.69167	91788
36.69980	92396
36.70792	90950
36.71603	85432
36.72417	91406
36.73228	89025
36.74040	90182
36.74853	88031
36.75665	83476
36.76478	85208
36.77290	80078
36.78102	89469
36.78915	83855
36.79727	89106
36.80540	88297
36.81352	86785
36.82163	86584
36.82977	86549
36.83788	84210
36.84600	80168
36.85413	85031
36.86225	79710
36.87038	80340
36.87850	78122
36.88662	79881
36.89475	84365
36.90287	82166
36.91100	80259
36.91912	83498
36.92723	80729
36.93537	82292
36.94348	92054
36.95162	99399
36.95973	103654
36.96785	106301
36.97598	105249
36.98410	103967
36.99222	95329
37.00035	97182
37.00847	87441
37.01660	85646
37.02472	83259
37.03283	81392
37.04097	79585
37.04908	82511
37.05722	81111
37.06533	84286
37.07345	77599
37.08158	78663
37.08970	78352
37.09782	81217
37.10595	82319
37.11407	82461
37.12220	83567
37.13032	76993
37.13843	76535
37.14657	76728
37.15468	84269
37.16282	78205
37.17093	82388
37.17905	76822
37.18718	79711
37.19530	80803
37.20343	88711
37.21155	82410
37.21967	83150
37.22780	78720
37.23592	82851
37.24403	78695
37.25217	79960
37.26028	73426
37.26842	78761
37.27653	76841
37.28465	74487
37.29278	79290
37.30090	82921
37.30903	89540
37.31715	92966
37.32527	106061
37.33340	116031
37.34152	126435
37.34965	127456
37.35777	125775
37.36588	121242
37.37402	120418
37.38213	116685
37.39025	112841
37.39838	110398
37.40650	108458
37.41463	103090
37.42275	99152
37.43087	97487
37.43900	101112
37.44712	98704
37.45525	97558
37.46337	86713
37.47148	95756
37.47962	84770
37.48773	89601
