C:\MassHunter\GCMS\1\data\JTB-E18\JTB-E18-032-09.D Fri Oct 11 15:58:35 2019
Start of data points
2.09522,151667
2.10335,152058
2.11147,146976
2.11958,142820
2.12772,142846
2.13583,143188
2.14397,134615
2.15208,130514
2.16020,124181
2.16833,123261
2.17645,124098
2.18458,122207
2.19270,118759
2.20082,124032
2.20895,115209
2.21707,113260
2.22518,111373
2.23332,111220
2.24143,109243
2.24957,110643
2.25768,120287
2.26580,358151
2.27393,1384239
2.28205,1668245
2.29018,933266
2.29830,511447
2.30642,363376
2.31455,306370
2.32267,267201
2.33080,243181
2.33892,238853
2.34703,220069
2.35517,210725
2.36328,193256
2.37140,185322
2.37953,188905
2.38765,186880
2.39578,168260
2.40390,168503
2.41202,164929
2.42015,170869
2.42827,167041
2.43640,162068
2.44452,165787
2.45263,164442
2.46077,156362
2.46888,150896
2.47700,144352
2.48513,138745
2.49325,152994
2.50138,152792
2.50950,136133
2.51762,133248
2.52575,135325
2.53387,132074
2.54200,126390
2.55012,129419
2.55823,133775
2.56637,124182
2.57448,126952
2.58262,121088
2.59073,125161
2.59885,126249
2.60698,154933
2.61510,189633
2.62322,188581
2.63135,168350
2.63947,154752
2.64760,144476
2.65572,139875
2.66383,132749
2.67197,135144
2.68008,133618
2.68822,127073
2.69633,125904
2.70445,124642
2.71258,120939
2.72070,115607
2.72883,111272
2.73695,115493
2.74507,117081
2.75320,113555
2.76132,111162
2.76943,108556
2.77757,112047
2.78568,110502
2.79382,103395
2.80193,108493
2.81005,112597
2.81818,114413
2.82630,145863
2.83443,163562
2.84255,141248
2.85067,125990
2.85880,122871
2.86692,114897
2.87503,109510
2.88317,111988
2.89128,106551
2.89942,108661
2.90753,110942
2.91565,103074
2.92378,95359
2.93190,101156
2.94003,101396
2.94815,97059
2.95627,101170
2.96440,97250
2.97252,96881
2.98065,100505
2.98877,100573
2.99688,98602
3.00502,98474
3.01313,100053
3.02125,111518
3.02938,136099
3.03750,159261
3.04563,231625
3.05375,524145
3.06187,836748
3.07000,710543
3.07812,408593
3.08625,269532
3.09437,216726
3.10248,271977
3.11062,367176
3.11873,320955
3.12687,247536
3.13498,205061
3.14310,168823
3.15123,154690
3.15935,142965
3.16747,131869
3.17560,131154
3.18372,129522
3.19185,120661
3.19997,120502
3.20808,107421
3.21622,111367
3.22433,113213
3.23247,109789
3.24058,106191
3.24870,101849
3.25683,101671
3.26495,105182
3.27307,113519
3.28120,241173
3.28932,775073
3.29745,1952415
3.30557,3065315
3.31368,3100486
3.32182,2336011
3.32993,1633523
3.33807,1186188
3.34618,909633
3.35430,744168
3.36243,630073
3.37055,564470
3.37868,515179
3.38680,461944
3.39492,429698
3.40305,457491
3.41117,571566
3.41928,629775
3.42742,526610
3.43553,405342
3.44367,340364
3.45178,302442
3.45990,282976
3.46803,267623
3.47615,263773
3.48428,238505
3.49240,233975
3.50052,220319
3.50865,218200
3.51677,204598
3.52488,202486
3.53302,204225
3.54113,189673
3.54927,182576
3.55738,188466
3.56550,186373
3.57363,175876
3.58175,175359
3.58988,167764
3.59800,169141
3.60612,170106
3.61425,186199
3.62237,226930
3.63050,294344
3.63862,305624
3.64673,276254
3.65487,222202
3.66298,195194
3.67110,177681
3.67923,180609
3.68735,166126
3.69548,161504
3.70360,156189
3.71172,151301
3.71985,150010
3.72797,153089
3.73610,148561
3.74422,148217
3.75233,154413
3.76047,146548
3.76858,149761
3.77672,162109
3.78483,161279
3.79295,168977
3.80108,161500
3.80920,151917
3.81732,155558
3.82545,148871
3.83357,146845
3.84170,143002
3.84982,133430
3.85793,138933
3.86607,135160
3.87418,129491
3.88232,130074
3.89043,132142
3.89855,130600
3.90668,128209
3.91480,127248
3.92292,130740
3.93105,119183
3.93917,124048
3.94730,127404
3.95542,117582
3.96353,118804
3.97167,124957
3.97978,119802
3.98792,115464
3.99603,115375
4.00415,123061
4.01228,120664
4.02040,122293
4.02853,120013
4.03665,115511
4.04477,117586
4.05290,115170
4.06102,117842
4.06913,109787
4.07727,118348
4.08538,110935
4.09352,113452
4.10163,112909
4.10975,111069
4.11788,127610
4.12600,264115
4.13413,1022717
4.14225,2920761
4.15037,4875824
4.15850,4920713
4.16662,3362282
4.17475,1865003
4.18287,1062795
4.19098,716182
4.19912,562614
4.20723,769060
4.21535,2408176
4.22348,6884956
4.23160,1.283518E+07
4.23973,1.677126E+07
4.24785,1.593199E+07
4.25597,1.079524E+07
4.26410,6170371
4.27222,3859880
4.28035,2739631
4.28847,2065834
4.29658,1643755
4.30472,1333456
4.31283,1124648
4.32095,961287
4.32908,844702
4.33720,750671
4.34533,678705
4.35345,628782
4.36157,573924
4.36970,544230
4.37782,510911
4.38595,474831
4.39407,447636
4.40218,419685
4.41032,402714
4.41843,376932
4.42657,365969
4.43468,351331
4.44280,334658
4.45093,319550
4.45905,318381
4.46717,304479
4.47530,289670
4.48342,276499
4.49155,268807
4.49967,262948
4.50778,250349
4.51592,247051
4.52403,236902
4.53217,237493
4.54028,226765
4.54840,223296
4.55653,213166
4.56465,214944
4.57277,218885
4.58090,207734
4.58902,204335
4.59715,201804
4.60527,193489
4.61338,192223
4.62152,185583
4.62963,184029
4.63777,182357
4.64588,185098
4.65400,180812
4.66213,175696
4.67025,173594
4.67838,169100
4.68650,176129
4.69462,168777
4.70275,163294
4.71087,163020
4.71898,158994
4.72712,160441
4.73523,161550
4.74337,154994
4.75148,159140
4.75960,148052
4.76773,156000
4.77585,152074
4.78398,154076
4.79210,149735
4.80022,152941
4.80835,151085
4.81647,153795
4.82460,147615
4.83272,144504
4.84083,142612
4.84897,142567
4.85708,139754
4.86520,138958
4.87333,141721
4.88145,145183
4.88958,131702
4.89770,141778
4.90582,146092
4.91395,193342
4.92207,337071
4.93020,640945
4.93832,1072070
4.94643,1364623
4.95457,1343694
4.96268,1088176
4.97082,822600
4.97893,620241
4.98705,478598
4.99518,400202
5.00330,351162
5.01142,312492
5.01955,289219
5.02767,265184
5.03580,247547
5.04392,239078
5.05203,223421
5.06017,219831
5.06828,209654
5.07642,203513
5.08453,204348
5.09265,191878
5.10078,190859
5.10890,191145
5.11702,198963
5.12515,206148
5.13327,186703
5.14140,183144
5.14952,179179
5.15763,169095
5.16577,173427
5.17388,182524
5.18202,186764
5.19013,184905
5.19825,179607
5.20638,165058
5.21450,164242
5.22263,159348
5.23075,170125
5.23887,165464
5.24700,172388
5.25512,168713
5.26323,157656
5.27137,144184
5.27948,136485
5.28762,135949
5.29573,144316
5.30385,133689
5.31198,131650
5.32010,129720
5.32823,131733
5.33635,135602
5.34447,136220
5.35260,128389
5.36072,131546
5.36883,127461
5.37697,122239
5.38508,127927
5.39322,123583
5.40133,121995
5.40945,119908
5.41758,121597
5.42570,111950
5.43383,118481
5.44195,129782
5.45007,120787
5.45820,112912
5.46632,121730
5.47445,119736
5.48257,115913
5.49068,115589
5.49882,117034
5.50693,112855
5.51505,113025
5.52318,114977
5.53130,109336
5.53943,114445
5.54755,110960
5.55567,113350
5.56380,110706
5.57192,113277
5.58005,119350
5.58817,120738
5.59628,121204
5.60442,118235
5.61253,118895
5.62067,115026
5.62878,116264
5.63690,115808
5.64503,119291
5.65315,112065
5.66127,112203
5.66940,110494
5.67752,113285
5.68565,119318
5.69377,124250
5.70188,118995
5.71002,120223
5.71813,121544
5.72627,123547
5.73438,122430
5.74250,120174
5.75063,113433
5.75875,118149
5.76687,121420
5.77500,116596
5.78312,117791
5.79125,116849
5.79937,125364
5.80748,143574
5.81562,182541
5.82373,230005
5.83187,265727
5.83998,266089
5.84810,224238
5.85623,191576
5.86435,159682
5.87248,139237
5.88060,127987
5.88872,122089
5.89685,123138
5.90497,129829
5.91308,131392
5.92122,142808
5.92933,156648
5.93747,156644
5.94558,149329
5.95370,122802
5.96183,118497
5.96995,110404
5.97808,104730
5.98620,109792
5.99432,100242
6.00245,96538
6.01057,91643
6.01870,89184
6.02682,83789
6.03493,84500
6.04307,83167
6.05118,81201
6.05930,84292
6.06743,80185
6.07555,82305
6.08368,78323
6.09180,77232
6.09992,74511
6.10805,74763
6.11617,77572
6.12430,74124
6.13242,76388
6.14053,76623
6.14867,80364
6.15678,80261
6.16490,80952
6.17303,88527
6.18115,88597
6.18928,95475
6.19740,97535
6.20552,105363
6.21365,104747
6.22177,101432
6.22990,105319
6.23802,103065
6.24613,102360
6.25427,110674
6.26238,112303
6.27052,116535
6.27863,116827
6.28675,118411
6.29488,123502
6.30300,123551
6.31112,126965
6.31925,124244
6.32737,133461
6.33550,139362
6.34362,135810
6.35173,136276
6.35987,138802
6.36798,144452
6.37612,142804
6.38423,140550
6.39235,147818
6.40048,151532
6.40860,150935
6.41672,148564
6.42485,153780
6.43297,158535
6.44110,156531
6.44922,161915
6.45733,169272
6.46547,158949
6.47358,161529
6.48172,171718
6.48983,166531
6.49795,165690
6.50608,130094
6.51420,109839
6.52233,101787
6.53045,97544
6.53857,94511
6.54670,88308
6.55482,84237
6.56293,81346
6.57107,77884
6.57918,79157
6.58732,76012
6.59543,78037
6.60355,78170
6.61168,71468
6.61980,74941
6.62793,75893
6.63605,68911
6.64417,72564
6.65230,70179
6.66042,68314
6.66855,68357
6.67667,64935
6.68478,67019
6.69292,66122
6.70103,67944
6.70915,65353
6.71728,69036
6.72540,71574
6.73353,78064
6.74165,85188
6.74977,91082
6.75790,84671
6.76602,85577
6.77415,78131
6.78227,69979
6.79038,69028
6.79852,66732
6.80663,64532
6.81475,66293
6.82288,63961
6.83100,62530
6.83913,58854
6.84725,62584
6.85537,63928
6.86350,71813
6.87162,95431
6.87975,124345
6.88787,159162
6.89598,174863
6.90412,167988
6.91223,147071
6.92037,121115
6.92848,90105
6.93660,73609
6.94473,62426
6.95285,59947
6.96097,56018
6.96910,56407
6.97722,53578
6.98535,50863
6.99347,48862
7.00158,47170
7.00972,49550
7.01783,53204
7.02597,66042
7.03408,69257
7.04220,90690
7.05033,98465
7.05845,102150
7.06658,95836
7.07470,81924
7.08282,69529
7.09095,71685
7.09907,61406
7.10718,54421
7.11532,58225
7.12343,57446
7.13157,59353
7.13968,51749
7.14780,52352
7.15593,51329
7.16405,51400
7.17218,49667
7.18030,49655
7.18842,49555
7.19655,51984
7.20467,50621
7.21278,50691
7.22092,51922
7.22903,49887
7.23717,55372
7.24528,50192
7.25340,51278
7.26153,51807
7.26965,50109
7.27778,54806
7.28590,57628
7.29402,59291
7.30215,60863
7.31027,55526
7.31840,57821
7.32652,51167
7.33463,50272
7.34277,50801
7.35088,49089
7.35900,50874
7.36713,53434
7.37525,50898
7.38338,51793
7.39150,52916
7.39962,58735
7.40775,65266
7.41587,72859
7.42400,77357
7.43212,69659
7.44023,63042
7.44837,60245
7.45648,52140
7.46460,50916
7.47273,50733
7.48085,49328
7.48898,47949
7.49710,51950
7.50522,55142
7.51335,59715
7.52147,62874
7.52960,62860
7.53772,61784
7.54583,54522
7.55397,53045
7.56208,51310
7.57022,49050
7.57833,47238
7.58645,44069
7.59458,43560
7.60270,46911
7.61082,45614
7.61895,48554
7.62707,44829
7.63520,46415
7.64332,44090
7.65143,45010
7.65957,42831
7.66768,44522
7.67582,42236
7.68393,42366
7.69205,44945
7.70018,44125
7.70830,43117
7.71643,38795
7.72455,42775
7.73267,42802
7.74080,41500
7.74892,39246
7.75703,42557
7.76517,41347
7.77328,38449
7.78142,40860
7.78953,41415
7.79765,40815
7.80578,41529
7.81390,40322
7.82203,42033
7.83015,43086
7.83827,36347
7.84640,42370
7.85452,42181
7.86263,40749
7.87077,34819
7.87888,41376
7.88702,41108
7.89513,38937
7.90325,40356
7.91138,43561
7.91950,44292
7.92763,40359
7.93575,39616
7.94387,37899
7.95200,37516
7.96012,47781
7.96825,41057
7.97637,42283
7.98448,41120
7.99262,46673
8.00073,44773
8.00885,41910
8.01698,40091
8.02510,41163
8.03323,39511
8.04135,40238
8.04947,37392
8.05760,40878
8.06572,40879
8.07385,40015
8.08197,38288
8.09008,38923
8.09822,37004
8.10633,39395
8.11447,39935
8.12258,38299
8.13070,38517
8.13883,42331
8.14695,39089
8.15507,40146
8.16320,42260
8.17132,41544
8.17945,42721
8.18757,44562
8.19568,41935
8.20382,41286
8.21193,40094
8.22007,41221
8.22818,38791
8.23630,42297
8.24443,38440
8.25255,35623
8.26067,38567
8.26880,36738
8.27692,39300
8.28505,39429
8.29317,37987
8.30128,38223
8.30942,38370
8.31753,37229
8.32567,40576
8.33378,41058
8.34190,48798
8.35003,49574
8.35815,50092
8.36628,47842
8.37440,45269
8.38252,43059
8.39065,41975
8.39877,41336
8.40688,41465
8.41502,38166
8.42313,40804
8.43127,39193
8.43938,38262
8.44750,39861
8.45563,39457
8.46375,37698
8.47188,34386
8.48000,39260
8.48812,40074
8.49625,42177
8.50437,43117
8.51250,46126
8.52062,45291
8.52873,42827
8.53687,38289
8.54498,41535
8.55310,41174
8.56123,38363
8.56935,36635
8.57748,39060
8.58560,41148
8.59372,41838
8.60185,38251
8.60997,41372
8.61810,34190
8.62622,40824
8.63433,39176
8.64247,40310
8.65058,38328
8.65870,37120
8.66683,34633
8.67495,37891
8.68308,36034
8.69120,36477
8.69932,36844
8.70745,37204
8.71557,42955
8.72370,63274
8.73182,97352
8.73993,168545
8.74807,246103
8.75618,306986
8.76432,308052
8.77243,246466
8.78055,182817
8.78868,147103
8.79680,114924
8.80492,98916
8.81305,94459
8.82117,79899
8.82930,73880
8.83742,68371
8.84553,63310
8.85367,65607
8.86178,60665
8.86992,55853
8.87803,50928
8.88615,57376
8.89428,51395
8.90240,52751
8.91052,53783
8.91865,50281
8.92677,50076
8.93490,49136
8.94302,48702
8.95113,50467
8.95927,50113
8.96738,45890
8.97552,47960
8.98363,48144
8.99175,46760
8.99988,46859
9.00800,46531
9.01613,44817
9.02425,43536
9.03237,45987
9.04050,42488
9.04862,42513
9.05673,42604
9.06487,45617
9.07298,43288
9.08112,42114
9.08923,43335
9.09735,43910
9.10548,44321
9.11360,42049
9.12173,45792
9.12985,44088
9.13797,44990
9.14610,41067
9.15422,43152
9.16235,45834
9.17047,38779
9.17858,38772
9.18672,39562
9.19483,39488
9.20295,43051
9.21108,39901
9.21920,39603
9.22733,41626
9.23545,42423
9.24357,40364
9.25170,40282
9.25982,37139
9.26795,38765
9.27607,39218
9.28418,37894
9.29232,39122
9.30043,39457
9.30855,38616
9.31668,38412
9.32480,40109
9.33293,39166
9.34105,38541
9.34917,38343
9.35730,36021
9.36542,34988
9.37355,36453
9.38167,34927
9.38978,35367
9.39792,37577
9.40603,34791
9.41417,34463
9.42228,34644
9.43040,34645
9.43853,38468
9.44665,35351
9.45477,36912
9.46290,32670
9.47102,35647
9.47915,35120
9.48727,34313
9.49538,35033
9.50352,36097
9.51163,35481
9.51977,33410
9.52788,33390
9.53600,31118
9.54413,31537
9.55225,37372
9.56038,35325
9.56850,33148
9.57662,32800
9.58475,28877
9.59287,29500
9.60098,30735
9.60912,31448
9.61723,29642
9.62537,33809
9.63348,26554
9.64160,33165
9.64973,30014
9.65785,30907
9.66598,30477
9.67410,26579
9.68222,26008
9.69035,26732
9.69847,27437
9.70658,27921
9.71472,23718
9.72283,27162
9.73097,27732
9.73908,26467
9.74720,27399
9.75533,27225
9.76345,27511
9.77158,27605
9.77970,24810
9.78782,24302
9.79595,26195
9.80407,27603
9.81220,25324
9.82032,24791
9.82843,26369
9.83657,26778
9.84468,24999
9.85280,26126
9.86093,25792
9.86905,25204
9.87718,25812
9.88530,26263
9.89342,26379
9.90155,25633
9.90967,29772
9.91780,25985
9.92592,25904
9.93403,27001
9.94217,25584
9.95028,28477
9.95840,27476
9.96653,28444
9.97465,28511
9.98278,29202
9.99090,30915
9.99902,30650
10.00715,27949
10.01527,27918
10.02340,30738
10.03152,30162
10.03963,28232
10.04777,28816
10.05588,24664
10.06402,27907
10.07213,26207
10.08025,25254
10.08838,27300
10.09650,25315
10.10462,30727
10.11275,27509
10.12087,24828
10.12900,23563
10.13712,27648
10.14523,26267
10.15337,24639
10.16148,26440
10.16962,25617
10.17773,26821
10.18585,24745
10.19398,25537
10.20210,29120
10.21023,28464
10.21835,29190
10.22647,27951
10.23460,26985
10.24272,29317
10.25083,25292
10.25897,28560
10.26708,22473
10.27522,26646
10.28333,21763
10.29145,25386
10.29958,25890
10.30770,27420
10.31583,25131
10.32395,26469
10.33207,26316
10.34020,25333
10.34832,26139
10.35645,26638
10.36457,23797
10.37268,25278
10.38082,26030
10.38893,27745
10.39705,25567
10.40518,25680
10.41330,22688
10.42143,24519
10.42955,23273
10.43767,25039
10.44580,24193
10.45392,26507
10.46205,26517
10.47017,27189
10.47828,25182
10.48642,23596
10.49453,23932
10.50265,22359
10.51078,23116
10.51890,24256
10.52703,25331
10.53515,28327
10.54327,28546
10.55140,28031
10.55952,28524
10.56765,25247
10.57577,27663
10.58388,29724
10.59202,24231
10.60013,24356
10.60827,27555
10.61638,25246
10.62450,23087
10.63263,24719
10.64075,25346
10.64887,23212
10.65700,26977
10.66512,23391
10.67325,24958
10.68137,27566
10.68948,24567
10.69762,29009
10.70573,27635
10.71387,27150
10.72198,29256
10.73010,26436
10.73823,25407
10.74635,29272
10.75447,24230
10.76260,25419
10.77072,26780
10.77885,29627
10.78697,26567
10.79508,26416
10.80322,25413
10.81133,22993
10.81947,25331
10.82758,22909
10.83570,25609
10.84383,24184
10.85195,24679
10.86008,22926
10.86820,24282
10.87632,25440
10.88445,23848
10.89257,24390
10.90068,26173
10.90882,23062
10.91693,23354
10.92507,26169
10.93318,25007
10.94130,22959
10.94943,23366
10.95755,23618
10.96568,23479
10.97380,23455
10.98192,25269
10.99005,23450
10.99817,25878
11.00628,23436
11.01442,24801
11.02253,24213
11.03067,21869
11.03878,25632
11.04690,24007
11.05503,22106
11.06315,23239
11.07128,22591
11.07940,23707
11.08752,23131
11.09565,23452
11.10377,21979
11.11190,22596
11.12002,23430
11.12813,26604
11.13627,26045
11.14438,29408
11.15250,25739
11.16063,30363
11.16875,26055
11.17688,23965
11.18500,23526
11.19312,24931
11.20125,26893
11.20937,25714
11.21750,25697
11.22562,26528
11.23373,24402
11.24187,27456
11.24998,23656
11.25812,28566
11.26623,24991
11.27435,26479
11.28248,30309
11.29060,35987
11.29872,37633
11.30685,45015
11.31497,48756
11.32310,48984
11.33122,52795
11.33933,45564
11.34747,47277
11.35558,47475
11.36372,43684
11.37183,39916
11.37995,36398
11.38808,28973
11.39620,35421
11.40433,29674
11.41245,30358
11.42057,28280
11.42870,27286
11.43682,25177
11.44493,25751
11.45307,25495
11.46118,26758
11.46932,24714
11.47743,24589
11.48555,26250
11.49368,24246
11.50180,22032
11.50993,24253
11.51805,23927
11.52617,26069
11.53430,27779
11.54242,26764
11.55053,27510
11.55867,29144
11.56678,30298
11.57492,33713
11.58303,31251
11.59115,29469
11.59928,30129
11.60740,31927
11.61553,30702
11.62365,25381
11.63177,25542
11.63990,26806
11.64802,23232
11.65615,24596
11.66427,26633
11.67238,24777
11.68052,24759
11.68863,26109
11.69675,25551
11.70488,27375
11.71300,30527
11.72113,27527
11.72925,30074
11.73737,33119
11.74550,34380
11.75362,32261
11.76175,28557
11.76987,29714
11.77798,33117
11.78612,31923
11.79423,29928
11.80235,27951
11.81048,25168
11.81860,27842
11.82673,25434
11.83485,24872
11.84297,24114
11.85110,27549
11.85922,24727
11.86735,23881
11.87547,25941
11.88358,24424
11.89172,25502
11.89983,22698
11.90797,23197
11.91608,23866
11.92420,25751
11.93233,28112
11.94045,28588
11.94857,31390
11.95670,32568
11.96482,30524
11.97295,27850
11.98107,30527
11.98918,30662
11.99732,29889
12.00543,30775
12.01357,30514
12.02168,25627
12.02980,27261
12.03793,26628
12.04605,24333
12.05418,25090
12.06230,27501
12.07042,26235
12.07855,30374
12.08667,30238
12.09478,28667
12.10292,27134
12.11103,24295
12.11917,22726
12.12728,22728
12.13540,23116
12.14353,27223
12.15165,25643
12.15978,26287
12.16790,24039
12.17602,25531
12.18415,27313
12.19227,26359
12.20038,23390
12.20852,21790
12.21663,28040
12.22477,24712
12.23288,20899
12.24100,22777
12.24913,24127
12.25725,22649
12.26538,23520
12.27350,20881
12.28162,23472
12.28975,23196
12.29787,22719
12.30600,23310
12.31412,22885
12.32223,21195
12.33037,22058
12.33848,23487
12.34660,24808
12.35473,23550
12.36285,21325
12.37098,27478
12.37910,30002
12.38722,44268
12.39535,65505
12.40347,96656
12.41160,118031
12.41972,122405
12.42783,108164
12.43597,86258
12.44408,63401
12.45222,44766
12.46033,40628
12.46845,32210
12.47658,35261
12.48470,29250
12.49282,29529
12.50095,28930
12.50907,28782
12.51720,29677
12.52532,31292
12.53343,25451
12.54157,27800
12.54968,26980
12.55782,25140
12.56593,24251
12.57405,25456
12.58218,24509
12.59030,26605
12.59842,23158
12.60655,25315
12.61467,25806
12.62280,20097
12.63092,19719
12.63903,20906
12.64717,24044
12.65528,21945
12.66342,23333
12.67153,24710
12.67965,22428
12.68778,21324
12.69590,23529
12.70403,23715
12.71215,25259
12.72027,23364
12.72840,28469
12.73652,24848
12.74463,28838
12.75277,24959
12.76088,23332
12.76902,23850
12.77713,23301
12.78525,24747
12.79338,26187
12.80150,25654
12.80963,25729
12.81775,26142
12.82587,29734
12.83400,25372
12.84212,27871
12.85023,26736
12.85837,23837
12.86648,24535
12.87462,27576
12.88273,25036
12.89085,24503
12.89898,22567
12.90710,22095
12.91523,22248
12.92335,25848
12.93147,21543
12.93960,22919
12.94772,27151
12.95585,29888
12.96397,33401
12.97208,42011
12.98022,43622
12.98833,48832
12.99645,55004
13.00458,52972
13.01270,51670
13.02083,47490
13.02895,43705
13.03707,38173
13.04520,37126
13.05332,33423
13.06145,31843
13.06957,26586
13.07768,30770
13.08582,25122
13.09393,29113
13.10207,28475
13.11018,24598
13.11830,24930
13.12643,22881
13.13455,26230
13.14267,28133
13.15080,27081
13.15892,24701
13.16705,27648
13.17517,21848
13.18328,22188
13.19142,22796
13.19953,25017
13.20767,24412
13.21578,22582
13.22390,24702
13.23203,22904
13.24015,23681
13.24827,24503
13.25640,24564
13.26452,27458
13.27265,28017
13.28077,28548
13.28888,33816
13.29702,30519
13.30513,34459
13.31327,33245
13.32138,32454
13.32950,31024
13.33763,33209
13.34575,32758
13.35388,29488
13.36200,30898
13.37012,32777
13.37825,30676
13.38637,27259
13.39448,29572
13.40262,26189
13.41073,27637
13.41887,22613
13.42698,28062
13.43510,23391
13.44323,25127
13.45135,21876
13.45948,24310
13.46760,25559
13.47572,22982
13.48385,24644
13.49197,23894
13.50010,22111
13.50822,23241
13.51633,25668
13.52447,22028
13.53258,23344
13.54070,25631
13.54883,23241
13.55695,25631
13.56508,26589
13.57320,30244
13.58132,29478
13.58945,30458
13.59757,31625
13.60570,30957
13.61382,28792
13.62193,30516
13.63007,34184
13.63818,34954
13.64630,38034
13.65443,36069
13.66255,34807
13.67068,34085
13.67880,29706
13.68692,30984
13.69505,29554
13.70317,29635
13.71130,28089
13.71942,25491
13.72753,23435
13.73567,24947
13.74378,25843
13.75192,24475
13.76003,23127
13.76815,27788
13.77628,23438
13.78440,26024
13.79252,24138
13.80065,21408
13.80877,24558
13.81690,23444
13.82502,22828
13.83313,21104
13.84127,20756
13.84938,20959
13.85752,23245
13.86563,27334
13.87375,25539
13.88188,24859
13.89000,24831
13.89813,29357
13.90625,24267
13.91437,29339
13.92250,30215
13.93062,30498
13.93873,30319
13.94687,28994
13.95498,29726
13.96312,30403
13.97123,28780
13.97935,27445
13.98748,26332
13.99560,23751
14.00373,25623
14.01185,28512
14.01997,28834
14.02810,26561
14.03622,32204
14.04433,30971
14.05247,25389
14.06058,25901
14.06872,28110
14.07683,29881
14.08495,28010
14.09308,29876
14.10120,28486
14.10933,28781
14.11745,31088
14.12557,38667
14.13370,53632
14.14182,75525
14.14995,100915
14.15807,104560
14.16618,100635
14.17432,89357
14.18243,69033
14.19055,62151
14.19868,58801
14.20680,46440
14.21493,46532
14.22305,44943
14.23117,41634
14.23930,37297
14.24742,40883
14.25555,40469
14.26367,34639
14.27178,34513
14.27992,33779
14.28803,32726
14.29615,30366
14.30428,26924
14.31240,26675
14.32053,23578
14.32865,23527
14.33677,26762
14.34490,24750
14.35302,20833
14.36115,24280
14.36927,22276
14.37738,23365
14.38552,23523
14.39363,22806
14.40177,21753
14.40988,22665
14.41800,20372
14.42613,23262
14.43425,22588
14.44237,21816
14.45050,24551
14.45862,21948
14.46675,23331
14.47487,23674
14.48298,23707
14.49112,22433
14.49923,22039
14.50737,24095
14.51548,21112
14.52360,21429
14.53173,25168
14.53985,22854
14.54798,18633
14.55610,22396
14.56422,21053
14.57235,21219
14.58047,22194
14.58858,23063
14.59672,23619
14.60483,18852
14.61297,25133
14.62108,21061
14.62920,20002
14.63733,20738
14.64545,19927
14.65358,22610
14.66170,21024
14.66982,22485
14.67795,20345
14.68607,21863
14.69418,23600
14.70232,19214
14.71043,23072
14.71857,20753
14.72668,22751
14.73480,22233
14.74293,22107
14.75105,21326
14.75918,19624
14.76730,21734
14.77542,19776
14.78355,20257
14.79167,21114
14.79980,20384
14.80792,21755
14.81603,24613
14.82417,22712
14.83228,23658
14.84040,20681
14.84853,23024
14.85665,24116
14.86478,21694
14.87290,23427
14.88102,22379
14.88915,23336
14.89727,25425
14.90540,23866
14.91352,25258
14.92163,25059
14.92977,22638
14.93788,23693
14.94602,26847
14.95413,20307
14.96225,23412
14.97038,21761
14.97850,21638
14.98662,21543
14.99475,20496
15.00287,21948
15.01100,20725
15.01912,21154
15.02723,20483
15.03537,20404
15.04348,22719
15.05162,21067
15.05973,22215
15.06785,21768
15.07598,23968
15.08410,22394
15.09222,21026
15.10035,20895
15.10847,22642
15.11660,18667
15.12472,20926
15.13283,19245
15.14097,22852
15.14908,19979
15.15722,25000
15.16533,21753
15.17345,21424
15.18158,22731
15.18970,22320
15.19783,21195
15.20595,21133
15.21407,20485
15.22220,23855
15.23032,20665
15.23843,20351
15.24657,20213
15.25468,19970
15.26282,21201
15.27093,23399
15.27905,21227
15.28718,19179
15.29530,21010
15.30343,19267
15.31155,18082
15.31967,22739
15.32780,23329
15.33592,24842
15.34403,22251
15.35217,20928
15.36028,21124
15.36842,21783
15.37653,22438
15.38465,20485
15.39278,18120
15.40090,20407
15.40903,24019
15.41715,20533
15.42527,21492
15.43340,17301
15.44152,21504
15.44965,20625
15.45777,19019
15.46588,18930
15.47402,20499
15.48213,22936
15.49025,22392
15.49838,20641
15.50650,21074
15.51463,21496
15.52275,20953
15.53087,21635
15.53900,22345
15.54712,22661
15.55525,20322
15.56337,24062
15.57148,21827
15.57962,18428
15.58773,20243
15.59587,19899
15.60398,20601
15.61210,20195
15.62023,19955
15.62835,21747
15.63647,20276
15.64460,19302
15.65272,21922
15.66085,24525
15.66897,24093
15.67708,17642
15.68522,20250
15.69333,22329
15.70147,20192
15.70958,20309
15.71770,21514
15.72583,17316
15.73395,21405
15.74208,20349
15.75020,21671
15.75832,20555
15.76645,22664
15.77457,20646
15.78268,20718
15.79082,21152
15.79893,20805
15.80707,22124
15.81518,22808
15.82330,20778
15.83143,22202
15.83955,19445
15.84768,19411
15.85580,20823
15.86392,19634
15.87205,20776
15.88017,19727
15.88828,20892
15.89642,20929
15.90453,24035
15.91267,19692
15.92078,23726
15.92890,20220
15.93703,19346
15.94515,17857
15.95328,20605
15.96140,19888
15.96952,20171
15.97765,22169
15.98577,23475
15.99390,24339
16.00202,25876
16.01013,25031
16.01827,25464
16.02638,28737
16.03450,26563
16.04263,25190
16.05075,25716
16.05888,25483
16.06700,21849
16.07512,23262
16.08325,23221
16.09137,19678
16.09950,23115
16.10762,21448
16.11573,20654
16.12387,20761
16.13198,21222
16.14010,21163
16.14823,23847
16.15635,20852
16.16448,18921
16.17260,20820
16.18072,21868
16.18885,21011
16.19697,19634
16.20510,19139
16.21322,19289
16.22133,21559
16.22947,20120
16.23758,19475
16.24572,20973
16.25383,20581
16.26195,23807
16.27008,20994
16.27820,21424
16.28632,22231
16.29445,21339
16.30257,21367
16.31070,22453
16.31882,23529
16.32693,22987
16.33507,21633
16.34318,23716
16.35132,23477
16.35943,20532
16.36755,23734
16.37568,21679
16.38380,19885
16.39193,21299
16.40005,20232
16.40817,20594
16.41630,19736
16.42442,19907
16.43253,24273
16.44067,21935
16.44878,20005
16.45692,22562
16.46503,22556
16.47315,20797
16.48128,20147
16.48940,19142
16.49753,21107
16.50565,21446
16.51377,23422
16.52190,20844
16.53002,23558
16.53813,21180
16.54627,24215
16.55438,23632
16.56252,23104
16.57063,23487
16.57875,22512
16.58688,20975
16.59500,20934
16.60313,25674
16.61125,23066
16.61937,22825
16.62750,21840
16.63562,18786
16.64375,18453
16.65187,20708
16.65998,19992
16.66812,20556
16.67623,20497
16.68435,21926
16.69248,21187
16.70060,19529
16.70873,20520
16.71685,21937
16.72497,19787
16.73310,21961
16.74122,21860
16.74935,23115
16.75747,22277
16.76558,21019
16.77372,22959
16.78183,20466
16.78997,20642
16.79808,19196
16.80620,20681
16.81433,21330
16.82245,22846
16.83057,20212
16.83870,19920
16.84682,20423
16.85495,22373
16.86307,24359
16.87118,23931
16.87932,24128
16.88743,20444
16.89557,23266
16.90368,22799
16.91180,18667
16.91993,19684
16.92805,22921
16.93617,23687
16.94430,22490
16.95242,22038
16.96055,22902
16.96867,20360
16.97678,27196
16.98492,22414
16.99303,22079
17.00117,20883
17.00928,18808
17.01740,21734
17.02553,22598
17.03365,21856
17.04178,22874
17.04990,22105
17.05802,22173
17.06615,22706
17.07427,22612
17.08238,21185
17.09052,20619
17.09863,22998
17.10677,21651
17.11488,22178
17.12300,21002
17.13113,20883
17.13925,22066
17.14738,19717
17.15550,21344
17.16362,21673
17.17175,21657
17.17987,17804
17.18798,19362
17.19612,19267
17.20423,22699
17.21237,21245
17.22048,19365
17.22860,22781
17.23673,22356
17.24485,20448
17.25298,22437
17.26110,23339
17.26922,22730
17.27735,20775
17.28547,21538
17.29360,23042
17.30172,22819
17.30983,22895
17.31797,23656
17.32608,22285
17.33420,19448
17.34233,23295
17.35045,22467
17.35858,24036
17.36670,25268
17.37482,24018
17.38295,25299
17.39107,24565
17.39920,27383
17.40732,24674
17.41543,23764
17.42357,22795
17.43168,25991
17.43982,22752
17.44793,24543
17.45605,25550
17.46418,24627
17.47230,24146
17.48042,21477
17.48855,26366
17.49667,24397
17.50480,24614
17.51292,26217
17.52103,26569
17.52917,27289
17.53728,33122
17.54542,33092
17.55353,31041
17.56165,33940
17.56978,33035
17.57790,29272
17.58602,25963
17.59415,27903
17.60227,23354
17.61040,24027
17.61852,28194
17.62663,22832
17.63477,22477
17.64288,24704
17.65102,25670
17.65913,27250
17.66725,23030
17.67538,24591
17.68350,23399
17.69163,22088
17.69975,25480
17.70787,24734
17.71600,22518
17.72412,22597
17.73223,24115
17.74037,22718
17.74848,22170
17.75662,23005
17.76473,22632
17.77285,22186
17.78098,23443
17.78910,24370
17.79723,23838
17.80535,22638
17.81347,23633
17.82160,21937
17.82972,22392
17.83785,24628
17.84597,21435
17.85408,25306
17.86222,23850
17.87033,24965
17.87845,23075
17.88658,22104
17.89470,21731
17.90283,23829
17.91095,23511
17.91907,24580
17.92720,20547
17.93532,20564
17.94345,17140
17.95157,20990
17.95968,22551
17.96782,25670
17.97593,22604
17.98405,23435
17.99218,23721
18.00030,22947
18.00843,22510
18.01655,25482
18.02467,22548
18.03280,23179
18.04092,25527
18.04905,24215
18.05717,25573
18.06528,21641
18.07342,25320
18.08153,24044
18.08967,26058
18.09778,24126
18.10590,22734
18.11403,25768
18.12215,25222
18.13027,25578
18.13840,26400
18.14652,27807
18.15465,25686
18.16277,28122
18.17088,20980
18.17902,24556
18.18713,22897
18.19527,24885
18.20338,26458
18.21150,21496
18.21963,24646
18.22775,21619
18.23587,24623
18.24400,23345
18.25212,27433
18.26025,25336
18.26837,23605
18.27648,22078
18.28462,26893
18.29273,23877
18.30087,23664
18.30898,20754
18.31710,21962
18.32523,23135
18.33335,22306
18.34148,22273
18.34960,21843
18.35772,28086
18.36585,22475
18.37397,24491
18.38208,19942
18.39022,22418
18.39833,22409
18.40647,24603
18.41458,21184
18.42270,22949
18.43083,22743
18.43895,22674
18.44708,20830
18.45520,21402
18.46332,23540
18.47145,22560
18.47957,21664
18.48770,22786
18.49582,22133
18.50393,23455
18.51207,22927
18.52018,19904
18.52830,24357
18.53643,21669
18.54455,27092
18.55268,20201
18.56080,19631
18.56892,24008
18.57705,22438
18.58517,22191
18.59330,22219
18.60142,21122
18.60953,21552
18.61767,23171
18.62578,22584
18.63390,23624
18.64203,19640
18.65015,22433
18.65828,22612
18.66640,20774
18.67452,23214
18.68265,20412
18.69077,23754
18.69890,24897
18.70702,19598
18.71513,23794
18.72327,20688
18.73138,22571
18.73952,24722
18.74763,25275
18.75575,24184
18.76388,26908
18.77200,27387
18.78012,28527
18.78825,24249
18.79637,27454
18.80450,27878
18.81262,26967
18.82073,25397
18.82887,26835
18.83698,26550
18.84512,31288
18.85323,25042
18.86135,26201
18.86948,23860
18.87760,28540
18.88573,29216
18.89385,28626
18.90197,29294
18.91010,28924
18.91822,30799
18.92633,27910
18.93447,27684
18.94258,27665
18.95072,26798
18.95883,26826
18.96695,28787
18.97508,29412
18.98320,27904
18.99133,27091
18.99945,26861
19.00757,28825
19.01570,26227
19.02382,27316
19.03193,26647
19.04007,27296
19.04818,28636
19.05632,27010
19.06443,23701
19.07255,25908
19.08068,29549
19.08880,30294
19.09693,30306
19.10505,31259
19.11317,33985
19.12130,31024
19.12942,33097
19.13755,35045
19.14567,32819
19.15378,30480
19.16192,32612
19.17003,30868
19.17815,30375
19.18628,31014
19.19440,30768
19.20253,27562
19.21065,26617
19.21877,28931
19.22690,23996
19.23502,27043
19.24315,25344
19.25127,24051
19.25938,24759
19.26752,27812
19.27563,25310
19.28377,27793
19.29188,27578
19.30000,30021
19.30813,28821
19.31625,29359
19.32437,25380
19.33250,25271
19.34062,25095
19.34875,26209
19.35687,27787
19.36498,25852
19.37312,24125
19.38123,24518
19.38937,26183
19.39748,24365
19.40560,23640
19.41373,29350
19.42185,38865
19.42997,44889
19.43810,62204
19.44622,74536
19.45435,73396
19.46247,67868
19.47058,56219
19.47872,50287
19.48683,34964
19.49497,32951
19.50308,29073
19.51120,27013
19.51933,26002
19.52745,25144
19.53558,26137
19.54370,25844
19.55182,25288
19.55995,24722
19.56807,24612
19.57618,26763
19.58432,21355
19.59243,23919
19.60057,23831
19.60868,25131
19.61680,25837
19.62493,26839
19.63305,31345
19.64118,43757
19.64930,47331
19.65742,49452
19.66555,49571
19.67367,49631
19.68178,41369
19.68992,41024
19.69803,36756
19.70617,32728
19.71428,30261
19.72240,31480
19.73053,32681
19.73865,28903
19.74678,25472
19.75490,24428
19.76302,27219
19.77115,29195
19.77927,28790
19.78740,23446
19.79552,24976
19.80363,24375
19.81177,25153
19.81988,24645
19.82800,25625
19.83613,25913
19.84425,25188
19.85238,28507
19.86050,26768
19.86862,29353
19.87675,30801
19.88487,30460
19.89300,36046
19.90112,38651
19.90923,45491
19.91737,41015
19.92548,43134
19.93362,39888
19.94173,40323
19.94985,37110
19.95798,39112
19.96610,36788
19.97422,38186
19.98235,37103
19.99047,41378
19.99860,40378
20.00672,37782
20.01483,38524
20.02297,38020
20.03108,33608
20.03922,32695
20.04733,34013
20.05545,31244
20.06358,26470
20.07170,27605
20.07982,28903
20.08795,25918
20.09607,25349
20.10420,27036
20.11232,26583
20.12043,26260
20.12857,27118
20.13668,27753
20.14482,26957
20.15293,27710
20.16105,25803
20.16918,27968
20.17730,27129
20.18543,25936
20.19355,28326
20.20167,28818
20.20980,29891
20.21792,28759
20.22603,30831
20.23417,33167
20.24228,37642
20.25042,42950
20.25853,47068
20.26665,47000
20.27478,43019
20.28290,40088
20.29103,37192
20.29915,33236
20.30727,34962
20.31540,32613
20.32352,25998
20.33165,29905
20.33977,29895
20.34788,25716
20.35602,27030
20.36413,25259
20.37225,24416
20.38038,25612
20.38850,25934
20.39663,27596
20.40475,27024
20.41287,27183
20.42100,32539
20.42912,26517
20.43725,28286
20.44537,30279
20.45348,27910
20.46162,25407
20.46973,26803
20.47785,23492
20.48598,25179
20.49410,23470
20.50223,24190
20.51035,24058
20.51847,21521
20.52660,23789
20.53472,23087
20.54285,25312
20.55097,23461
20.55908,23703
20.56722,23080
20.57533,22105
20.58347,22833
20.59158,23318
20.59970,24486
20.60783,23392
20.61595,22680
20.62407,23612
20.63220,23736
20.64032,22733
20.64845,24924
20.65657,23404
20.66468,23017
20.67282,21254
20.68093,25593
20.68907,23382
20.69718,23952
20.70530,23685
20.71343,23116
20.72155,26484
20.72967,25415
20.73780,22791
20.74592,24256
20.75405,21273
20.76217,21674
20.77028,22967
20.77842,22573
20.78653,25636
20.79467,25288
20.80278,22598
20.81090,24615
20.81903,21350
20.82715,22565
20.83528,24469
20.84340,22635
20.85152,22530
20.85965,21624
20.86777,24112
20.87588,22462
20.88402,24953
20.89213,25439
20.90027,24472
20.90838,22241
20.91650,20668
20.92463,21662
20.93275,22120
20.94088,23213
20.94900,23179
20.95712,23359
20.96525,23671
20.97337,24302
20.98150,21531
20.98962,24647
20.99773,20313
21.00587,22134
21.01398,24041
21.02210,22200
21.03023,23748
21.03835,23907
21.04648,19257
21.05460,22564
21.06272,21649
21.07085,20400
21.07897,23495
21.08710,22095
21.09522,24370
21.10333,21551
21.11147,24916
21.11958,22133
21.12770,26131
21.13583,22047
21.14395,23209
21.15208,22215
21.16020,22508
21.16832,23187
21.17645,24436
21.18457,23190
21.19270,24266
21.20082,26398
21.20893,22647
21.21707,23284
21.22518,24331
21.23332,22585
21.24143,23163
21.24955,29090
21.25768,23115
21.26580,24083
21.27392,26845
21.28205,22629
21.29017,25077
21.29830,24733
21.30642,23059
21.31453,23185
21.32267,23671
21.33078,22636
21.33892,23928
21.34703,24321
21.35515,21594
21.36328,22810
21.37140,20994
21.37953,23317
21.38765,24774
21.39577,22779
21.40390,25882
21.41202,24995
21.42013,24080
21.42827,26699
21.43638,23880
21.44452,23461
21.45263,23479
21.46075,22250
21.46888,23230
21.47700,21099
21.48513,20728
21.49325,25216
21.50137,23941
21.50950,23894
21.51762,19861
21.52573,25012
21.53387,24077
21.54198,23216
21.55012,22148
21.55823,22349
21.56635,21397
21.57448,24708
21.58260,26798
21.59073,32337
21.59885,28464
21.60697,31700
21.61510,30169
21.62322,31364
21.63135,28943
21.63947,28267
21.64758,25600
21.65572,24648
21.66383,24692
21.67195,24453
21.68008,24128
21.68820,21343
21.69633,25326
21.70445,23428
21.71257,23758
21.72070,26438
21.72882,22430
21.73695,23678
21.74507,22982
21.75318,21618
21.76132,22483
21.76943,25303
21.77755,29781
21.78568,27593
21.79380,26787
21.80193,29307
21.81005,32243
21.81817,27469
21.82630,25316
21.83442,26564
21.84255,24837
21.85067,24349
21.85878,22471
21.86692,22580
21.87503,23029
21.88317,23041
21.89128,24940
21.89940,22346
21.90753,21669
21.91565,26119
21.92377,23160
21.93190,23496
21.94002,19592
21.94815,23082
21.95627,22324
21.96438,24602
21.97252,22091
21.98063,23981
21.98877,23295
21.99688,22023
22.00500,24807
22.01313,21344
22.02125,24591
22.02938,21527
22.03750,26286
22.04562,22302
22.05375,22434
22.06187,21731
22.06998,23083
22.07812,24824
22.08623,25161
22.09437,26057
22.10248,25785
22.11060,27247
22.11873,23298
22.12685,21799
22.13498,22589
22.14310,25856
22.15122,22989
22.15935,21897
22.16747,20769
22.17560,22778
22.18372,21040
22.19183,24599
22.19997,24940
22.20808,20297
22.21620,23756
22.22433,24297
22.23245,21687
22.24058,20218
22.24870,22619
22.25682,21860
22.26495,21344
22.27307,18308
22.28120,21496
22.28932,22495
22.29743,22818
22.30557,23060
22.31368,24463
22.32180,21924
22.32993,23715
22.33805,26656
22.34618,26702
22.35430,26049
22.36242,22673
22.37055,25743
22.37867,22188
22.38680,22284
22.39492,23129
22.40303,22426
22.41117,20976
22.41928,21430
22.42742,20911
22.43553,22044
22.44365,23582
22.45178,23196
22.45990,22424
22.46802,22194
22.47615,19641
22.48427,22012
22.49240,24931
22.50052,23239
22.50863,20516
22.51677,23537
22.52488,21175
22.53302,22390
22.54113,23114
22.54925,22617
22.55738,21671
22.56550,23028
22.57362,20973
22.58175,22179
22.58987,20431
22.59800,20668
22.60612,21938
22.61423,23159
22.62237,20215
22.63048,20046
22.63862,20303
22.64673,20160
22.65485,23709
22.66298,20992
22.67110,20213
22.67923,23081
22.68735,20936
22.69547,22956
22.70360,22818
22.71172,23017
22.71983,23319
22.72797,25272
22.73608,21458
22.74422,22608
22.75233,23127
22.76045,19064
22.76858,22183
22.77670,19371
22.78483,23428
22.79295,23580
22.80107,22242
22.80920,21286
22.81732,22717
22.82545,22806
22.83357,23058
22.84168,22879
22.84982,24243
22.85793,24008
22.86605,22731
22.87418,24869
22.88230,24465
22.89043,25200
22.89855,25384
22.90667,32257
22.91480,30887
22.92292,36423
22.93105,38395
22.93917,35940
22.94728,37877
22.95542,37639
22.96353,38278
22.97165,37873
22.97978,39490
22.98790,32619
22.99603,32911
23.00415,30644
23.01227,31928
23.02040,27340
23.02852,31859
23.03665,25363
23.04477,25898
23.05288,25227
23.06102,26875
23.06913,24412
23.07727,25080
23.08538,24873
23.09350,26461
23.10163,26784
23.10975,24390
23.11787,23638
23.12600,25570
23.13412,23733
23.14225,21764
23.15037,22184
23.15848,22330
23.16662,25445
23.17473,24635
23.18287,26173
23.19098,24264
23.19910,25494
23.20723,26157
23.21535,20418
23.22348,23231
23.23160,21671
23.23972,23000
23.24785,24263
23.25597,23452
23.26408,24509
23.27222,26510
23.28033,25505
23.28847,23907
23.29658,25870
23.30470,24025
23.31283,24724
23.32095,21794
23.32908,22731
23.33720,24086
23.34532,20015
23.35345,24046
23.36157,26095
23.36968,22351
23.37782,23620
23.38593,22719
23.39407,22479
23.40218,24706
23.41030,22542
23.41843,23116
23.42655,24009
23.43468,22064
23.44280,23202
23.45092,22998
23.45905,26550
23.46717,22431
23.47530,23438
23.48342,22933
23.49153,23213
23.49967,21802
23.50778,24028
23.51590,22735
23.52403,27031
23.53215,23822
23.54028,24502
23.54840,27040
23.55652,24855
23.56465,24634
23.57277,23997
23.58090,23362
23.58902,26373
23.59713,24949
23.60527,25272
23.61338,24590
23.62150,23841
23.62963,23352
23.63775,26612
23.64588,24762
23.65400,25131
23.66212,26558
23.67025,29350
23.67837,26273
23.68650,23706
23.69462,27678
23.70273,24712
23.71087,26601
23.71898,23701
23.72712,31683
23.73523,50620
23.74335,100317
23.75148,177354
23.75960,364265
23.76772,621509
23.77585,1041339
23.78397,1339461
23.79210,1407944
23.80022,1279419
23.80833,1017967
23.81647,811209
23.82458,628515
23.83272,473340
23.84083,359339
23.84895,286469
23.85708,240032
23.86520,209132
23.87333,178215
23.88145,160430
23.88957,141561
23.89770,125619
23.90582,114970
23.91393,102778
23.92207,100922
23.93018,93331
23.93832,89037
23.94643,82938
23.95455,81147
23.96268,75228
23.97080,75142
23.97893,71140
23.98705,69382
23.99517,61426
24.00330,62901
24.01142,59882
24.01953,57755
24.02767,59197
24.03578,55751
24.04392,62043
24.05203,53235
24.06015,60528
24.06828,55115
24.07640,53222
24.08453,53256
24.09265,49465
24.10077,51724
24.10890,49391
24.11702,49739
24.12515,45527
24.13327,49530
24.14138,48099
24.14952,47149
24.15763,48885
24.16575,46110
24.17388,49480
24.18200,42271
24.19013,44626
24.19825,41298
24.20637,39916
24.21450,41543
24.22262,40607
24.23075,41889
24.23887,39465
24.24698,40199
24.25512,36191
24.26323,38317
24.27137,40367
24.27948,35317
24.28760,36480
24.29573,37854
24.30385,43120
24.31197,48406
24.32010,55412
24.32822,66284
24.33635,65969
24.34447,65457
24.35258,56746
24.36072,47087
24.36883,41197
24.37697,38181
24.38508,32715
24.39320,37099
24.40133,36724
24.40945,31205
24.41757,37392
24.42570,35970
24.43382,36660
24.44195,33798
24.45007,37357
24.45818,38789
24.46632,34102
24.47443,33632
24.48257,33589
24.49068,38302
24.49880,31496
24.50693,33579
24.51505,35308
24.52318,30495
24.53130,31525
24.53942,32673
24.54755,30112
24.55567,30075
24.56378,30187
24.57192,29352
24.58003,29451
24.58817,30066
24.59628,28630
24.60440,28353
24.61253,32579
24.62065,31658
24.62878,32051
24.63690,29563
24.64502,29379
24.65315,27796
24.66127,30012
24.66940,28697
24.67752,28226
24.68563,28479
24.69377,29094
24.70188,26991
24.71000,28032
24.71813,27905
24.72625,31157
24.73438,28791
24.74250,27274
24.75062,30102
24.75875,26096
24.76687,27911
24.77500,29494
24.78312,30058
24.79123,28098
24.79937,29469
24.80748,27611
24.81560,26797
24.82373,26234
24.83185,30909
24.83998,25845
24.84810,29277
24.85622,29834
24.86435,25446
24.87247,26346
24.88060,27996
24.88872,26953
24.89683,27386
24.90497,25093
24.91308,27957
24.92122,25850
24.92933,25025
24.93745,26078
24.94558,26072
24.95370,24775
24.96182,28344
24.96995,25477
24.97807,24177
24.98620,26206
24.99432,26078
25.00243,23361
25.01057,24910
25.01868,25690
25.02682,26344
25.03493,26518
25.04305,26550
25.05118,25380
25.05930,26271
25.06742,26224
25.07555,25600
25.08367,25616
25.09180,26444
25.09992,23909
25.10803,29964
25.11617,27659
25.12428,23498
25.13242,25919
25.14053,27812
25.14865,29190
25.15678,26802
25.16490,25788
25.17303,27816
25.18115,25727
25.18927,24673
25.19740,28597
25.20552,25144
25.21363,23276
25.22177,22565
25.22988,26110
25.23802,26115
25.24613,23866
25.25425,23611
25.26238,24093
25.27050,24908
25.27863,25730
25.28675,27287
25.29487,28146
25.30300,31547
25.31112,31026
25.31925,30171
25.32737,31570
25.33548,29174
25.34362,31393
25.35173,27150
25.35985,25556
25.36798,24698
25.37610,25991
25.38423,25642
25.39235,26218
25.40047,26273
25.40860,25536
25.41672,24283
25.42485,26154
25.43297,21961
25.44108,26221
25.44922,23602
25.45733,25725
25.46545,28910
25.47358,24859
25.48170,24507
25.48983,23395
25.49795,21611
25.50607,24055
25.51420,22611
25.52232,25818
25.53045,23516
25.53857,25649
25.54668,25427
25.55482,25105
25.56293,23943
25.57107,22515
25.57918,24361
25.58730,23240
25.59543,24228
25.60355,24834
25.61167,24930
25.61980,23398
25.62792,21349
25.63605,22446
25.64417,26050
25.65228,20940
25.66042,24063
25.66853,23954
25.67667,22353
25.68478,24788
25.69290,23799
25.70103,23472
25.70915,22095
25.71728,21836
25.72540,21926
25.73352,23016
25.74165,23864
25.74977,20960
25.75788,23931
25.76602,21939
25.77413,22554
25.78227,24608
25.79038,23140
25.79850,23730
25.80663,25577
25.81475,21669
25.82288,22054
25.83100,23103
25.83912,23891
25.84725,23873
25.85537,20917
25.86348,20008
25.87162,21231
25.87973,21836
25.88787,24245
25.89598,25214
25.90410,22211
25.91223,22120
25.92035,21541
25.92848,22273
25.93660,22787
25.94472,25080
25.95285,24326
25.96097,21529
25.96910,23024
25.97722,23310
25.98533,21370
25.99347,25631
26.00158,21904
26.00970,19296
26.01783,19664
26.02595,20406
26.03408,22537
26.04220,24224
26.05032,21747
26.05845,20730
26.06657,23325
26.07470,22393
26.08282,20715
26.09093,20418
26.09907,22816
26.10718,22530
26.11530,19948
26.12343,23145
26.13155,27282
26.13968,26162
26.14780,28189
26.15592,26356
26.16405,28053
26.17217,29680
26.18030,27625
26.18842,24394
26.19653,26408
26.20467,22460
26.21278,24121
26.22092,23657
26.22903,21971
26.23715,21666
26.24528,22707
26.25340,22338
26.26152,21819
26.26965,21493
26.27777,21204
26.28590,21588
26.29402,21663
26.30213,23978
26.31027,21360
26.31838,21175
26.32652,22582
26.33463,23059
26.34275,24497
26.35088,23307
26.35900,22189
26.36713,25246
26.37525,22557
26.38337,18872
26.39150,22574
26.39962,24494
26.40773,22380
26.41587,21769
26.42398,24746
26.43212,23670
26.44023,25090
26.44835,23478
26.45648,22775
26.46460,24013
26.47273,23380
26.48085,21431
26.48897,23050
26.49710,23720
26.50522,23109
26.51333,25365
26.52147,23448
26.52958,20459
26.53772,21454
26.54583,21992
26.55395,21387
26.56208,26111
26.57020,21618
26.57833,22526
26.58645,19481
26.59457,22479
26.60270,21759
26.61082,22247
26.61895,21254
26.62707,20106
26.63518,23545
26.64332,20340
26.65143,22054
26.65955,21770
26.66768,21929
26.67580,22021
26.68393,20702
26.69205,21930
26.70017,24032
26.70830,22373
26.71642,24189
26.72455,22061
26.73267,24137
26.74078,23595
26.74892,22738
26.75703,22949
26.76517,23902
26.77328,22711
26.78140,22024
26.78953,23999
26.79765,24289
26.80577,26881
26.81390,25737
26.82202,26050
26.83015,21670
26.83827,21910
26.84638,22590
26.85452,21379
26.86263,20397
26.87077,20371
26.87888,21889
26.88700,24057
26.89513,22417
26.90325,22907
26.91137,21219
26.91950,21349
26.92762,22542
26.93575,27239
26.94387,30125
26.95198,41563
26.96012,63150
26.96823,85891
26.97637,134685
26.98448,181896
26.99260,207021
27.00073,236534
27.00885,229208
27.01698,205293
27.02510,174938
27.03322,148804
27.04135,122299
27.04947,101002
27.05758,88967
27.06572,73732
27.07383,59005
27.08197,57795
27.09008,52872
27.09820,45153
27.10633,42447
27.11445,45073
27.12258,41898
27.13070,41117
27.13882,38126
27.14695,35095
27.15507,34610
27.16318,32250
27.17132,35070
27.17943,38456
27.18757,32069
27.19568,33153
27.20380,34314
27.21193,32722
27.22005,30404
27.22818,32454
27.23630,33375
27.24442,30876
27.25255,31126
27.26067,29019
27.26880,32836
27.27692,31173
27.28503,27133
27.29317,27641
27.30128,29825
27.30940,24640
27.31753,27160
27.32565,26732
27.33378,26095
27.34190,25819
27.35002,27487
27.35815,25029
27.36627,26775
27.37440,28952
27.38252,26935
27.39063,32619
27.39877,28974
27.40688,29154
27.41502,26127
27.42313,28527
27.43125,25685
27.43938,27907
27.44750,26614
27.45562,25113
27.46375,27483
27.47187,25049
27.48000,21614
27.48812,26466
27.49623,28064
27.50437,28232
27.51248,28580
27.52062,24427
27.52873,25172
27.53685,25111
27.54498,25265
27.55310,26895
27.56123,24593
27.56935,22856
27.57747,25891
27.58560,22088
27.59372,24853
27.60183,24607
27.60997,21378
27.61808,26984
27.62622,24305
27.63433,22445
27.64245,23888
27.65058,21851
27.65870,23397
27.66683,23530
27.67495,25336
27.68307,25155
27.69120,22528
27.69932,22059
27.70743,21673
27.71557,24743
27.72368,23656
27.73182,23842
27.73993,25379
27.74805,25784
27.75618,26331
27.76430,26162
27.77243,24627
27.78055,23067
27.78867,22495
27.79680,24275
27.80492,23596
27.81305,25310
27.82117,25413
27.82928,24044
27.83742,26620
27.84553,21908
27.85365,23352
27.86178,25759
27.86990,23354
27.87803,22730
27.88615,21641
27.89427,25412
27.90240,25312
27.91052,21561
27.91865,21602
27.92677,22348
27.93488,19922
27.94302,22666
27.95113,26658
27.95925,21591
27.96738,21652
27.97550,23651
27.98363,25585
27.99175,21097
27.99987,21581
28.00800,23583
28.01612,24863
28.02425,23514
28.03237,24157
28.04048,23862
28.04862,23769
28.05673,22433
28.06487,25446
28.07298,23278
28.08110,26700
28.08923,24758
28.09735,27558
28.10547,29652
28.11360,27714
28.12172,26285
28.12985,27900
28.13797,26777
28.14608,26214
28.15422,26089
28.16233,25000
28.17047,22541
28.17858,21270
28.18670,23268
28.19483,24987
28.20295,21959
28.21108,23295
28.21920,21400
28.22732,21418
28.23545,24403
28.24357,23188
28.25168,29867
28.25982,37184
28.26793,45259
28.27607,53768
28.28418,64171
28.29230,75108
28.30043,88921
28.30855,95555
28.31668,99830
28.32480,102568
28.33292,107363
28.34105,97638
28.34917,85846
28.35728,82258
28.36542,70607
28.37353,72609
28.38167,63189
28.38978,55231
28.39790,48098
28.40603,46312
28.41415,45868
28.42228,44633
28.43040,42756
28.43852,39804
28.44665,37075
28.45477,35896
28.46290,32888
28.47102,37324
28.47913,35184
28.48727,32620
28.49538,33695
28.50350,31677
28.51163,33575
28.51975,30878
28.52788,27455
28.53600,30773
28.54412,28442
28.55225,30908
28.56037,28598
28.56850,28528
28.57662,26964
28.58473,29051
28.59287,28329
28.60098,29345
28.60912,24412
28.61723,30081
28.62535,27821
28.63348,27251
28.64160,30186
28.64972,26886
28.65785,31796
28.66597,32177
28.67410,33071
28.68222,38061
28.69033,42961
28.69847,45074
28.70658,45594
28.71472,42965
28.72283,37821
28.73095,29927
28.73908,27773
28.74720,28099
28.75532,26229
28.76345,27388
28.77157,24692
28.77970,26077
28.78782,26977
28.79593,25520
28.80407,27210
28.81218,24180
28.82032,27183
28.82843,24660
28.83655,25924
28.84468,26765
28.85280,25888
28.86093,26305
28.86905,24127
28.87717,26872
28.88530,24863
28.89342,22767
28.90153,24702
28.90967,24126
28.91778,24346
28.92592,28677
28.93403,27825
28.94215,26667
28.95028,28046
28.95840,30716
28.96653,29665
28.97465,26991
28.98277,29429
28.99090,23779
28.99902,29316
29.00713,26630
29.01527,26102
29.02338,26302
29.03152,26162
29.03963,23810
29.04775,26014
29.05588,27051
29.06400,26746
29.07213,27412
29.08025,24744
29.08837,25505
29.09650,23350
29.10462,25639
29.11275,23335
29.12087,24103
29.12898,23997
29.13712,24201
29.14523,24834
29.15335,25282
29.16148,24257
29.16960,22379
29.17773,25054
29.18585,25224
29.19397,24851
29.20210,24445
29.21022,25589
29.21835,22430
29.22647,28704
29.23458,23892
29.24272,27409
29.25083,23217
29.25897,30912
29.26708,27365
29.27520,23384
29.28333,23864
29.29145,24935
29.29957,25334
29.30770,25427
29.31582,23364
29.32395,27699
29.33207,26064
29.34018,24017
29.34832,23614
29.35643,25709
29.36457,23916
29.37268,22268
29.38080,23622
29.38893,22846
29.39705,25068
29.40517,27156
29.41330,25584
29.42142,26016
29.42955,28657
29.43767,27576
29.44578,25260
29.45392,26905
29.46203,24159
29.47017,27135
29.47828,28675
29.48640,26385
29.49453,25036
29.50265,23385
29.51078,26600
29.51890,27466
29.52702,25775
29.53515,24777
29.54327,24935
29.55138,21365
29.55952,21888
29.56763,25640
29.57577,22705
29.58388,24440
29.59200,25759
29.60013,24268
29.60825,23862
29.61638,25223
29.62450,23509
29.63262,25608
29.64075,27261
29.64887,23804
29.65700,24890
29.66512,21520
29.67323,23047
29.68137,23744
29.68948,20262
29.69760,23517
29.70573,24845
29.71385,21948
29.72198,20909
29.73010,23530
29.73822,24559
29.74635,27307
29.75447,23083
29.76260,22437
29.77072,22064
29.77883,23057
29.78697,21786
29.79508,22870
29.80320,22114
29.81133,24886
29.81945,25024
29.82758,22009
29.83570,21373
29.84382,25234
29.85195,25930
29.86007,23806
29.86820,27629
29.87632,28186
29.88443,31756
29.89257,36913
29.90068,42414
29.90882,42276
29.91693,50011
29.92505,58845
29.93318,51578
29.94130,52299
29.94942,57683
29.95755,57469
29.96567,57647
29.97380,55706
29.98192,56421
29.99003,48033
29.99817,46691
30.00628,45024
30.01442,43505
30.02253,42683
30.03065,40747
30.03878,43350
30.04690,39338
30.05502,34010
30.06315,35787
30.07127,35137
30.07940,35199
30.08752,34201
30.09563,31613
30.10377,32683
30.11188,31414
30.12002,37125
30.12813,33371
30.13625,30447
30.14438,29680
30.15250,30557
30.16063,29532
30.16875,31632
30.17687,29847
30.18500,29017
30.19312,32625
30.20123,28870
30.20937,27668
30.21748,31866
30.22562,26487
30.23373,28028
30.24185,26696
30.24998,26090
30.25810,26295
30.26623,26696
30.27435,25082
30.28247,27125
30.29060,25707
30.29872,27616
30.30685,28052
30.31497,27680
30.32308,23401
30.33122,25427
30.33933,25717
30.34745,27805
30.35558,26825
30.36370,27162
30.37183,25690
30.37995,26529
30.38807,24391
30.39620,26213
30.40432,25778
30.41245,26486
30.42057,24518
30.42868,24459
30.43682,23276
30.44493,23383
30.45305,24978
30.46118,26221
30.46930,30001
30.47743,27827
30.48555,24120
30.49367,25209
30.50180,24591
30.50992,27185
30.51805,24226
30.52617,24285
30.53428,24840
30.54242,26652
30.55053,26472
30.55867,24146
30.56678,22599
30.57490,23658
30.58303,25104
30.59115,25319
30.59927,25691
30.60740,25431
30.61552,27405
30.62365,26579
30.63177,26115
30.63988,25454
30.64802,23051
30.65613,23761
30.66427,26381
30.67238,25867
30.68050,22919
30.68863,26701
30.69675,24592
30.70488,25301
30.71300,25945
30.72112,26795
30.72925,26623
30.73737,24448
30.74548,24912
30.75362,23668
30.76173,27538
30.76987,22754
30.77798,25022
30.78610,24565
30.79423,25575
30.80235,25012
30.81048,25648
30.81860,26646
30.82672,27438
30.83485,26287
30.84297,25690
30.85108,28163
30.85922,26926
30.86733,25074
30.87547,22823
30.88358,26288
30.89170,23932
30.89983,24396
30.90795,22101
30.91608,29229
30.92420,26038
30.93232,25717
30.94045,25232
30.94857,24743
30.95670,24228
30.96482,25423
30.97293,26793
30.98107,25348
30.98918,23940
30.99730,26306
31.00543,23869
31.01355,24465
31.02168,24482
31.02980,24813
31.03792,25860
31.04605,24140
31.05417,24853
31.06230,25478
31.07042,25964
31.07853,29138
31.08667,28736
31.09478,27727
31.10292,28111
31.11103,28310
31.11915,26994
31.12728,29340
31.13540,29283
31.14352,28175
31.15165,27287
31.15977,25823
31.16790,34630
31.17602,36966
31.18413,46310
31.19227,59459
31.20038,69177
31.20852,76986
31.21663,72853
31.22475,62661
31.23288,56162
31.24100,48086
31.24912,42778
31.25725,31644
31.26537,30231
31.27350,27827
31.28162,27352
31.28973,26968
31.29787,29509
31.30598,30409
31.31412,26555
31.32223,25986
31.33035,27254
31.33848,31356
31.34660,26483
31.35473,27636
31.36285,27243
31.37097,24380
31.37910,24932
31.38722,25156
31.39533,25266
31.40347,25374
31.41158,26669
31.41972,27129
31.42783,27146
31.43595,24377
31.44408,24987
31.45220,26532
31.46033,25173
31.46845,23504
31.47657,26588
31.48470,26388
31.49282,25784
31.50093,28082
31.50907,24832
31.51718,27090
31.52532,23245
31.53343,25034
31.54155,24734
31.54968,27677
31.55780,25364
31.56593,27177
31.57405,25060
31.58217,23366
31.59030,25370
31.59842,23737
31.60655,23813
31.61467,24916
31.62278,26153
31.63092,28044
31.63903,25319
31.64715,26836
31.65528,27025
31.66340,27855
31.67153,29931
31.67965,28043
31.68777,25253
31.69590,24060
31.70402,26263
31.71215,25313
31.72027,28610
31.72838,23818
31.73652,26085
31.74463,25353
31.75277,23480
31.76088,25484
31.76900,24879
31.77713,24718
31.78525,27664
31.79337,26577
31.80150,30785
31.80962,29442
31.81775,29226
31.82587,31652
31.83398,33582
31.84212,36728
31.85023,40120
31.85837,44639
31.86648,45278
31.87460,47557
31.88273,49742
31.89085,46725
31.89897,47385
31.90710,47816
31.91522,48212
31.92335,44779
31.93147,40923
31.93958,45232
31.94772,38150
31.95583,38785
31.96397,37002
31.97208,36208
31.98020,34379
31.98833,35583
31.99645,33887
32.00458,35704
32.01270,32128
32.02082,34138
32.02895,31998
32.03707,30553
32.04518,32369
32.05332,30178
32.06143,32182
32.06957,28934
32.07768,30132
32.08580,28626
32.09393,29902
32.10205,29892
32.11018,30063
32.11830,30362
32.12642,26893
32.13455,29657
32.14267,27193
32.15080,29069
32.15892,28807
32.16703,27853
32.17517,25990
32.18328,26829
32.19140,28182
32.19953,27172
32.20765,27434
32.21578,26484
32.22390,27041
32.23202,28952
32.24015,27350
32.24827,27965
32.25640,26857
32.26452,27677
32.27263,30763
32.28077,27752
32.28888,27531
32.29700,26338
32.30513,26428
32.31325,28810
32.32138,26820
32.32950,27597
32.33762,28815
32.34575,31141
32.35387,29388
32.36200,30951
32.37012,29939
32.37823,28393
32.38637,26905
32.39448,27859
32.40262,27467
32.41073,28582
32.41885,24952
32.42698,24762
32.43510,26043
32.44322,26144
32.45135,27687
32.45947,31276
32.46760,24092
32.47572,26929
32.48383,27741
32.49197,30162
32.50008,28487
32.50822,28880
32.51633,26926
32.52445,27242
32.53258,27396
32.54070,31591
32.54882,27247
32.55695,31761
32.56507,30712
32.57320,31581
32.58132,38521
32.58943,43919
32.59757,42363
32.60568,38650
32.61382,32462
32.62193,32311
32.63005,30754
32.63818,28635
32.64630,27012
32.65443,28819
32.66255,26520
32.67067,28503
32.67880,26020
32.68692,29551
32.69503,29361
32.70317,32650
32.71128,28154
32.71942,28607
32.72753,29730
32.73565,31711
32.74378,28340
32.75190,29026
32.76003,25953
32.76815,32490
32.77627,25270
32.78440,24954
32.79252,28799
32.80065,26578
32.80877,29333
32.81688,29240
32.82502,28512
32.83313,29841
32.84125,27910
32.84938,26619
32.85750,25577
32.86563,29358
32.87375,29446
32.88187,28825
32.89000,29922
32.89812,27924
32.90625,26542
32.91437,29495
32.92248,25702
32.93062,27544
32.93873,28433
32.94687,29767
32.95498,27797
32.96310,27523
32.97123,27732
32.97935,28819
32.98747,28180
32.99560,27535
33.00372,29647
33.01185,29493
33.01997,26870
33.02808,26270
33.03622,29418
33.04433,28460
33.05247,25090
33.06058,26922
33.06870,29854
33.07683,27742
33.08495,27860
33.09307,32414
33.10120,32197
33.10932,34269
33.11745,32450
33.12557,31697
33.13368,31627
33.14182,30828
33.14993,30661
33.15807,29783
33.16618,29125
33.17430,26825
33.18243,26718
33.19055,29800
33.19868,31077
33.20680,28496
33.21492,27777
33.22305,29802
33.23117,27944
33.23928,29020
33.24742,28150
33.25553,32170
33.26367,27850
33.27178,25352
33.27990,28945
33.28803,28433
33.29615,28200
33.30428,27998
33.31240,27228
33.32052,25735
33.32865,27478
33.33677,30012
33.34488,30270
33.35302,28240
33.36113,31361
33.36927,31235
33.37738,27936
33.38550,29275
33.39363,27743
33.40175,28256
33.40988,27414
33.41800,30861
33.42612,27823
33.43425,29090
33.44237,27860
33.45050,28842
33.45862,26357
33.46673,29982
33.47487,26565
33.48298,28300
33.49110,29595
33.49923,26478
33.50735,27169
33.51548,28024
33.52360,24548
33.53172,30933
33.53985,26925
33.54797,31781
33.55610,28661
33.56422,28042
33.57233,28522
33.58047,30918
33.58858,27314
33.59672,30537
33.60483,30301
33.61295,29178
33.62108,30459
33.62920,31562
33.63732,30084
33.64545,29306
33.65357,29707
33.66170,30233
33.66982,29327
33.67793,30496
33.68607,31053
33.69418,28572
33.70232,29524
33.71043,33072
33.71855,29722
33.72668,30600
33.73480,32600
33.74292,34647
33.75105,32804
33.75917,31992
33.76730,28915
33.77542,30578
33.78353,29986
33.79167,31888
33.79978,32143
33.80792,35457
33.81603,36927
33.82415,32131
33.83228,33222
33.84040,34981
33.84853,32877
33.85665,33751
33.86477,31868
33.87290,31285
33.88102,34447
33.88913,32112
33.89727,32881
33.90538,31471
33.91352,30704
33.92163,30812
33.92975,32376
33.93788,31445
33.94600,31609
33.95413,31254
33.96225,35193
33.97037,31093
33.97850,28939
33.98662,32827
33.99475,31119
34.00287,35044
34.01098,31936
34.01912,32694
34.02723,31619
34.03535,31417
34.04348,31999
34.05160,35645
34.05973,34882
34.06785,32776
34.07597,31532
34.08410,30047
34.09222,28036
34.10035,31196
34.10847,28094
34.11658,29530
34.12472,30404
34.13283,28834
34.14095,29088
34.14908,31400
34.15720,30926
34.16533,29763
34.17345,30754
34.18157,32457
34.18970,29190
34.19782,31477
34.20595,29610
34.21407,30227
34.22218,32095
34.23032,32321
34.23843,31304
34.24657,29809
34.25468,31330
34.26280,29365
34.27093,30666
34.27905,26574
34.28717,30964
34.29530,30486
34.30342,29639
34.31155,32146
34.31967,32220
34.32778,30494
34.33592,30092
34.34403,29064
34.35217,27576
34.36028,30358
34.36840,31020
34.37653,27985
34.38465,32133
34.39277,32032
34.40090,34101
34.40902,32594
34.41715,28708
34.42527,30877
34.43338,33235
34.44152,40460
34.44963,42861
34.45777,44984
34.46588,52370
34.47400,58151
34.48213,56059
34.49025,54915
34.49838,56526
34.50650,53173
34.51462,50792
34.52275,45194
34.53087,43491
34.53898,44229
34.54712,44371
34.55523,42447
34.56337,42587
34.57148,43059
34.57960,41098
34.58773,41677
34.59585,43325
34.60398,42240
34.61210,39224
34.62022,39991
34.62835,42333
34.63647,39852
34.64460,39875
34.65272,38098
34.66083,36038
34.66897,37096
34.67708,35287
34.68520,35949
34.69333,35463
34.70145,33483
34.70958,34533
34.71770,36276
34.72582,33287
34.73395,32639
34.74207,32593
34.75020,34990
34.75832,36973
34.76643,33641
34.77457,33456
34.78268,30616
34.79080,32018
34.79893,34486
34.80705,33744
34.81518,34463
34.82330,35817
34.83142,31881
34.83955,33702
34.84767,32163
34.85580,33588
34.86392,33800
34.87203,32902
34.88017,36540
34.88828,32309
34.89642,34255
34.90453,35867
34.91265,38161
34.92078,35829
34.92890,34254
34.93702,34882
34.94515,30915
34.95327,36474
34.96140,34611
34.96952,34933
34.97763,36023
34.98577,36866
34.99388,32613
35.00202,33948
35.01013,35382
35.01825,31463
35.02638,33888
35.03450,31289
35.04263,35969
35.05075,33339
35.05887,33920
35.06700,35651
35.07512,37676
35.08323,34747
35.09137,29176
35.09948,33684
35.10762,35190
35.11573,34317
35.12385,33560
35.13198,34741
35.14010,34244
35.14823,36570
35.15635,35497
35.16447,35047
35.17260,35126
35.18072,33602
35.18883,33731
35.19697,35496
35.20508,37106
35.21322,35084
35.22133,36134
35.22945,34907
35.23758,32465
35.24570,32668
35.25383,32507
35.26195,35794
35.27007,39710
35.27820,35335
35.28632,35622
35.29445,34480
35.30257,33651
35.31068,34202
35.31882,36658
35.32693,36506
35.33505,33302
35.34318,33894
35.35130,33254
35.35943,35625
35.36755,31722
35.37567,34365
35.38380,32432
35.39192,34331
35.40005,33566
35.40817,34209
35.41628,33713
35.42442,34110
35.43253,36206
35.44065,36650
35.44878,36918
35.45690,38492
35.46503,37080
35.47315,37128
35.48127,32093
35.48940,38704
35.49752,36960
35.50565,38901
35.51377,37590
35.52188,38605
35.53002,36148
35.53813,37804
35.54627,36564
35.55438,39571
35.56250,37624
35.57063,35389
35.57875,35973
35.58687,34876
35.59500,40423
35.60312,38665
35.61125,38466
35.61937,36941
35.62748,40209
35.63562,36966
35.64373,39624
35.65187,36284
35.65998,35974
35.66810,42120
35.67623,36464
35.68435,36919
35.69248,37821
35.70060,36378
35.70872,38011
35.71685,36311
35.72497,37592
35.73308,40311
35.74122,35975
35.74933,39654
35.75747,38544
35.76558,40154
35.77370,37519
35.78183,36309
35.78995,37035
35.79808,35088
35.80620,38756
35.81432,37707
35.82245,34644
35.83057,34540
35.83868,41626
35.84682,36118
35.85493,40338
35.86307,39321
35.87118,38288
35.87930,39308
35.88743,39104
35.89555,36516
35.90368,38421
35.91180,39961
35.91992,34508
35.92805,38060
35.93617,38120
35.94430,35629
35.95242,39655
35.96053,38172
35.96867,38274
35.97678,39635
35.98490,40061
35.99303,38099
36.00115,38617
36.00928,40865
36.01740,38415
36.02552,40690
36.03365,43625
36.04177,47398
36.04990,44877
36.05802,42147
36.06613,40546
36.07427,42348
36.08238,39031
36.09052,40889
36.09863,38759
36.10675,37984
36.11488,39304
36.12300,44102
36.13112,39615
36.13925,39255
36.14737,37968
36.15550,43757
36.16362,42285
36.17173,37036
36.17987,41702
36.18798,37848
36.19612,40496
36.20423,41327
36.21235,45571
36.22048,51305
36.22860,53532
36.23672,55558
36.24485,53854
36.25297,47387
36.26110,46281
36.26922,42541
36.27733,41215
36.28547,42786
36.29358,43343
36.30172,42968
36.30983,45841
36.31795,41195
36.32608,43531
36.33420,44216
36.34233,43627
36.35045,43684
36.35857,43677
36.36670,42947
36.37482,42441
36.38293,46417
36.39107,44398
36.39918,44842
36.40732,46290
36.41543,47157
36.42355,45991
36.43168,43116
36.43980,42623
36.44793,44242
36.45605,45540
36.46417,42342
36.47230,44580
36.48042,46726
36.48855,43373
36.49667,45926
36.50478,44786
36.51292,42599
36.52103,45183
36.52915,44247
36.53728,47178
36.54540,48423
36.55353,45157
36.56165,44994
36.56977,49509
36.57790,46130
36.58602,40109
36.59415,48604
36.60227,48511
36.61038,50106
36.61852,48161
36.62663,47813
36.63475,50871
36.64288,47427
36.65100,47811
36.65913,51391
36.66725,48957
36.67537,49238
36.68350,48291
36.69162,48175
36.69975,51018
36.70787,52878
36.71598,47692
36.72412,51395
36.73223,47998
36.74037,51526
36.74848,49844
36.75660,50637
36.76473,51678
36.77285,51943
36.78097,56115
36.78910,49772
36.79722,55489
36.80535,54229
36.81347,55218
36.82158,55689
36.82972,52141
36.83783,54601
36.84597,56788
36.85408,51968
36.86220,53149
36.87033,49264
36.87845,54329
36.88657,52089
36.89470,52474
36.90282,52944
36.91095,51957
36.91907,55365
36.92718,52107
36.93532,50807
36.94343,54895
36.95157,57935
36.95968,53603
36.96780,56693
36.97593,52185
36.98405,55785
36.99218,54229
37.00030,57351
37.00842,56617
37.01655,58843
37.02467,55411
37.03278,54221
37.04092,55932
37.04903,53455
37.05717,54214
37.06528,54748
37.07340,56551
37.08153,52347
37.08965,58556
37.09778,53734
37.10590,57486
37.11402,55045
37.12215,55075
37.13027,55252
37.13840,52108
37.14652,54966
37.15463,55169
37.16277,55313
37.17088,60182
37.17900,58359
37.18713,54129
37.19525,58581
37.20338,55856
37.21150,60899
37.21962,59745
37.22775,61091
37.23587,59141
37.24400,67072
37.25212,70496
37.26023,77786
37.26837,79217
37.27648,89889
37.28460,82169
37.29273,80342
37.30085,80959
37.30898,77453
37.31710,73067
37.32522,68480
37.33335,65197
37.34147,60104
37.34960,63514
37.35772,64314
37.36583,60884
37.37397,63257
37.38208,65299
37.39022,67593
37.39833,59144
37.40645,61447
37.41458,62063
37.42270,61776
37.43082,65098
37.43895,64570
37.44707,62668
37.45520,59298
37.46332,60502
37.47143,62603
37.47957,60583
37.48768,61550
