C:\MassHunter\GCMS\1\data\JTB-E18\JTB-E18-025-05.D Thu Sep 12 10:24:52 2019
Start of data points
2.09538	112300
2.10352	110341
2.11163	114734
2.11975	117520
2.12788	111144
2.13600	114736
2.14413	110187
2.15225	111535
2.16037	104491
2.16850	105636
2.17662	105724
2.18473	97179
2.19287	97296
2.20098	97798
2.20912	92605
2.21723	89967
2.22535	87943
2.23348	82504
2.24160	95980
2.24973	88967
2.25785	92846
2.26597	110478
2.27410	537428
2.28222	1559451
2.29035	1339662
2.29847	608824
2.30658	378192
2.31472	299237
2.32283	275485
2.33095	245179
2.33908	220449
2.34720	198984
2.35533	174380
2.36345	168514
2.37157	158979
2.37970	180918
2.38782	291440
2.39595	251212
2.40407	176732
2.41218	168667
2.42032	163228
2.42843	168291
2.43657	157254
2.44468	164210
2.45280	171880
2.46093	156757
2.46905	143946
2.47717	137580
2.48530	131676
2.49342	145097
2.50155	151677
2.50967	147087
2.51778	135383
2.52592	134577
2.53403	128817
2.54217	129005
2.55028	136927
2.55840	134033
2.56653	127128
2.57465	122880
2.58277	125696
2.59090	124621
2.59902	123509
2.60715	123941
2.61527	140976
2.62338	153754
2.63152	146632
2.63963	128257
2.64777	124572
2.65588	117254
2.66400	128898
2.67213	135979
2.68025	164678
2.68838	171907
2.69650	142390
2.70462	120905
2.71275	123666
2.72087	112251
2.72898	112477
2.73712	124614
2.74523	117534
2.75337	117664
2.76148	112349
2.76960	110237
2.77773	120231
2.78585	115230
2.79398	108102
2.80210	115923
2.81022	122437
2.81835	134779
2.82647	270161
2.83460	604857
2.84272	609213
2.85083	356543
2.85897	232478
2.86708	222974
2.87520	196408
2.88333	165599
2.89145	150044
2.89958	136246
2.90770	134038
2.91582	126976
2.92395	122300
2.93207	122637
2.94020	118243
2.94832	115221
2.95643	110948
2.96457	113209
2.97268	112813
2.98080	110376
2.98893	112620
2.99705	120129
3.00518	146397
3.01330	167874
3.02142	183409
3.02955	321944
3.03767	579523
3.04580	826111
3.05392	2240575
3.06203	5634917
3.07017	6580176
3.07828	3984963
3.08642	1901058
3.09453	1114997
3.10265	763761
3.11078	612076
3.11890	510558
3.12702	427876
3.13515	365994
3.14327	324615
3.15140	301153
3.15952	275823
3.16763	260579
3.17577	257411
3.18388	241808
3.19202	220843
3.20013	213373
3.20825	201200
3.21638	193183
3.22450	196358
3.23262	199086
3.24075	198145
3.24887	179363
3.25700	168441
3.26512	162711
3.27323	170431
3.28137	234028
3.28948	608588
3.29762	1658475
3.30573	3030173
3.31385	3516798
3.32198	2755435
3.33010	1767275
3.33823	1172056
3.34635	874806
3.35447	703363
3.36260	600421
3.37072	620268
3.37883	786462
3.38697	893855
3.39508	769508
3.40322	889361
3.41133	1861960
3.41945	3048661
3.42758	2831660
3.43570	1704570
3.44383	953192
3.45195	641624
3.46007	528233
3.46820	475062
3.47632	424658
3.48445	393869
3.49257	352311
3.50068	332543
3.50882	320019
3.51693	303258
3.52505	288643
3.53318	273884
3.54130	273821
3.54943	263715
3.55755	264225
3.56567	250308
3.57380	242081
3.58192	245240
3.59005	234096
3.59817	230191
3.60628	226440
3.61442	289003
3.62253	569268
3.63065	1230902
3.63878	1838435
3.64690	1674016
3.65503	1061424
3.66315	620123
3.67127	438575
3.67940	362535
3.68752	319655
3.69565	293953
3.70377	270140
3.71188	261807
3.72002	251549
3.72813	249976
3.73627	250647
3.74438	245758
3.75250	241587
3.76063	245162
3.76875	241398
3.77687	224270
3.78500	214588
3.79312	208096
3.80125	214003
3.80937	213311
3.81748	209817
3.82562	213607
3.83373	217811
3.84187	215578
3.84998	209567
3.85810	204834
3.86623	193452
3.87435	188640
3.88248	185878
3.89060	180172
3.89872	193526
3.90685	188968
3.91497	181097
3.92308	180816
3.93122	182750
3.93933	183471
3.94747	174721
3.95558	171989
3.96370	174900
3.97183	171665
3.97995	173346
3.98808	164209
3.99620	165713
4.00432	164940
4.01245	168588
4.02057	173402
4.02868	164684
4.03682	166849
4.04493	164532
4.05307	164074
4.06118	174978
4.06930	172411
4.07743	178274
4.08555	169642
4.09368	168178
4.10180	163870
4.10992	158953
4.11805	152341
4.12617	163903
4.13430	171951
4.14242	176228
4.15053	169937
4.15867	180760
4.16678	176104
4.17490	162672
4.18303	160624
4.19115	159458
4.19928	155832
4.20740	154661
4.21552	153276
4.22365	160616
4.23177	164198
4.23990	179848
4.24802	169695
4.25613	165845
4.26427	155251
4.27238	148034
4.28050	151689
4.28863	148271
4.29675	148191
4.30488	140550
4.31300	149539
4.32112	147927
4.32925	157517
4.33737	153172
4.34550	146537
4.35362	148233
4.36173	149182
4.36987	142640
4.37798	143448
4.38612	144165
4.39423	136667
4.40235	143359
4.41048	141436
4.41860	145059
4.42672	143977
4.43485	147291
4.44297	152173
4.45110	148385
4.45922	167488
4.46733	164848
4.47547	160115
4.48358	151009
4.49172	146097
4.49983	139597
4.50795	144506
4.51608	145227
4.52420	143261
4.53233	140734
4.54045	137152
4.54857	136620
4.55670	139507
4.56482	135127
4.57293	141687
4.58107	137314
4.58918	134601
4.59732	137333
4.60543	133596
4.61355	135971
4.62168	138842
4.62980	136658
4.63793	132320
4.64605	130912
4.65417	136695
4.66230	131184
4.67042	135746
4.67855	133520
4.68667	136308
4.69478	133638
4.70292	130120
4.71103	129802
4.71915	131075
4.72728	127688
4.73540	131021
4.74353	130488
4.75165	133539
4.75977	126888
4.76790	132033
4.77602	128028
4.78415	131975
4.79227	128757
4.80038	128125
4.80852	130652
4.81663	131860
4.82475	132422
4.83288	134562
4.84100	131621
4.84913	139975
4.85725	141194
4.86537	144300
4.87350	141292
4.88162	145676
4.88975	138330
4.89787	139011
4.90598	142000
4.91412	146314
4.92223	183512
4.93037	317942
4.93848	600683
4.94660	975603
4.95473	1218164
4.96285	1173176
4.97097	929740
4.97910	677783
4.98722	516837
4.99535	397439
5.00347	345256
5.01158	299380
5.01972	270498
5.02783	253591
5.03597	236805
5.04408	227703
5.05220	227776
5.06033	220949
5.06845	212885
5.07657	200780
5.08470	205840
5.09282	213561
5.10095	234218
5.10907	267643
5.11718	306210
5.12532	316264
5.13343	293694
5.14157	253875
5.14968	227872
5.15780	209704
5.16593	215938
5.17405	247725
5.18218	283951
5.19030	323127
5.19842	311571
5.20655	271630
5.21467	232850
5.22278	206291
5.23092	196601
5.23903	187883
5.24717	195132
5.25528	185794
5.26340	178820
5.27153	178177
5.27965	177552
5.28778	181513
5.29590	180924
5.30402	179375
5.31215	173644
5.32027	173122
5.32840	169781
5.33652	179475
5.34463	180507
5.35277	173233
5.36088	173203
5.36900	161574
5.37713	159919
5.38525	160804
5.39338	157612
5.40150	154046
5.40962	147767
5.41775	152977
5.42587	151830
5.43400	152452
5.44212	154568
5.45023	161621
5.45837	167227
5.46648	153418
5.47460	150585
5.48273	150644
5.49085	153295
5.49898	155463
5.50710	147796
5.51522	153843
5.52335	151677
5.53147	154833
5.53960	149785
5.54772	149150
5.55583	145003
5.56397	142719
5.57208	146455
5.58022	152765
5.58833	153226
5.59645	153799
5.60458	155615
5.61270	162413
5.62082	169067
5.62895	181325
5.63707	196995
5.64520	188347
5.65332	184622
5.66143	179784
5.66957	167379
5.67768	171871
5.68582	175140
5.69393	176169
5.70205	172328
5.71018	179880
5.71830	192669
5.72643	199176
5.73455	209366
5.74267	209462
5.75080	199301
5.75892	199863
5.76703	218626
5.77517	220370
5.78328	210293
5.79142	201494
5.79953	213824
5.80765	283167
5.81578	468591
5.82390	730724
5.83203	987832
5.84015	1039771
5.84827	881980
5.85640	642155
5.86452	438747
5.87263	324162
5.88077	246562
5.88888	226006
5.89702	222933
5.90513	228434
5.91325	283715
5.92138	368971
5.92950	464004
5.93763	511955
5.94575	451855
5.95387	355389
5.96200	268342
5.97012	209454
5.97825	190384
5.98637	174413
5.99448	165161
6.00262	153840
6.01073	138978
6.01885	141240
6.02698	135663
6.03510	132173
6.04323	125702
6.05135	126482
6.05947	126625
6.06760	119604
6.07572	120215
6.08385	118676
6.09197	124606
6.10008	109806
6.10822	116603
6.11633	115126
6.12445	116622
6.13258	112354
6.14070	112656
6.14883	114672
6.15695	121116
6.16507	118343
6.17320	131142
6.18132	132569
6.18945	153288
6.19757	160207
6.20568	166512
6.21382	174848
6.22193	160435
6.23007	140119
6.23818	135472
6.24630	139640
6.25443	136413
6.26255	144362
6.27067	139886
6.27880	145129
6.28692	148720
6.29505	153218
6.30317	150478
6.31128	148354
6.31942	154051
6.32753	154042
6.33567	158153
6.34378	161585
6.35190	171095
6.36003	171203
6.36815	183657
6.37628	182702
6.38440	179845
6.39252	180489
6.40065	175734
6.40877	175741
6.41688	184759
6.42502	187627
6.43313	179736
6.44127	188313
6.44938	191956
6.45750	199874
6.46563	199660
6.47375	204842
6.48188	205375
6.49000	201811
6.49812	208255
6.50625	204828
6.51437	165167
6.52248	142901
6.53062	134947
6.53873	132040
6.54687	132966
6.55498	130786
6.56310	129875
6.57123	122431
6.57935	126078
6.58748	116503
6.59560	120724
6.60372	118049
6.61185	118429
6.61997	119608
6.62810	117933
6.63622	115218
6.64433	115107
6.65247	107808
6.66058	105474
6.66870	106314
6.67683	105981
6.68495	107315
6.69308	106908
6.70120	104093
6.70932	109401
6.71745	112624
6.72557	127281
6.73370	150660
6.74182	170878
6.74993	191443
6.75807	185800
6.76618	174469
6.77432	151680
6.78243	134547
6.79055	116831
6.79868	109861
6.80680	103673
6.81492	99449
6.82305	92188
6.83117	100498
6.83930	101992
6.84742	104862
6.85553	124447
6.86367	176589
6.87178	294641
6.87992	451186
6.88803	608433
6.89615	659203
6.90428	621701
6.91240	494620
6.92052	344494
6.92865	229308
6.93677	159632
6.94490	120898
6.95302	101225
6.96113	92607
6.96927	83161
6.97738	81990
6.98552	80073
6.99363	77007
7.00175	75887
7.00988	83032
7.01800	95096
7.02613	118268
7.03425	170508
7.04237	237568
7.05050	282798
7.05862	291258
7.06673	263534
7.07487	217302
7.08298	170172
7.09112	145803
7.09923	116277
7.10735	105399
7.11548	97520
7.12360	95180
7.13173	93608
7.13985	95569
7.14797	93553
7.15610	88538
7.16422	86794
7.17235	83778
7.18047	84368
7.18858	79828
7.19672	89405
7.20483	87637
7.21295	84071
7.22108	89244
7.22920	92912
7.23733	97644
7.24545	96265
7.25357	92639
7.26170	98709
7.26982	101872
7.27795	113090
7.28607	125149
7.29418	130028
7.30232	137653
7.31043	125470
7.31855	106731
7.32668	102258
7.33480	97749
7.34293	101856
7.35105	106632
7.35917	109023
7.36730	101693
7.37542	99523
7.38355	102401
7.39167	116406
7.39978	148439
7.40792	196182
7.41603	224679
7.42417	231516
7.43228	206291
7.44040	176011
7.44853	136919
7.45665	120946
7.46477	110617
7.47290	96327
7.48102	91854
7.48915	93121
7.49727	105280
7.50538	124427
7.51352	145838
7.52163	170193
7.52977	173345
7.53788	153161
7.54600	136331
7.55413	109419
7.56225	95771
7.57037	90244
7.57850	82624
7.58662	74865
7.59475	74544
7.60287	78849
7.61098	76824
7.61912	73966
7.62723	74029
7.63537	76938
7.64348	74642
7.65160	79445
7.65973	78048
7.66785	77065
7.67598	73810
7.68410	74230
7.69222	71177
7.70035	71187
7.70847	73548
7.71658	69049
7.72472	68933
7.73283	66029
7.74097	62984
7.74908	61978
7.75720	63049
7.76533	64455
7.77345	65707
7.78158	65050
7.78970	64333
7.79782	64519
7.80595	65620
7.81407	64409
7.82220	63785
7.83032	64973
7.83843	64116
7.84657	60838
7.85468	60377
7.86280	59946
7.87093	60657
7.87905	64244
7.88718	66315
7.89530	64741
7.90342	62259
7.91155	63457
7.91967	66308
7.92780	60583
7.93592	60333
7.94403	61371
7.95217	59270
7.96028	59464
7.96840	62514
7.97653	68139
7.98465	67028
7.99278	64280
8.00090	63858
8.00902	67034
8.01715	61353
8.02527	62227
8.03340	58533
8.04152	61620
8.04963	63147
8.05777	59995
8.06588	57449
8.07402	58994
8.08213	54719
8.09025	57352
8.09838	59085
8.10650	52793
8.11462	56551
8.12275	55540
8.13087	57178
8.13900	56206
8.14712	57912
8.15523	56371
8.16337	64966
8.17148	58044
8.17962	63328
8.18773	61986
8.19585	58937
8.20398	57605
8.21210	56305
8.22023	54196
8.22835	62532
8.23647	57787
8.24460	54331
8.25272	55624
8.26083	53217
8.26897	54162
8.27708	54468
8.28522	57630
8.29333	54030
8.30145	52231
8.30958	54657
8.31770	57249
8.32583	58056
8.33395	61224
8.34207	68702
8.35020	72221
8.35832	76219
8.36643	67565
8.37457	62601
8.38268	58936
8.39082	54172
8.39893	59387
8.40705	54164
8.41518	55803
8.42330	56025
8.43143	52641
8.43955	53097
8.44767	53007
8.45580	53287
8.46392	52717
8.47205	54154
8.48017	49737
8.48828	55664
8.49642	58567
8.50453	67447
8.51265	78878
8.52078	77537
8.52890	77728
8.53703	67477
8.54515	61924
8.55327	60972
8.56140	64293
8.56952	62698
8.57765	58238
8.58577	58077
8.59388	55655
8.60202	55659
8.61013	55365
8.61825	52991
8.62638	54345
8.63450	53877
8.64263	52496
8.65075	54611
8.65887	54578
8.66700	52030
8.67512	53264
8.68325	53171
8.69137	57675
8.69948	51409
8.70762	60102
8.71573	64147
8.72387	62914
8.73198	62109
8.74010	89452
8.74823	146734
8.75635	266307
8.76447	398903
8.77260	498807
8.78072	481510
8.78885	388060
8.79697	284942
8.80508	213399
8.81322	171468
8.82133	149465
8.82947	133009
8.83758	120042
8.84570	113760
8.85383	110794
8.86195	103192
8.87008	101195
8.87820	98833
8.88632	96903
8.89445	92374
8.90257	89108
8.91068	85035
8.91882	82826
8.92693	79484
8.93507	86470
8.94318	87721
8.95130	80603
8.95943	82076
8.96755	82994
8.97568	81242
8.98380	78251
8.99192	77200
9.00005	80360
9.00817	77819
9.01630	73355
9.02442	76349
9.03253	80375
9.04067	77286
9.04878	78454
9.05690	74155
9.06503	76842
9.07315	75538
9.08128	68677
9.08940	73027
9.09752	72071
9.10565	68090
9.11377	73306
9.12190	78455
9.13002	78775
9.13813	70034
9.14627	68971
9.15438	71475
9.16250	68519
9.17063	65329
9.17875	67816
9.18688	71973
9.19500	65504
9.20312	70930
9.21125	65727
9.21937	63333
9.22750	64210
9.23562	66079
9.24373	61759
9.25187	67865
9.25998	71933
9.26812	71560
9.27623	75880
9.28435	86497
9.29248	87748
9.30060	90119
9.30872	88733
9.31685	82410
9.32497	81121
9.33310	72078
9.34122	71114
9.34933	74926
9.35747	76382
9.36558	73017
9.37372	72047
9.38183	69065
9.38995	61823
9.39808	66784
9.40620	62828
9.41432	65246
9.42245	62037
9.43057	66244
9.43870	63527
9.44682	61759
9.45493	58889
9.46307	64395
9.47118	62474
9.47932	61475
9.48743	60608
9.49555	59764
9.50368	58068
9.51180	62566
9.51993	60511
9.52805	59425
9.53617	58739
9.54430	56395
9.55242	58760
9.56053	55200
9.56867	53897
9.57678	48787
9.58492	57732
9.59303	51638
9.60115	57252
9.60928	59519
9.61740	54857
9.62553	51545
9.63365	56742
9.64177	52747
9.64990	57816
9.65802	61400
9.66615	60561
9.67427	58298
9.68238	53487
9.69052	49518
9.69863	50925
9.70675	43749
9.71488	40667
9.72300	41376
9.73113	40613
9.73925	41253
9.74737	39722
9.75550	41723
9.76362	42392
9.77175	39639
9.77987	42692
9.78798	37248
9.79612	39584
9.80423	36980
9.81235	40561
9.82048	45081
9.82860	39570
9.83673	38824
9.84485	39414
9.85297	42380
9.86110	43432
9.86922	42661
9.87735	43859
9.88547	42428
9.89358	40871
9.90172	37856
9.90983	41421
9.91797	40757
9.92608	41033
9.93420	38044
9.94233	39313
9.95045	44317
9.95857	44899
9.96670	56247
9.97482	70778
9.98295	75245
9.99107	82221
9.99918	78325
10.00732	69606
10.01543	62924
10.02357	58986
10.03168	56278
10.03980	53280
10.04793	49809
10.05605	51460
10.06418	47199
10.07230	45028
10.08042	45994
10.08855	42796
10.09667	42813
10.10478	42653
10.11292	40605
10.12103	43406
10.12917	43566
10.13728	40953
10.14540	43998
10.15353	43355
10.16165	39764
10.16978	41897
10.17790	41286
10.18602	43627
10.19415	38002
10.20227	38904
10.21038	42021
10.21852	38852
10.22663	42622
10.23477	46746
10.24288	44265
10.25100	46199
10.25913	44995
10.26725	42062
10.27538	50595
10.28350	47712
10.29162	44914
10.29975	45885
10.30787	51473
10.31600	46368
10.32412	48525
10.33223	39713
10.34037	44971
10.34848	39885
10.35660	42096
10.36473	42946
10.37285	43853
10.38098	46680
10.38910	46288
10.39722	53725
10.40535	48217
10.41347	52311
10.42160	50393
10.42972	47011
10.43783	42897
10.44597	42261
10.45408	39314
10.46220	40553
10.47033	39230
10.47845	39300
10.48658	37717
10.49470	37222
10.50282	37253
10.51095	41280
10.51907	39245
10.52720	41946
10.53532	42494
10.54343	42612
10.55157	45514
10.55968	45233
10.56782	46424
10.57593	42242
10.58405	41361
10.59218	44001
10.60030	40125
10.60842	42015
10.61655	37963
10.62467	39718
10.63280	38885
10.64092	37927
10.64903	37298
10.65717	40336
10.66528	39416
10.67342	38645
10.68153	40391
10.68965	42068
10.69778	43104
10.70590	47327
10.71403	44118
10.72215	40799
10.73027	42612
10.73840	42499
10.74652	47297
10.75463	43885
10.76277	42521
10.77088	44415
10.77902	43211
10.78713	44183
10.79525	42404
10.80338	40077
10.81150	40753
10.81963	39444
10.82775	36873
10.83587	41352
10.84400	38349
10.85212	40267
10.86023	38426
10.86837	39524
10.87648	38345
10.88462	39118
10.89273	38435
10.90085	38097
10.90898	37891
10.91710	39912
10.92523	39163
10.93335	37496
10.94147	37782
10.94960	37627
10.95772	44650
10.96585	40082
10.97397	39148
10.98208	43977
10.99022	46134
10.99833	44483
11.00645	45688
11.01458	46500
11.02270	40024
11.03083	38325
11.03895	39456
11.04707	36036
11.05520	34378
11.06332	34670
11.07145	34519
11.07957	35097
11.08768	33063
11.09582	33172
11.10393	37721
11.11207	33912
11.12018	34491
11.12830	40427
11.13643	37092
11.14455	46055
11.15267	41027
11.16080	39135
11.16892	41339
11.17705	43172
11.18517	43184
11.19328	42732
11.20142	38226
11.20953	39792
11.21767	37564
11.22578	38880
11.23390	41725
11.24203	39676
11.25015	36985
11.25827	40834
11.26640	37651
11.27452	40580
11.28265	47140
11.29077	50632
11.29888	64236
11.30702	78677
11.31513	94280
11.32327	95687
11.33138	103376
11.33950	98339
11.34763	91575
11.35575	85441
11.36388	78404
11.37200	67533
11.38012	66250
11.38825	57170
11.39637	56663
11.40448	49795
11.41262	43897
11.42073	41407
11.42887	42502
11.43698	38962
11.44510	38718
11.45323	37947
11.46135	37790
11.46948	37720
11.47760	39772
11.48572	40069
11.49385	34978
11.50197	36968
11.51008	41697
11.51822	42127
11.52633	42969
11.53447	45981
11.54258	48138
11.55070	49365
11.55883	52797
11.56695	55688
11.57508	52993
11.58320	56426
11.59132	50434
11.59945	51153
11.60757	49279
11.61570	46817
11.62382	45305
11.63193	42688
11.64007	42851
11.64818	39515
11.65630	37705
11.66443	36471
11.67255	41382
11.68068	40587
11.68880	48980
11.69692	57897
11.70505	67324
11.71317	69390
11.72130	71716
11.72942	67807
11.73753	65695
11.74567	60760
11.75378	61432
11.76192	59601
11.77003	58874
11.77815	57079
11.78628	52827
11.79440	54135
11.80252	46387
11.81065	49645
11.81877	45422
11.82690	44516
11.83502	44413
11.84313	44914
11.85127	44974
11.85938	41848
11.86752	44682
11.87563	42597
11.88375	40945
11.89188	42974
11.90000	38047
11.90812	39659
11.91625	40178
11.92437	38959
11.93250	41066
11.94062	39841
11.94873	49828
11.95687	50312
11.96498	52472
11.97312	54452
11.98123	51713
11.98935	52183
11.99748	49924
12.00560	48611
12.01373	45372
12.02185	48142
12.02997	42945
12.03810	43257
12.04622	37970
12.05433	36697
12.06247	38834
12.07058	38737
12.07872	36858
12.08683	37619
12.09495	38628
12.10308	37341
12.11120	36004
12.11933	37706
12.12745	38544
12.13557	39096
12.14370	38592
12.15182	38004
12.15995	40229
12.16807	37399
12.17618	38192
12.18432	37297
12.19243	36054
12.20055	38142
12.20868	35035
12.21680	36781
12.22493	37345
12.23305	36621
12.24117	36658
12.24930	37342
12.25742	39032
12.26555	35876
12.27367	35684
12.28178	33999
12.28992	35112
12.29803	36365
12.30615	37841
12.31428	39786
12.32240	42240
12.33053	39351
12.33865	40594
12.34677	34730
12.35490	34862
12.36302	36728
12.37115	31949
12.37927	32640
12.38738	36153
12.39552	36216
12.40363	36148
12.41177	36075
12.41988	32307
12.42800	35201
12.43613	35759
12.44425	34906
12.45237	40938
12.46050	41074
12.46862	40094
12.47675	39150
12.48487	36863
12.49298	38831
12.50112	34050
12.50923	33556
12.51737	31848
12.52548	32848
12.53360	32761
12.54173	35346
12.54985	33452
12.55798	32404
12.56610	33844
12.57422	33434
12.58235	32969
12.59047	33361
12.59858	31370
12.60672	32084
12.61483	33320
12.62297	36733
12.63108	33168
12.63920	35211
12.64733	32701
12.65545	31889
12.66358	34347
12.67170	31129
12.67982	34805
12.68795	35166
12.69607	31874
12.70418	37033
12.71232	34339
12.72043	38130
12.72857	41154
12.73668	44929
12.74480	48457
12.75293	48068
12.76105	47533
12.76918	42487
12.77730	40110
12.78542	36391
12.79355	34998
12.80167	42388
12.80980	42247
12.81792	40034
12.82603	42209
12.83417	44406
12.84228	41001
12.85040	41431
12.85853	37539
12.86665	41417
12.87478	38236
12.88290	36838
12.89102	39815
12.89915	33580
12.90727	33388
12.91540	34701
12.92352	36307
12.93163	32327
12.93977	35823
12.94788	36855
12.95600	40083
12.96413	50971
12.97225	60055
12.98038	73422
12.98850	79850
12.99662	91742
13.00475	87814
13.01287	90197
13.02100	85836
13.02912	75856
13.03723	67946
13.04537	62251
13.05348	50904
13.06162	46750
13.06973	48379
13.07785	43315
13.08598	39201
13.09410	39668
13.10222	40950
13.11035	39862
13.11847	41389
13.12660	38561
13.13472	43378
13.14283	39248
13.15097	40907
13.15908	38526
13.16722	41095
13.17533	40270
13.18345	38005
13.19158	43119
13.19970	39703
13.20783	42108
13.21595	38298
13.22407	39196
13.23220	37870
13.24032	38503
13.24843	36808
13.25657	41955
13.26468	39918
13.27282	40812
13.28093	44559
13.28905	49120
13.29718	50395
13.30530	52541
13.31343	53606
13.32155	52803
13.32967	49926
13.33780	52363
13.34592	50889
13.35403	48920
13.36217	48641
13.37028	50076
13.37842	49934
13.38653	47267
13.39465	42865
13.40278	45061
13.41090	41263
13.41903	39800
13.42715	38782
13.43527	38671
13.44340	37971
13.45152	38941
13.45965	42421
13.46777	38261
13.47588	34616
13.48402	38393
13.49213	33562
13.50025	33513
13.50838	35902
13.51650	37403
13.52463	34659
13.53275	35887
13.54087	34622
13.54900	35388
13.55712	41085
13.56525	41844
13.57337	43570
13.58148	43596
13.58962	48435
13.59773	50592
13.60587	50137
13.61398	46731
13.62210	51262
13.63023	53275
13.63835	53959
13.64647	57809
13.65460	53534
13.66272	60164
13.67085	55257
13.67897	51067
13.68708	49860
13.69522	49526
13.70333	41335
13.71147	41552
13.71958	45379
13.72770	39796
13.73583	40202
13.74395	42047
13.75207	45336
13.76020	40814
13.76832	41384
13.77645	38381
13.78457	45250
13.79268	44064
13.80082	43753
13.80893	37822
13.81707	37241
13.82518	39338
13.83330	36124
13.84143	39892
13.84955	39268
13.85768	40095
13.86580	40529
13.87392	42029
13.88205	39688
13.89017	42840
13.89828	40903
13.90642	46051
13.91453	44261
13.92267	47960
13.93078	51644
13.93890	47352
13.94703	50248
13.95515	48393
13.96328	46229
13.97140	46124
13.97952	42779
13.98765	44524
13.99577	40023
14.00388	44230
14.01202	44378
14.02013	45367
14.02827	46154
14.03638	48168
14.04450	44162
14.05263	44698
14.06075	47382
14.06888	43276
14.07700	38665
14.08512	42123
14.09325	39196
14.10137	38448
14.10950	39568
14.11762	39131
14.12573	40840
14.13387	37695
14.14198	49618
14.15010	77596
14.15823	119941
14.16635	175477
14.17448	225720
14.18260	237947
14.19072	219854
14.19885	175265
14.20697	140964
14.21510	116261
14.22322	96944
14.23133	93921
14.23947	89239
14.24758	85431
14.25572	83600
14.26383	73630
14.27195	74373
14.28008	72122
14.28820	67904
14.29632	64785
14.30445	61734
14.31257	60012
14.32070	52230
14.32882	51871
14.33693	48000
14.34507	41493
14.35318	41280
14.36132	38058
14.36943	41314
14.37755	39054
14.38568	37872
14.39380	39066
14.40192	36359
14.41005	34882
14.41817	35703
14.42630	39903
14.43442	38396
14.44253	36363
14.45067	41781
14.45878	35816
14.46692	37491
14.47503	39282
14.48315	32924
14.49128	34814
14.49940	37400
14.50753	37452
14.51565	36027
14.52377	35741
14.53190	38162
14.54002	31990
14.54813	34897
14.55627	33057
14.56438	35257
14.57252	35066
14.58063	37225
14.58875	36738
14.59688	35308
14.60500	32798
14.61313	32401
14.62125	34516
14.62937	35513
14.63750	35426
14.64562	32503
14.65375	32072
14.66187	32054
14.66998	35699
14.67812	34884
14.68623	35499
14.69435	33435
14.70248	38474
14.71060	32755
14.71873	34574
14.72685	29182
14.73497	33024
14.74310	35801
14.75122	34676
14.75935	33472
14.76747	34076
14.77558	36735
14.78372	32911
14.79183	31858
14.79995	32723
14.80808	31970
14.81620	31308
14.82433	37238
14.83245	37498
14.84057	33011
14.84870	33875
14.85682	37841
14.86495	35989
14.87307	38130
14.88118	39373
14.88932	37301
14.89743	37462
14.90557	38471
14.91368	38345
14.92180	36265
14.92993	36160
14.93805	36449
14.94617	38120
14.95430	36677
14.96242	35462
14.97055	35314
14.97867	37149
14.98678	32634
14.99492	38140
15.00303	34126
15.01117	35282
15.01928	35537
15.02740	34918
15.03553	33546
15.04365	41125
15.05178	37726
15.05990	36725
15.06802	34168
15.07615	33982
15.08427	34690
15.09238	37195
15.10052	34636
15.10863	34884
15.11677	34468
15.12488	35630
15.13300	36377
15.14113	33824
15.14925	33291
15.15738	31223
15.16550	35614
15.17362	34279
15.18175	35286
15.18987	34618
15.19798	31625
15.20612	31687
15.21423	35117
15.22237	33696
15.23048	32408
15.23860	34383
15.24673	33929
15.25485	36514
15.26298	33838
15.27110	29082
15.27922	31133
15.28735	33060
15.29547	33964
15.30360	31120
15.31172	34713
15.31983	29751
15.32797	31922
15.33608	30341
15.34420	31973
15.35233	31153
15.36045	32846
15.36858	30784
15.37670	31414
15.38482	31041
15.39295	31151
15.40107	34056
15.40920	32264
15.41732	30796
15.42543	30152
15.43357	28182
15.44168	31887
15.44982	30920
15.45793	30642
15.46605	31694
15.47418	30860
15.48230	31334
15.49042	33060
15.49855	34102
15.50667	31761
15.51480	32536
15.52292	29759
15.53103	31295
15.53917	34534
15.54728	31182
15.55542	30517
15.56353	32360
15.57165	29007
15.57978	31908
15.58790	36087
15.59602	30310
15.60415	28845
15.61227	28293
15.62040	33279
15.62852	33691
15.63663	34846
15.64477	30732
15.65288	30502
15.66102	30205
15.66913	28775
15.67725	34179
15.68538	33569
15.69350	32510
15.70163	32295
15.70975	31161
15.71787	32624
15.72600	33544
15.73412	30972
15.74223	38690
15.75037	37593
15.75848	38589
15.76662	39847
15.77473	45197
15.78285	48101
15.79098	44034
15.79910	42442
15.80723	38946
15.81535	35316
15.82347	36293
15.83160	30438
15.83972	30501
15.84783	32355
15.85597	34285
15.86408	29683
15.87222	31779
15.88033	32811
15.88845	31549
15.89658	30994
15.90470	35181
15.91283	33908
15.92095	32946
15.92907	32825
15.93720	33751
15.94532	37062
15.95345	33220
15.96157	34593
15.96968	33634
15.97782	33946
15.98593	32209
15.99405	34757
16.00218	37102
16.01030	41177
16.01843	50287
16.02655	57779
16.03467	60306
16.04280	56956
16.05092	51602
16.05905	51996
16.06717	44162
16.07528	42764
16.08342	41184
16.09153	37456
16.09967	33242
16.10778	33152
16.11590	35789
16.12403	31215
16.13215	33302
16.14027	32241
16.14840	35027
16.15652	32510
16.16465	34120
16.17277	33782
16.18088	32191
16.18902	32395
16.19713	37262
16.20527	31392
16.21338	28441
16.22150	34601
16.22963	33159
16.23775	36868
16.24587	34703
16.25400	35161
16.26212	34948
16.27025	34649
16.27837	32652
16.28648	36339
16.29462	33794
16.30273	32997
16.31087	33943
16.31898	32499
16.32710	34939
16.33523	35079
16.34335	32794
16.35148	32994
16.35960	33547
16.36772	35866
16.37585	32036
16.38397	36148
16.39208	32222
16.40022	32250
16.40833	33873
16.41647	29457
16.42458	31347
16.43270	33600
16.44083	32163
16.44895	30929
16.45708	31367
16.46520	33162
16.47332	33686
16.48145	35480
16.48957	36653
16.49770	33232
16.50582	36187
16.51393	35012
16.52207	35710
16.53018	33624
16.53830	31706
16.54643	33011
16.55455	31580
16.56268	32748
16.57080	35270
16.57892	34960
16.58705	35094
16.59517	32037
16.60330	36461
16.61142	34198
16.61953	32615
16.62767	35270
16.63578	38142
16.64390	33084
16.65203	31176
16.66015	36569
16.66828	31139
16.67640	31604
16.68452	31390
16.69265	32557
16.70077	34958
16.70890	32104
16.71702	30560
16.72513	31999
16.73327	33886
16.74138	34240
16.74952	31975
16.75763	32359
16.76575	33875
16.77388	30163
16.78200	29721
16.79012	33891
16.79825	29559
16.80637	34076
16.81450	29453
16.82262	33186
16.83073	34632
16.83887	31549
16.84698	31013
16.85512	32260
16.86323	33916
16.87135	34232
16.87948	34445
16.88760	34871
16.89572	32541
16.90385	32975
16.91197	35716
16.92010	32382
16.92822	30588
16.93633	32288
16.94447	33855
16.95258	33662
16.96072	33641
16.96883	33080
16.97695	34289
16.98508	31370
16.99320	35337
17.00133	33686
17.00945	31276
17.01757	31534
17.02570	33361
17.03382	34729
17.04193	33426
17.05007	28550
17.05818	30824
17.06632	35848
17.07443	34997
17.08255	33101
17.09068	34576
17.09880	33996
17.10693	33527
17.11505	32882
17.12317	35963
17.13130	35639
17.13942	37250
17.14755	31948
17.15567	33878
17.16378	31886
17.17192	36468
17.18003	34293
17.18815	34090
17.19628	33025
17.20440	33299
17.21253	32851
17.22065	30880
17.22877	35902
17.23690	34165
17.24502	32217
17.25315	36931
17.26127	34361
17.26938	32798
17.27752	33534
17.28563	36290
17.29375	31741
17.30188	34823
17.31000	33850
17.31813	31376
17.32625	32560
17.33437	31725
17.34250	37039
17.35062	39014
17.35875	40515
17.36687	38816
17.37498	39680
17.38312	42556
17.39123	40640
17.39937	40794
17.40748	36782
17.41560	39789
17.42373	41386
17.43185	41776
17.43997	39265
17.44810	41851
17.45622	38117
17.46435	37953
17.47247	38454
17.48058	36889
17.48872	36615
17.49683	37174
17.50497	38877
17.51308	40594
17.52120	38457
17.52933	45632
17.53745	52631
17.54558	53237
17.55370	58185
17.56182	63947
17.56995	58808
17.57807	59268
17.58618	57755
17.59432	48213
17.60243	41964
17.61057	43912
17.61868	40737
17.62680	37834
17.63493	36885
17.64305	39404
17.65118	37266
17.65930	38398
17.66742	37294
17.67555	41106
17.68367	37702
17.69178	42736
17.69992	43459
17.70803	40907
17.71617	43990
17.72428	38550
17.73240	36156
17.74053	35777
17.74865	35584
17.75678	36891
17.76490	39001
17.77302	35388
17.78115	39142
17.78927	34908
17.79740	38347
17.80552	36617
17.81363	38290
17.82177	40443
17.82988	38012
17.83800	42469
17.84613	41555
17.85425	43315
17.86238	45094
17.87050	40280
17.87862	43805
17.88675	40039
17.89487	41877
17.90300	35743
17.91112	39258
17.91923	35766
17.92737	40631
17.93548	35335
17.94360	34005
17.95173	35058
17.95985	36663
17.96798	34776
17.97610	37600
17.98422	35931
17.99235	33498
18.00047	34946
18.00860	34947
18.01672	39435
18.02483	37727
18.03297	38273
18.04108	38116
18.04922	41867
18.05733	41999
18.06545	42233
18.07358	39405
18.08170	41370
18.08982	41588
18.09795	41294
18.10607	44264
18.11420	50221
18.12232	51491
18.13043	46790
18.13857	42983
18.14668	40749
18.15482	43596
18.16293	39411
18.17105	41296
18.17918	39762
18.18730	38144
18.19543	46774
18.20355	39824
18.21167	43105
18.21980	41782
18.22792	43456
18.23603	41637
18.24417	42788
18.25228	40025
18.26042	42554
18.26853	41229
18.27665	37046
18.28478	39097
18.29290	42926
18.30103	37798
18.30915	36392
18.31727	31945
18.32540	33718
18.33352	36064
18.34163	37004
18.34977	39192
18.35788	35555
18.36602	34651
18.37413	35444
18.38225	37450
18.39038	39679
18.39850	41005
18.40663	41983
18.41475	41058
18.42287	44474
18.43100	43942
18.43912	40928
18.44725	41897
18.45537	44200
18.46348	43269
18.47162	43765
18.47973	43641
18.48785	47161
18.49598	43836
18.50410	40698
18.51223	45474
18.52035	47036
18.52847	40686
18.53660	41726
18.54472	43341
18.55285	39000
18.56097	41414
18.56908	41106
18.57722	43588
18.58533	39768
18.59347	43913
18.60158	42228
18.60970	41123
18.61783	42158
18.62595	40747
18.63407	45758
18.64220	42886
18.65032	39343
18.65845	41362
18.66657	40926
18.67468	41590
18.68282	44001
18.69093	43498
18.69907	43409
18.70718	43010
18.71530	40468
18.72343	38922
18.73155	37331
18.73967	39079
18.74780	35503
18.75592	40391
18.76405	40501
18.77217	38715
18.78028	39519
18.78842	39534
18.79653	35433
18.80467	40496
18.81278	37711
18.82090	37157
18.82903	37401
18.83715	33609
18.84528	34993
18.85340	37374
18.86152	40478
18.86965	39254
18.87777	37664
18.88588	39830
18.89402	42675
18.90213	41056
18.91027	37111
18.91838	39560
18.92650	40833
18.93463	37603
18.94275	35565
18.95088	38285
18.95900	36864
18.96712	33491
18.97525	37415
18.98337	35569
18.99150	39466
18.99962	40027
19.00773	37408
19.01587	40018
19.02398	39767
19.03210	37109
19.04023	46017
19.04835	39737
19.05648	37408
19.06460	42145
19.07272	44749
19.08085	51101
19.08897	56963
19.09710	65386
19.10522	72857
19.11333	64204
19.12147	59034
19.12958	58257
19.13770	56516
19.14583	56495
19.15395	57741
19.16208	63470
19.17020	58702
19.17832	59300
19.18645	59067
19.19457	54262
19.20270	49048
19.21082	45724
19.21893	46038
19.22707	39443
19.23518	42962
19.24332	39648
19.25143	39683
19.25955	38926
19.26768	41870
19.27580	44099
19.28392	49864
19.29205	47526
19.30017	49708
19.30830	44986
19.31642	46683
19.32453	44173
19.33267	38752
19.34078	44769
19.34892	44650
19.35703	39623
19.36515	41753
19.37328	39468
19.38140	40157
19.38952	40428
19.39765	39725
19.40577	39976
19.41390	38539
19.42202	38602
19.43013	41280
19.43827	44032
19.44638	56451
19.45452	74003
19.46263	101836
19.47075	136424
19.47888	146914
19.48700	140276
19.49513	124372
19.50325	91923
19.51137	67571
19.51950	63172
19.52762	50052
19.53573	44621
19.54387	43554
19.55198	40311
19.56012	42599
19.56823	43646
19.57635	41438
19.58448	40283
19.59260	41359
19.60073	37174
19.60885	35349
19.61697	37788
19.62510	41949
19.63322	45777
19.64135	49825
19.64947	59465
19.65758	61779
19.66572	67575
19.67383	73500
19.68195	66799
19.69008	62892
19.69820	55692
19.70633	49809
19.71445	48540
19.72257	49052
19.73070	47203
19.73882	44735
19.74695	43677
19.75507	44841
19.76318	41565
19.77132	39195
19.77943	41587
19.78755	42925
19.79568	40633
19.80380	41113
19.81193	36754
19.82005	41379
19.82817	38016
19.83630	44513
19.84442	42266
19.85255	46763
19.86067	41703
19.86878	49369
19.87692	63080
19.88503	78975
19.89317	98157
19.90128	121594
19.90940	151548
19.91753	169023
19.92565	171299
19.93377	175778
19.94190	169107
19.95002	166230
19.95815	161432
19.96627	157940
19.97438	155451
19.98252	146741
19.99063	134227
19.99877	139122
20.00688	137009
20.01500	130009
20.02313	125820
20.03125	118267
20.03938	111918
20.04750	98098
20.05562	85267
20.06375	77578
20.07187	65165
20.07998	60707
20.08812	59258
20.09623	56136
20.10437	54765
20.11248	55682
20.12060	54141
20.12873	50830
20.13685	51892
20.14498	49375
20.15310	52697
20.16122	52954
20.16935	52208
20.17747	52744
20.18558	57506
20.19372	53665
20.20183	54102
20.20997	53750
20.21808	49882
20.22620	50577
20.23433	54182
20.24245	61027
20.25058	60144
20.25870	69751
20.26682	74112
20.27495	79035
20.28307	71482
20.29120	72279
20.29932	67604
20.30743	62733
20.31557	59505
20.32368	54073
20.33180	53912
20.33993	48955
20.34805	48961
20.35618	47644
20.36430	45677
20.37242	45614
20.38055	42677
20.38867	42258
20.39680	43831
20.40492	43695
20.41303	44448
20.42117	46726
20.42928	43893
20.43740	46297
20.44553	48118
20.45365	44001
20.46178	43505
20.46990	43307
20.47802	42922
20.48615	42668
20.49427	42187
20.50240	45424
20.51052	43148
20.51863	41624
20.52677	38054
20.53488	40295
20.54302	39079
20.55113	34453
20.55925	39039
20.56738	38244
20.57550	36514
20.58362	34261
20.59175	37980
20.59987	36843
20.60800	36595
20.61612	36559
20.62423	37009
20.63237	36109
20.64048	35872
20.64862	34917
20.65673	36389
20.66485	35918
20.67298	34065
20.68110	34408
20.68923	37712
20.69735	34166
20.70547	35298
20.71360	36764
20.72172	38279
20.72983	37382
20.73797	36470
20.74608	36677
20.75422	36345
20.76233	37923
20.77045	35850
20.77858	36820
20.78670	35598
20.79483	39409
20.80295	41504
20.81107	34143
20.81920	37237
20.82732	36097
20.83545	39617
20.84357	34585
20.85168	37530
20.85982	36604
20.86793	35631
20.87605	34079
20.88418	34426
20.89230	34323
20.90043	35195
20.90855	35604
20.91667	35457
20.92480	32908
20.93292	34796
20.94105	39368
20.94917	37759
20.95728	37179
20.96542	35825
20.97353	36217
20.98165	39880
20.98978	37071
20.99790	36235
21.00603	39172
21.01415	36499
21.02227	36000
21.03040	35140
21.03852	33072
21.04665	38290
21.05477	36730
21.06288	37151
21.07102	43286
21.07913	38245
21.08727	41278
21.09538	40123
21.10350	39599
21.11163	36714
21.11975	35034
21.12787	39359
21.13600	37620
21.14412	36748
21.15225	37974
21.16037	39200
21.16848	38142
21.17662	36479
21.18473	35181
21.19287	40748
21.20098	36931
21.20910	39151
21.21723	40251
21.22535	38863
21.23347	36078
21.24160	42636
21.24972	42510
21.25785	42310
21.26597	39203
21.27408	37356
21.28222	39166
21.29033	39676
21.29847	39310
21.30658	38767
21.31470	41852
21.32283	37789
21.33095	39559
21.33908	40498
21.34720	36986
21.35532	36245
21.36345	38886
21.37157	39417
21.37968	37463
21.38782	39094
21.39593	38110
21.40407	39960
21.41218	41077
21.42030	38100
21.42843	38090
21.43655	37013
21.44468	38268
21.45280	37965
21.46092	38920
21.46905	37077
21.47717	38183
21.48530	34758
21.49342	36905
21.50153	36149
21.50967	37152
21.51778	36581
21.52590	36754
21.53403	38507
21.54215	37222
21.55028	38239
21.55840	39123
21.56652	40435
21.57465	37169
21.58277	39296
21.59090	38612
21.59902	46575
21.60713	45476
21.61527	48978
21.62338	47380
21.63150	48519
21.63963	44275
21.64775	45126
21.65588	41839
21.66400	42227
21.67212	38131
21.68025	36556
21.68837	38196
21.69650	38826
21.70462	37876
21.71273	34471
21.72087	35218
21.72898	38389
21.73712	39148
21.74523	36679
21.75335	38484
21.76148	41943
21.76960	42557
21.77772	40628
21.78585	40419
21.79397	46988
21.80210	43792
21.81022	48136
21.81833	47818
21.82647	43632
21.83458	45870
21.84272	39593
21.85083	39204
21.85895	39439
21.86708	38267
21.87520	37695
21.88333	37307
21.89145	36462
21.89957	37513
21.90770	42767
21.91582	36284
21.92393	35809
21.93207	42500
21.94018	40560
21.94832	35442
21.95643	35944
21.96455	38195
21.97268	36177
21.98080	34666
21.98893	37575
21.99705	37970
22.00517	39753
22.01330	36280
22.02142	40525
22.02953	38365
22.03767	37657
22.04578	38084
22.05392	38803
22.06203	37208
22.07015	39612
22.07828	40985
22.08640	38439
22.09453	39639
22.10265	38225
22.11077	40576
22.11890	38083
22.12702	38307
22.13515	36927
22.14327	40194
22.15138	37478
22.15952	35216
22.16763	39206
22.17575	41733
22.18388	34101
22.19200	40416
22.20013	36280
22.20825	39509
22.21637	39088
22.22450	38526
22.23262	36262
22.24075	38266
22.24887	37818
22.25698	37301
22.26512	38370
22.27323	34332
22.28135	36610
22.28948	35940
22.29760	36529
22.30573	35029
22.31385	35201
22.32197	36629
22.33010	40168
22.33822	37283
22.34635	36775
22.35447	34385
22.36258	36220
22.37072	37263
22.37883	35390
22.38697	32601
22.39508	35531
22.40320	38975
22.41133	38535
22.41945	36376
22.42757	34605
22.43570	37746
22.44382	37667
22.45195	42557
22.46007	35417
22.46818	35860
22.47632	35568
22.48443	36686
22.49257	40209
22.50068	36455
22.50880	38814
22.51693	35164
22.52505	38178
22.53318	34944
22.54130	40911
22.54942	35612
22.55755	38953
22.56567	37410
22.57378	36887
22.58192	33142
22.59003	38499
22.59817	35036
22.60628	34002
22.61440	35561
22.62253	34604
22.63065	32874
22.63878	34698
22.64690	39683
22.65502	38876
22.66315	35495
22.67127	36516
22.67938	39314
22.68752	35660
22.69563	33658
22.70377	34521
22.71188	38085
22.72000	38521
22.72813	36770
22.73625	35421
22.74438	37301
22.75250	37702
22.76062	36915
22.76875	35161
22.77687	36237
22.78500	33227
22.79312	34073
22.80123	36788
22.80937	34575
22.81748	37105
22.82560	34815
22.83373	35583
22.84185	36022
22.84998	39511
22.85810	38522
22.86622	38461
22.87435	40402
22.88247	45715
22.89060	42806
22.89872	46816
22.90683	46662
22.91497	49650
22.92308	47052
22.93122	52787
22.93933	50539
22.94745	53005
22.95558	56881
22.96370	55305
22.97182	52396
22.97995	51282
22.98807	49338
22.99620	45216
23.00432	47138
23.01243	45524
23.02057	44022
23.02868	43679
23.03682	42783
23.04493	39629
23.05305	40108
23.06118	38979
23.06930	39581
23.07742	38979
23.08555	39470
23.09367	39065
23.10180	40000
23.10992	40141
23.11803	38047
23.12617	36703
23.13428	37140
23.14242	37326
23.15053	36993
23.15865	37636
23.16678	34765
23.17490	37764
23.18303	40794
23.19115	38854
23.19927	41463
23.20740	37746
23.21552	41773
23.22363	41642
23.23177	38843
23.23988	37716
23.24802	38770
23.25613	34581
23.26425	38436
23.27238	39691
23.28050	39907
23.28863	41527
23.29675	34571
23.30487	38298
23.31300	41163
23.32112	40543
23.32923	40166
23.33737	35836
23.34548	43510
23.35362	41361
23.36173	38900
23.36985	39776
23.37798	41598
23.38610	43347
23.39423	44399
23.40235	49524
23.41047	41318
23.41860	43828
23.42672	43078
23.43485	41216
23.44297	39588
23.45108	40308
23.45922	40078
23.46733	42775
23.47545	39883
23.48358	40393
23.49170	39864
23.49983	41855
23.50795	38016
23.51607	36465
23.52420	41975
23.53232	40592
23.54045	40616
23.54857	38292
23.55668	40406
23.56482	44471
23.57293	43600
23.58107	41879
23.58918	44938
23.59730	43185
23.60543	45473
23.61355	44360
23.62167	42728
23.62980	39396
23.63792	44999
23.64605	47573
23.65417	47837
23.66228	51810
23.67042	50803
23.67853	48739
23.68667	51043
23.69478	52278
23.70290	47623
23.71103	54408
23.71915	52583
23.72727	49849
23.73540	64347
23.74352	91146
23.75165	156513
23.75977	279313
23.76788	501181
23.77602	767371
23.78413	1040390
23.79227	1169688
23.80038	1080991
23.80850	920382
23.81663	714129
23.82475	561982
23.83288	420703
23.84100	334466
23.84912	271624
23.85725	229375
23.86537	200042
23.87348	174821
23.88162	154186
23.88973	140776
23.89787	135454
23.90598	123168
23.91410	119382
23.92223	109702
23.93035	100637
23.93848	97404
23.94660	93701
23.95472	93764
23.96285	87706
23.97097	83287
23.97910	80896
23.98722	80496
23.99533	83059
24.00347	76147
24.01158	67705
24.01970	69670
24.02783	68293
24.03595	66795
24.04408	65476
24.05220	62419
24.06032	65266
24.06845	60284
24.07657	64515
24.08470	62452
24.09282	64519
24.10093	57772
24.10907	59263
24.11718	58594
24.12530	56663
24.13343	59800
24.14155	58362
24.14968	57932
24.15780	62467
24.16592	56690
24.17405	65604
24.18217	63396
24.19030	67367
24.19842	67873
24.20653	61073
24.21467	62138
24.22278	59246
24.23092	59356
24.23903	55000
24.24715	54496
24.25528	50190
24.26340	55053
24.27152	50173
24.27965	48897
24.28777	54727
24.29590	47260
24.30402	45523
24.31213	48500
24.32027	49643
24.32838	48529
24.33652	58277
24.34463	67597
24.35275	83846
24.36088	94506
24.36900	101250
24.37713	93219
24.38525	77777
24.39337	62492
24.40150	53988
24.40962	45338
24.41773	47447
24.42587	45558
24.43398	43717
24.44212	50877
24.45023	44846
24.45835	53528
24.46648	50100
24.47460	52588
24.48273	50689
24.49085	50292
24.49897	49673
24.50710	46152
24.51522	51949
24.52333	46309
24.53147	46995
24.53958	44215
24.54772	43608
24.55583	42417
24.56395	43395
24.57208	45067
24.58020	46044
24.58833	48163
24.59645	40653
24.60457	40488
24.61270	43843
24.62082	44103
24.62895	39414
24.63707	40750
24.64518	47266
24.65332	42271
24.66143	45046
24.66955	45253
24.67768	38969
24.68580	39695
24.69393	45902
24.70205	39652
24.71017	40343
24.71830	46396
24.72642	40399
24.73455	39725
24.74267	38557
24.75078	41405
24.75892	37902
24.76703	41090
24.77515	41377
24.78328	37559
24.79140	38099
24.79953	44243
24.80765	39483
24.81577	40724
24.82390	39635
24.83202	40223
24.84015	40275
24.84827	40274
24.85638	39229
24.86452	40876
24.87263	39958
24.88077	35396
24.88888	37693
24.89700	39762
24.90513	39834
24.91325	40610
24.92137	44242
24.92950	41294
24.93762	44138
24.94575	42572
24.95387	38915
24.96198	38848
24.97012	40598
24.97823	37789
24.98637	35003
24.99448	37539
25.00260	35012
25.01073	37452
25.01885	39074
25.02698	38047
25.03510	40517
25.04322	35776
25.05135	37157
25.05947	39838
25.06758	37172
25.07572	36266
25.08383	36405
25.09197	37345
25.10008	35835
25.10820	40584
25.11633	41414
25.12445	38156
25.13258	40199
25.14070	44543
25.14882	43686
25.15695	46868
25.16507	47402
25.17318	45703
25.18132	41136
25.18943	35932
25.19757	36877
25.20568	41429
25.21380	35894
25.22193	39137
25.23005	38327
25.23818	38942
25.24630	40577
25.25442	37800
25.26255	39045
25.27067	40000
25.27880	40001
25.28692	43193
25.29503	44233
25.30317	47970
25.31128	51944
25.31940	48042
25.32753	49626
25.33565	46769
25.34378	44864
25.35190	39189
25.36002	40509
25.36815	38947
25.37627	35905
25.38440	42886
25.39252	38953
25.40063	37805
25.40877	38518
25.41688	34688
25.42502	36890
25.43313	38993
25.44125	38728
25.44938	36511
25.45750	39099
25.46562	35846
25.47375	35964
25.48187	37977
25.49000	32400
25.49812	39949
25.50623	38452
25.51437	36892
25.52248	38117
25.53062	35500
25.53873	35695
25.54685	36314
25.55498	33608
25.56310	34133
25.57122	34831
25.57935	34222
25.58747	33019
25.59560	33808
25.60372	37843
25.61183	32643
25.61997	32671
25.62808	35542
25.63622	33526
25.64433	31226
25.65245	33082
25.66058	35748
25.66870	32982
25.67683	33877
25.68495	32010
25.69307	37473
25.70120	32589
25.70932	37157
25.71743	36700
25.72557	37146
25.73368	33081
25.74182	34813
25.74993	32836
25.75805	35399
25.76618	30753
25.77430	34920
25.78243	34664
25.79055	30140
25.79867	32544
25.80680	31670
25.81492	31596
25.82305	33486
25.83117	30726
25.83928	35268
25.84742	33728
25.85553	36956
25.86365	31768
25.87178	32586
25.87990	34150
25.88803	33273
25.89615	33357
25.90427	31047
25.91240	33436
25.92052	32556
25.92865	34224
25.93677	33264
25.94488	34212
25.95302	33561
25.96113	32646
25.96925	33765
25.97738	32200
25.98550	32314
25.99363	31680
26.00175	30222
26.00987	30230
26.01800	32856
26.02612	31279
26.03425	30082
26.04237	30878
26.05048	30102
26.05862	33984
26.06673	32276
26.07487	31809
26.08298	30889
26.09110	31578
26.09923	32762
26.10735	33173
26.11547	37392
26.12360	39074
26.13172	41151
26.13985	43349
26.14797	45971
26.15608	47828
26.16422	43837
26.17233	43342
26.18047	41546
26.18858	41311
26.19670	35579
26.20483	33546
26.21295	37808
26.22108	34709
26.22920	35637
26.23732	34757
26.24545	34803
26.25357	33464
26.26168	31829
26.26982	31774
26.27793	34448
26.28607	34157
26.29418	34080
26.30230	31470
26.31043	30253
26.31855	30425
26.32668	30413
26.33480	31597
26.34292	33890
26.35105	29576
26.35917	30673
26.36728	33604
26.37542	31736
26.38353	36277
26.39167	31152
26.39978	35561
26.40790	32834
26.41603	32991
26.42415	29765
26.43228	34138
26.44040	30154
26.44852	30022
26.45665	29567
26.46477	30010
26.47290	33470
26.48102	32993
26.48913	31105
26.49727	33788
26.50538	31317
26.51350	31742
26.52163	32226
26.52975	31735
26.53788	31654
26.54600	31775
26.55412	30861
26.56225	33860
26.57037	33091
26.57850	30489
26.58662	34056
26.59473	34663
26.60287	32937
26.61098	30969
26.61910	32271
26.62723	31101
26.63535	29503
26.64348	33728
26.65160	30490
26.65972	29925
26.66785	32050
26.67597	33298
26.68410	33290
26.69222	32363
26.70033	35566
26.70847	34222
26.71658	30179
26.72472	31941
26.73283	34357
26.74095	33850
26.74908	33658
26.75720	34660
26.76532	34154
26.77345	32464
26.78157	34538
26.78970	34250
26.79782	35205
26.80593	32751
26.81407	31063
26.82218	34733
26.83032	35867
26.83843	32943
26.84655	30835
26.85468	34234
26.86280	35664
26.87093	32700
26.87905	30848
26.88717	31840
26.89530	33847
26.90342	34121
26.91153	29712
26.91967	34574
26.92778	32054
26.93592	35114
26.94403	35776
26.95215	39704
26.96028	48153
26.96840	63562
26.97653	86924
26.98465	109897
26.99277	144997
27.00090	164579
27.00902	171182
27.01713	164320
27.02527	156718
27.03338	139578
27.04152	115301
27.04963	100984
27.05775	84294
27.06588	73173
27.07400	68206
27.08213	60186
27.09025	52280
27.09837	54661
27.10650	53444
27.11462	51418
27.12275	49886
27.13087	49221
27.13898	47714
27.14712	47558
27.15523	44242
27.16335	49198
27.17148	44503
27.17960	45654
27.18773	45705
27.19585	39421
27.20397	42875
27.21210	40661
27.22022	42030
27.22835	41530
27.23647	39347
27.24458	39970
27.25272	39749
27.26083	36705
27.26897	36666
27.27708	39680
27.28520	37421
27.29333	39415
27.30145	36609
27.30957	37162
27.31770	37269
27.32582	33936
27.33395	36236
27.34207	36745
27.35018	37185
27.35832	35243
27.36643	40327
27.37457	35026
27.38268	33458
27.39080	39215
27.39893	36699
27.40705	33069
27.41517	35823
27.42330	34620
27.43142	34436
27.43955	36709
27.44767	33444
27.45578	35417
27.46392	39574
27.47203	35926
27.48017	36421
27.48828	36792
27.49640	34820
27.50453	36355
27.51265	35743
27.52078	39507
27.52890	35178
27.53702	37249
27.54515	32570
27.55327	35149
27.56138	36458
27.56952	34247
27.57763	32198
27.58577	34997
27.59388	34229
27.60200	31690
27.61013	33919
27.61825	34515
27.62638	33471
27.63450	32512
27.64262	32173
27.65075	35744
27.65887	33813
27.66698	35488
27.67512	36737
27.68323	35788
27.69137	36854
27.69948	34474
27.70760	36239
27.71573	36236
27.72385	36772
27.73198	40820
27.74010	40966
27.74822	43666
27.75635	39075
27.76447	40877
27.77260	39449
27.78072	34800
27.78883	35478
27.79697	36642
27.80508	35347
27.81320	38237
27.82133	36058
27.82945	32892
27.83758	35587
27.84570	35486
27.85382	34055
27.86195	36236
27.87007	34710
27.87820	33859
27.88632	31355
27.89443	33936
27.90257	33937
27.91068	31758
27.91882	34872
27.92693	31030
27.93505	31700
27.94318	33840
27.95130	31888
27.95942	31047
27.96755	37016
27.97567	36006
27.98380	38216
27.99192	37962
28.00003	39473
28.00817	37380
28.01628	35883
28.02442	34432
28.03253	35415
28.04065	33828
28.04878	36534
28.05690	36573
28.06502	39428
28.07315	36996
28.08127	41688
28.08940	54926
28.09752	57696
28.10563	67414
28.11377	65120
28.12188	62065
28.13002	57353
28.13813	54818
28.14625	44984
28.15438	44550
28.16250	41786
28.17063	37173
28.17875	40172
28.18687	35500
28.19500	37051
28.20312	40298
28.21123	32975
28.21937	32950
28.22748	35834
28.23562	31887
28.24373	36388
28.25185	37566
28.25998	39069
28.26810	42623
28.27623	48332
28.28435	54549
28.29247	58216
28.30060	65812
28.30872	77169
28.31685	83920
28.32497	96589
28.33308	87162
28.34122	96465
28.34933	89113
28.35745	84141
28.36558	85707
28.37370	74627
28.38183	69935
28.38995	62198
28.39807	62661
28.40620	57705
28.41432	58089
28.42245	57046
28.43057	49472
28.43868	48025
28.44682	49760
28.45493	48483
28.46305	43963
28.47118	45376
28.47930	44975
28.48743	47247
28.49555	41015
28.50367	44005
28.51180	42535
28.51992	43009
28.52805	40239
28.53617	41901
28.54428	40678
28.55242	43961
28.56053	42041
28.56867	40898
28.57678	40521
28.58490	42831
28.59303	39057
28.60115	41645
28.60927	39430
28.61740	36285
28.62552	37586
28.63365	40927
28.64177	41802
28.64988	47325
28.65802	50283
28.66613	49604
28.67427	45714
28.68238	47310
28.69050	47194
28.69863	41319
28.70675	48129
28.71488	51031
28.72300	57634
28.73112	61641
28.73925	60136
28.74737	51189
28.75548	50922
28.76362	42981
28.77173	41551
28.77987	39484
28.78798	37780
28.79610	37637
28.80423	36372
28.81235	35049
28.82048	37159
28.82860	40607
28.83672	37007
28.84485	39029
28.85297	40822
28.86108	38752
28.86922	37435
28.87733	37596
28.88547	40459
28.89358	40325
28.90170	44556
28.90983	35879
28.91795	37854
28.92608	38631
28.93420	42376
28.94232	38849
28.95045	44627
28.95857	40811
28.96670	42683
28.97482	41904
28.98293	39898
28.99107	41683
28.99918	39350
29.00730	36177
29.01543	38141
29.02355	40521
29.03168	37818
29.03980	41281
29.04792	38785
29.05605	42876
29.06417	42045
29.07230	40665
29.08042	43967
29.08853	40941
29.09667	40747
29.10478	44553
29.11290	41081
29.12103	45266
29.12915	40563
29.13728	43499
29.14540	45498
29.15352	44243
29.16165	49921
29.16977	51018
29.17790	50077
29.18602	52387
29.19413	54715
29.20227	50844
29.21038	51033
29.21852	54610
29.22663	55255
29.23475	60980
29.24288	61772
29.25100	63800
29.25912	66907
29.26725	70899
29.27537	68485
29.28350	68166
29.29162	63575
29.29973	66441
29.30787	65825
29.31598	61034
29.32412	61966
29.33223	65938
29.34035	58435
29.34848	59574
29.35660	58270
29.36473	55782
29.37285	56424
29.38097	52396
29.38910	51351
29.39722	53571
29.40533	52527
29.41347	53421
29.42158	49058
29.42972	49045
29.43783	52003
29.44595	48737
29.45408	49202
29.46220	50064
29.47033	46214
29.47845	45487
29.48657	48476
29.49470	44979
29.50282	47962
29.51093	49067
29.51907	50870
29.52718	46301
29.53532	44049
29.54343	42138
29.55155	44722
29.55968	44501
29.56780	45291
29.57593	50101
29.58405	54430
29.59217	55681
29.60030	55920
29.60842	54266
29.61655	54125
29.62467	48629
29.63278	44610
29.64092	45397
29.64903	41134
29.65715	41226
29.66528	35332
29.67340	38208
29.68153	38209
29.68965	38122
29.69777	41391
29.70590	36743
29.71402	39490
29.72215	40662
29.73027	38247
29.73838	37470
29.74652	38018
29.75463	35899
29.76277	38461
29.77088	36498
29.77900	40700
29.78713	40573
29.79525	41101
29.80337	34267
29.81150	37598
29.81962	38189
29.82775	36311
29.83587	35802
29.84398	38931
29.85212	33711
29.86023	38673
29.86837	40774
29.87648	36908
29.88460	38915
29.89273	45244
29.90085	49278
29.90897	45442
29.91710	54899
29.92522	56986
29.93335	60342
29.94147	64807
29.94958	71619
29.95772	77061
29.96583	74969
29.97397	81260
29.98208	76050
29.99020	78013
29.99833	70795
30.00645	65653
30.01458	60130
30.02270	61117
30.03082	62318
30.03895	55719
30.04707	55666
30.05518	51760
30.06332	53796
30.07143	46821
30.07957	48267
30.08768	52242
30.09580	48545
30.10393	46854
30.11205	45448
30.12018	43868
30.12830	46169
30.13642	46044
30.14455	41733
30.15267	42700
30.16078	40201
30.16892	41307
30.17703	45573
30.18517	41136
30.19328	39122
30.20140	41448
30.20953	39119
30.21765	42026
30.22578	38338
30.23390	38998
30.24202	39138
30.25015	38527
30.25827	41762
30.26640	40909
30.27452	43848
30.28263	42202
30.29077	37738
30.29888	39101
30.30700	38920
30.31513	40339
30.32325	41331
30.33138	39896
30.33950	39021
30.34762	37948
30.35575	39001
30.36387	37350
30.37200	39254
30.38012	40633
30.38823	39779
30.39637	40275
30.40448	36381
30.41262	39642
30.42073	38105
30.42885	40122
30.43698	40042
30.44510	36880
30.45322	39947
30.46135	39011
30.46947	39056
30.47760	39472
30.48572	40472
30.49383	38270
30.50197	46149
30.51008	43257
30.51822	41459
30.52633	38484
30.53445	41589
30.54258	42207
30.55070	37878
30.55883	37794
30.56695	38943
30.57507	38275
30.58320	40795
30.59132	37651
30.59943	39014
30.60757	41010
30.61568	41365
30.62382	37889
30.63193	42109
30.64005	39989
30.64818	42656
30.65630	38671
30.66443	41728
30.67255	39468
30.68067	41411
30.68880	39960
30.69692	38534
30.70503	39134
30.71317	39859
30.72128	40501
30.72942	41677
30.73753	36721
30.74565	40536
30.75378	41452
30.76190	40144
30.77003	38449
30.77815	42609
30.78627	45914
30.79440	43089
30.80252	42556
30.81065	44961
30.81877	40022
30.82688	38737
30.83502	42581
30.84313	40693
30.85125	37537
30.85938	41625
30.86750	37338
30.87563	36738
30.88375	39169
30.89187	37431
30.90000	41699
30.90812	38607
30.91625	40913
30.92437	37426
30.93248	37510
30.94062	37158
30.94873	37764
30.95685	39042
30.96498	38110
30.97310	39583
30.98123	37237
30.98935	38927
30.99747	39914
31.00560	39018
31.01372	38660
31.02185	39178
31.02997	40138
31.03808	37774
31.04622	39291
31.05433	38263
31.06247	40330
31.07058	40162
31.07870	44033
31.08683	40581
31.09495	46838
31.10307	47181
31.11120	42436
31.11932	39066
31.12745	42023
31.13557	43060
31.14368	41747
31.15182	43123
31.15993	45449
31.16807	49970
31.17618	59664
31.18430	81529
31.19243	101592
31.20055	129717
31.20867	143437
31.21680	147357
31.22492	137104
31.23305	120084
31.24117	97100
31.24928	77018
31.25742	54674
31.26553	49026
31.27367	49328
31.28178	45712
31.28990	47036
31.29803	43330
31.30615	41124
31.31428	43815
31.32240	41445
31.33052	45988
31.33865	44752
31.34677	41782
31.35488	41587
31.36302	41172
31.37113	44028
31.37927	42527
31.38738	41500
31.39550	43385
31.40363	44060
31.41175	44267
31.41988	45468
31.42800	43571
31.43612	40376
31.44425	42085
31.45237	44567
31.46050	41650
31.46862	42121
31.47673	41736
31.48487	40737
31.49298	43483
31.50110	39347
31.50923	42100
31.51735	44344
31.52548	40245
31.53360	41780
31.54172	47944
31.54985	40022
31.55797	36594
31.56610	41376
31.57422	44604
31.58233	44194
31.59047	43655
31.59858	41886
31.60672	46884
31.61483	44162
31.62295	43298
31.63108	43419
31.63920	43610
31.64732	42724
31.65545	44699
31.66357	42537
31.67170	47730
31.67982	51107
31.68793	53992
31.69607	55410
31.70418	53933
31.71232	49647
31.72043	49156
31.72855	46951
31.73668	43374
31.74480	43326
31.75292	42464
31.76105	41750
31.76917	43263
31.77730	46206
31.78542	44624
31.79353	47012
31.80167	46572
31.80978	45246
31.81792	47320
31.82603	43575
31.83415	47443
31.84228	49607
31.85040	47728
31.85853	51324
31.86665	52727
31.87477	57311
31.88290	58370
31.89102	62012
31.89913	60796
31.90727	59221
31.91538	60634
31.92352	60074
31.93163	61587
31.93975	59840
31.94788	60329
31.95600	58957
31.96413	52759
31.97225	57822
31.98037	55583
31.98850	54337
31.99662	54490
32.00473	52030
32.01287	49907
32.02098	53518
32.02912	50605
32.03723	51340
32.04535	50183
32.05348	49637
32.06160	48198
32.06973	49234
32.07785	46599
32.08597	45806
32.09410	47249
32.10222	43398
32.11035	47260
32.11847	47340
32.12658	45204
32.13472	45232
32.14283	45023
32.15095	46152
32.15908	45501
32.16720	48885
32.17533	49478
32.18345	45716
32.19157	48459
32.19970	46233
32.20782	49187
32.21595	45543
32.22407	43885
32.23218	43271
32.24032	44075
32.24843	43696
32.25657	45766
32.26468	45939
32.27280	44834
32.28093	45745
32.28905	42516
32.29717	43460
32.30530	44878
32.31342	43044
32.32155	45684
32.32967	47050
32.33778	48332
32.34592	45886
32.35403	45404
32.36217	50929
32.37028	45318
32.37840	49512
32.38653	42800
32.39465	43147
32.40277	44209
32.41090	44136
32.41902	42634
32.42715	46806
32.43527	42627
32.44338	44564
32.45152	43492
32.45963	45339
32.46777	47449
32.47588	42744
32.48400	46963
32.49213	42921
32.50025	40889
32.50838	43989
32.51650	46662
32.52462	42049
32.53275	48729
32.54087	45324
32.54898	46684
32.55712	45622
32.56523	44819
32.57337	42505
32.58148	46665
32.58960	47052
32.59773	46224
32.60585	54526
32.61398	56428
32.62210	61088
32.63022	59564
32.63835	57216
32.64647	55437
32.65460	53329
32.66272	49182
32.67083	49099
32.67897	49884
32.68708	47342
32.69520	46382
32.70333	49159
32.71145	46849
32.71958	48230
32.72770	46178
32.73582	50873
32.74395	48669
32.75207	42558
32.76020	46593
32.76832	43593
32.77643	49542
32.78457	43163
32.79268	43745
32.80080	42390
32.80893	46408
32.81705	44202
32.82518	47597
32.83330	44356
32.84142	42925
32.84955	41700
32.85767	44994
32.86580	43594
32.87392	46327
32.88203	44791
32.89017	44492
32.89828	45432
32.90642	46447
32.91453	46817
32.92265	46211
32.93078	46961
32.93890	46595
32.94702	44074
32.95515	45459
32.96327	45209
32.97140	45831
32.97952	46118
32.98763	45572
32.99577	46073
33.00388	45172
33.01202	47263
33.02013	43913
33.02825	46169
33.03638	43026
33.04450	45450
33.05262	45812
33.06075	43914
33.06887	45271
33.07700	45945
33.08512	50757
33.09323	51658
33.10137	61242
33.10948	67612
33.11762	67035
33.12573	64107
33.13385	60680
33.14198	58903
33.15010	57560
33.15823	51258
33.16635	48463
33.17447	50826
33.18260	45675
33.19072	49489
33.19883	44211
33.20697	47645
33.21508	48904
33.22322	49911
33.23133	49585
33.23945	44906
33.24758	44833
33.25570	47313
33.26383	49232
33.27195	48792
33.28007	45130
33.28820	47128
33.29632	47937
33.30445	46697
33.31257	49129
33.32068	52015
33.32882	44659
33.33693	46323
33.34505	42611
33.35318	43722
33.36130	44050
33.36943	45654
33.37755	46073
33.38567	47032
33.39380	47865
33.40192	45996
33.41005	45296
33.41817	45875
33.42628	47332
33.43442	45668
33.44253	45228
33.45065	44940
33.45878	44744
33.46690	46980
33.47503	47215
33.48315	47149
33.49127	51698
33.49940	47735
33.50752	46565
33.51565	51307
33.52377	48961
33.53188	46589
33.54002	49115
33.54813	46949
33.55627	49765
33.56438	48175
33.57250	47424
33.58063	47267
33.58875	48325
33.59687	49540
33.60500	49371
33.61312	46735
33.62125	48609
33.62937	46523
33.63748	46367
33.64562	46087
33.65373	46846
33.66187	50608
33.66998	54335
33.67810	49424
33.68623	49333
33.69435	50148
33.70248	48274
33.71060	50279
33.71872	48963
33.72685	49438
33.73497	55722
33.74308	55427
33.75122	55849
33.75933	58860
33.76747	57457
33.77558	56216
33.78370	59578
33.79183	63382
33.79995	62637
33.80808	66189
33.81620	67664
33.82432	72793
33.83245	71783
33.84057	70641
33.84868	68356
33.85682	74844
33.86493	70276
33.87307	75591
33.88118	78464
33.88930	79514
33.89743	76762
33.90555	79705
33.91368	84552
33.92180	81779
33.92992	84047
33.93805	90710
33.94617	88572
33.95430	81550
33.96242	83827
33.97053	79402
33.97867	81806
33.98678	72246
33.99490	76898
34.00303	81098
34.01115	75209
34.01928	76770
34.02740	76274
34.03552	74052
34.04365	70367
34.05177	69409
34.05990	70881
34.06802	71291
34.07613	67806
34.08427	73394
34.09238	71693
34.10052	65831
34.10863	63613
34.11675	66624
34.12488	65547
34.13300	68753
34.14112	66583
34.14925	67530
34.15737	61788
34.16550	66303
34.17362	61779
34.18173	60412
34.18987	59282
34.19798	65891
34.20612	62311
34.21423	66583
34.22235	57183
34.23048	61859
34.23860	60367
34.24672	59038
34.25485	58117
34.26297	59553
34.27110	67445
34.27922	62068
34.28733	60702
34.29547	63983
34.30358	60069
34.31172	58345
34.31983	57729
34.32795	65339
34.33608	60963
34.34420	62463
34.35233	63598
34.36045	62768
34.36857	60994
34.37670	59484
34.38482	58888
34.39293	58690
34.40107	56951
34.40918	58199
34.41732	55718
34.42543	61046
34.43355	60552
34.44168	55770
34.44980	63108
34.45793	57691
34.46605	66830
34.47417	66403
34.48230	71626
34.49042	72377
34.49853	75639
34.50667	79366
34.51478	76187
34.52292	78518
34.53103	76712
34.53915	77420
34.54728	74962
34.55540	72758
34.56353	69132
34.57165	66140
34.57977	71303
34.58790	68583
34.59602	68910
34.60415	66762
34.61227	69983
34.62038	67204
34.62852	69148
34.63663	70711
34.64475	70281
34.65288	66734
34.66100	71603
34.66913	71286
34.67725	70421
34.68537	69255
34.69350	77026
34.70162	74032
34.70975	76013
34.71787	67775
34.72598	71559
34.73412	77110
34.74223	72372
34.75037	73266
34.75848	72272
34.76660	73661
34.77473	71680
34.78285	74259
34.79097	73424
34.79910	73067
34.80722	71512
34.81535	67248
34.82347	72821
34.83158	70674
34.83972	70110
34.84783	73756
34.85597	69004
34.86408	71410
34.87220	70433
34.88033	63223
34.88845	61524
34.89657	63820
34.90470	62528
34.91282	65839
34.92095	71383
34.92907	66226
34.93718	67554
34.94532	66431
34.95343	64721
34.96157	64455
34.96968	66491
34.97780	64331
34.98593	66255
34.99405	63747
35.00218	64524
35.01030	60898
35.01842	58675
35.02655	60293
35.03467	61765
35.04278	59785
35.05092	58421
35.05903	64222
35.06717	59681
35.07528	60815
35.08340	60647
35.09153	60256
35.09965	56901
35.10778	59109
35.11590	63504
35.12402	63659
35.13215	61703
35.14027	58637
35.14840	64917
35.15652	70108
35.16463	64808
35.17277	66757
35.18088	63761
35.18900	61390
35.19713	61560
35.20525	61624
35.21338	65039
35.22150	66906
35.22962	61147
35.23775	62183
35.24587	61023
35.25400	64572
35.26212	66697
35.27023	63267
35.27837	64125
35.28648	62652
35.29460	61429
35.30273	65970
35.31085	62697
35.31898	66434
35.32710	64845
35.33522	61922
35.34335	62853
35.35147	60198
35.35960	59736
35.36772	63003
35.37583	62832
35.38397	62494
35.39208	62745
35.40022	63143
35.40833	66816
35.41645	67937
35.42458	65343
35.43270	68073
35.44082	70229
35.44895	73906
35.45707	67052
35.46520	71354
35.47332	67074
35.48143	69848
35.48957	65913
35.49768	71123
35.50582	68460
35.51393	70011
35.52205	70479
35.53018	68579
35.53830	69984
35.54642	62861
35.55455	65523
35.56267	65515
35.57080	67674
35.57892	64441
35.58703	63351
35.59517	64786
35.60328	67709
35.61142	68702
35.61953	69314
35.62765	66935
35.63578	64036
35.64390	67049
35.65203	65770
35.66015	66134
35.66827	65600
35.67640	67250
35.68452	67691
35.69263	72527
35.70077	63487
35.70888	66497
35.71702	70692
35.72513	65629
35.73325	73128
35.74138	67443
35.74950	71611
35.75763	70210
35.76575	66821
35.77387	69887
35.78200	71788
35.79012	69749
35.79825	69186
35.80637	66273
35.81448	69694
35.82262	69501
35.83073	69105
35.83885	68463
35.84698	69843
35.85510	70630
35.86323	72507
35.87135	71038
35.87947	70367
35.88760	68661
35.89572	66825
35.90385	70171
35.91197	67100
35.92008	62973
35.92822	67275
35.93633	69683
35.94447	72457
35.95258	67336
35.96070	71108
35.96883	67837
35.97695	66847
35.98507	69349
35.99320	67862
36.00132	77487
36.00945	74990
36.01757	76605
36.02568	74117
36.03382	75864
36.04193	74867
36.05007	73830
36.05818	75767
36.06630	72081
36.07443	72825
36.08255	72738
36.09067	72201
36.09880	73173
36.10692	73952
36.11505	70037
36.12317	77328
36.13128	71070
36.13942	71292
36.14753	73451
36.15567	69725
36.16378	70394
36.17190	73076
36.18003	73723
36.18815	74410
36.19628	68882
36.20440	73232
36.21252	70888
36.22065	75895
36.22877	74711
36.23688	78088
36.24502	78414
36.25313	83137
36.26127	84420
36.26938	87759
36.27750	92047
36.28563	84072
36.29375	83868
36.30188	80270
36.31000	76228
36.31812	74630
36.32625	71426
36.33437	73284
36.34248	72706
36.35062	74358
36.35873	75535
36.36687	71075
36.37498	76343
36.38310	67870
36.39123	76570
36.39935	72070
36.40748	74321
36.41560	73794
36.42372	78008
36.43185	80394
36.43997	75558
36.44810	76069
36.45622	69293
36.46433	66266
36.47247	71684
36.48058	74681
36.48870	75064
36.49683	71436
36.50495	74547
36.51308	72960
36.52120	73927
36.52932	74488
36.53745	73585
36.54557	73370
36.55370	74121
36.56182	72879
36.56993	78041
36.57807	69720
36.58618	78467
36.59432	72713
36.60243	74889
36.61055	76750
36.61868	77072
36.62680	74023
36.63492	80673
36.64305	74266
36.65117	75818
36.65930	75506
36.66742	74560
36.67553	74997
36.68367	76939
36.69178	76983
36.69992	77517
36.70803	79200
36.71615	79003
36.72428	75409
36.73240	75880
36.74052	73380
36.74865	74029
36.75677	77303
36.76490	81357
36.77302	79920
36.78113	78312
36.78927	74393
36.79738	76663
36.80552	77322
36.81363	78202
36.82175	72795
36.82988	73500
36.83800	81289
36.84613	78795
36.85425	78427
36.86237	78540
36.87050	79644
36.87862	76294
36.88673	78429
36.89487	80869
36.90298	80506
36.91112	80757
36.91923	74424
36.92735	76863
36.93548	83166
36.94360	84885
36.95173	77022
36.95985	80652
36.96797	81535
36.97610	83944
36.98422	86297
36.99235	97621
37.00047	108568
37.00858	126974
37.01672	141975
37.02483	163877
37.03295	163945
37.04108	152165
37.04920	144268
37.05733	120412
37.06545	105011
37.07357	95643
37.08170	92134
37.08982	87289
37.09795	86998
37.10607	88869
37.11418	87301
37.12232	79741
37.13043	83277
37.13855	86001
37.14668	85175
37.15480	87955
37.16293	90036
37.17105	84403
37.17917	85788
37.18730	86508
37.19542	84369
37.20355	82674
37.21167	88136
37.21978	84451
37.22792	83039
37.23603	85018
37.24417	85895
37.25228	86102
37.26040	89426
37.26853	92774
37.27665	93203
37.28477	95909
37.29290	103423
37.30102	106303
37.30915	108627
37.31727	107237
37.32538	103960
37.33352	99189
37.34163	99869
37.34977	100941
37.35788	98742
37.36600	92064
37.37413	88443
37.38225	92367
37.39037	94356
37.39850	93169
37.40662	95644
37.41475	90135
37.42287	89757
37.43098	98136
37.43912	90610
37.44723	93376
37.45537	94744
37.46348	96991
37.47160	90696
37.47973	93846
37.48785	97118
