C:\MassHunter\GCMS\1\data\JTB-E18\JTB-E18-038-06.D Wed Nov 13 15:47:54 2019
Start of data points
2.09538,299787
2.10350,287824
2.11163,273077
2.11975,271022
2.12787,264744
2.13600,258951
2.14412,244432
2.15225,245325
2.16037,226751
2.16848,228311
2.17662,223824
2.18473,218639
2.19287,207822
2.20098,206640
2.20910,197221
2.21723,202071
2.22535,198280
2.23348,189757
2.24160,179266
2.24972,177042
2.25785,178561
2.26597,184726
2.27408,649338
2.28222,3046129
2.29033,3025780
2.29847,1218959
2.30658,753923
2.31470,644172
2.32283,565509
2.33095,497230
2.33908,441547
2.34720,412919
2.35532,364835
2.36345,337392
2.37157,322983
2.37968,311774
2.38782,361543
2.39593,365614
2.40407,311181
2.41218,289663
2.42030,275193
2.42843,280520
2.43655,280735
2.44468,265397
2.45280,269282
2.46092,252812
2.46905,228536
2.47717,227672
2.48530,215922
2.49342,214184
2.50153,227487
2.50967,219621
2.51778,202336
2.52590,204399
2.53403,202872
2.54215,194569
2.55028,199391
2.55840,234744
2.56652,277418
2.57465,246136
2.58277,207724
2.59090,201191
2.59902,192120
2.60713,200656
2.61527,244238
2.62338,268801
2.63152,235482
2.63963,211012
2.64775,199301
2.65588,191696
2.66400,182703
2.67212,186334
2.68025,195259
2.68837,198694
2.69650,181468
2.70462,171764
2.71273,167920
2.72087,170654
2.72898,171530
2.73712,171529
2.74523,173639
2.75335,165049
2.76148,159757
2.76960,162895
2.77772,161522
2.78585,177089
2.79397,202270
2.80210,181164
2.81022,175161
2.81833,184365
2.82647,237093
2.83458,360744
2.84272,427725
2.85083,312053
2.85895,237857
2.86708,228330
2.87520,231025
2.88333,204304
2.89145,183489
2.89957,175849
2.90770,171641
2.91582,169460
2.92393,157374
2.93207,160849
2.94018,158470
2.94832,153286
2.95643,148929
2.96455,147502
2.97268,138209
2.98080,143594
2.98893,147013
2.99705,150468
3.00517,158647
3.01330,161481
3.02142,164046
3.02955,205150
3.03767,326655
3.04578,447517
3.05392,908569
3.06203,2530379
3.07015,3503772
3.07828,2511591
3.08640,1506360
3.09453,1318172
3.10265,1872822
3.11077,3558776
3.11890,3986375
3.12702,2591308
3.13515,1655597
3.14327,1266745
3.15138,1017804
3.15952,829713
3.16763,712967
3.17575,680424
3.18388,690828
3.19200,1009631
3.20013,1399333
3.20825,1189530
3.21637,846556
3.22450,688174
3.23262,588028
3.24075,521714
3.24887,454903
3.25698,404352
3.26512,362480
3.27323,345586
3.28137,428593
3.28948,1043357
3.29760,2957121
3.30573,5577993
3.31385,6243195
3.32197,4705944
3.33010,3039450
3.33822,2058839
3.34635,1552256
3.35447,1242167
3.36258,1045583
3.37072,959728
3.37883,948910
3.38697,971904
3.39508,883863
3.40320,888419
3.41133,1304562
3.41945,2006164
3.42757,1977349
3.43570,1388706
3.44382,967377
3.45195,780276
3.46007,703279
3.46818,657999
3.47632,613476
3.48443,564888
3.49257,533837
3.50068,505369
3.50880,486931
3.51693,451474
3.52505,456420
3.53318,449951
3.54130,442084
3.54942,425886
3.55755,396307
3.56567,404051
3.57378,382902
3.58192,369507
3.59003,357966
3.59817,359138
3.60628,354990
3.61440,366863
3.62253,474229
3.63065,774298
3.63878,1127143
3.64690,1129334
3.65502,836192
3.66315,746203
3.67127,1298785
3.67940,2633272
3.68752,3168886
3.69563,2409508
3.70377,1699322
3.71188,1330752
3.72000,1130521
3.72813,952570
3.73625,863754
3.74438,764422
3.75250,711378
3.76062,669847
3.76875,650915
3.77687,618244
3.78500,591645
3.79312,580854
3.80123,612377
3.80937,905812
3.81748,1317860
3.82560,1356843
3.83373,1085188
3.84185,864884
3.84998,734107
3.85810,642935
3.86622,581891
3.87435,534684
3.88247,499369
3.89060,477193
3.89872,454735
3.90683,438963
3.91497,451952
3.92308,506568
3.93122,581391
3.93933,587586
3.94745,540822
3.95558,624622
3.96370,849664
3.97182,965174
3.97995,824331
3.98807,652776
3.99620,633200
4.00432,962944
4.01243,1548073
4.02057,1792006
4.02868,1428865
4.03682,981536
4.04493,723647
4.05305,583034
4.06118,499002
4.06930,447519
4.07743,400225
4.08555,382235
4.09367,350493
4.10180,335167
4.10992,325297
4.11803,316436
4.12617,318224
4.13428,459019
4.14242,755074
4.15053,1011658
4.15865,936028
4.16678,665867
4.17490,488805
4.18303,402777
4.19115,353637
4.19927,399717
4.20740,1094128
4.21552,4356584
4.22363,1.044971E+07
4.23177,1.575603E+07
4.23988,1.707895E+07
4.24802,1.329346E+07
4.25613,8033239
4.26425,5208817
4.27238,3721375
4.28050,2774148
4.28863,2171707
4.29675,1753979
4.30487,1433156
4.31300,1216139
4.32112,1082568
4.32925,962658
4.33737,880256
4.34548,821089
4.35362,775790
4.36173,732471
4.36985,696130
4.37798,648007
4.38610,599330
4.39423,554555
4.40235,528873
4.41047,514319
4.41860,481735
4.42672,479556
4.43485,458075
4.44297,451170
4.45108,430644
4.45922,435332
4.46733,416805
4.47545,404333
4.48358,390913
4.49170,391734
4.49983,358257
4.50795,365178
4.51607,344528
4.52420,339366
4.53232,334471
4.54045,329999
4.54857,334003
4.55668,328911
4.56482,317957
4.57293,308147
4.58107,298237
4.58918,298785
4.59730,296279
4.60543,279782
4.61355,296849
4.62167,313549
4.62980,372950
4.63792,454456
4.64605,496090
4.65417,468788
4.66228,386699
4.67042,354276
4.67853,324715
4.68667,309739
4.69478,305513
4.70290,283117
4.71103,272532
4.71915,263461
4.72728,278709
4.73540,255700
4.74352,256596
4.75165,249649
4.75977,247300
4.76788,239712
4.77602,242967
4.78413,254642
4.79227,331969
4.80038,468297
4.80850,576415
4.81663,546264
4.82475,475882
4.83288,418976
4.84100,385977
4.84912,367974
4.85725,341396
4.86537,319075
4.87348,300586
4.88162,283317
4.88973,273956
4.89787,269426
4.90598,285817
4.91410,389014
4.92223,727154
4.93035,1368613
4.93848,2067072
4.94660,2344911
4.95472,2017538
4.96285,1468713
4.97097,1050210
4.97910,793651
4.98722,634888
4.99533,548572
5.00347,508024
5.01158,487453
5.01970,515722
5.02783,660085
5.03595,884459
5.04408,1003215
5.05220,947243
5.06032,812570
5.06845,709736
5.07657,634524
5.08470,588038
5.09282,557675
5.10093,548195
5.10907,546554
5.11718,556491
5.12532,537460
5.13343,514432
5.14155,470236
5.14968,445167
5.15780,442406
5.16592,461346
5.17405,474891
5.18217,503959
5.19030,506677
5.19842,483105
5.20653,470719
5.21467,432747
5.22278,415591
5.23092,402253
5.23903,402701
5.24715,394700
5.25528,363761
5.26340,338804
5.27152,326893
5.27965,305458
5.28777,297428
5.29590,300810
5.30402,291999
5.31213,287029
5.32027,278191
5.32838,284516
5.33652,292679
5.34463,292865
5.35275,284235
5.36088,277483
5.36900,273968
5.37713,263812
5.38525,260872
5.39337,266037
5.40150,264624
5.40962,262638
5.41773,257462
5.42587,250876
5.43398,247928
5.44212,255690
5.45023,252580
5.45835,240866
5.46648,239752
5.47460,227333
5.48273,234061
5.49085,225513
5.49897,228132
5.50710,227006
5.51522,228161
5.52333,222769
5.53147,227202
5.53958,227381
5.54772,223371
5.55583,229204
5.56395,224485
5.57208,233864
5.58020,229151
5.58833,230157
5.59645,223562
5.60457,223614
5.61270,227337
5.62082,213232
5.62895,221370
5.63707,219733
5.64518,222139
5.65332,217658
5.66143,211394
5.66955,226732
5.67768,245478
5.68580,266568
5.69393,278788
5.70205,263249
5.71017,256129
5.71830,255096
5.72642,263820
5.73455,260674
5.74267,249961
5.75078,252600
5.75892,257362
5.76703,257238
5.77517,261275
5.78328,247554
5.79140,241659
5.79953,256083
5.80765,326718
5.81577,492649
5.82390,748494
5.83202,933040
5.84015,947830
5.84827,795492
5.85638,590059
5.86452,453106
5.87263,366013
5.88077,323426
5.88888,293662
5.89700,282243
5.90513,285927
5.91325,327708
5.92138,403782
5.92950,480849
5.93762,513029
5.94575,465730
5.95387,403794
5.96198,360974
5.97012,343641
5.97823,356194
5.98637,358187
5.99448,334204
6.00260,297767
6.01073,261863
6.01885,247329
6.02698,222668
6.03510,203782
6.04322,201463
6.05135,186005
6.05947,176566
6.06758,175020
6.07572,170966
6.08383,163293
6.09197,161203
6.10008,166872
6.10820,167878
6.11633,183401
6.12445,206752
6.13258,274365
6.14070,329143
6.14882,344906
6.15695,316393
6.16507,279206
6.17320,249488
6.18132,236839
6.18943,228982
6.19757,236811
6.20568,230275
6.21380,218270
6.22193,207672
6.23005,205153
6.23818,198036
6.24630,194019
6.25442,191622
6.26255,189952
6.27067,195490
6.27880,196030
6.28692,187462
6.29503,190589
6.30317,208039
6.31128,215141
6.31940,243564
6.32753,285759
6.33565,335642
6.34378,348708
6.35190,310428
6.36002,271857
6.36815,252750
6.37627,237613
6.38440,232627
6.39252,225224
6.40063,212789
6.40877,228232
6.41688,210543
6.42502,217420
6.43313,218160
6.44125,222064
6.44938,217351
6.45750,221527
6.46562,228076
6.47375,220108
6.48187,225662
6.49000,222614
6.49812,237447
6.50623,232704
6.51437,237253
6.52248,237973
6.53062,240051
6.53873,236477
6.54685,244582
6.55498,236294
6.56310,240317
6.57123,245038
6.57935,251670
6.58747,245667
6.59560,249567
6.60372,249390
6.61183,254136
6.61997,247559
6.62808,251759
6.63622,249967
6.64433,274146
6.65245,325615
6.66058,390769
6.66870,448965
6.67683,457319
6.68495,440500
6.69307,441400
6.70120,396099
6.70932,356534
6.71743,329521
6.72557,309785
6.73368,307745
6.74182,296734
6.74993,290067
6.75805,290850
6.76618,312521
6.77430,358342
6.78243,498911
6.79055,689257
6.79867,850317
6.80680,837644
6.81492,693109
6.82305,502201
6.83117,347481
6.83928,273098
6.84742,223945
6.85553,188236
6.86365,166530
6.87178,160589
6.87990,146001
6.88803,136815
6.89615,132196
6.90427,135469
6.91240,160122
6.92052,192902
6.92865,259072
6.93677,314312
6.94488,339517
6.95302,314052
6.96113,259836
6.96927,222506
6.97738,186581
6.98550,162348
6.99363,143019
7.00175,136492
7.00987,127452
7.01800,118877
7.02612,116609
7.03425,119007
7.04237,114269
7.05048,111543
7.05862,111506
7.06673,102598
7.07487,94653
7.08298,94107
7.09110,94245
7.09923,94820
7.10735,92248
7.11547,94575
7.12360,95853
7.13172,97522
7.13985,111423
7.14797,127939
7.15608,156696
7.16422,166166
7.17233,167607
7.18047,167598
7.18858,165375
7.19670,153792
7.20483,167037
7.21295,269250
7.22108,565254
7.22920,1048005
7.23732,1466523
7.24545,1488598
7.25357,1130914
7.26168,718153
7.26982,450502
7.27793,331737
7.28607,293755
7.29418,282176
7.30230,287745
7.31043,274884
7.31855,263292
7.32668,228123
7.33480,191459
7.34292,164414
7.35105,140239
7.35917,131403
7.36728,128456
7.37542,121963
7.38353,126400
7.39167,139376
7.39978,154171
7.40790,168780
7.41603,174846
7.42415,178718
7.43228,166015
7.44040,150897
7.44852,132354
7.45665,118506
7.46477,111420
7.47290,104727
7.48102,104714
7.48913,95700
7.49727,97537
7.50538,97332
7.51350,105480
7.52163,104611
7.52975,114884
7.53788,122393
7.54600,133785
7.55412,121127
7.56225,112600
7.57037,109577
7.57850,97284
7.58662,95594
7.59473,91717
7.60287,92714
7.61098,87908
7.61912,96533
7.62723,88751
7.63535,86604
7.64348,92347
7.65160,81694
7.65972,91408
7.66785,83476
7.67597,81047
7.68410,83509
7.69222,81642
7.70033,81996
7.70847,83315
7.71658,78843
7.72472,84198
7.73283,87260
7.74095,85121
7.74908,81962
7.75720,76770
7.76532,84549
7.77345,82534
7.78157,79359
7.78970,80227
7.79782,82093
7.80593,81175
7.81407,77957
7.82218,79935
7.83032,77501
7.83843,74990
7.84655,70853
7.85468,72630
7.86280,69947
7.87093,76457
7.87905,72263
7.88717,75705
7.89530,72939
7.90342,70780
7.91153,75353
7.91967,88276
7.92778,93279
7.93592,96947
7.94403,103857
7.95215,96051
7.96028,88869
7.96840,83710
7.97653,75868
7.98465,72771
7.99277,69843
8.00090,68681
8.00902,68872
8.01715,60825
8.02527,64226
8.03338,65628
8.04152,68087
8.04963,64211
8.05775,63019
8.06588,64160
8.07400,62275
8.08213,61242
8.09025,62644
8.09837,58361
8.10650,53752
8.11462,60895
8.12275,66220
8.13087,65024
8.13898,70658
8.14712,67485
8.15523,72847
8.16335,69374
8.17148,61887
8.17960,62439
8.18773,63023
8.19585,63079
8.20397,58389
8.21210,59176
8.22022,59855
8.22835,57176
8.23647,54520
8.24458,53659
8.25272,53568
8.26083,56418
8.26897,53668
8.27708,54806
8.28520,55329
8.29333,60408
8.30145,60138
8.30957,68364
8.31770,63462
8.32582,64068
8.33395,58267
8.34207,56559
8.35018,53999
8.35832,54389
8.36643,52512
8.37457,57994
8.38268,56823
8.39080,58132
8.39893,52260
8.40705,50371
8.41518,51663
8.42330,50062
8.43142,49338
8.43955,50437
8.44767,51588
8.45578,49588
8.46392,50638
8.47203,51517
8.48017,51576
8.48828,50496
8.49640,54506
8.50453,51188
8.51265,57540
8.52078,77558
8.52890,131719
8.53702,215835
8.54515,298086
8.55327,316844
8.56138,270721
8.56952,194966
8.57763,135046
8.58577,95016
8.59388,84636
8.60200,73930
8.61013,69953
8.61825,64558
8.62638,60121
8.63450,62177
8.64262,62044
8.65075,59174
8.65887,56474
8.66700,58237
8.67512,61596
8.68323,61187
8.69137,64956
8.69948,86901
8.70760,135640
8.71573,219561
8.72385,337697
8.73198,418788
8.74010,422670
8.74822,359763
8.75635,264205
8.76447,191979
8.77260,138636
8.78072,119473
8.78883,102801
8.79697,106878
8.80508,98849
8.81320,108304
8.82133,108932
8.82945,109702
8.83758,112312
8.84570,109671
8.85382,104262
8.86195,99172
8.87007,101001
8.87820,93781
8.88632,93437
8.89443,95597
8.90257,89293
8.91068,93477
8.91882,92598
8.92693,103644
8.93505,108534
8.94318,105089
8.95130,102242
8.95942,102222
8.96755,95675
8.97567,92772
8.98380,88685
8.99192,88510
9.00003,84595
9.00817,84378
9.01628,78650
9.02442,80037
9.03253,75575
9.04065,75162
9.04878,81481
9.05690,77115
9.06503,73130
9.07315,75592
9.08127,74831
9.08940,83496
9.09752,81603
9.10563,78054
9.11377,84071
9.12188,79841
9.13002,76688
9.13813,78379
9.14625,73844
9.15438,77742
9.16250,75543
9.17063,74446
9.17875,70844
9.18687,68716
9.19500,65258
9.20312,67665
9.21123,67335
9.21937,65211
9.22748,71075
9.23562,67181
9.24373,72374
9.25185,70922
9.25998,67944
9.26810,68731
9.27623,77599
9.28435,72323
9.29247,70670
9.30060,65739
9.30872,60665
9.31685,62625
9.32497,70399
9.33308,70641
9.34122,65682
9.34933,65678
9.35745,63148
9.36558,63711
9.37370,64830
9.38183,62172
9.38995,63018
9.39807,67690
9.40620,71107
9.41432,79683
9.42245,75783
9.43057,79832
9.43868,73712
9.44682,71934
9.45493,68029
9.46307,65205
9.47118,62278
9.47930,61597
9.48743,65204
9.49555,63955
9.50367,73249
9.51180,72302
9.51992,71714
9.52805,66465
9.53617,58255
9.54428,50060
9.55242,49754
9.56053,49331
9.56867,49490
9.57678,48817
9.58490,45584
9.59303,48261
9.60115,45183
9.60927,49405
9.61740,45988
9.62552,49056
9.63365,49764
9.64177,47064
9.64988,48518
9.65802,43614
9.66613,47065
9.67427,42213
9.68238,42298
9.69050,40104
9.69863,38912
9.70675,40565
9.71488,39834
9.72300,41451
9.73112,42431
9.73925,41101
9.74737,40402
9.75548,41875
9.76362,42559
9.77173,39209
9.77987,37138
9.78798,38321
9.79610,37928
9.80423,41382
9.81235,38772
9.82048,38560
9.82860,40447
9.83672,42524
9.84485,43267
9.85297,43233
9.86108,51882
9.86922,51127
9.87733,47226
9.88547,48756
9.89358,46128
9.90170,47539
9.90983,44863
9.91795,51159
9.92608,60877
9.93420,77068
9.94232,85169
9.95045,95374
9.95857,92703
9.96670,83779
9.97482,77606
9.98293,66691
9.99107,57221
9.99918,51912
10.00730,50357
10.01543,47518
10.02355,49472
10.03168,48255
10.03980,48615
10.04792,43474
10.05605,45542
10.06417,46317
10.07230,48006
10.08042,46881
10.08853,40398
10.09667,45980
10.10478,42804
10.11292,43735
10.12103,44103
10.12915,46417
10.13728,40787
10.14540,42874
10.15352,51436
10.16165,42761
10.16977,44615
10.17790,41106
10.18602,38989
10.19413,37262
10.20227,44346
10.21038,42893
10.21852,47235
10.22663,47160
10.23475,49038
10.24288,51166
10.25100,77604
10.25913,137807
10.26725,286512
10.27537,582910
10.28350,1045452
10.29162,1674321
10.29973,2594036
10.30787,4141786
10.31598,6111721
10.32412,7526524
10.33223,7471407
10.34035,5833167
10.34848,3679605
10.35660,2078343
10.36473,1146152
10.37285,700700
10.38097,495563
10.38910,380532
10.39722,311270
10.40533,270011
10.41347,237447
10.42158,205325
10.42972,188766
10.43783,172286
10.44595,170377
10.45408,166201
10.46220,149445
10.47033,141934
10.47845,139313
10.48657,134998
10.49470,127571
10.50282,131768
10.51095,121658
10.51907,115177
10.52718,105076
10.53532,104728
10.54343,98829
10.55155,101131
10.55968,94813
10.56780,97342
10.57593,94378
10.58405,92943
10.59217,90439
10.60030,92508
10.60842,86104
10.61655,87967
10.62467,80671
10.63278,81313
10.64092,82721
10.64903,76164
10.65715,79388
10.66528,79051
10.67340,72626
10.68153,72994
10.68965,77469
10.69777,70679
10.70590,71903
10.71402,72676
10.72215,73431
10.73027,72828
10.73838,74882
10.74652,69002
10.75463,71908
10.76277,63509
10.77088,64308
10.77900,60079
10.78713,63265
10.79525,57901
10.80337,61332
10.81150,62075
10.81962,60550
10.82775,59255
10.83587,55997
10.84398,60023
10.85212,54541
10.86023,55596
10.86837,50947
10.87648,56672
10.88460,50740
10.89273,50044
10.90085,55225
10.90898,52248
10.91710,54704
10.92522,52006
10.93335,54121
10.94147,52858
10.94958,53980
10.95772,53847
10.96583,53584
10.97397,48639
10.98208,52644
10.99020,47662
10.99833,51318
11.00645,48471
11.01458,45710
11.02270,47496
11.03082,45208
11.03895,47292
11.04707,47987
11.05518,44513
11.06332,51150
11.07143,47215
11.07957,49954
11.08768,52221
11.09580,49083
11.10393,47601
11.11205,48170
11.12018,50139
11.12830,49085
11.13642,47114
11.14455,46427
11.15267,41101
11.16080,48912
11.16892,45048
11.17703,44616
11.18517,46547
11.19328,44461
11.20140,44100
11.20953,41255
11.21765,41850
11.22578,40511
11.23390,46718
11.24202,53172
11.25015,62080
11.25827,79029
11.26640,91490
11.27452,99662
11.28263,95600
11.29077,88893
11.29888,87203
11.30702,97711
11.31513,105745
11.32325,124368
11.33138,128082
11.33950,126404
11.34762,108236
11.35575,94078
11.36387,81204
11.37200,74343
11.38012,67708
11.38823,65023
11.39637,59525
11.40448,60576
11.41262,65425
11.42073,60119
11.42885,57787
11.43698,55942
11.44510,54325
11.45322,48809
11.46135,55570
11.46947,62749
11.47760,76270
11.48572,88829
11.49383,96431
11.50197,97453
11.51008,87754
11.51822,89022
11.52633,78404
11.53445,69352
11.54258,64469
11.55070,61523
11.55883,56277
11.56695,54205
11.57507,54669
11.58320,56364
11.59132,64473
11.59943,74993
11.60757,81378
11.61568,85325
11.62382,73290
11.63193,62466
11.64005,55830
11.64818,59724
11.65630,59350
11.66443,60317
11.67255,62232
11.68067,63063
11.68880,78999
11.69692,76283
11.70503,75156
11.71317,76883
11.72128,66109
11.72942,62077
11.73753,56540
11.74565,54989
11.75378,47742
11.76190,45093
11.77003,50326
11.77815,45827
11.78627,44714
11.79440,45090
11.80252,43599
11.81065,41066
11.81877,48890
11.82688,44633
11.83502,44542
11.84313,38208
11.85125,40352
11.85938,40763
11.86750,44654
11.87563,42878
11.88375,44412
11.89187,47544
11.90000,53244
11.90812,53000
11.91625,55727
11.92437,62335
11.93248,60369
11.94062,54324
11.94873,45664
11.95687,42727
11.96498,39579
11.97310,41361
11.98123,42597
11.98935,52197
11.99747,50942
12.00560,51994
12.01372,50625
12.02185,48570
12.02997,44720
12.03808,41235
12.04622,39793
12.05433,39323
12.06247,37721
12.07058,45045
12.07870,38561
12.08683,37306
12.09495,37779
12.10307,35751
12.11120,40349
12.11932,37668
12.12745,38690
12.13557,37214
12.14368,37024
12.15182,35507
12.15993,31535
12.16807,34414
12.17618,34164
12.18430,34602
12.19243,35445
12.20055,41240
12.20868,40892
12.21680,34308
12.22492,35434
12.23305,36095
12.24117,34345
12.24928,32713
12.25742,32874
12.26553,31201
12.27367,31035
12.28178,34246
12.28990,31476
12.29803,34061
12.30615,31186
12.31428,33913
12.32240,33352
12.33052,32393
12.33865,33364
12.34677,30402
12.35490,30459
12.36302,31916
12.37113,32788
12.37927,34751
12.38738,43569
12.39550,49777
12.40363,67592
12.41175,73263
12.41988,72935
12.42800,68870
12.43612,54474
12.44425,45061
12.45237,43991
12.46050,37924
12.46862,34771
12.47673,37121
12.48487,34598
12.49298,34740
12.50110,32290
12.50923,30299
12.51735,32443
12.52548,39543
12.53360,46163
12.54172,56937
12.54985,72049
12.55797,78891
12.56610,80880
12.57422,71942
12.58233,62459
12.59047,47118
12.59858,43986
12.60672,40378
12.61483,45254
12.62295,39170
12.63108,36641
12.63920,34469
12.64732,33144
12.65545,33546
12.66357,32727
12.67170,35164
12.67982,32499
12.68793,30543
12.69607,33438
12.70418,30884
12.71232,31882
12.72043,30823
12.72855,32933
12.73668,31507
12.74480,34537
12.75292,34108
12.76105,34704
12.76917,37891
12.77730,40744
12.78542,34603
12.79353,33452
12.80167,30726
12.80978,28753
12.81792,31010
12.82603,33012
12.83415,31860
12.84228,29326
12.85040,29104
12.85853,29274
12.86665,28288
12.87477,26463
12.88290,28369
12.89102,28627
12.89913,35070
12.90727,32192
12.91538,35198
12.92352,44801
12.93163,54411
12.93975,68274
12.94788,73545
12.95600,83304
12.96413,87800
12.97225,90817
12.98037,83552
12.98850,75673
12.99662,66996
13.00475,57154
13.01287,52361
13.02098,44956
13.02912,45771
13.03723,43608
13.04535,41855
13.05348,37826
13.06160,40564
13.06973,43018
13.07785,36093
13.08597,36709
13.09410,35174
13.10222,33875
13.11035,34621
13.11847,37298
13.12658,36090
13.13472,34097
13.14283,36023
13.15095,34082
13.15908,35404
13.16720,34018
13.17533,37253
13.18345,32796
13.19157,34264
13.19970,34733
13.20782,37525
13.21595,38918
13.22407,40296
13.23218,39809
13.24032,44926
13.24843,43592
13.25657,38744
13.26468,41190
13.27280,37835
13.28093,35277
13.28905,39994
13.29717,39967
13.30530,46917
13.31342,39647
13.32155,35250
13.32967,37875
13.33778,34977
13.34592,32942
13.35403,36653
13.36217,34937
13.37028,33373
13.37840,37048
13.38653,36588
13.39465,32976
13.40278,30881
13.41090,28798
13.41902,28792
13.42715,28851
13.43527,34418
13.44338,29286
13.45152,31671
13.45963,30907
13.46777,30881
13.47588,28894
13.48400,30514
13.49213,30820
13.50025,28289
13.50838,30469
13.51650,32959
13.52462,33213
13.53275,37830
13.54087,36308
13.54898,37626
13.55712,35769
13.56523,35389
13.57337,36166
13.58148,45758
13.58960,52471
13.59773,68775
13.60585,85641
13.61398,95200
13.62210,101549
13.63022,85651
13.63835,63907
13.64647,54814
13.65460,47377
13.66272,44359
13.67083,39948
13.67897,41538
13.68708,37950
13.69520,40053
13.70333,41080
13.71145,37162
13.71958,37928
13.72770,39375
13.73582,39436
13.74395,48193
13.75207,57715
13.76020,74178
13.76832,89861
13.77643,98634
13.78457,100469
13.79268,107182
13.80082,110549
13.80893,121038
13.81705,126217
13.82518,128382
13.83330,113242
13.84142,105595
13.84955,85778
13.85767,79380
13.86580,72528
13.87392,70360
13.88203,65146
13.89017,60327
13.89828,57761
13.90642,54757
13.91453,48510
13.92265,44249
13.93078,49006
13.93890,44303
13.94702,47334
13.95515,48746
13.96327,46166
13.97140,46832
13.97952,48243
13.98763,40978
13.99577,44700
14.00388,41641
14.01202,38563
14.02013,42249
14.02825,37646
14.03638,41845
14.04450,39009
14.05263,36710
14.06075,35749
14.06887,36984
14.07700,34536
14.08512,36458
14.09323,37212
14.10137,38046
14.10948,51752
14.11762,72709
14.12573,102174
14.13385,134700
14.14198,136130
14.15010,137449
14.15823,121038
14.16635,107851
14.17447,90357
14.18260,85697
14.19072,79654
14.19883,71976
14.20697,68791
14.21508,71714
14.22322,67355
14.23133,68043
14.23945,63865
14.24758,66329
14.25570,59235
14.26383,60596
14.27195,53142
14.28007,54630
14.28820,46412
14.29632,40880
14.30445,38642
14.31257,34748
14.32068,36467
14.32882,37185
14.33693,45467
14.34505,40929
14.35318,39219
14.36130,40186
14.36943,40816
14.37755,46482
14.38567,58097
14.39380,79606
14.40192,111431
14.41005,127233
14.41817,138626
14.42628,123278
14.43442,98283
14.44253,81355
14.45067,60461
14.45878,52408
14.46690,50327
14.47503,48729
14.48315,45969
14.49127,44876
14.49940,38787
14.50752,42184
14.51565,38680
14.52377,40901
14.53188,39922
14.54002,40298
14.54813,38493
14.55627,37828
14.56438,32607
14.57250,35347
14.58063,34643
14.58875,34245
14.59687,33974
14.60500,33845
14.61312,33156
14.62125,31710
14.62937,30055
14.63748,30079
14.64562,31007
14.65373,29893
14.66187,28606
14.66998,31332
14.67810,27717
14.68623,29985
14.69435,39120
14.70248,29606
14.71060,31380
14.71872,32623
14.72685,28614
14.73497,29169
14.74308,31190
14.75122,29945
14.75933,30038
14.76747,33685
14.77558,46965
14.78370,79485
14.79183,169254
14.79995,320229
14.80808,570317
14.81620,811663
14.82432,943091
14.83245,887235
14.84057,683937
14.84870,482404
14.85682,342843
14.86493,253833
14.87307,206253
14.88118,171258
14.88930,150741
14.89743,127795
14.90555,115867
14.91368,109050
14.92180,100657
14.92992,96169
14.93805,92546
14.94617,84935
14.95430,82640
14.96242,77227
14.97053,75585
14.97867,71747
14.98678,71587
14.99490,64394
15.00303,65520
15.01115,61960
15.01928,58672
15.02740,57279
15.03552,57704
15.04365,54206
15.05177,54759
15.05990,55880
15.06802,53014
15.07613,48449
15.08427,50414
15.09238,49667
15.10052,49272
15.10863,50249
15.11675,52255
15.12488,51377
15.13300,51305
15.14112,52521
15.14925,49130
15.15737,45917
15.16550,43700
15.17362,42018
15.18173,45598
15.18987,36935
15.19798,39830
15.20612,39300
15.21423,41822
15.22235,40912
15.23048,39783
15.23860,37901
15.24673,37418
15.25485,36568
15.26297,37044
15.27110,35537
15.27922,33974
15.28733,31339
15.29547,34803
15.30358,32068
15.31172,34898
15.31983,35107
15.32795,33444
15.33608,31668
15.34420,32088
15.35233,30308
15.36045,31935
15.36857,33708
15.37670,31984
15.38482,33121
15.39293,37542
15.40107,29732
15.40918,29846
15.41732,29546
15.42543,30826
15.43355,29757
15.44168,30545
15.44980,34278
15.45793,36222
15.46605,42171
15.47417,44299
15.48230,54354
15.49042,55480
15.49855,54420
15.50667,53154
15.51478,56534
15.52292,55054
15.53103,57989
15.53915,53493
15.54728,51321
15.55540,46425
15.56353,41323
15.57165,35922
15.57977,39119
15.58790,35582
15.59602,36043
15.60415,35280
15.61227,35168
15.62038,34394
15.62852,36840
15.63663,32711
15.64477,32270
15.65288,33616
15.66100,31776
15.66913,31162
15.67725,29249
15.68537,30648
15.69350,29756
15.70162,29609
15.70975,31211
15.71787,29239
15.72598,29067
15.73412,34664
15.74223,44712
15.75037,53412
15.75848,73613
15.76660,93711
15.77473,108839
15.78285,103376
15.79097,99942
15.79910,74093
15.80722,64943
15.81535,53785
15.82347,47607
15.83158,45804
15.83972,43546
15.84783,39747
15.85597,41967
15.86408,48426
15.87220,45624
15.88033,46842
15.88845,42863
15.89658,44418
15.90470,40199
15.91282,37491
15.92095,36899
15.92907,38535
15.93718,36170
15.94532,32773
15.95343,35283
15.96157,35146
15.96968,36711
15.97780,37155
15.98593,39539
15.99405,39584
16.00218,41236
16.01030,38982
16.01842,37071
16.02655,36904
16.03467,34922
16.04278,38205
16.05092,33921
16.05903,31971
16.06717,33858
16.07528,30978
16.08340,32224
16.09153,31282
16.09965,32684
16.10778,30983
16.11590,33210
16.12402,31671
16.13215,31991
16.14027,33739
16.14840,31720
16.15652,30753
16.16463,30655
16.17277,26350
16.18088,30120
16.18900,28621
16.19713,32013
16.20525,33405
16.21338,27823
16.22150,28848
16.22962,31965
16.23775,28545
16.24587,27584
16.25400,31339
16.26212,31730
16.27023,33783
16.27837,30828
16.28648,30917
16.29462,31145
16.30273,29852
16.31085,32520
16.31898,30128
16.32710,26179
16.33522,26787
16.34335,32128
16.35147,31007
16.35960,34871
16.36772,34571
16.37583,31529
16.38397,36003
16.39208,33281
16.40022,28873
16.40833,29852
16.41645,30176
16.42458,32065
16.43270,35435
16.44082,53775
16.44895,64283
16.45707,87847
16.46520,103618
16.47332,113686
16.48143,104814
16.48957,90080
16.49768,69486
16.50582,59000
16.51393,49832
16.52205,46413
16.53018,42485
16.53830,41624
16.54643,40014
16.55455,37727
16.56267,38054
16.57080,42392
16.57892,39920
16.58703,37429
16.59517,36558
16.60328,35999
16.61142,33970
16.61953,34301
16.62765,31603
16.63578,34152
16.64390,34355
16.65203,32789
16.66015,31893
16.66827,29977
16.67640,30516
16.68452,37801
16.69265,30815
16.70077,26929
16.70888,31554
16.71702,30157
16.72513,31089
16.73325,32283
16.74138,33036
16.74950,33699
16.75763,33565
16.76575,31640
16.77387,29774
16.78200,29157
16.79012,30615
16.79825,30321
16.80637,29288
16.81448,28236
16.82262,27880
16.83073,30899
16.83885,27851
16.84698,30783
16.85510,25431
16.86323,27308
16.87135,27806
16.87947,27779
16.88760,27026
16.89572,28516
16.90385,26033
16.91197,27324
16.92008,26189
16.92822,26937
16.93633,25717
16.94447,27406
16.95258,29812
16.96070,26554
16.96883,28281
16.97695,29613
16.98507,29799
16.99320,29680
17.00132,28712
17.00945,29591
17.01757,29558
17.02568,30208
17.03382,30145
17.04193,30800
17.05007,30160
17.05818,30674
17.06630,28567
17.07443,33058
17.08255,33985
17.09067,40063
17.09880,36442
17.10692,33527
17.11505,35885
17.12317,42561
17.13128,32069
17.13942,33714
17.14753,30083
17.15567,31391
17.16378,31103
17.17190,31256
17.18003,29261
17.18815,32795
17.19628,30622
17.20440,25009
17.21252,28950
17.22065,25822
17.22877,27105
17.23688,30283
17.24502,27733
17.25313,27959
17.26127,30980
17.26938,28593
17.27750,26280
17.28563,26045
17.29375,28892
17.30188,26320
17.31000,29194
17.31812,31242
17.32625,31883
17.33437,31575
17.34250,29763
17.35062,34093
17.35873,31414
17.36687,33145
17.37498,34334
17.38310,32476
17.39123,34964
17.39935,32055
17.40748,32054
17.41560,30645
17.42372,31768
17.43185,32021
17.43997,32905
17.44810,31632
17.45622,30695
17.46433,28993
17.47247,30961
17.48058,28133
17.48870,29276
17.49683,34829
17.50495,32238
17.51308,39900
17.52120,46895
17.52932,44282
17.53745,45693
17.54557,47631
17.55370,53236
17.56182,67773
17.56993,93816
17.57807,116595
17.58618,136159
17.59432,134227
17.60243,131797
17.61055,116825
17.61868,93530
17.62680,78863
17.63492,63847
17.64305,60729
17.65117,55351
17.65930,57164
17.66742,53161
17.67553,49489
17.68367,45453
17.69178,46271
17.69992,45900
17.70803,43485
17.71615,41537
17.72428,44619
17.73240,40965
17.74053,37610
17.74865,42110
17.75677,35519
17.76490,36509
17.77302,38474
17.78113,36227
17.78927,38607
17.79738,38190
17.80552,35158
17.81363,41351
17.82175,37965
17.82988,40014
17.83800,43690
17.84613,41815
17.85425,44791
17.86237,45745
17.87050,41797
17.87862,36540
17.88673,33361
17.89487,30821
17.90298,31150
17.91112,32982
17.91923,32675
17.92735,32342
17.93548,34125
17.94360,33044
17.95173,31403
17.95985,28928
17.96797,30127
17.97610,32926
17.98422,32620
17.99235,36019
18.00047,37459
18.00858,40121
18.01672,45089
18.02483,44393
18.03295,44829
18.04108,48406
18.04920,56898
18.05733,76737
18.06545,118023
18.07357,171392
18.08170,231048
18.08982,252023
18.09795,235620
18.10607,222282
18.11418,217583
18.12232,231336
18.13043,254341
18.13857,278696
18.14668,296305
18.15480,300372
18.16293,307077
18.17105,313832
18.17917,316056
18.18730,322722
18.19542,321388
18.20355,315444
18.21167,322869
18.21978,319850
18.22792,312594
18.23603,312859
18.24417,306857
18.25228,297337
18.26040,294790
18.26853,297742
18.27665,285250
18.28477,271504
18.29290,271930
18.30102,264862
18.30915,265404
18.31727,261868
18.32538,262372
18.33352,250997
18.34163,252606
18.34977,239994
18.35788,245773
18.36600,229499
18.37413,227510
18.38225,231747
18.39038,221787
18.39850,227034
18.40662,214045
18.41475,215414
18.42287,216477
18.43098,216436
18.43912,215586
18.44723,237111
18.45537,246508
18.46348,246585
18.47160,249959
18.47973,236590
18.48785,224076
18.49598,210447
18.50410,200580
18.51222,190422
18.52035,184698
18.52847,174938
18.53658,176539
18.54472,170065
18.55283,162378
18.56097,163355
18.56908,160693
18.57720,160003
18.58533,159699
18.59345,160764
18.60158,148188
18.60970,146400
18.61782,148706
18.62595,142608
18.63407,144240
18.64220,138918
18.65032,133596
18.65843,133786
18.66657,128648
18.67468,125732
18.68280,130466
18.69093,121624
18.69905,124073
18.70718,115948
18.71530,105685
18.72342,114345
18.73155,111804
18.73967,109421
18.74780,114459
18.75592,105987
18.76403,107296
18.77217,102753
18.78028,102373
18.78842,100636
18.79653,102081
18.80465,94421
18.81278,96388
18.82090,96469
18.82902,94274
18.83715,92252
18.84527,90621
18.85340,90773
18.86152,87011
18.86963,88234
18.87777,89538
18.88588,87361
18.89402,85579
18.90213,84085
18.91025,82684
18.91838,87005
18.92650,85091
18.93462,89178
18.94275,82011
18.95087,79709
18.95900,81138
18.96712,82159
18.97523,79554
18.98337,73136
18.99148,76467
18.99962,71984
19.00773,73597
19.01585,76039
19.02398,70173
19.03210,67197
19.04023,68976
19.04835,71222
19.05647,68683
19.06460,85424
19.07272,86055
19.08083,84003
19.08897,93979
19.09708,100095
19.10522,97773
19.11333,95818
19.12145,88318
19.12958,85538
19.13770,83900
19.14583,80673
19.15395,76510
19.16207,75365
19.17020,73820
19.17832,70614
19.18645,68003
19.19457,64238
19.20268,64284
19.21082,65423
19.21893,59269
19.22705,61141
19.23518,59254
19.24330,57972
19.25143,56254
19.25955,54613
19.26767,58494
19.27580,57062
19.28392,60150
19.29205,55593
19.30017,63265
19.30828,60798
19.31642,54898
19.32453,55681
19.33265,57169
19.34078,54754
19.34890,60117
19.35703,62161
19.36515,64812
19.37327,64692
19.38140,64931
19.38952,63543
19.39765,61396
19.40577,73162
19.41388,84942
19.42202,104208
19.43013,122538
19.43827,133857
19.44638,134424
19.45450,110894
19.46263,89330
19.47075,75716
19.47887,65096
19.48700,58361
19.49512,54364
19.50325,55880
19.51137,55701
19.51948,54771
19.52762,60570
19.53573,50774
19.54387,54699
19.55198,54290
19.56010,49148
19.56823,51145
19.57635,44609
19.58447,44819
19.59260,48959
19.60072,53667
19.60885,63185
19.61697,79740
19.62508,111478
19.63322,146252
19.64133,171518
19.64947,186896
19.65758,191465
19.66570,178680
19.67383,154105
19.68195,130043
19.69008,114876
19.69820,103896
19.70632,91807
19.71445,84024
19.72257,74618
19.73068,63422
19.73882,63480
19.74693,60384
19.75507,62799
19.76318,54147
19.77130,59606
19.77943,62943
19.78755,58107
19.79568,59880
19.80380,57417
19.81192,53303
19.82005,50171
19.82817,53835
19.83630,54518
19.84442,59781
19.85253,77784
19.86067,109441
19.86878,163845
19.87690,230578
19.88503,277795
19.89315,301055
19.90128,294102
19.90940,249455
19.91752,197047
19.92565,159712
19.93377,138338
19.94190,127146
19.95002,114777
19.95813,100880
19.96627,96515
19.97438,95857
19.98250,92539
19.99063,92551
19.99875,88364
20.00688,82676
20.01500,82130
20.02312,77670
20.03125,72714
20.03937,69761
20.04750,62368
20.05562,66168
20.06373,64146
20.07187,61363
20.07998,67299
20.08812,63490
20.09623,60128
20.10435,52776
20.11248,52045
20.12060,51617
20.12872,49342
20.13685,52068
20.14497,51995
20.15310,54748
20.16122,63323
20.16933,58774
20.17747,57806
20.18558,60314
20.19372,58361
20.20183,56979
20.20995,64842
20.21808,80843
20.22620,93168
20.23433,110614
20.24245,125442
20.25057,132568
20.25870,125436
20.26682,114804
20.27493,93685
20.28307,82304
20.29118,71546
20.29932,62715
20.30743,53931
20.31555,54739
20.32368,51420
20.33180,48119
20.33993,48100
20.34805,44930
20.35617,44332
20.36430,47107
20.37242,47583
20.38053,45270
20.38867,56202
20.39678,62684
20.40492,62537
20.41303,62584
20.42115,62333
20.42928,54991
20.43740,53750
20.44553,52217
20.45365,49483
20.46177,48357
20.46990,43469
20.47802,44105
20.48615,42377
20.49427,41940
20.50238,41100
20.51052,40794
20.51863,41349
20.52675,41577
20.53488,37726
20.54300,41587
20.55113,38059
20.55925,36659
20.56737,42330
20.57550,39959
20.58362,41426
20.59175,39638
20.59987,39211
20.60798,36964
20.61612,35753
20.62423,35604
20.63235,36466
20.64048,35903
20.64860,37259
20.65673,39167
20.66485,35430
20.67297,36242
20.68110,37915
20.68922,37332
20.69735,33967
20.70547,37732
20.71358,37593
20.72172,35909
20.72983,36247
20.73797,39805
20.74608,34945
20.75420,36420
20.76233,39266
20.77045,46528
20.77857,56965
20.78670,72016
20.79482,85908
20.80295,91711
20.81107,93017
20.81918,82767
20.82732,73197
20.83543,62898
20.84357,53259
20.85168,48579
20.85980,47495
20.86793,46472
20.87605,44151
20.88418,38290
20.89230,37292
20.90042,41162
20.90855,36989
20.91667,38908
20.92478,37911
20.93292,37820
20.94103,38122
20.94917,37507
20.95728,36069
20.96540,34299
20.97353,39681
20.98165,36527
20.98978,33805
20.99790,34664
21.00602,40737
21.01415,34421
21.02227,35313
21.03040,34857
21.03852,35367
21.04663,33980
21.05477,34947
21.06288,36578
21.07100,34993
21.07913,33131
21.08725,35827
21.09538,33277
21.10350,38054
21.11162,37882
21.11975,40962
21.12787,45938
21.13600,51369
21.14412,57513
21.15223,63024
21.16037,52287
21.16848,48992
21.17660,44953
21.18473,48062
21.19285,40066
21.20098,40398
21.20910,36665
21.21722,41663
21.22535,37771
21.23347,36833
21.24160,37113
21.24972,39520
21.25783,37122
21.26597,37797
21.27408,38197
21.28222,40507
21.29033,44783
21.29845,42692
21.30658,40395
21.31470,42585
21.32282,43391
21.33095,46036
21.33907,44971
21.34720,48343
21.35532,45983
21.36343,45942
21.37157,46312
21.37968,50189
21.38782,48134
21.39593,57683
21.40405,54567
21.41218,58081
21.42030,52872
21.42842,49924
21.43655,47166
21.44467,48012
21.45280,47854
21.46092,50504
21.46903,48126
21.47717,45648
21.48528,46565
21.49342,48366
21.50153,46050
21.50965,47526
21.51778,46906
21.52590,44678
21.53403,43052
21.54215,46395
21.55027,52009
21.55840,63351
21.56652,63379
21.57463,74827
21.58277,77514
21.59088,79585
21.59902,77319
21.60713,74784
21.61525,65763
21.62338,62850
21.63150,58572
21.63963,55487
21.64775,54408
21.65587,51999
21.66400,55468
21.67212,50742
21.68025,50980
21.68837,47412
21.69648,44461
21.70462,47419
21.71273,46364
21.72085,39877
21.72898,41141
21.73710,40349
21.74523,42374
21.75335,50667
21.76147,53744
21.76960,52110
21.77772,61178
21.78585,58522
21.79397,58660
21.80208,55613
21.81022,49959
21.81833,45495
21.82645,41644
21.83458,42002
21.84270,44306
21.85083,39675
21.85895,42179
21.86707,41575
21.87520,39303
21.88332,38265
21.89145,35571
21.89957,36882
21.90768,31944
21.91582,36508
21.92393,33005
21.93207,34625
21.94018,36353
21.94830,34065
21.95643,31201
21.96455,36494
21.97267,43674
21.98080,59099
21.98892,76035
21.99705,88203
22.00517,98218
22.01328,98290
22.02142,98799
22.02953,108442
22.03767,107229
22.04578,115533
22.05390,106881
22.06203,108718
22.07015,108503
22.07828,110532
22.08640,110313
22.09452,107441
22.10265,106882
22.11077,105090
22.11888,105746
22.12702,103178
22.13513,103478
22.14327,104229
22.15138,107292
22.15950,106051
22.16763,108586
22.17575,101936
22.18388,96623
22.19200,96386
22.20012,92983
22.20825,93653
22.21637,90299
22.22448,88827
22.23262,87882
22.24073,86585
22.24887,81318
22.25698,86737
22.26510,83781
22.27323,83947
22.28135,80546
22.28948,84039
22.29760,87333
22.30572,78267
22.31385,75614
22.32197,73460
22.33010,73094
22.33822,71967
22.34633,70111
22.35447,68897
22.36258,70280
22.37070,68113
22.37883,74079
22.38695,73920
22.39508,76549
22.40320,77829
22.41132,84184
22.41945,80069
22.42757,78579
22.43570,66899
22.44382,63121
22.45193,59250
22.46007,64808
22.46818,65528
22.47630,66255
22.48443,65488
22.49255,64194
22.50068,60947
22.50880,58217
22.51692,57646
22.52505,56598
22.53317,52570
22.54130,51231
22.54942,50501
22.55753,53945
22.56567,49373
22.57378,50856
22.58192,47749
22.59003,45840
22.59815,43979
22.60628,50643
22.61440,42324
22.62252,43875
22.63065,41622
22.63877,42950
22.64690,43242
22.65502,41152
22.66313,43682
22.67127,43947
22.67938,49872
22.68752,50297
22.69563,53320
22.70375,56525
22.71188,55302
22.72000,51805
22.72813,49332
22.73625,46870
22.74437,48169
22.75250,45387
22.76062,43243
22.76873,47384
22.77687,48730
22.78498,55650
22.79312,52399
22.80123,52769
22.80935,50836
22.81748,49032
22.82560,46342
22.83373,47612
22.84185,43308
22.84997,48673
22.85810,52627
22.86622,54244
22.87433,59219
22.88247,60771
22.89058,77683
22.89872,94188
22.90683,132875
22.91495,146623
22.92308,160435
22.93120,169781
22.93933,148680
22.94745,136972
22.95557,122308
22.96370,106466
22.97182,96429
22.97995,87129
22.98807,84995
22.99618,79145
23.00432,72121
23.01243,64296
23.02055,57712
23.02868,48374
23.03680,45796
23.04493,49886
23.05305,42895
23.06117,46077
23.06930,46513
23.07742,46069
23.08555,42974
23.09367,43019
23.10178,40908
23.10992,44179
23.11803,43628
23.12617,42539
23.13428,41199
23.14240,39092
23.15053,40156
23.15865,36322
23.16677,35234
23.17490,36464
23.18302,41967
23.19115,36807
23.19927,40853
23.20738,36420
23.21552,35709
23.22363,38824
23.23177,37139
23.23988,38382
23.24800,37993
23.25613,38168
23.26425,39234
23.27237,38286
23.28050,38535
23.28862,35086
23.29675,38034
23.30487,37220
23.31298,40132
23.32112,41008
23.32923,41907
23.33737,47577
23.34548,49532
23.35360,52042
23.36173,50940
23.36985,50415
23.37798,45476
23.38610,44331
23.39422,44646
23.40235,40231
23.41047,37705
23.41858,41931
23.42672,37350
23.43483,33394
23.44297,37275
23.45108,35253
23.45920,35204
23.46733,31489
23.47545,33403
23.48358,34511
23.49170,31115
23.49982,30665
23.50795,30398
23.51607,34135
23.52420,34179
23.53232,34337
23.54043,34920
23.54857,38290
23.55668,42015
23.56480,46878
23.57293,52946
23.58105,61753
23.58918,66630
23.59730,67082
23.60542,63472
23.61355,55836
23.62167,57568
23.62980,47077
23.63792,49629
23.64603,48839
23.65417,52340
23.66228,49168
23.67040,46812
23.67853,46462
23.68665,43099
23.69478,40575
23.70290,37604
23.71102,46311
23.71915,61600
23.72727,125351
23.73540,315764
23.74352,778997
23.75163,1970058
23.75977,3840435
23.76788,5737156
23.77602,6733696
23.78413,6312044
23.79225,5190629
23.80038,3967875
23.80850,2868554
23.81662,2084149
23.82475,1560511
23.83287,1238761
23.84100,962745
23.84912,806559
23.85723,686797
23.86537,612460
23.87348,552084
23.88162,504313
23.88973,476619
23.89785,432162
23.90598,411216
23.91410,379267
23.92222,352926
23.93035,344980
23.93847,320370
23.94660,317547
23.95472,296602
23.96283,283077
23.97097,270632
23.97908,262147
23.98722,258129
23.99533,258591
24.00345,270017
24.01158,275832
24.01970,284950
24.02783,277399
24.03595,273747
24.04407,251422
24.05220,228972
24.06032,216198
24.06843,204913
24.07657,189219
24.08468,182055
24.09282,171945
24.10093,165390
24.10905,173030
24.11718,176427
24.12530,171160
24.13343,182538
24.14155,177085
24.14967,178148
24.15780,168769
24.16592,158336
24.17405,152439
24.18217,148510
24.19028,142970
24.19842,130891
24.20653,127319
24.21465,116022
24.22278,121349
24.23090,113186
24.23903,115002
24.24715,112929
24.25527,109899
24.26340,108720
24.27152,107585
24.27965,111963
24.28777,112363
24.29588,120509
24.30402,136546
24.31213,152958
24.32025,152193
24.32838,148627
24.33650,138090
24.34463,118078
24.35275,102227
24.36087,91805
24.36900,96081
24.37712,84920
24.38525,83741
24.39337,84347
24.40148,88836
24.40962,91350
24.41773,96073
24.42587,98823
24.43398,99589
24.44210,96729
24.45023,92330
24.45835,93942
24.46647,92009
24.47460,89090
24.48272,86578
24.49085,90292
24.49897,81646
24.50708,84214
24.51522,84569
24.52333,85834
24.53147,85401
24.53958,87005
24.54770,80433
24.55583,79824
24.56395,77719
24.57208,71040
24.58020,70542
24.58832,70877
24.59645,67008
24.60457,65743
24.61268,66646
24.62082,63759
24.62893,60876
24.63707,69613
24.64518,61779
24.65330,60943
24.66143,62504
24.66955,61142
24.67768,59134
24.68580,61870
24.69392,56278
24.70205,57817
24.71017,57110
24.71828,52005
24.72642,54483
24.73453,52659
24.74267,53572
24.75078,54012
24.75890,58075
24.76703,57936
24.77515,57649
24.78328,56259
24.79140,56851
24.79952,56868
24.80765,55796
24.81577,62274
24.82390,65915
24.83202,72874
24.84013,82974
24.84827,90136
24.85638,107865
24.86450,128107
24.87263,137042
24.88075,142406
24.88888,134860
24.89700,113927
24.90512,102602
24.91325,82098
24.92137,72979
24.92950,62435
24.93762,61248
24.94573,59388
24.95387,56794
24.96198,54667
24.97010,66342
24.97823,79207
24.98635,95077
24.99448,111487
25.00260,128687
25.01072,138019
25.01885,141531
25.02697,145276
25.03510,140074
25.04322,147255
25.05133,141259
25.05947,142661
25.06758,141930
25.07572,146289
25.08383,160438
25.09195,188986
25.10008,243070
25.10820,358653
25.11632,498955
25.12445,648240
25.13257,775993
25.14070,775226
25.14882,685627
25.15693,575342
25.16507,424918
25.17318,314993
25.18132,254175
25.18943,210347
25.19755,185493
25.20568,170164
25.21380,160492
25.22193,179124
25.23005,204085
25.23817,237214
25.24630,286186
25.25442,327525
25.26253,341243
25.27067,321686
25.27878,274513
25.28692,234301
25.29503,191303
25.30315,164850
25.31128,147289
25.31940,137442
25.32753,126630
25.33565,120352
25.34377,116795
25.35190,106138
25.36002,104733
25.36813,103354
25.37627,97600
25.38438,95303
25.39252,96175
25.40063,94320
25.40875,97535
25.41688,89422
25.42500,85573
25.43313,84808
25.44125,79613
25.44937,78526
25.45750,76998
25.46562,74939
25.47375,74625
25.48187,71296
25.48998,70801
25.49812,79520
25.50623,72000
25.51435,69900
25.52248,72552
25.53060,69939
25.53873,65597
25.54685,67328
25.55497,63777
25.56310,65476
25.57122,60515
25.57935,58761
25.58747,59260
25.59558,60403
25.60372,62498
25.61183,58669
25.61997,61049
25.62808,63839
25.63620,60141
25.64433,58290
25.65245,58847
25.66057,60854
25.66870,57061
25.67682,55728
25.68495,51752
25.69307,54149
25.70118,55102
25.70932,50585
25.71743,51319
25.72557,56848
25.73368,52755
25.74180,51989
25.74993,51318
25.75805,54555
25.76617,52118
25.77430,49137
25.78242,49898
25.79055,52992
25.79867,49310
25.80678,50255
25.81492,52152
25.82303,53269
25.83117,50378
25.83928,53986
25.84740,52550
25.85553,51814
25.86365,49161
25.87178,50193
25.87990,47798
25.88802,48028
25.89615,47465
25.90427,48796
25.91238,46117
25.92052,44192
25.92863,48191
25.93677,47291
25.94488,49487
25.95300,48464
25.96113,50584
25.96925,48617
25.97738,43131
25.98550,49212
25.99362,47577
26.00175,42814
26.00987,46456
26.01798,39891
26.02612,43537
26.03423,43155
26.04237,45574
26.05048,46421
26.05860,46139
26.06673,47423
26.07485,46771
26.08298,46256
26.09110,44822
26.09922,47056
26.10735,44266
26.11547,55420
26.12360,49577
26.13172,55356
26.13983,53379
26.14797,51568
26.15608,50019
26.16420,53237
26.17233,50731
26.18045,46237
26.18858,42961
26.19670,47262
26.20482,42732
26.21295,49633
26.22107,44103
26.22920,40403
26.23732,41033
26.24543,43781
26.25357,44907
26.26168,41502
26.26982,40028
26.27793,41790
26.28605,38057
26.29418,39777
26.30230,39470
26.31042,40957
26.31855,38737
26.32667,42664
26.33480,41921
26.34292,44015
26.35103,41407
26.35917,43017
26.36728,41402
26.37542,49001
26.38353,43841
26.39165,44496
26.39978,43091
26.40790,43424
26.41603,40806
26.42415,43342
26.43227,40834
26.44040,41468
26.44852,38974
26.45663,37931
26.46477,39901
26.47288,40188
26.48102,38246
26.48913,38532
26.49725,38325
26.50538,37064
26.51350,37889
26.52163,39540
26.52975,39110
26.53787,36276
26.54600,40372
26.55412,37346
26.56223,40393
26.57037,41748
26.57848,39896
26.58662,37775
26.59473,36610
26.60285,38148
26.61098,39854
26.61910,41660
26.62723,37771
26.63535,40129
26.64347,41878
26.65160,44662
26.65972,44394
26.66785,41652
26.67597,43101
26.68408,41752
26.69222,42273
26.70033,43292
26.70845,43754
26.71658,44139
26.72470,43018
26.73283,43115
26.74095,40854
26.74907,41137
26.75720,39759
26.76532,39308
26.77345,42326
26.78157,43099
26.78968,43748
26.79782,43092
26.80593,42868
26.81405,41880
26.82218,41254
26.83030,40811
26.83843,39988
26.84655,38359
26.85467,38506
26.86280,37710
26.87092,40660
26.87905,40616
26.88717,40228
26.89528,40866
26.90342,43719
26.91153,40366
26.91967,45650
26.92778,49623
26.93590,65732
26.94403,102286
26.95215,173532
26.96027,278193
26.96840,443037
26.97652,660621
26.98465,829615
26.99277,964892
27.00088,974480
27.00902,955579
27.01713,824781
27.02527,659456
27.03338,515005
27.04150,396894
27.04963,302682
27.05775,247664
27.06588,214963
27.07400,182869
27.08212,162470
27.09025,143629
27.09837,128576
27.10648,129070
27.11462,110354
27.12273,107689
27.13087,100961
27.13898,100128
27.14710,99745
27.15523,96138
27.16335,95359
27.17148,89153
27.17960,87402
27.18772,78445
27.19585,75993
27.20397,73322
27.21208,67492
27.22022,68007
27.22833,69843
27.23647,65916
27.24458,67583
27.25270,57466
27.26083,64095
27.26895,56971
27.27708,58807
27.28520,55802
27.29332,56070
27.30145,56483
27.30957,55654
27.31770,59045
27.32582,56380
27.33393,54004
27.34207,58961
27.35018,51944
27.35830,57595
27.36643,54726
27.37455,56545
27.38268,52156
27.39080,55723
27.39892,51634
27.40705,54987
27.41517,55310
27.42330,51005
27.43142,52183
27.43953,50953
27.44767,52008
27.45578,51447
27.46392,50810
27.47203,48164
27.48015,48696
27.48828,48994
27.49640,46174
27.50452,47465
27.51265,48601
27.52077,48460
27.52890,46987
27.53702,49577
27.54513,49987
27.55327,45266
27.56138,46852
27.56952,46807
27.57763,50148
27.58575,51902
27.59388,48630
27.60200,48365
27.61012,44551
27.61825,43679
27.62637,42119
27.63450,41945
27.64262,41023
27.65073,42673
27.65887,42938
27.66698,47354
27.67512,41959
27.68323,43399
27.69135,43483
27.69948,43276
27.70760,41234
27.71573,41513
27.72385,43959
27.73197,44554
27.74010,47413
27.74822,48765
27.75633,44894
27.76447,50005
27.77258,49947
27.78072,50610
27.78883,48436
27.79695,44145
27.80508,45897
27.81320,41789
27.82133,39791
27.82945,41777
27.83757,41192
27.84570,39637
27.85382,40407
27.86193,39600
27.87007,40738
27.87818,38725
27.88632,36761
27.89443,38627
27.90255,38066
27.91068,36171
27.91880,39264
27.92693,39114
27.93505,36117
27.94317,35493
27.95130,33586
27.95942,38310
27.96755,39870
27.97567,39201
27.98378,43569
27.99192,41760
28.00003,47453
28.00815,48755
28.01628,45091
28.02440,46910
28.03253,46912
28.04065,46890
28.04877,47183
28.05690,45320
28.06502,46216
28.07315,43251
28.08127,45770
28.08938,44615
28.09752,50048
28.10563,50273
28.11377,50526
28.12188,51634
28.13000,48469
28.13813,41271
28.14625,38352
28.15437,38940
28.16250,36624
28.17062,39451
28.17875,37187
28.18687,41271
28.19498,42143
28.20312,43799
28.21123,44210
28.21937,41712
28.22748,42236
28.23560,45516
28.24373,43845
28.25185,45958
28.25997,58763
28.26810,79903
28.27622,92265
28.28435,110169
28.29247,128529
28.30058,147174
28.30872,157228
28.31683,160791
28.32497,157883
28.33308,148533
28.34120,142895
28.34933,133357
28.35745,121933
28.36558,111971
28.37370,99265
28.38182,93277
28.38995,81425
28.39807,76959
28.40618,68583
28.41432,65441
28.42243,60652
28.43057,62713
28.43868,58303
28.44680,54381
28.45493,52471
28.46305,54567
28.47118,52043
28.47930,51852
28.48742,48698
28.49555,48983
28.50367,51604
28.51180,47461
28.51992,43952
28.52803,47741
28.53617,40825
28.54428,44192
28.55240,39738
28.56053,39979
28.56865,40415
28.57678,37271
28.58490,39297
28.59302,38112
28.60115,41328
28.60927,42779
28.61740,44810
28.62552,45537
28.63363,49372
28.64177,49760
28.64988,56139
28.65800,55660
28.66613,62953
28.67425,69040
28.68238,70757
28.69050,72645
28.69862,64756
28.70675,56254
28.71487,47745
28.72300,42872
28.73112,43147
28.73923,38911
28.74737,39483
28.75548,41428
28.76362,41011
28.77173,38967
28.77985,37820
28.78798,38964
28.79610,41546
28.80422,38546
28.81235,37612
28.82047,37973
28.82860,38834
28.83672,37784
28.84483,36198
28.85297,38316
28.86108,36670
28.86922,39905
28.87733,41550
28.88545,42619
28.89358,39315
28.90170,40274
28.90982,39868
28.91795,38420
28.92607,40516
28.93420,41790
28.94232,42969
28.95043,40043
28.95857,40864
28.96668,36944
28.97482,39564
28.98293,39509
28.99105,36824
28.99918,34216
29.00730,36437
29.01543,32882
29.02355,37172
29.03167,35369
29.03980,40900
29.04792,43438
29.05603,42138
29.06417,40897
29.07228,39607
29.08042,36149
29.08853,33480
29.09665,35953
29.10478,35104
29.11290,34248
29.12103,35474
29.12915,34322
29.13727,37513
29.14540,35717
29.15352,35656
29.16165,34887
29.16977,37213
29.17788,38451
29.18602,42309
29.19413,41427
29.20225,42976
29.21038,45920
29.21850,43153
29.22663,45189
29.23475,45583
29.24287,43017
29.25100,39560
29.25912,42538
29.26725,39784
29.27537,39439
29.28348,37721
29.29162,35895
29.29973,36966
29.30785,35789
29.31598,34242
29.32410,34585
29.33223,31411
29.34035,34855
29.34847,34693
29.35660,31622
29.36472,35866
29.37285,37207
29.38097,36703
29.38908,38739
29.39722,41943
29.40533,40134
29.41347,38928
29.42158,35217
29.42970,35951
29.43783,33473
29.44595,34005
29.45407,33357
29.46220,35052
29.47032,36388
29.47845,37451
29.48657,38092
29.49468,41355
29.50282,37052
29.51093,39710
29.51907,37022
29.52718,36624
29.53530,36371
29.54343,32943
29.55155,35383
29.55968,32355
29.56780,36061
29.57592,34281
29.58405,37133
29.59217,37201
29.60028,36649
29.60842,37503
29.61653,34596
29.62467,33161
29.63278,36237
29.64090,33259
29.64903,31419
29.65715,30661
29.66528,32229
29.67340,31099
29.68152,34163
29.68965,41811
29.69777,32146
29.70588,32396
29.71402,33865
29.72213,33211
29.73027,32117
29.73838,30335
29.74650,31575
29.75463,30348
29.76275,31441
29.77088,31370
29.77900,31339
29.78712,28432
29.79525,31005
29.80337,33825
29.81150,29145
29.81962,33543
29.82773,30796
29.83587,30988
29.84398,32676
29.85210,38607
29.86023,37211
29.86835,46142
29.87648,53222
29.88460,65084
29.89272,68372
29.90085,74726
29.90897,79355
29.91710,77108
29.92522,77480
29.93333,78466
29.94147,75977
29.94958,77546
29.95772,82771
29.96583,81746
29.97395,79236
29.98208,74752
29.99020,72145
29.99832,67196
30.00645,67516
30.01457,64188
30.02270,62068
30.03082,54545
30.03893,55811
30.04707,53641
30.05518,53277
30.06332,46394
30.07143,55484
30.07955,50260
30.08768,52590
30.09580,55121
30.10392,51562
30.11205,52869
30.12017,51794
30.12830,49054
30.13642,48911
30.14453,45428
30.15267,45844
30.16078,47953
30.16892,50131
30.17703,46644
30.18515,48862
30.19328,49464
30.20140,50414
30.20953,43692
30.21765,44336
30.22577,46268
30.23390,44179
30.24202,41862
30.25013,41641
30.25827,41158
30.26638,44011
30.27452,42266
30.28263,42664
30.29075,41664
30.29888,43588
30.30700,42301
30.31513,38940
30.32325,42773
30.33137,38957
30.33950,39576
30.34762,38792
30.35573,42732
30.36387,37135
30.37198,37732
30.38012,35902
30.38823,38334
30.39635,36729
30.40448,37523
30.41260,38192
30.42073,35358
30.42885,34291
30.43697,37216
30.44510,34824
30.45322,33455
30.46135,42232
30.46947,35777
30.47758,39457
30.48572,34504
30.49383,35439
30.50195,34235
30.51008,35854
30.51820,36372
30.52633,39327
30.53445,36715
30.54257,32719
30.55070,34038
30.55882,33658
30.56695,33910
30.57507,35553
30.58318,32800
30.59132,33023
30.59943,32823
30.60757,39056
30.61568,33853
30.62380,34411
30.63193,34316
30.64005,35995
30.64817,32792
30.65630,31748
30.66442,32220
30.67255,31441
30.68067,34259
30.68878,33892
30.69692,35258
30.70503,35118
30.71317,34917
30.72128,35823
30.72940,35374
30.73753,33766
30.74565,34198
30.75377,39465
30.76190,45952
30.77002,55977
30.77815,59631
30.78627,77993
30.79438,81164
30.80252,75724
30.81063,71203
30.81877,63546
30.82688,47361
30.83500,44538
30.84313,40468
30.85125,41588
30.85938,40243
30.86750,38107
30.87562,37192
30.88375,36551
30.89187,36659
30.89998,34773
30.90812,36824
30.91623,35887
30.92437,36526
30.93248,34953
30.94060,35452
30.94873,36516
30.95685,31776
30.96498,33169
30.97310,33931
30.98122,36416
30.98935,38490
30.99747,39204
31.00560,34427
31.01372,35389
31.02183,36284
31.02997,34833
31.03808,34143
31.04620,35830
31.05433,37754
31.06245,36543
31.07058,42966
31.07870,45648
31.08682,45713
31.09495,47361
31.10307,46077
31.11120,45674
31.11932,41255
31.12743,39867
31.13557,40523
31.14368,38382
31.15180,40122
31.15993,42329
31.16805,45271
31.17618,50202
31.18430,52579
31.19242,58439
31.20055,72553
31.20867,64523
31.21680,56721
31.22492,51365
31.23303,43000
31.24117,41927
31.24928,38295
31.25742,37221
31.26553,37213
31.27365,34802
31.28178,36811
31.28990,35457
31.29802,36541
31.30615,37477
31.31427,37937
31.32240,36866
31.33052,39350
31.33863,37253
31.34677,41342
31.35488,32779
31.36302,36378
31.37113,34975
31.37925,36949
31.38738,38997
31.39550,33014
31.40362,35797
31.41175,33593
31.41987,34808
31.42800,34060
31.43612,35248
31.44423,37895
31.45237,35269
31.46048,38669
31.46862,37636
31.47673,35024
31.48485,34016
31.49298,42535
31.50110,38714
31.50923,36881
31.51735,36907
31.52547,37111
31.53360,38719
31.54172,39676
31.54983,41835
31.55797,39247
31.56608,39259
31.57422,35794
31.58233,38391
31.59045,37471
31.59858,33200
31.60670,34783
31.61483,33695
31.62295,34397
31.63107,34741
31.63920,33108
31.64732,33776
31.65545,35348
31.66357,37949
31.67168,35333
31.67982,37136
31.68793,37893
31.69605,40681
31.70418,38052
31.71230,32870
31.72043,30565
31.72855,32196
31.73667,34666
31.74480,37153
31.75292,32408
31.76105,29453
31.76917,33366
31.77728,39182
31.78542,35443
31.79353,38223
31.80167,38057
31.80978,40054
31.81790,45718
31.82603,47397
31.83415,54281
31.84227,62816
31.85040,62726
31.85852,73040
31.86665,77007
31.87477,69366
31.88288,74826
31.89102,73669
31.89913,68846
31.90727,67015
31.91538,65699
31.92350,67782
31.93163,62656
31.93975,59070
31.94787,59173
31.95600,61462
31.96412,56798
31.97225,60837
31.98037,55272
31.98848,54707
31.99662,51472
32.00473,53259
32.01287,48918
32.02098,45732
32.02910,42235
32.03723,39594
32.04535,39868
32.05348,39633
32.06160,41317
32.06972,39648
32.07785,36568
32.08597,40181
32.09408,36049
32.10222,39234
32.11033,37862
32.11847,35577
32.12658,38152
32.13470,39310
32.14283,35225
32.15095,34659
32.15908,33477
32.16720,35119
32.17532,41101
32.18345,34297
32.19157,37200
32.19968,37152
32.20782,32618
32.21593,34099
32.22407,34995
32.23218,36149
32.24030,34040
32.24843,36818
32.25655,39159
32.26468,35142
32.27280,37257
32.28092,35878
32.28905,35606
32.29717,35428
32.30530,33474
32.31342,35247
32.32153,35627
32.32967,36996
32.33778,35308
32.34590,34165
32.35403,34385
32.36215,35373
32.37028,31646
32.37840,35753
32.38652,34404
32.39465,36526
32.40277,36936
32.41090,34714
32.41902,31621
32.42713,32147
32.43527,31883
32.44338,32022
32.45152,34798
32.45963,34412
32.46775,35393
32.47588,32528
32.48400,35006
32.49212,31296
32.50025,34057
32.50837,31183
32.51650,33222
32.52462,36441
32.53273,35670
32.54087,37051
32.54898,39287
32.55712,50196
32.56523,51057
32.57335,56929
32.58148,52954
32.58960,49818
32.59772,42562
32.60585,39689
32.61397,34412
32.62210,35463
32.63022,31037
32.63833,34226
32.64647,33852
32.65458,31608
32.66272,33583
32.67083,37478
32.67895,37934
32.68708,37281
32.69520,37237
32.70333,39778
32.71145,37411
32.71957,33426
32.72770,35203
32.73582,35769
32.74393,36035
32.75207,35166
32.76018,42531
32.76832,33564
32.77643,35813
32.78455,33634
32.79268,33030
32.80080,32023
32.80893,33164
32.81705,33104
32.82517,35118
32.83330,34048
32.84142,34592
32.84955,35018
32.85767,34461
32.86578,34870
32.87392,32617
32.88203,34610
32.89015,34172
32.89828,31283
32.90640,38227
32.91453,34235
32.92265,32968
32.93077,32140
32.93890,35208
32.94702,34035
32.95515,41223
32.96327,42287
32.97138,50355
32.97952,52517
32.98763,54577
32.99575,55353
33.00388,52686
33.01200,45989
33.02013,44817
33.02825,39154
33.03637,43258
33.04450,38807
33.05262,37116
33.06075,38787
33.06887,42341
33.07698,44110
33.08512,44737
33.09323,47662
33.10137,52438
33.10948,54136
33.11760,49612
33.12573,47074
33.13385,43377
33.14197,39623
33.15010,39270
33.15822,36168
33.16635,37667
33.17447,39017
33.18258,37767
33.19072,38807
33.19883,36247
33.20697,33413
33.21508,37740
33.22320,34995
33.23133,35071
33.23945,35957
33.24757,35111
33.25570,34537
33.26382,31852
33.27195,37349
33.28007,34606
33.28818,37010
33.29632,38538
33.30443,36774
33.31257,36633
33.32068,35020
33.32880,35263
33.33693,34947
33.34505,37106
33.35318,33775
33.36130,37744
33.36942,39160
33.37755,37606
33.38567,35644
33.39378,36072
33.40192,35961
33.41003,31569
33.41817,36035
33.42628,33824
33.43440,34188
33.44253,35502
33.45065,41002
33.45878,38051
33.46690,37397
33.47502,37080
33.48315,37928
33.49127,40239
33.49940,41935
33.50752,40249
33.51563,39373
33.52377,42651
33.53188,44522
33.54000,48118
33.54813,46653
33.55625,47989
33.56438,46384
33.57250,47994
33.58062,50172
33.58875,49193
33.59687,51184
33.60500,48929
33.61312,48719
33.62123,53592
33.62937,52388
33.63748,52829
33.64560,55484
33.65373,52038
33.66185,53643
33.66998,53181
33.67810,50773
33.68622,49940
33.69435,51203
33.70247,49144
33.71060,51814
33.71872,51617
33.72683,54245
33.73497,52382
33.74308,49288
33.75122,54219
33.75933,55493
33.76745,50269
33.77558,52047
33.78370,52076
33.79182,46375
33.79995,51452
33.80807,48474
33.81620,47468
33.82432,45698
33.83243,46176
33.84057,47247
33.84868,45660
33.85682,45192
33.86493,47005
33.87305,45049
33.88118,43255
33.88930,40710
33.89743,45651
33.90555,44104
33.91367,41096
33.92180,41551
33.92992,44543
33.93803,43873
33.94617,42419
33.95428,41007
33.96242,44043
33.97053,38973
33.97865,41534
33.98678,39842
33.99490,42425
34.00303,39180
34.01115,39989
34.01927,41268
34.02740,41349
34.03552,42084
34.04363,40514
34.05177,42325
34.05988,41766
34.06802,42029
34.07613,42574
34.08425,38549
34.09238,40727
34.10050,39429
34.10863,37228
34.11675,39830
34.12487,39745
34.13300,39626
34.14112,36530
34.14925,36114
34.15737,37163
34.16548,38259
34.17362,39403
34.18173,34925
34.18985,38794
34.19798,40549
34.20610,41638
34.21423,38525
34.22235,38920
34.23047,38090
34.23860,39180
34.24672,38763
34.25485,39108
34.26297,42873
34.27108,39814
34.27922,37446
34.28733,41485
34.29545,41865
34.30358,38626
34.31170,39466
34.31983,39777
34.32795,41341
34.33607,39343
34.34420,43676
34.35232,43989
34.36045,42757
34.36857,43312
34.37668,44588
34.38482,46562
34.39293,49574
34.40107,50378
34.40918,54056
34.41730,60099
34.42543,61405
34.43355,70182
34.44167,78154
34.44980,87540
34.45792,101142
34.46605,100245
34.47417,101728
34.48228,101807
34.49042,98374
34.49853,96085
34.50667,82860
34.51478,80956
34.52290,74240
34.53103,76167
34.53915,72008
34.54728,71120
34.55540,64645
34.56352,64632
34.57165,60896
34.57977,60561
34.58788,59021
34.59602,54630
34.60413,53072
34.61227,52599
34.62038,52240
34.62850,55951
34.63663,55342
34.64475,49054
34.65288,51280
34.66100,49523
34.66912,47633
34.67725,46483
34.68537,47177
34.69348,44542
34.70162,44794
34.70973,44110
34.71787,46005
34.72598,47115
34.73410,44406
34.74223,46640
34.75035,45113
34.75848,44968
34.76660,46202
34.77472,42864
34.78285,45958
34.79097,40237
34.79910,44407
34.80722,42220
34.81533,41115
34.82347,43555
34.83158,42790
34.83970,42346
34.84783,46639
34.85595,43647
34.86408,46403
34.87220,43718
34.88032,42900
34.88845,43616
34.89657,42188
34.90470,43780
34.91282,44014
34.92093,41693
34.92907,42756
34.93718,46717
34.94532,43290
34.95343,42359
34.96155,44928
34.96968,43739
34.97780,44769
34.98592,44085
34.99405,42913
35.00217,42896
35.01030,41904
35.01842,49170
35.02653,43966
35.03467,48371
35.04278,44939
35.05092,47395
35.05903,48466
35.06715,44037
35.07528,46365
35.08340,41070
35.09152,43600
35.09965,42573
35.10777,39763
35.11590,43185
35.12402,41281
35.13213,41626
35.14027,47047
35.14838,44191
35.15652,42478
35.16463,39876
35.17275,44356
35.18088,43763
35.18900,42701
35.19713,42243
35.20525,47631
35.21337,45055
35.22150,49680
35.22962,44443
35.23773,43680
35.24587,42979
35.25398,48117
35.26212,51976
35.27023,42050
35.27835,49169
35.28648,43395
35.29460,46313
35.30273,44618
35.31085,43916
35.31897,47272
35.32710,43619
35.33522,47094
35.34335,47210
35.35147,43940
35.35958,44425
35.36772,46953
35.37583,46879
35.38395,45015
35.39208,46123
35.40020,48988
35.40833,48481
35.41645,48579
35.42457,48182
35.43270,55154
35.44082,50500
35.44895,51569
35.45707,51483
35.46518,52454
35.47332,53788
35.48143,52661
35.48955,50071
35.49768,47766
35.50580,46963
35.51393,46033
35.52205,44490
35.53017,42248
35.53830,49932
35.54642,50073
35.55455,54812
35.56267,56382
35.57078,59272
35.57892,58327
35.58703,54932
35.59517,54892
35.60328,50272
35.61140,51367
35.61953,49329
35.62765,49792
35.63577,43903
35.64390,45788
35.65202,49356
35.66015,47118
35.66827,50289
35.67638,48503
35.68452,48326
35.69263,47501
35.70077,45919
35.70888,49116
35.71700,47937
35.72513,49570
35.73325,51189
35.74137,47442
35.74950,56417
35.75762,51621
35.76575,56530
35.77387,51843
35.78198,52695
35.79012,50328
35.79823,47145
35.80637,50056
35.81448,47443
35.82260,46774
35.83073,48141
35.83885,46244
35.84698,50231
35.85510,49358
35.86322,48913
35.87135,47226
35.87947,49368
35.88758,44582
35.89572,49364
35.90383,46053
35.91197,45858
35.92008,45988
35.92820,46305
35.93633,49528
35.94445,47607
35.95258,45861
35.96070,46821
35.96882,52048
35.97695,51364
35.98507,59704
35.99320,58402
36.00132,59818
36.00943,63314
36.01757,63104
36.02568,58255
36.03380,57487
36.04193,51665
36.05005,52766
36.05818,51935
36.06630,52646
36.07442,51072
36.08255,49970
36.09067,51800
36.09880,48145
36.10692,47748
36.11503,47129
36.12317,49777
36.13128,48418
36.13940,50010
36.14753,49176
36.15565,45434
36.16378,48551
36.17190,46816
36.18002,47798
36.18815,54998
36.19627,57528
36.20440,68404
36.21252,72159
36.22063,70602
36.22877,68746
36.23688,64928
36.24502,57305
36.25313,53081
36.26125,50130
36.26938,49449
36.27750,50369
36.28562,55922
36.29375,52161
36.30187,50798
36.31000,51494
36.31812,50005
36.32623,51775
36.33437,52736
36.34248,50435
36.35062,51428
36.35873,50450
36.36685,48776
36.37498,50911
36.38310,49408
36.39123,52721
36.39935,51541
36.40747,55040
36.41560,51582
36.42372,51947
36.43183,50724
36.43997,49029
36.44808,51528
36.45622,51300
36.46433,52247
36.47245,50114
36.48058,49000
36.48870,45940
36.49683,48571
36.50495,48814
36.51307,51399
36.52120,55118
36.52932,47308
36.53743,54214
36.54557,54663
36.55368,56140
36.56182,57196
36.56993,54042
36.57805,54760
36.58618,53475
36.59430,50510
36.60243,54981
36.61055,49587
36.61867,53353
36.62680,48438
36.63492,52093
36.64305,50602
36.65117,56840
36.65928,49042
36.66742,53196
36.67553,54094
36.68365,50251
36.69178,52317
36.69990,47336
36.70803,56329
36.71615,53340
36.72427,53890
36.73240,51318
36.74052,49257
36.74865,52325
36.75677,50019
36.76488,51655
36.77302,53251
36.78113,49889
36.78925,55339
36.79738,56571
36.80550,51458
36.81363,57784
36.82175,55098
36.82987,53827
36.83800,54333
36.84612,50493
36.85425,52476
36.86237,53542
36.87048,55929
36.87862,53207
36.88673,54068
36.89487,53846
36.90298,56845
36.91110,54766
36.91923,57049
36.92735,59005
36.93547,57276
36.94360,64386
36.95172,59201
36.95985,63344
36.96797,60663
36.97608,63135
36.98422,60901
36.99233,66514
37.00047,65959
37.00858,66523
37.01670,70764
37.02483,65690
37.03295,65807
37.04108,63024
37.04920,64406
37.05732,60491
37.06545,65538
37.07357,63944
37.08168,60236
37.08982,64800
37.09793,61524
37.10607,62974
37.11418,65754
37.12230,61048
37.13043,62844
37.13855,66416
37.14668,63617
37.15480,64822
37.16292,62972
37.17105,65608
37.17917,66548
37.18730,64500
37.19542,65494
37.20353,64693
37.21167,65399
37.21978,68011
37.22790,72825
37.23603,87795
37.24415,95867
37.25228,101351
37.26040,107814
37.26852,106558
37.27665,105960
37.28477,95789
37.29290,89376
37.30102,85629
37.30913,83324
37.31727,79216
37.32538,80285
37.33350,74994
37.34163,74310
37.34975,68126
37.35788,78313
37.36600,68563
37.37412,70573
37.38225,72380
37.39037,67927
37.39850,67923
37.40662,68150
37.41473,66040
37.42287,65510
37.43098,64885
37.43912,64115
37.44723,64286
37.45535,65475
37.46348,62167
37.47160,62476
37.47972,66528
37.48785,63341
