C:\MassHunter\GCMS\1\data\JTB-E02\BACandBLUE\JTB-E18-013-08.D Thu Jun 20 09:14:03 2019
Start of data points
2.09525,60435
2.10337,71390
2.11150,63834
2.11962,67262
2.12773,63218
2.13587,61359
2.14398,62560
2.15210,60529
2.16023,61168
2.16835,58577
2.17648,55140
2.18460,57392
2.19272,60216
2.20085,58458
2.20897,58153
2.21710,58320
2.22522,57196
2.23333,55368
2.24147,56993
2.24958,54193
2.25772,56079
2.26583,56645
2.27395,96147
2.28208,584692
2.29020,1364297
2.29832,860261
2.30645,395863
2.31457,273478
2.32270,227136
2.33082,196527
2.33893,175965
2.34707,165754
2.35518,152312
2.36332,140246
2.37143,134636
2.37955,129615
2.38768,125470
2.39580,123104
2.40393,123382
2.41205,115101
2.42017,117827
2.42830,112071
2.43642,113950
2.44453,109118
2.45267,108014
2.46078,106220
2.46892,106251
2.47703,108866
2.48515,108323
2.49328,104487
2.50140,115558
2.50953,127021
2.51765,110387
2.52577,111969
2.53390,110703
2.54202,102779
2.55013,107291
2.55827,122011
2.56638,172843
2.57452,241494
2.58263,199254
2.59075,162042
2.59888,149884
2.60700,151128
2.61513,428784
2.62325,1288568
2.63137,1231477
2.63950,689072
2.64762,430847
2.65575,328063
2.66387,264533
2.67198,222226
2.68012,195442
2.68823,186731
2.69635,172110
2.70448,153283
2.71260,146628
2.72073,142353
2.72885,132665
2.73697,136791
2.74510,123380
2.75322,121391
2.76135,120353
2.76947,115253
2.77758,109831
2.78572,133062
2.79383,287211
2.80197,430443
2.81008,316499
2.81820,226524
2.82633,218342
2.83445,204952
2.84257,176429
2.85070,155549
2.85882,143226
2.86695,135697
2.87507,137595
2.88318,134049
2.89132,128932
2.89943,125138
2.90757,123767
2.91568,124398
2.92380,113990
2.93193,109309
2.94005,108945
2.94817,107732
2.95630,104193
2.96442,109055
2.97255,124177
2.98067,133965
2.98878,126314
2.99692,120720
3.00503,117188
3.01317,116314
3.02128,115328
3.02940,113619
3.03753,106863
3.04565,104747
3.05378,101649
3.06190,99832
3.07002,102729
3.07815,106163
3.08627,185668
3.09438,1136599
3.10252,4195963
3.11063,6396194
3.11877,6889357
3.12688,6493795
3.13500,4399866
3.14313,2916852
3.15125,2154189
3.15938,1701595
3.16750,1386982
3.17562,1167622
3.18375,1021230
3.19187,959117
3.19998,1129588
3.20812,1482318
3.21623,1387385
3.22437,1071058
3.23248,875358
3.24060,770417
3.24873,667494
3.25685,610786
3.26498,542478
3.27310,494745
3.28122,467869
3.28935,440962
3.29747,547932
3.30560,1325163
3.31372,3433737
3.32183,5761186
3.32997,6016922
3.33808,4384699
3.34620,2906465
3.35433,2062527
3.36245,1617571
3.37058,1347789
3.37870,1161247
3.38682,1025564
3.39495,902662
3.40307,815296
3.41120,743788
3.41932,690923
3.42743,650096
3.43557,616740
3.44368,579733
3.45182,550443
3.45993,558290
3.46805,513098
3.47618,508496
3.48430,527289
3.49242,517237
3.50055,495696
3.50867,451154
3.51680,452166
3.52492,422559
3.53303,423490
3.54117,403457
3.54928,417064
3.55742,422006
3.56553,397455
3.57365,389888
3.58178,450566
3.58990,514212
3.59802,512821
3.60615,462017
3.61427,407972
3.62240,400526
3.63052,405159
3.63863,400577
3.64677,388605
3.65488,365415
3.66302,361249
3.67113,477417
3.67925,1488375
3.68738,4802945
3.69550,8043315
3.70363,7448496
3.71175,4970376
3.71987,3485667
3.72800,2786464
3.73612,2343185
3.74423,2046271
3.75237,1803679
3.76048,1613869
3.76862,1452656
3.77673,1343665
3.78485,1266112
3.79298,1166176
3.80110,1112050
3.80923,1087305
3.81735,1276321
3.82547,1837465
3.83360,2218437
3.84172,2021301
3.84985,1592972
3.85797,1344189
3.86608,1184366
3.87422,1083414
3.88233,991280
3.89045,928479
3.89858,885774
3.90670,829741
3.91483,791260
3.92295,774845
3.93107,802897
3.93920,894308
3.94732,935896
3.95545,1098601
3.96357,2556884
3.97168,6838014
3.97982,1.166434E+07
3.98793,1.217683E+07
3.99605,8685190
4.00418,6166389
4.01230,1.017905E+07
4.02043,2.460978E+07
4.02855,4.022502E+07
4.03667,4.285179E+07
4.04480,3.161276E+07
4.05292,1.733597E+07
4.06105,1.013956E+07
4.06917,6904949
4.07728,5257386
4.08542,4236821
4.09353,3526295
4.10167,2986808
4.10978,2613594
4.11790,2326403
4.12603,2073721
4.13415,1879959
4.14227,1734212
4.15040,1647728
4.15852,1619170
4.16665,1533425
4.17477,1453870
4.18288,1358642
4.19102,1298972
4.19913,1204585
4.20727,1151588
4.21538,1151175
4.22350,1770224
4.23163,4500338
4.23975,9828073
4.24787,1.428086E+07
4.25600,1.408249E+07
4.26412,1.02217E+07
4.27225,6491192
4.28037,4513674
4.28848,3401279
4.29662,2732080
4.30473,2297623
4.31287,2007158
4.32098,1776700
4.32910,1580073
4.33723,1454468
4.34535,1352645
4.35348,1258008
4.36160,1193643
4.36972,1167628
4.37785,1142332
4.38597,1089706
4.39408,1035039
4.40222,972671
4.41033,930715
4.41847,881607
4.42658,840447
4.43470,812627
4.44283,786475
4.45095,758189
4.45908,728418
4.46720,721933
4.47532,691304
4.48345,673887
4.49157,653474
4.49970,643177
4.50782,635944
4.51593,622977
4.52407,596754
4.53218,588286
4.54030,576532
4.54843,580481
4.55655,547694
4.56468,547089
4.57280,547053
4.58092,528215
4.58905,514501
4.59717,493963
4.60530,503143
4.61342,480484
4.62153,479104
4.62967,483867
4.63778,503958
4.64590,600007
4.65403,717198
4.66215,737768
4.67028,672396
4.67840,583872
4.68652,539123
4.69465,518036
4.70277,505195
4.71090,475822
4.71902,457608
4.72713,446864
4.73527,434228
4.74338,424372
4.75152,413048
4.75963,413629
4.76775,399961
4.77588,397375
4.78400,390215
4.79212,383616
4.80025,392352
4.80837,472346
4.81650,592842
4.82462,679265
4.83273,663329
4.84087,578085
4.84898,533351
4.85712,536035
4.86523,511861
4.87335,517795
4.88148,479540
4.88960,451725
4.89773,434379
4.90585,407371
4.91397,400271
4.92210,395113
4.93022,376494
4.93833,381284
4.94647,490896
4.95458,895467
4.96272,1896842
4.97083,3438372
4.97895,4657082
4.98708,4586352
4.99520,3614516
5.00333,2526475
5.01145,1750505
5.01957,1322250
5.02770,1058792
5.03582,913071
5.04393,859845
5.05207,847525
5.06018,852396
5.06832,826190
5.07643,727569
5.08455,666768
5.09268,635096
5.10080,601757
5.10893,569265
5.11705,540679
5.12517,524737
5.13330,505369
5.14142,485981
5.14955,482827
5.15767,464458
5.16578,476866
5.17392,516072
5.18203,540639
5.19015,546406
5.19828,516295
5.20640,489631
5.21453,490703
5.22265,500524
5.23077,498716
5.23890,479864
5.24702,475613
5.25515,461391
5.26327,444236
5.27138,417068
5.27952,388319
5.28763,376497
5.29577,361475
5.30388,360116
5.31200,348049
5.32013,350700
5.32825,357097
5.33637,357742
5.34450,362485
5.35262,385533
5.36075,394770
5.36887,378641
5.37698,347447
5.38512,341957
5.39323,338817
5.40137,337239
5.40948,343448
5.41760,340813
5.42573,340090
5.43385,329907
5.44197,317377
5.45010,335538
5.45822,325212
5.46635,324584
5.47447,321817
5.48258,321486
5.49072,307464
5.49883,296879
5.50697,291387
5.51508,287263
5.52320,289377
5.53133,288392
5.53945,290988
5.54758,288584
5.55570,283845
5.56382,289791
5.57195,311790
5.58007,347318
5.58818,382261
5.59632,394032
5.60443,363707
5.61257,327572
5.62068,309924
5.62880,300360
5.63693,300251
5.64505,310915
5.65318,327455
5.66130,325944
5.66942,324546
5.67755,313870
5.68567,300347
5.69378,317674
5.70192,331938
5.71003,348291
5.71817,332184
5.72628,321790
5.73440,300006
5.74253,288443
5.75065,279759
5.75878,263138
5.76690,252981
5.77502,256846
5.78315,257500
5.79127,258889
5.79940,251253
5.80752,252107
5.81563,242970
5.82377,240888
5.83188,249709
5.84000,242858
5.84813,244254
5.85625,237558
5.86438,243244
5.87250,235461
5.88062,239540
5.88875,227173
5.89687,229779
5.90500,228314
5.91312,205015
5.92123,195587
5.92937,179609
5.93748,182164
5.94562,173298
5.95373,182687
5.96185,190444
5.96998,218400
5.97810,227806
5.98622,263125
5.99435,304722
6.00247,332470
6.01060,335590
6.01872,303840
6.02683,278426
6.03497,246607
6.04308,225778
6.05122,216989
6.05933,199339
6.06745,186800
6.07558,183999
6.08370,174451
6.09182,174600
6.09995,172985
6.10807,165340
6.11620,173798
6.12432,171425
6.13243,173280
6.14057,201524
6.14868,260063
6.15682,334203
6.16493,400810
6.17305,384300
6.18118,335116
6.18930,277336
6.19743,260859
6.20555,235877
6.21367,221731
6.22180,215580
6.22992,213660
6.23803,208227
6.24617,208752
6.25428,204172
6.26242,211796
6.27053,208000
6.27865,212985
6.28678,222156
6.29490,213705
6.30303,206034
6.31115,203250
6.31927,210207
6.32740,203419
6.33552,218210
6.34365,231397
6.35177,255342
6.35988,259870
6.36802,259024
6.37613,242787
6.38425,226885
6.39238,227151
6.40050,215045
6.40863,222067
6.41675,219068
6.42487,222502
6.43300,216733
6.44112,206569
6.44925,203298
6.45737,204838
6.46548,203475
6.47362,207272
6.48173,197617
6.48985,202627
6.49798,209709
6.50610,204142
6.51423,205952
6.52235,218281
6.53047,208875
6.53860,213876
6.54672,213835
6.55485,208660
6.56297,218207
6.57108,210312
6.57922,234026
6.58733,247933
6.59547,264545
6.60358,280952
6.61170,259063
6.61983,245652
6.62795,227057
6.63607,217606
6.64420,223076
6.65232,219563
6.66045,235430
6.66857,279509
6.67668,373258
6.68482,492448
6.69293,541578
6.70107,472722
6.70918,373445
6.71730,288419
6.72543,240850
6.73355,214853
6.74167,200730
6.74980,190533
6.75792,183919
6.76605,188594
6.77417,171593
6.78228,170723
6.79042,163698
6.79853,157727
6.80667,151609
6.81478,147261
6.82290,143133
6.83103,148538
6.83915,141578
6.84728,136793
6.85540,141657
6.86352,150840
6.87165,170548
6.87977,208230
6.88788,219066
6.89602,210920
6.90413,168627
6.91227,147322
6.92038,120862
6.92850,114048
6.93663,105354
6.94475,99793
6.95288,95691
6.96100,94161
6.96912,90407
6.97725,95547
6.98537,114050
6.99350,131709
7.00162,138699
7.00973,133690
7.01787,117256
7.02598,103923
7.03410,101355
7.04223,99132
7.05035,91028
7.05848,93289
7.06660,90143
7.07472,89016
7.08285,94087
7.09097,97694
7.09910,96116
7.10722,93602
7.11533,88600
7.12347,89097
7.13158,84736
7.13972,85116
7.14783,92413
7.15595,122373
7.16408,162995
7.17220,248676
7.18032,300126
7.18845,311083
7.19657,290805
7.20470,338968
7.21282,619421
7.22093,1176214
7.22907,1797706
7.23718,2011615
7.24532,1661564
7.25343,1117649
7.26155,674550
7.26968,404377
7.27780,248365
7.28592,167280
7.29405,133058
7.30217,127643
7.31030,126321
7.31842,124365
7.32653,120796
7.33467,121630
7.34278,138451
7.35092,126002
7.35903,126064
7.36715,121446
7.37528,116908
7.38340,111602
7.39153,106445
7.39965,106712
7.40777,111656
7.41590,119779
7.42402,120971
7.43213,129267
7.44027,120701
7.44838,114851
7.45652,112308
7.46463,104563
7.47275,99125
7.48088,102190
7.48900,97930
7.49713,92173
7.50525,92676
7.51337,91240
7.52150,88174
7.52962,92131
7.53773,93451
7.54587,102379
7.55398,142388
7.56212,203004
7.57023,286248
7.57835,386207
7.58648,442771
7.59460,444373
7.60273,393275
7.61085,302731
7.61897,227781
7.62710,170075
7.63522,130199
7.64335,118393
7.65147,108861
7.65958,99772
7.66772,96496
7.67583,93355
7.68395,90396
7.69208,84428
7.70020,87195
7.70833,81125
7.71645,80826
7.72457,83039
7.73270,78999
7.74082,80871
7.74895,85517
7.75707,88314
7.76518,92210
7.77332,94877
7.78143,89902
7.78957,93959
7.79768,100776
7.80580,92449
7.81393,99534
7.82205,103021
7.83017,106104
7.83830,103945
7.84642,97645
7.85455,89825
7.86267,83138
7.87078,83497
7.87892,79786
7.88703,78078
7.89517,81979
7.90328,88718
7.91140,93875
7.91953,96361
7.92765,93216
7.93577,92571
7.94390,98984
7.95202,109226
7.96015,120053
7.96827,126025
7.97638,132458
7.98452,109306
7.99263,99658
8.00077,90142
8.00888,82095
8.01700,76128
8.02513,76583
8.03325,73973
8.04138,73574
8.04950,74153
8.05762,75488
8.06575,71917
8.07387,72112
8.08198,68092
8.09012,67417
8.09823,70935
8.10637,70210
8.11448,68308
8.12260,68709
8.13073,68371
8.13885,68680
8.14698,73765
8.15510,82436
8.16322,92665
8.17135,100964
8.17947,101030
8.18760,90547
8.19572,84952
8.20383,79669
8.21197,74573
8.22008,66531
8.22820,69183
8.23633,64121
8.24445,63385
8.25258,65181
8.26070,70569
8.26882,70224
8.27695,65778
8.28507,62594
8.29320,64568
8.30132,62465
8.30943,64571
8.31757,65206
8.32568,67439
8.33380,70604
8.34193,76811
8.35005,77995
8.35818,71797
8.36630,70048
8.37442,69638
8.38255,64568
8.39067,68540
8.39880,68892
8.40692,70513
8.41503,67115
8.42317,66301
8.43128,61645
8.43942,60200
8.44753,62314
8.45565,60167
8.46378,59167
8.47190,54962
8.48002,58414
8.48815,61859
8.49627,64272
8.50440,58580
8.51252,61144
8.52063,70878
8.52877,91954
8.53688,170682
8.54502,267071
8.55313,379270
8.56125,399226
8.56938,340611
8.57750,235237
8.58562,143284
8.59375,105517
8.60187,95718
8.61000,92521
8.61812,95070
8.62623,104789
8.63437,101004
8.64248,90715
8.65062,85620
8.65873,81347
8.66685,76307
8.67498,68871
8.68310,67472
8.69123,71556
8.69935,69331
8.70747,72462
8.71560,73149
8.72372,68921
8.73183,72786
8.73997,71939
8.74808,68135
8.75622,73988
8.76433,89133
8.77245,148828
8.78058,310037
8.78870,595351
8.79683,942630
8.80495,1171372
8.81307,1148840
8.82120,879112
8.82932,611331
8.83745,396796
8.84557,296493
8.85368,257407
8.86182,250181
8.86993,230602
8.87805,210528
8.88618,194477
8.89430,181747
8.90243,173957
8.91055,157718
8.91867,156782
8.92680,149184
8.93492,163899
8.94305,167593
8.95117,172094
8.95928,181791
8.96742,173511
8.97553,157919
8.98365,154857
8.99178,140982
8.99990,141026
9.00803,147988
9.01615,138748
9.02427,129319
9.03240,127059
9.04052,125099
9.04865,116149
9.05677,121231
9.06488,109135
9.07302,105095
9.08113,108963
9.08927,104910
9.09738,108406
9.10550,111529
9.11363,109861
9.12175,116341
9.12987,126156
9.13800,138993
9.14612,129054
9.15425,121376
9.16237,112458
9.17048,106322
9.17862,110253
9.18673,102286
9.19487,100434
9.20298,96982
9.21110,89918
9.21923,92687
9.22735,95903
9.23548,95214
9.24360,98007
9.25172,99228
9.25985,94117
9.26797,95156
9.27608,92792
9.28422,94091
9.29233,91125
9.30047,87009
9.30858,93289
9.31670,84883
9.32483,83126
9.33295,79023
9.34108,87752
9.34920,83888
9.35732,83854
9.36545,84583
9.37357,78710
9.38168,84394
9.38982,77838
9.39793,79048
9.40607,77450
9.41418,84692
9.42230,83062
9.43043,90798
9.43855,99852
9.44668,106547
9.45480,117092
9.46292,116556
9.47105,116300
9.47917,106442
9.48730,91809
9.49542,88742
9.50353,86142
9.51167,80717
9.51978,89419
9.52790,94132
9.53603,102868
9.54415,108379
9.55228,113304
9.56040,111300
9.56852,101959
9.57665,89688
9.58477,78155
9.59290,73213
9.60102,67469
9.60913,72535
9.61727,71180
9.62538,73692
9.63350,64243
9.64163,57863
9.64975,57302
9.65788,53369
9.66600,54528
9.67412,52923
9.68225,54947
9.69037,50131
9.69850,52400
9.70662,54888
9.71473,52187
9.72287,53095
9.73098,47249
9.73912,47832
9.74723,52657
9.75535,50036
9.76348,48350
9.77160,46142
9.77972,45624
9.78785,50483
9.79597,47926
9.80410,47986
9.81222,50657
9.82033,47490
9.82847,47657
9.83658,44243
9.84472,46005
9.85283,44570
9.86095,49412
9.86908,52148
9.87720,53789
9.88533,53898
9.89345,52229
9.90157,51570
9.90970,54257
9.91782,50161
9.92593,55576
9.93407,56856
9.94218,70755
9.95032,109541
9.95843,165385
9.96655,227755
9.97468,264669
9.98280,251128
9.99093,209532
9.99905,164612
10.00717,134030
10.01530,110669
10.02342,96292
10.03153,89118
10.03967,86862
10.04778,79867
10.05592,75723
10.06403,76189
10.07215,72706
10.08028,72042
10.08840,77422
10.09653,71665
10.10465,70205
10.11277,72737
10.12090,68434
10.12902,63360
10.13715,68529
10.14527,61694
10.15338,61593
10.16152,56439
10.16963,57027
10.17775,57502
10.18588,55106
10.19400,56495
10.20213,60648
10.21025,51951
10.21837,53428
10.22650,52927
10.23462,55720
10.24275,59369
10.25087,61489
10.25898,70982
10.26712,97743
10.27523,191389
10.28337,426497
10.29148,945997
10.29960,1689342
10.30773,2542437
10.31585,3564979
10.32397,5131535
10.33210,7501662
10.34022,9822902
10.34835,1.078639E+07
10.35647,9756635
10.36458,7105094
10.37272,4563472
10.38083,3121149
10.38897,2335255
10.39708,1835359
10.40520,1388624
10.41333,1030013
10.42145,799596
10.42957,652872
10.43770,561833
10.44582,509702
10.45395,467009
10.46207,426786
10.47018,396032
10.47832,373576
10.48643,347924
10.49457,322508
10.50268,301889
10.51080,283544
10.51893,272877
10.52705,251456
10.53518,245723
10.54330,235288
10.55142,227959
10.55955,227488
10.56767,218508
10.57578,205684
10.58392,203235
10.59203,195634
10.60017,184157
10.60828,187869
10.61640,176794
10.62453,170757
10.63265,163830
10.64078,157790
10.64890,153957
10.65702,143843
10.66515,139210
10.67327,143341
10.68140,140561
10.68952,136769
10.69763,131204
10.70577,130001
10.71388,125796
10.72200,129048
10.73013,131114
10.73825,126165
10.74638,122848
10.75450,125430
10.76262,118836
10.77075,118285
10.77887,115295
10.78700,113712
10.79512,114674
10.80323,106856
10.81137,106270
10.81948,106161
10.82760,101963
10.83573,103156
10.84385,98094
10.85198,96589
10.86010,94331
10.86822,87382
10.87635,87857
10.88447,88385
10.89260,90696
10.90072,81655
10.90883,85246
10.91697,81935
10.92508,81560
10.93322,82105
10.94133,83180
10.94945,76830
10.95758,80161
10.96570,79377
10.97382,75872
10.98195,82145
10.99007,78270
10.99820,77587
11.00632,77196
11.01443,74947
11.02257,75947
11.03068,72732
11.03882,75124
11.04693,73983
11.05505,71690
11.06318,67755
11.07130,68409
11.07942,65889
11.08755,74007
11.09567,66728
11.10380,73727
11.11192,71840
11.12003,66797
11.12817,68269
11.13628,64069
11.14442,59933
11.15253,58261
11.16065,58961
11.16878,53991
11.17690,60779
11.18503,61860
11.19315,63210
11.20127,66562
11.20940,60104
11.21752,62416
11.22563,60537
11.23377,59559
11.24188,57723
11.25002,51302
11.25813,49612
11.26625,42792
11.27438,47044
11.28250,44853
11.29063,49806
11.29875,47083
11.30687,45118
11.31500,54362
11.32312,70790
11.33125,99514
11.33937,149415
11.34748,222417
11.35562,268296
11.36373,317659
11.37185,306620
11.37998,242567
11.38810,191372
11.39623,143619
11.40435,120415
11.41247,103997
11.42060,95302
11.42872,88862
11.43685,84712
11.44497,75543
11.45308,71874
11.46122,65088
11.46933,64954
11.47745,65488
11.48558,67578
11.49370,70167
11.50183,86541
11.50995,101317
11.51807,113050
11.52620,118771
11.53432,106378
11.54245,99472
11.55057,92675
11.55868,83244
11.56682,71912
11.57493,66294
11.58307,67614
11.59118,67066
11.59930,74593
11.60743,85980
11.61555,110115
11.62367,131811
11.63180,145478
11.63992,145669
11.64805,127979
11.65617,104424
11.66428,89633
11.67242,75148
11.68053,70604
11.68867,69945
11.69678,66199
11.70490,67154
11.71303,68018
11.72115,71649
11.72928,68166
11.73740,65323
11.74552,62607
11.75365,62713
11.76177,57848
11.76988,57218
11.77802,56364
11.78613,58211
11.79427,56298
11.80238,56555
11.81050,51671
11.81863,54734
11.82675,52214
11.83488,53842
11.84300,53431
11.85112,54567
11.85925,55582
11.86737,57479
11.87548,54806
11.88362,48235
11.89173,52235
11.89987,45202
11.90798,46829
11.91610,47233
11.92423,49116
11.93235,56456
11.94048,59245
11.94860,60844
11.95672,56130
11.96485,56526
11.97297,51662
11.98110,64272
11.98922,107047
11.99733,194102
12.00547,366007
12.01358,580321
12.02170,741158
12.02983,782516
12.03795,667951
12.04608,488466
12.05420,329368
12.06232,238127
12.07045,183230
12.07857,158939
12.08670,140484
12.09482,134313
12.10293,131896
12.11107,114321
12.11918,112766
12.12730,107208
12.13543,109071
12.14355,110746
12.15168,114987
12.15980,105795
12.16792,105048
12.17605,94369
12.18417,89806
12.19230,87919
12.20042,82191
12.20853,84783
12.21667,88299
12.22478,83452
12.23292,75801
12.24103,78606
12.24915,76429
12.25728,80817
12.26540,72942
12.27352,65375
12.28165,74858
12.28977,70533
12.29790,69458
12.30602,71628
12.31413,65625
12.32227,66177
12.33038,67399
12.33852,65776
12.34663,63352
12.35475,63675
12.36288,65119
12.37100,63835
12.37913,62729
12.38725,61796
12.39537,62658
12.40350,67465
12.41162,80013
12.41973,90955
12.42787,106901
12.43598,115373
12.44412,115627
12.45223,107429
12.46035,105858
12.46848,89293
12.47660,78773
12.48473,77881
12.49285,70766
12.50097,66849
12.50910,69065
12.51722,62756
12.52535,61868
12.53347,60077
12.54158,67004
12.54972,67069
12.55783,78356
12.56595,87752
12.57408,97272
12.58220,102384
12.59033,89349
12.59845,77804
12.60657,74512
12.61470,67617
12.62282,62530
12.63095,64141
12.63907,65935
12.64718,64859
12.65532,56218
12.66343,58218
12.67155,54301
12.67968,51606
12.68780,50728
12.69593,47316
12.70405,51569
12.71217,45593
12.72030,46824
12.72842,49905
12.73655,47337
12.74467,58852
12.75278,62136
12.76092,57771
12.76903,56891
12.77717,57966
12.78528,48284
12.79340,42816
12.80153,41115
12.80965,43331
12.81777,40841
12.82590,44205
12.83402,42754
12.84215,38679
12.85027,39005
12.85838,37803
12.86652,40046
12.87463,37415
12.88277,39048
12.89088,39616
12.89900,37585
12.90713,35584
12.91525,35192
12.92337,37423
12.93150,35064
12.93962,36659
12.94775,40582
12.95587,53953
12.96398,77836
12.97212,132343
12.98023,220337
12.98837,314917
12.99648,358362
13.00460,327102
13.01273,256616
13.02085,174454
13.02898,118917
13.03710,95875
13.04522,81136
13.05335,70882
13.06147,65772
13.06958,63503
13.07772,64985
13.08583,60131
13.09397,54289
13.10208,55792
13.11020,55865
13.11833,48079
13.12645,48562
13.13458,48447
13.14270,48224
13.15082,46857
13.15895,44572
13.16707,44217
13.17520,47648
13.18332,48371
13.19143,48304
13.19957,47258
13.20768,47558
13.21580,48203
13.22393,50588
13.23205,50904
13.24018,48811
13.24830,48928
13.25642,45626
13.26455,45113
13.27267,47600
13.28080,45715
13.28892,43790
13.29703,40928
13.30517,39708
13.31328,40516
13.32140,41685
13.32953,36942
13.33765,37668
13.34578,42524
13.35390,37481
13.36202,39943
13.37015,40341
13.37827,37755
13.38640,37379
13.39452,36896
13.40263,38756
13.41077,35870
13.41888,36889
13.42702,36912
13.43513,32242
13.44325,35496
13.45138,36460
13.45950,34207
13.46762,40045
13.47575,34399
13.48387,36517
13.49200,37130
13.50012,37068
13.50823,37189
13.51637,36919
13.52448,38199
13.53262,37578
13.54073,39699
13.54885,38440
13.55698,36304
13.56510,37959
13.57323,31729
13.58135,35843
13.58947,37094
13.59760,39013
13.60572,37711
13.61383,45298
13.62197,45591
13.63008,48617
13.63822,49074
13.64633,48637
13.65445,45741
13.66258,41624
13.67070,41118
13.67883,32494
13.68695,35438
13.69507,38438
13.70320,37344
13.71132,32902
13.71943,34946
13.72757,36560
13.73568,47281
13.74382,79511
13.75193,176943
13.76005,423317
13.76818,926844
13.77630,1689117
13.78443,2409617
13.79255,2739395
13.80067,2594988
13.80880,2096025
13.81692,1398835
13.82505,889540
13.83317,633652
13.84128,548949
13.84942,475471
13.85753,455437
13.86565,388931
13.87378,348682
13.88190,305897
13.89003,269355
13.89815,242014
13.90627,224874
13.91440,203978
13.92252,189972
13.93065,185402
13.93877,172148
13.94688,173048
13.95502,177045
13.96313,171577
13.97125,194347
13.97938,234254
13.98750,275708
13.99563,295475
14.00375,281255
14.01187,251808
14.02000,207399
14.02812,176602
14.03625,163486
14.04437,144418
14.05248,139499
14.06062,132892
14.06873,129150
14.07687,123801
14.08498,118356
14.09310,117430
14.10123,120473
14.10935,116457
14.11747,112119
14.12560,113931
14.13372,115382
14.14185,124122
14.14997,150723
14.15808,173687
14.16622,187714
14.17433,192431
14.18247,191720
14.19058,208026
14.19870,266469
14.20683,339197
14.21495,407323
14.22308,439281
14.23120,398102
14.23932,341716
14.24745,286283
14.25557,233730
14.26368,205295
14.27182,187973
14.27993,173653
14.28807,161329
14.29618,138554
14.30430,128189
14.31243,117320
14.32055,104251
14.32868,98129
14.33680,98853
14.34492,99363
14.35305,91697
14.36117,86019
14.36928,78717
14.37742,71685
14.38553,66885
14.39367,62907
14.40178,60335
14.40990,62674
14.41803,64062
14.42615,71649
14.43428,72928
14.44240,72776
14.45052,74784
14.45865,65753
14.46677,60658
14.47490,62362
14.48302,56403
14.49113,58994
14.49927,59458
14.50738,58370
14.51550,62407
14.52363,73513
14.53175,76347
14.53988,80289
14.54800,74527
14.55612,72615
14.56425,66990
14.57237,54121
14.58050,53112
14.58862,52354
14.59673,48607
14.60487,52494
14.61298,46587
14.62112,47637
14.62923,43300
14.63735,43430
14.64548,43834
14.65360,45277
14.66172,44815
14.66985,45338
14.67797,43787
14.68610,43481
14.69422,42398
14.70233,38908
14.71047,41341
14.71858,41271
14.72672,41418
14.73483,42173
14.74295,47672
14.75108,46660
14.75920,48135
14.76732,52861
14.77545,53697
14.78357,56839
14.79170,69015
14.79982,116229
14.80793,263091
14.81607,690786
14.82418,1503277
14.83232,2660808
14.84043,3709507
14.84855,4169797
14.85668,3696256
14.86480,2819576
14.87293,1808907
14.88105,1132411
14.88917,723730
14.89730,507129
14.90542,398873
14.91353,330737
14.92167,286361
14.92978,250675
14.93792,230561
14.94603,208133
14.95415,192645
14.96228,177266
14.97040,167196
14.97853,156061
14.98665,150988
14.99477,143109
15.00290,138461
15.01102,132271
15.01913,125657
15.02727,121182
15.03538,119433
15.04352,115896
15.05163,108458
15.05975,106532
15.06788,102575
15.07600,99877
15.08413,94342
15.09225,88830
15.10037,85303
15.10850,87989
15.11662,83036
15.12475,87138
15.13287,88373
15.14098,98587
15.14912,97328
15.15723,105964
15.16535,102765
15.17348,88196
15.18160,76873
15.18973,64677
15.19785,64971
15.20597,54009
15.21410,55199
15.22222,52936
15.23035,52988
15.23847,53386
15.24658,51183
15.25472,45528
15.26283,50398
15.27097,48879
15.27908,50026
15.28720,46031
15.29533,45373
15.30345,45362
15.31157,42404
15.31970,44401
15.32782,43885
15.33595,43358
15.34407,44338
15.35218,40622
15.36032,43217
15.36843,44986
15.37657,44118
15.38468,43737
15.39280,42178
15.40093,40536
15.40905,44617
15.41717,39539
15.42530,42915
15.43342,40273
15.44155,38931
15.44967,39154
15.45778,37909
15.46592,37767
15.47403,42521
15.48217,45988
15.49028,50679
15.49840,59039
15.50653,73637
15.51465,81035
15.52278,87359
15.53090,87865
15.53902,92503
15.54715,97868
15.55527,107163
15.56338,115965
15.57152,110235
15.57963,98558
15.58777,80249
15.59588,68087
15.60400,64058
15.61213,52979
15.62025,48669
15.62838,46172
15.63650,46192
15.64462,45260
15.65275,46818
15.66087,43356
15.66900,43924
15.67712,45577
15.68523,36140
15.69337,42730
15.70148,38834
15.70960,39334
15.71773,40509
15.72585,36453
15.73398,42366
15.74210,42276
15.75022,44056
15.75835,51044
15.76647,67874
15.77460,106994
15.78272,160950
15.79083,241945
15.79897,295451
15.80708,306470
15.81520,269410
15.82333,210446
15.83145,149291
15.83958,115844
15.84770,88615
15.85582,75206
15.86395,67747
15.87207,63953
15.88020,60465
15.88832,61131
15.89643,55501
15.90457,56637
15.91268,54971
15.92082,52886
15.92893,50110
15.93705,54011
15.94518,47391
15.95330,58520
15.96142,77412
15.96955,100570
15.97767,128318
15.98580,146865
15.99392,163754
16.00203,156200
16.01017,133491
16.01828,119785
16.02642,103837
16.03453,91881
16.04265,89540
16.05078,80647
16.05890,77741
16.06703,70543
16.07515,62313
16.08327,59193
16.09140,55610
16.09952,55839
16.10763,49052
16.11577,56202
16.12388,49209
16.13202,52720
16.14013,50206
16.14825,54513
16.15638,52192
16.16450,52235
16.17263,52265
16.18075,52212
16.18887,50061
16.19700,48155
16.20512,49454
16.21323,44397
16.22137,48124
16.22948,47749
16.23762,51798
16.24573,47285
16.25385,42815
16.26198,41653
16.27010,43774
16.27823,44818
16.28635,43920
16.29447,44663
16.30260,44622
16.31072,46547
16.31885,49341
16.32697,51082
16.33508,49909
16.34322,51712
16.35133,55771
16.35945,79700
16.36758,114912
16.37570,159094
16.38383,212050
16.39195,221884
16.40007,214455
16.40820,185247
16.41632,138760
16.42445,101458
16.43257,89396
16.44068,79349
16.44882,80294
16.45693,107483
16.46505,190006
16.47318,364923
16.48130,612895
16.48943,830040
16.49755,942279
16.50567,880724
16.51380,661737
16.52192,453169
16.53005,289342
16.53817,202800
16.54628,151059
16.55442,127275
16.56253,108043
16.57067,100930
16.57878,98406
16.58690,91409
16.59503,91890
16.60315,94052
16.61127,98459
16.61940,99606
16.62752,106238
16.63565,107618
16.64377,98343
16.65188,87160
16.66002,81152
16.66813,69882
16.67627,67115
16.68438,61716
16.69250,58471
16.70063,57985
16.70875,58229
16.71688,57234
16.72500,52298
16.73312,53321
16.74125,54494
16.74937,54293
16.75748,55292
16.76562,60732
16.77373,64017
16.78187,63486
16.78998,63637
16.79810,53841
16.80623,52312
16.81435,50564
16.82248,49985
16.83060,45386
16.83872,47708
16.84685,42166
16.85497,42251
16.86308,41760
16.87122,42329
16.87933,41859
16.88747,40693
16.89558,44011
16.90370,41779
16.91183,38666
16.91995,39258
16.92808,39534
16.93620,41844
16.94432,37031
16.95245,40842
16.96057,40118
16.96870,38622
16.97682,40528
16.98493,43481
16.99307,42883
17.00118,40582
17.00930,42658
17.01743,39869
17.02555,39786
17.03368,45679
17.04180,43496
17.04992,46489
17.05805,45939
17.06617,52685
17.07430,46626
17.08242,48764
17.09053,47749
17.09867,44235
17.10678,43571
17.11492,43005
17.12303,46876
17.13115,45824
17.13928,45413
17.14740,44448
17.15552,47309
17.16365,44233
17.17177,43372
17.17990,39492
17.18802,41006
17.19613,39062
17.20427,37649
17.21238,39317
17.22052,40266
17.22863,38799
17.23675,38117
17.24488,41504
17.25300,38027
17.26112,39234
17.26925,39624
17.27737,40560
17.28550,36219
17.29362,35942
17.30173,39077
17.30987,38132
17.31798,43410
17.32612,47190
17.33423,50034
17.34235,59528
17.35048,63956
17.35860,63824
17.36673,65942
17.37485,60976
17.38297,60733
17.39110,55240
17.39922,52063
17.40733,47788
17.41547,51973
17.42358,54494
17.43172,50827
17.43983,50076
17.44795,45584
17.45608,47134
17.46420,47017
17.47233,47855
17.48045,47025
17.48857,45507
17.49670,40272
17.50482,42821
17.51293,37502
17.52107,40135
17.52918,41166
17.53732,44380
17.54543,43650
17.55355,45921
17.56168,50202
17.56980,60199
17.57793,80549
17.58605,123780
17.59417,205304
17.60230,316139
17.61042,434975
17.61855,519146
17.62667,513568
17.63478,457887
17.64292,367397
17.65103,291657
17.65915,252746
17.66728,240184
17.67540,244834
17.68353,234391
17.69165,217701
17.69977,191346
17.70790,159488
17.71602,129012
17.72415,103461
17.73227,98469
17.74038,89878
17.74852,82214
17.75663,77416
17.76477,70651
17.77288,70586
17.78100,69368
17.78913,81592
17.79725,96044
17.80537,163619
17.81350,308317
17.82162,558506
17.82975,860845
17.83787,1105906
17.84598,1196015
17.85412,1044387
17.86223,812503
17.87037,606492
17.87848,425971
17.88660,317686
17.89473,246606
17.90285,204719
17.91098,177635
17.91910,155876
17.92722,143742
17.93535,137192
17.94347,125660
17.95158,127205
17.95972,109516
17.96783,111567
17.97597,104419
17.98408,96019
17.99220,90064
18.00033,92910
18.00845,88709
18.01658,91081
18.02470,97131
18.03282,100481
18.04095,110900
18.04907,113672
18.05718,124633
18.06532,170656
18.07343,277057
18.08157,528511
18.08968,938709
18.09780,1375598
18.10593,1684679
18.11405,1729966
18.12218,1518265
18.13030,1181738
18.13842,887835
18.14655,668001
18.15467,539501
18.16280,475802
18.17092,415689
18.17903,358857
18.18717,337538
18.19528,302411
18.20340,272687
18.21153,247584
18.21965,228148
18.22778,216586
18.23590,199481
18.24402,194091
18.25215,179482
18.26027,174407
18.26840,158167
18.27652,149179
18.28463,131635
18.29277,116541
18.30088,113980
18.30900,136074
18.31713,195622
18.32525,261139
18.33338,289290
18.34150,318971
18.34962,344804
18.35775,350912
18.36587,369343
18.37400,356286
18.38212,362321
18.39023,358602
18.39837,352045
18.40648,357352
18.41462,353708
18.42273,349210
18.43085,356013
18.43898,346292
18.44710,361135
18.45522,363282
18.46335,395734
18.47147,435484
18.47960,472566
18.48772,515486
18.49583,539106
18.50397,514944
18.51208,468972
18.52022,426436
18.52833,386819
18.53645,355888
18.54458,333701
18.55270,330036
18.56083,308707
18.56895,310560
18.57707,313032
18.58520,299143
18.59332,298105
18.60143,289362
18.60957,294453
18.61768,280842
18.62582,279565
18.63393,280295
18.64205,280696
18.65018,279415
18.65830,269841
18.66643,258679
18.67455,261811
18.68267,247091
18.69080,243380
18.69892,251692
18.70703,244229
18.71517,238002
18.72328,233592
18.73142,227544
18.73953,229740
18.74765,225250
18.75578,227466
18.76390,222771
18.77203,219587
18.78015,218779
18.78827,221185
18.79640,213874
18.80452,209104
18.81265,207300
18.82077,208616
18.82888,210639
18.83702,202213
18.84513,204668
18.85325,196582
18.86138,200442
18.86950,202478
18.87763,196759
18.88575,182733
18.89387,190599
18.90200,191792
18.91012,182836
18.91825,187338
18.92637,184720
18.93448,185035
18.94262,188009
18.95073,190055
18.95887,198811
18.96698,197558
18.97510,196414
18.98323,192500
18.99135,190148
18.99947,184669
19.00760,180615
19.01572,171912
19.02385,170961
19.03197,162653
19.04008,167021
19.04822,165104
19.05633,158170
19.06447,163272
19.07258,167231
19.08070,167178
19.08883,195677
19.09695,226779
19.10507,257146
19.11320,292348
19.12132,305062
19.12945,291523
19.13757,259455
19.14568,228431
19.15382,206792
19.16193,186497
19.17007,182697
19.17818,173087
19.18630,168235
19.19443,154930
19.20255,153539
19.21068,159201
19.21880,145763
19.22692,148185
19.23505,142022
19.24317,133157
19.25128,139550
19.25942,135461
19.26753,130414
19.27567,135799
19.28378,134938
19.29190,132651
19.30003,141144
19.30815,146756
19.31628,139810
19.32440,141353
19.33252,140538
19.34065,139424
19.34877,139812
19.35688,143246
19.36502,160614
19.37313,175712
19.38127,197160
19.38938,212428
19.39750,202109
19.40563,183277
19.41375,155765
19.42188,145783
19.43000,137185
19.43812,126811
19.44625,126078
19.45437,121514
19.46250,121883
19.47062,116404
19.47873,121476
19.48687,135041
19.49498,166238
19.50310,207182
19.51123,254743
19.51935,287450
19.52748,279704
19.53560,261381
19.54372,203608
19.55185,172393
19.55997,140056
19.56810,121520
19.57622,112419
19.58433,112884
19.59247,106724
19.60058,104896
19.60872,107083
19.61683,101467
19.62495,102938
19.63308,98797
19.64120,109083
19.64932,123060
19.65745,150473
19.66557,191134
19.67370,224720
19.68182,270522
19.68993,284560
19.69807,282305
19.70618,259623
19.71432,241650
19.72243,205623
19.73055,178400
19.73868,170596
19.74680,153850
19.75492,147097
19.76305,132206
19.77117,125680
19.77930,116351
19.78742,118753
19.79553,118420
19.80367,115833
19.81178,122012
19.81992,115320
19.82803,119660
19.83615,114810
19.84428,107832
19.85240,111585
19.86053,150337
19.86865,263656
19.87677,585105
19.88490,1231259
19.89302,2359116
19.90113,3572259
19.90927,4475839
19.91738,4800329
19.92552,4332126
19.93363,3411255
19.94175,2430727
19.94988,1689172
19.95800,1209970
19.96613,948035
19.97425,789377
19.98237,703881
19.99050,629965
19.99862,583802
20.00675,538376
20.01487,503539
20.02298,467819
20.03112,448937
20.03923,410958
20.04735,375539
20.05548,331158
20.06360,289005
20.07173,238816
20.07985,204740
20.08797,187712
20.09610,173408
20.10422,162096
20.11235,149397
20.12047,142821
20.12858,131059
20.13672,129561
20.14483,124695
20.15295,121030
20.16108,122684
20.16920,128003
20.17733,139473
20.18545,154206
20.19357,163421
20.20170,174619
20.20982,178525
20.21795,173258
20.22607,161796
20.23418,149604
20.24232,143260
20.25043,147069
20.25857,157871
20.26668,191212
20.27480,226819
20.28293,280922
20.29105,320808
20.29917,322192
20.30730,297049
20.31542,261627
20.32355,221186
20.33167,181987
20.33978,154793
20.34792,135719
20.35603,115690
20.36417,105797
20.37228,100580
20.38040,89882
20.38853,90486
20.39665,77798
20.40477,77368
20.41290,81646
20.42102,82860
20.42915,82600
20.43727,88099
20.44538,97830
20.45352,106859
20.46163,109365
20.46977,114952
20.47788,121840
20.48600,118181
20.49413,113515
20.50225,106756
20.51038,95797
20.51850,87275
20.52662,80848
20.53475,76040
20.54287,74104
20.55098,75195
20.55912,75670
20.56723,74795
20.57537,73394
20.58348,73009
20.59160,67001
20.59973,69855
20.60785,63624
20.61598,64080
20.62410,64008
20.63222,62518
20.64035,63646
20.64847,64179
20.65660,63908
20.66472,63370
20.67283,62095
20.68097,66133
20.68908,60015
20.69720,62053
20.70533,64388
20.71345,62759
20.72158,59633
20.72970,57673
20.73782,62818
20.74595,59282
20.75407,60230
20.76220,62481
20.77032,64523
20.77843,62853
20.78657,71066
20.79468,83373
20.80280,104974
20.81093,143095
20.81905,176954
20.82718,205398
20.83530,207867
20.84342,188310
20.85155,148653
20.85967,116209
20.86780,96583
20.87592,75251
20.88403,69388
20.89217,65421
20.90028,63330
20.90842,64727
20.91653,61513
20.92465,60891
20.93278,62308
20.94090,62701
20.94902,61290
20.95715,64599
20.96527,63557
20.97340,57923
20.98152,57167
20.98963,54121
20.99777,56836
21.00588,58294
21.01402,56127
21.02213,56824
21.03025,54538
21.03838,59143
21.04650,61300
21.05463,60309
21.06275,65783
21.07087,62255
21.07900,64990
21.08712,67587
21.09523,63396
21.10337,61406
21.11148,59833
21.11962,56729
21.12773,58140
21.13585,57531
21.14398,62858
21.15210,71373
21.16023,80622
21.16835,88352
21.17647,95260
21.18460,88474
21.19272,89555
21.20083,77406
21.20897,74843
21.21708,63812
21.22522,66628
21.23333,61392
21.24145,62595
21.24958,59660
21.25770,60792
21.26583,59743
21.27395,56182
21.28207,55461
21.29020,54373
21.29832,55371
21.30645,50953
21.31457,55575
21.32268,54856
21.33082,49808
21.33893,52388
21.34705,50363
21.35518,51383
21.36330,54162
21.37143,53707
21.37955,52467
21.38767,59409
21.39580,64665
21.40392,71902
21.41205,86108
21.42017,90668
21.42828,93262
21.43642,84075
21.44453,78618
21.45267,71391
21.46078,65540
21.46890,64127
21.47703,62104
21.48515,61019
21.49327,58906
21.50140,53091
21.50952,53404
21.51765,55360
21.52577,50778
21.53388,54818
21.54202,56103
21.55013,53025
21.55827,53041
21.56638,50342
21.57450,52902
21.58263,55339
21.59075,57684
21.59887,62506
21.60700,66547
21.61512,71397
21.62325,72249
21.63137,74180
21.63948,75605
21.64762,79435
21.65573,89212
21.66387,87707
21.67198,82944
21.68010,85617
21.68823,78776
21.69635,76827
21.70448,71973
21.71260,68934
21.72072,61624
21.72885,58569
21.73697,56459
21.74508,54276
21.75322,56557
21.76133,58828
21.76947,57222
21.77758,56284
21.78570,62370
21.79383,58142
21.80195,57793
21.81008,62199
21.81820,69180
21.82632,73272
21.83445,70964
21.84257,79189
21.85068,78022
21.85882,75453
21.86693,74327
21.87507,66726
21.88318,62453
21.89130,59746
21.89943,59736
21.90755,54476
21.91568,57187
21.92380,51448
21.93192,51116
21.94005,52961
21.94817,54165
21.95630,50608
21.96442,46344
21.97253,48856
21.98067,46766
21.98878,49471
21.99690,43391
22.00503,45306
22.01315,45222
22.02128,44746
22.02940,50456
22.03752,47682
22.04565,51502
22.05377,51104
22.06190,51533
22.07002,49375
22.07813,46898
22.08627,46045
22.09438,50926
22.10252,49750
22.11063,46685
22.11875,44446
22.12688,47304
22.13500,43801
22.14312,49891
22.15125,46428
22.15937,48919
22.16750,49992
22.17562,48366
22.18373,46394
22.19187,46946
22.19998,46950
22.20812,48847
22.21623,48659
22.22435,49087
22.23248,47109
22.24060,50038
22.24872,46851
22.25685,50859
22.26497,49988
22.27310,50720
22.28122,51350
22.28933,47595
22.29747,54602
22.30558,50485
22.31372,53594
22.32183,53742
22.32995,50631
22.33808,56876
22.34620,48564
22.35433,52365
22.36245,50865
22.37057,48646
22.37870,50491
22.38682,54205
22.39493,57245
22.40307,63440
22.41118,77828
22.41932,89848
22.42743,104105
22.43555,110070
22.44368,102257
22.45180,95352
22.45993,81029
22.46805,76736
22.47617,71655
22.48430,72160
22.49242,77428
22.50055,73402
22.50867,76587
22.51678,79040
22.52492,81624
22.53303,74696
22.54115,76337
22.54928,67798
22.55740,64035
22.56553,61928
22.57365,57074
22.58177,58792
22.58990,56817
22.59802,56106
22.60615,54556
22.61427,54626
22.62238,49966
22.63052,52238
22.63863,56931
22.64675,49006
22.65488,51345
22.66300,54312
22.67113,55484
22.67925,53176
22.68737,52172
22.69550,54276
22.70362,60192
22.71175,60719
22.71987,56578
22.72798,59323
22.73612,62956
22.74423,61678
22.75237,58910
22.76048,54344
22.76860,54569
22.77673,50440
22.78485,56200
22.79297,59417
22.80110,69763
22.80922,73626
22.81735,83428
22.82547,84242
22.83358,80950
22.84172,77710
22.84983,69675
22.85797,66714
22.86608,60310
22.87420,59167
22.88233,70972
22.89045,63753
22.89857,70806
22.90670,81587
22.91482,88249
22.92295,108293
22.93107,117497
22.93918,124354
22.94732,124119
22.95543,109743
22.96357,100655
22.97168,90506
22.97980,85524
22.98793,78503
22.99605,81539
23.00418,78023
23.01230,75135
23.02042,74590
23.02855,75031
23.03667,70739
23.04478,71131
23.05292,71942
23.06103,67491
23.06917,69629
23.07728,64334
23.08540,69125
23.09353,67370
23.10165,69447
23.10978,72593
23.11790,67146
23.12602,73035
23.13415,64005
23.14227,68689
23.15040,68693
23.15852,68358
23.16663,65660
23.17477,65644
23.18288,60861
23.19100,68146
23.19913,61041
23.20725,59707
23.21538,61523
23.22350,63768
23.23162,63383
23.23975,62689
23.24787,64659
23.25600,68651
23.26412,73538
23.27223,70985
23.28037,78126
23.28848,74560
23.29662,67928
23.30473,69718
23.31285,64207
23.32098,65709
23.32910,66715
23.33722,69770
23.34535,85401
23.35347,112228
23.36160,163304
23.36972,242465
23.37783,372631
23.38597,532564
23.39408,688738
23.40222,844007
23.41033,1018891
23.41845,1092306
23.42658,1163242
23.43470,1178382
23.44282,1131654
23.45095,1106169
23.45907,1052463
23.46720,986248
23.47532,905466
23.48343,851020
23.49157,786250
23.49968,709729
23.50782,641578
23.51593,592056
23.52405,546127
23.53218,515701
23.54030,453153
23.54843,423410
23.55655,402256
23.56467,382699
23.57280,366458
23.58092,355648
23.58903,352278
23.59717,361731
23.60528,358626
23.61342,345680
23.62153,345656
23.62965,312200
23.63778,296257
23.64590,264167
23.65403,252180
23.66215,250468
23.67027,259546
23.67840,255527
23.68652,250582
23.69463,226348
23.70277,210509
23.71088,193466
23.71902,170163
23.72713,156755
23.73525,161604
23.74338,151507
23.75150,160896
23.75963,212679
23.76775,335676
23.77587,582715
23.78400,965468
23.79212,1377389
23.80025,1770263
23.80837,1840897
23.81648,1725995
23.82462,1470751
23.83273,1183568
23.84085,934144
23.84898,751752
23.85710,603272
23.86523,489050
23.87335,424326
23.88147,370594
23.88960,335397
23.89772,305144
23.90585,284322
23.91397,267224
23.92208,248249
23.93022,248435
23.93833,227234
23.94647,218563
23.95458,203064
23.96270,187130
23.97083,177204
23.97895,174455
23.98707,168529
23.99520,167945
24.00332,186529
24.01145,252127
24.01957,373773
24.02768,576401
24.03582,801935
24.04393,931016
24.05207,947743
24.06018,774156
24.06830,565463
24.07643,367335
24.08455,254799
24.09267,189157
24.10080,158500
24.10892,139592
24.11705,133316
24.12517,123536
24.13328,126945
24.14142,122642
24.14953,130075
24.15767,119385
24.16578,120391
24.17390,121797
24.18203,116910
24.19015,111053
24.19828,114234
24.20640,111321
24.21452,112621
24.22265,110367
24.23077,107830
24.23888,103868
24.24702,102548
24.25513,94757
24.26327,96720
24.27138,88617
24.27950,92438
24.28763,88470
24.29575,93431
24.30388,84389
24.31200,86071
24.32012,86159
24.32825,90870
24.33637,89263
24.34450,85348
24.35262,82885
24.36073,89841
24.36887,108357
24.37698,133959
24.38510,159721
24.39323,189522
24.40135,216635
24.40948,234348
24.41760,244677
24.42572,213713
24.43385,202381
24.44197,189947
24.45010,176787
24.45822,174211
24.46633,184625
24.47447,186284
24.48258,187076
24.49070,206107
24.49883,210832
24.50695,211357
24.51508,214874
24.52320,206749
24.53132,211057
24.53945,196814
24.54757,194389
24.55570,192080
24.56382,192293
24.57193,184199
24.58007,185285
24.58818,178081
24.59632,171679
24.60443,170130
24.61255,162518
24.62068,165500
24.62880,156002
24.63692,159537
24.64505,156339
24.65317,151104
24.66130,152591
24.66942,148746
24.67753,155059
24.68567,145705
24.69378,147503
24.70192,147175
24.71003,137488
24.71815,140351
24.72628,140577
24.73440,136515
24.74252,134976
24.75065,134434
24.75877,134548
24.76690,139295
24.77502,136124
24.78313,137088
24.79127,140893
24.79938,145786
24.80752,138161
24.81563,138096
24.82375,135916
24.83188,140423
24.84000,150216
24.84813,164493
24.85625,197402
24.86437,235297
24.87250,302704
24.88062,384058
24.88873,468879
24.89687,545635
24.90498,550328
24.91312,516756
24.92123,431166
24.92935,334461
24.93748,247694
24.94560,197897
24.95373,166730
24.96185,149408
24.96997,138928
24.97810,131133
24.98622,128570
24.99435,129082
25.00247,129363
25.01058,126251
25.01872,121647
25.02683,117412
25.03495,121228
25.04308,115669
25.05120,109593
25.05933,112868
25.06745,113659
25.07557,115987
25.08370,113754
25.09182,120212
25.09995,137326
25.10807,178229
25.11618,314941
25.12432,563959
25.13243,991119
25.14055,1591051
25.14868,2085047
25.15680,2260925
25.16493,2063828
25.17305,1641076
25.18117,1150584
25.18930,739213
25.19742,460824
25.20555,292823
25.21367,211556
25.22178,166284
25.22992,150498
25.23803,141550
25.24617,142162
25.25428,155945
25.26240,167150
25.27053,176685
25.27865,179657
25.28677,179231
25.29490,159852
25.30302,146229
25.31115,128136
25.31927,114331
25.32738,99810
25.33552,96070
25.34363,89534
25.35177,79951
25.35988,78230
25.36800,75996
25.37613,70295
25.38425,72309
25.39238,68494
25.40050,72920
25.40862,67600
25.41675,63270
25.42487,64820
25.43298,65214
25.44112,62610
25.44923,63804
25.45737,61592
25.46548,65800
25.47360,66789
25.48173,63951
25.48985,65628
25.49798,61967
25.50610,63452
25.51422,64372
25.52235,58614
25.53047,60058
25.53858,54285
25.54672,54353
25.55483,58070
25.56297,61890
25.57108,58764
25.57920,56859
25.58733,58791
25.59545,61647
25.60358,64995
25.61170,58509
25.61982,61359
25.62795,55508
25.63607,58114
25.64420,66205
25.65232,67673
25.66043,85566
25.66857,92934
25.67668,111699
25.68480,126155
25.69293,131470
25.70105,131545
25.70918,128664
25.71730,139943
25.72542,141798
25.73355,141704
25.74167,142361
25.74980,143465
25.75792,143634
25.76603,142221
25.77417,149268
25.78228,145502
25.79042,148488
25.79853,154735
25.80665,156645
25.81478,156208
25.82290,155135
25.83102,158147
25.83915,169544
25.84727,182486
25.85540,182136
25.86352,182970
25.87163,176002
25.87977,162992
25.88788,158602
25.89602,148493
25.90413,144433
25.91225,135271
25.92038,131629
25.92850,135623
25.93662,127803
25.94475,123240
25.95287,130945
25.96100,125151
25.96912,124656
25.97723,123377
25.98537,115843
25.99348,117967
26.00162,117908
26.00973,115085
26.01785,117952
26.02598,109471
26.03410,115708
26.04223,111280
26.05035,112596
26.05847,108000
26.06660,101616
26.07472,112673
26.08283,107949
26.09097,106302
26.09908,109519
26.10722,105097
26.11533,99678
26.12345,105277
26.13158,102482
26.13970,109170
26.14783,103533
26.15595,104825
26.16407,105295
26.17220,111813
26.18032,101842
26.18843,104404
26.19657,97246
26.20468,97025
26.21282,94792
26.22093,94514
26.22905,87273
26.23718,88104
26.24530,90837
26.25343,87888
26.26155,86612
26.26967,83687
26.27780,79767
26.28592,77867
26.29405,78968
26.30217,77057
26.31028,79500
26.31842,78823
26.32653,76100
26.33465,80933
26.34278,77136
26.35090,74131
26.35903,73678
26.36715,72750
26.37527,78359
26.38340,80182
26.39152,84316
26.39965,94273
26.40777,87652
26.41588,92295
26.42402,92604
26.43213,84188
26.44027,78332
26.44838,81454
26.45650,77365
26.46463,76656
26.47275,76975
26.48087,81484
26.48900,75043
26.49712,73304
26.50525,69039
26.51337,67540
26.52148,62782
26.52962,65277
26.53773,61983
26.54587,62527
26.55398,64785
26.56210,58876
26.57023,62108
26.57835,56700
26.58647,57600
26.59460,55877
26.60272,62864
26.61085,63804
26.61897,60913
26.62708,57242
26.63522,55539
26.64333,60884
26.65147,59000
26.65958,59971
26.66770,65683
26.67583,68609
26.68395,65185
26.69208,66257
26.70020,63243
26.70832,54114
26.71645,57712
26.72457,52155
26.73268,52774
26.74082,49075
26.74893,57333
26.75707,52105
26.76518,54031
26.77330,54418
26.78143,54028
26.78955,50844
26.79768,57580
26.80580,59009
26.81392,55885
26.82205,56404
26.83017,55697
26.83830,55709
26.84642,55047
26.85453,50990
26.86267,56109
26.87078,53795
26.87890,54371
26.88703,52350
26.89515,52261
26.90328,49587
26.91140,51871
26.91952,52630
26.92765,49042
26.93577,48564
26.94390,50267
26.95202,51972
26.96013,54169
26.96827,52619
26.97638,64925
26.98450,72241
26.99263,101045
27.00075,133402
27.00888,189231
27.01700,243081
27.02512,302526
27.03325,336686
27.04137,325919
27.04950,316668
27.05762,293088
27.06573,250486
27.07387,205847
27.08198,186514
27.09012,166143
27.09823,144263
27.10635,133316
27.11448,122956
27.12260,123065
27.13072,109367
27.13885,112848
27.14697,107563
27.15510,101594
27.16322,95136
27.17133,96219
27.17947,94311
27.18758,98003
27.19572,95073
27.20383,94690
27.21195,87227
27.22008,85062
27.22820,83416
27.23632,85775
27.24445,87274
27.25257,81733
27.26070,82475
27.26882,78139
27.27693,73201
27.28507,74053
27.29318,67909
27.30132,64134
27.30943,63782
27.31755,63143
27.32568,61529
27.33380,60838
27.34193,60773
27.35005,62898
27.35817,61039
27.36630,59898
27.37442,64130
27.38253,59037
27.39067,60231
27.39878,59534
27.40692,62865
27.41503,57387
27.42315,54666
27.43128,61670
27.43940,53510
27.44753,53555
27.45565,56535
27.46377,52799
27.47190,51525
27.48002,53693
27.48815,52286
27.49627,55412
27.50438,56392
27.51252,53221
27.52063,53398
27.52875,55045
27.53688,55595
27.54500,60000
27.55313,52127
27.56125,50502
27.56937,55340
27.57750,57648
27.58562,63517
27.59375,70000
27.60187,70139
27.60998,70724
27.61812,72183
27.62623,64090
27.63437,62624
27.64248,58912
27.65060,51743
27.65873,53129
27.66685,49558
27.67497,50480
27.68310,51991
27.69122,48144
27.69935,50104
27.70747,47425
27.71558,47010
27.72372,49822
27.73183,50234
27.73997,48920
27.74808,42123
27.75620,46938
27.76433,45294
27.77245,45915
27.78057,49699
27.78870,51111
27.79682,48614
27.80495,51066
27.81307,48817
27.82118,50916
27.82932,51487
27.83743,52385
27.84557,50993
27.85368,51068
27.86180,47198
27.86993,48117
27.87805,47852
27.88618,48325
27.89430,49341
27.90242,46819
27.91055,46474
27.91867,48448
27.92678,48534
27.93492,48438
27.94303,43150
27.95117,45292
27.95928,42210
27.96740,44305
27.97553,45877
27.98365,40351
27.99178,45243
27.99990,41112
28.00802,45453
28.01615,51561
28.02427,47719
28.03238,46456
28.04052,47858
28.04863,51431
28.05677,54460
28.06488,54706
28.07300,54830
28.08113,51756
28.08925,51138
28.09738,52223
28.10550,52946
28.11362,54703
28.12175,47091
28.12987,49882
28.13800,48503
28.14612,44400
28.15423,41944
28.16237,42173
28.17048,42525
28.17860,43935
28.18673,52658
28.19485,56104
28.20298,61456
28.21110,67135
28.21922,72512
28.22735,78799
28.23547,73172
28.24360,72076
28.25172,65255
28.25983,66042
28.26797,53839
28.27608,50301
28.28420,46618
28.29233,49141
28.30045,49156
28.30858,52217
28.31670,61303
28.32482,64149
28.33295,63881
28.34107,75003
28.34920,82158
28.35732,87163
28.36543,95616
28.37357,106433
28.38168,109485
28.38982,110788
28.39793,120083
28.40605,116986
28.41418,116399
28.42230,107404
28.43042,105807
28.43855,106614
28.44667,97107
28.45480,92012
28.46292,84928
28.47103,77565
28.47917,80096
28.48728,80586
28.49542,76960
28.50353,77599
28.51165,72990
28.51978,68548
28.52790,64004
28.53603,67847
28.54415,60576
28.55227,64211
28.56040,60417
28.56852,56201
28.57663,54090
28.58477,57147
28.59288,56433
28.60102,57886
28.60913,57394
28.61725,56237
28.62538,57051
28.63350,59780
28.64163,58750
28.64975,65364
28.65787,61280
28.66600,60058
28.67412,62700
28.68225,62731
28.69037,60116
28.69848,59581
28.70662,59367
28.71473,58399
28.72285,48723
28.73098,50146
28.73910,51959
28.74723,56009
28.75535,56093
28.76347,68266
28.77160,76560
28.77972,77074
28.78785,77313
28.79597,73014
28.80408,64530
28.81222,59115
28.82033,57917
28.82845,59824
28.83658,54253
28.84470,58745
28.85283,50748
28.86095,56953
28.86907,49715
28.87720,55069
28.88532,57981
28.89345,60068
28.90157,64456
28.90968,61769
28.91782,59204
28.92593,58831
28.93407,55792
28.94218,52227
28.95030,54192
28.95843,54151
28.96655,56625
28.97467,56266
28.98280,52615
28.99092,50122
28.99905,50568
29.00717,50469
29.01528,47742
29.02342,45206
29.03153,45717
29.03967,48140
29.04778,47593
29.05590,44278
29.06403,44868
29.07215,49058
29.08027,49149
29.08840,45772
29.09652,49295
29.10465,50088
29.11277,47150
29.12088,46372
29.12902,49219
29.13713,47993
29.14527,45529
29.15338,44340
29.16150,46312
29.16963,45706
29.17775,48334
29.18588,55214
29.19400,60277
29.20212,67047
29.21025,77026
29.21837,85235
29.22648,91646
29.23462,86775
29.24273,85348
29.25087,88298
29.25898,96556
29.26710,109706
29.27523,117901
29.28335,113650
29.29148,104721
29.29960,90219
29.30772,73190
29.31585,63983
29.32397,49999
29.33210,49988
29.34022,46338
29.34833,44523
29.35647,41377
29.36458,41789
29.37270,40971
29.38083,43969
29.38895,41589
29.39708,47714
29.40520,40651
29.41332,46157
29.42145,48284
29.42957,46935
29.43770,44703
29.44582,46812
29.45393,45141
29.46207,45521
29.47018,43183
29.47830,45144
29.48643,45697
29.49455,49197
29.50268,46561
29.51080,47506
29.51892,52702
29.52705,47530
29.53517,46258
29.54330,48236
29.55142,48616
29.55953,44260
29.56767,43747
29.57578,43379
29.58392,44054
29.59203,46479
29.60015,42845
29.60828,40411
29.61640,41121
29.62452,43567
29.63265,42933
29.64077,43412
29.64890,39801
29.65702,37560
29.66513,39229
29.67327,41451
29.68138,45800
29.68952,44127
29.69763,45281
29.70575,48584
29.71388,41597
29.72200,46067
29.73013,44125
29.73825,42768
29.74637,40668
29.75450,41110
29.76262,40771
29.77073,39105
29.77887,41868
29.78698,38213
29.79512,36808
29.80323,40497
29.81135,39204
29.81948,38653
29.82760,39163
29.83573,38447
29.84385,37273
29.85197,37179
29.86010,35444
29.86822,41083
29.87633,45495
29.88447,53207
29.89258,61009
29.90072,71847
29.90883,78094
29.91695,71370
29.92508,67972
29.93320,57762
29.94133,56326
29.94945,48692
29.95757,47103
29.96570,50448
29.97382,50185
29.98195,51439
29.99007,58931
29.99818,61337
30.00632,69234
30.01443,70840
30.02255,72539
30.03068,74694
30.03880,80881
30.04693,75875
30.05505,79655
30.06317,79722
30.07130,79319
30.07942,75328
30.08755,78173
30.09567,76371
30.10378,72240
30.11192,72088
30.12003,74861
30.12815,73957
30.13628,65250
30.14440,66422
30.15253,67301
30.16065,63095
30.16877,66405
30.17690,64254
30.18502,64634
30.19315,62856
30.20127,59261
30.20938,62506
30.21752,61524
30.22563,55815
30.23377,56535
30.24188,55279
30.25000,56191
30.25813,51145
30.26625,51254
30.27437,49498
30.28250,49720
30.29062,48481
30.29875,47129
30.30687,44406
30.31498,47446
30.32312,49321
30.33123,46350
30.33937,47016
30.34748,44906
30.35560,47859
30.36373,46902
30.37185,45782
30.37998,44281
30.38810,46013
30.39622,42721
30.40435,42139
30.41247,45629
30.42058,45042
30.42872,45458
30.43683,44691
30.44497,47514
30.45308,41038
30.46120,42513
30.46933,41247
30.47745,40119
30.48558,40732
30.49370,41890
30.50182,40857
30.50995,41556
30.51807,42274
30.52618,41950
30.53432,42174
30.54243,40560
30.55057,40030
30.55868,42328
30.56680,40865
30.57493,44860
30.58305,45980
30.59118,44741
30.59930,52075
30.60742,57648
30.61555,66080
30.62367,67153
30.63180,73560
30.63992,74347
30.64803,75327
30.65617,78385
30.66428,79928
30.67240,85562
30.68053,83766
30.68865,86756
30.69678,90850
30.70490,89960
30.71302,89079
30.72115,91683
30.72927,92984
30.73740,89506
30.74552,90970
30.75363,91770
30.76177,91712
30.76988,98250
30.77802,98921
30.78613,106635
30.79425,120493
30.80238,134820
30.81050,136043
30.81862,147874
30.82675,144645
30.83487,138255
30.84300,117963
30.85112,108506
30.85923,99361
30.86737,95723
30.87548,91148
30.88362,95540
30.89173,99265
30.89985,91026
30.90798,92960
30.91610,91109
30.92422,93695
30.93235,93954
30.94047,87630
30.94860,87763
30.95672,91993
30.96483,86700
30.97297,87343
30.98108,88077
30.98922,82786
30.99733,85781
31.00545,83647
31.01358,87174
31.02170,82975
31.02983,90439
31.03795,88826
31.04607,85805
31.05420,86445
31.06232,83831
31.07043,86293
31.07857,85272
31.08668,88716
31.09482,91540
31.10293,104642
31.11105,108457
31.11918,108777
31.12730,100089
31.13543,95883
31.14355,93151
31.15167,87718
31.15980,88790
31.16792,86895
31.17605,87577
31.18417,103898
31.19228,115010
31.20042,148967
31.20853,189441
31.21665,223532
31.22478,264577
31.23290,264086
31.24103,260350
31.24915,227468
31.25727,176425
31.26540,144926
31.27352,111593
31.28165,90524
31.28977,85804
31.29788,78039
31.30602,74509
31.31413,71823
31.32225,70823
31.33038,72537
31.33850,71057
31.34663,70831
31.35475,71348
31.36287,72347
31.37100,70008
31.37912,71914
31.38725,77425
31.39537,69824
31.40348,71829
31.41162,70939
31.41973,67889
31.42787,68417
31.43598,66596
31.44410,60004
31.45223,65706
31.46035,57502
31.46847,59877
31.47660,59283
31.48472,61365
31.49285,60717
31.50097,60495
31.50908,60835
31.51722,64521
31.52533,58745
31.53347,61779
31.54158,55670
31.54970,58482
31.55783,61484
31.56595,61078
31.57407,53381
31.58220,57866
31.59032,57266
31.59845,55567
31.60657,56565
31.61468,59463
31.62282,52214
31.63093,55003
31.63907,55874
31.64718,55179
31.65530,57207
31.66343,60367
31.67155,59461
31.67968,56536
31.68780,60182
31.69592,58218
31.70405,59067
31.71217,51124
31.72028,56585
31.72842,51133
31.73653,53166
31.74467,56440
31.75278,51400
31.76090,48994
31.76903,50631
31.77715,56176
31.78528,52217
31.79340,48789
31.80152,53675
31.80965,55873
31.81777,52991
31.82590,52830
31.83402,52629
31.84213,55611
31.85027,50584
31.85838,50392
31.86650,53654
31.87463,55810
31.88275,56575
31.89088,59567
31.89900,60395
31.90712,60982
31.91525,69028
31.92337,71395
31.93150,68916
31.93962,74723
31.94773,75012
31.95587,79806
31.96398,74152
31.97210,83153
31.98023,81737
31.98835,78668
31.99648,85838
32.00460,86626
32.01272,80099
32.02085,79698
32.02897,82526
32.03710,77736
32.04522,81208
32.05333,75580
32.06147,74275
32.06958,72245
32.07772,72367
32.08583,67753
32.09395,62680
32.10208,65817
32.11020,66898
32.11832,62558
32.12645,61864
32.13457,58222
32.14270,61290
32.15082,59122
32.15893,55223
32.16707,58557
32.17518,53082
32.18332,53629
32.19143,57292
32.19955,51178
32.20768,51278
32.21580,55445
32.22393,54827
32.23205,54198
32.24017,50228
32.24830,54734
32.25642,53808
32.26453,52748
32.27267,60383
32.28078,59802
32.28892,61778
32.29703,52287
32.30515,51995
32.31328,47830
32.32140,53289
32.32953,53860
32.33765,49365
32.34577,49902
32.35390,45823
32.36202,49348
32.37013,53131
32.37827,50685
32.38638,52099
32.39452,51370
32.40263,49601
32.41075,49608
32.41888,46966
32.42700,48280
32.43513,49026
32.44325,48366
32.45137,46344
32.45950,49042
32.46762,49764
32.47575,49399
32.48387,45884
32.49198,46684
32.50012,48813
32.50823,45072
32.51635,47367
32.52448,43212
32.53260,44619
32.54073,48311
32.54885,49375
32.55697,47059
32.56510,49892
32.57322,48248
32.58135,47754
32.58947,47189
32.59758,50399
32.60572,45984
32.61383,45883
32.62195,44559
32.63008,48692
32.63820,49441
32.64633,49495
32.65445,55684
32.66257,56381
32.67070,61882
32.67882,68046
32.68695,65103
32.69507,58499
32.70318,61221
32.71132,57410
32.71943,50481
32.72757,52546
32.73568,49648
32.74380,50120
32.75193,46798
32.76005,44258
32.76817,44225
32.77630,45180
32.78442,45675
32.79255,50102
32.80067,49302
32.80878,46778
32.81692,45185
32.82503,41993
32.83317,44184
32.84128,42733
32.84940,40053
32.85753,43483
32.86565,43885
32.87378,43329
32.88190,46324
32.89002,45242
32.89815,48015
32.90627,47332
32.91438,47481
32.92252,48780
32.93063,50319
32.93877,48256
32.94688,48300
32.95500,45811
32.96313,46057
32.97125,50711
32.97938,50294
32.98750,55330
32.99562,60871
33.00375,70903
33.01187,65362
33.01998,69505
33.02812,62294
33.03623,61713
33.04437,58699
33.05248,57687
33.06060,52778
33.06873,52212
33.07685,59263
33.08498,59752
33.09310,59953
33.10122,60522
33.10935,60427
33.11747,65503
33.12560,70687
33.13372,68062
33.14183,61619
33.14997,57457
33.15808,54380
33.16620,53067
33.17433,53282
33.18245,53536
33.19058,47167
33.19870,53050
33.20682,49553
33.21495,49584
33.22307,49936
33.23120,49011
33.23932,50862
33.24743,51198
33.25557,47068
33.26368,48255
33.27182,50430
33.27993,45454
33.28805,49260
33.29618,43649
33.30430,46709
33.31242,47324
33.32055,43233
33.32867,45210
33.33680,49437
33.34492,48801
33.35303,49465
33.36117,53668
33.36928,51681
33.37742,51692
33.38553,47973
33.39365,51449
33.40178,46756
33.40990,47608
33.41802,46473
33.42615,47691
33.43427,44209
33.44240,44083
33.45052,44434
33.45863,44185
33.46677,45881
33.47488,46702
33.48302,46892
33.49113,45335
33.49925,45704
33.50738,45281
33.51550,43635
33.52363,43657
33.53175,46619
33.53987,53204
33.54800,52953
33.55612,54397
33.56423,59460
33.57237,56343
33.58048,52312
33.58862,51141
33.59673,49948
33.60485,48808
33.61298,46406
33.62110,46614
33.62923,46535
33.63735,48254
33.64547,49464
33.65360,50229
33.66172,51164
33.66983,52964
33.67797,48015
33.68608,47296
33.69422,46488
33.70233,46385
33.71045,45015
33.71858,46678
33.72670,46561
33.73483,45601
33.74295,41789
33.75107,46793
33.75920,48616
33.76732,47646
33.77545,47558
33.78357,44066
33.79168,44657
33.79982,45754
33.80793,48956
33.81605,45202
33.82418,45701
33.83230,44524
33.84043,47184
33.84855,48090
33.85667,44495
33.86480,49595
33.87292,48013
33.88105,49433
33.88917,48601
33.89728,49026
33.90542,49746
33.91353,48036
33.92167,49478
33.92978,47162
33.93790,45179
33.94603,48082
33.95415,48919
33.96227,48820
33.97040,44309
33.97852,49673
33.98665,47739
33.99477,46737
34.00288,42868
34.01102,46163
34.01913,46747
34.02727,44763
34.03538,44585
34.04350,45879
34.05163,46341
34.05975,48168
34.06788,49428
34.07600,49740
34.08412,47338
34.09225,47125
34.10037,44458
34.10848,41054
34.11662,45258
34.12473,46484
34.13287,47166
34.14098,47585
34.14910,49538
34.15723,47585
34.16535,48019
34.17348,48653
34.18160,46209
34.18972,48322
34.19785,53663
34.20597,47396
34.21408,46794
34.22222,46177
34.23033,52205
34.23847,48202
34.24658,49106
34.25470,46353
34.26283,48192
34.27095,48317
34.27908,48630
34.28720,45270
34.29532,46468
34.30345,47529
34.31157,48990
34.31970,50937
34.32782,45409
34.33593,51771
34.34407,50214
34.35218,50638
34.36030,48934
34.36843,47747
34.37655,46251
34.38468,43622
34.39280,49461
34.40092,48258
34.40905,48032
34.41717,44792
34.42530,48435
34.43342,50361
34.44153,43327
34.44967,50902
34.45778,51788
34.46590,49498
34.47403,48409
34.48215,44534
34.49028,49884
34.49840,47529
34.50652,48236
34.51465,55235
34.52277,54879
34.53090,61283
34.53902,64755
34.54713,74748
34.55527,80634
34.56338,78393
34.57152,78086
34.57963,81573
34.58775,73638
34.59588,71754
34.60400,73124
34.61212,69172
34.62025,62765
34.62837,61675
34.63650,57339
34.64462,54008
34.65273,58623
34.66087,54036
34.66898,53618
34.67712,54797
34.68523,54992
34.69335,53716
34.70148,56958
34.70960,54147
34.71773,58478
34.72585,55908
34.73397,50268
34.74210,52561
34.75022,52525
34.75833,54455
34.76647,50099
34.77458,56383
34.78272,52518
34.79083,52818
34.79895,52204
34.80708,51186
34.81520,54790
34.82333,52905
34.83145,59161
34.83957,52382
34.84770,53024
34.85582,51834
34.86393,53056
34.87207,57119
34.88018,53100
34.88832,51313
34.89643,53111
34.90455,53702
34.91268,52750
34.92080,58062
34.92893,56130
34.93705,56857
34.94517,60851
34.95330,60566
34.96142,60962
34.96955,64726
34.97767,62865
34.98578,59790
34.99392,61094
35.00203,57632
35.01015,54404
35.01828,53029
35.02640,61041
35.03453,54704
35.04265,51825
35.05077,53300
35.05890,52307
35.06702,47269
35.07515,46002
35.08327,49284
35.09138,46973
35.09952,52542
35.10763,48091
35.11577,51530
35.12388,53684
35.13200,48062
35.14013,53033
35.14825,52162
35.15637,49223
35.16450,49456
35.17262,52148
35.18075,57306
35.18887,50755
35.19698,49348
35.20512,45989
35.21323,50242
35.22137,49511
35.22948,49234
35.23760,50479
35.24573,50526
35.25385,47929
35.26197,53593
35.27010,54291
35.27822,54851
35.28635,49698
35.29447,51229
35.30258,49738
35.31072,49792
35.31883,46272
35.32697,46655
35.33508,50474
35.34320,48051
35.35133,47224
35.35945,49875
35.36758,50648
35.37570,53099
35.38382,52239
35.39195,49543
35.40007,48656
35.40818,48032
35.41632,54696
35.42443,53116
35.43257,52074
35.44068,45232
35.44880,52688
35.45693,54044
35.46505,54522
35.47318,53812
35.48130,53438
35.48942,51724
35.49755,56299
35.50567,53574
35.51378,50924
35.52192,53292
35.53003,53589
35.53817,52291
35.54628,49639
35.55440,48580
35.56253,54049
35.57065,51542
35.57878,48229
35.58690,50837
35.59502,53571
35.60315,51317
35.61127,52077
35.61940,53642
35.62752,49103
35.63563,49826
35.64377,48578
35.65188,47737
35.66000,49102
35.66813,47133
35.67625,55998
35.68438,58504
35.69250,57013
35.70062,52552
35.70875,56820
35.71687,56263
35.72500,54469
35.73312,56797
35.74123,54691
35.74937,57500
35.75748,51725
35.76562,64216
35.77373,62869
35.78185,58815
35.78998,55619
35.79810,57705
35.80622,57962
35.81435,51139
35.82247,54746
35.83060,54945
35.83872,53818
35.84683,51348
35.85497,52266
35.86308,53818
35.87122,50586
35.87933,50430
35.88745,46554
35.89558,51406
35.90370,48701
35.91182,49792
35.91995,50121
35.92807,49568
35.93620,49622
35.94432,51723
35.95243,53569
35.96057,50416
35.96868,50481
35.97682,52590
35.98493,51366
35.99305,50544
36.00118,53860
36.00930,55826
36.01743,61412
36.02555,60164
36.03367,56570
36.04180,57499
36.04992,51684
36.05803,53866
36.06617,57371
36.07428,58285
36.08242,55688
36.09053,56701
36.09865,55397
36.10678,53744
36.11490,54606
36.12303,51262
36.13115,51349
36.13927,56456
36.14740,58129
36.15552,57641
36.16365,62351
36.17177,62770
36.17988,69914
36.18802,67410
36.19613,75783
36.20425,76080
36.21238,76256
36.22050,72425
36.22863,73052
36.23675,73575
36.24487,71789
36.25300,77571
36.26112,74581
36.26925,77759
36.27737,79975
36.28548,80298
36.29362,83137
36.30173,96048
36.30985,94437
36.31798,100539
36.32610,95880
36.33423,91867
36.34235,88987
36.35047,86953
36.35860,82614
36.36672,76807
36.37485,82456
36.38297,85617
36.39108,80088
36.39922,79964
36.40733,87589
36.41547,80483
36.42358,80003
36.43170,81996
36.43983,80881
36.44795,75691
36.45607,80512
36.46420,79873
36.47232,75812
36.48045,74593
36.48857,77097
36.49668,78682
36.50482,77302
36.51293,70404
36.52107,72527
36.52918,76607
36.53730,76008
36.54543,74945
36.55355,71475
36.56168,74692
36.56980,76409
36.57792,74379
36.58605,70919
36.59417,72152
36.60228,70685
36.61042,71310
36.61853,70200
36.62667,68869
36.63478,74881
36.64290,70962
36.65103,75025
36.65915,75301
36.66728,73614
36.67540,69741
36.68352,65316
36.69165,71348
36.69977,67105
36.70788,71250
36.71602,69250
36.72413,72747
36.73227,62892
36.74038,71485
36.74850,67674
36.75663,67650
36.76475,72072
36.77288,72316
36.78100,65894
36.78912,67089
36.79725,67806
36.80537,65459
36.81350,67864
36.82162,67067
36.82973,62263
36.83787,62215
36.84598,68038
36.85410,66029
36.86223,65769
36.87035,62451
36.87848,65572
36.88660,63002
36.89472,68028
36.90285,65241
36.91097,62917
36.91910,71747
36.92722,65863
36.93533,67791
36.94347,67672
36.95158,75538
36.95970,78193
36.96783,80811
36.97595,81083
36.98408,80629
36.99220,79977
37.00032,72947
37.00845,70058
37.01657,68400
37.02470,66040
37.03282,64716
37.04093,69487
37.04907,65327
37.05718,66937
37.06532,63402
37.07343,70843
37.08155,66611
37.08968,71048
37.09780,72254
37.10592,67799
37.11405,66689
37.12217,65315
37.13030,62863
37.13842,72699
37.14653,70776
37.15467,67652
37.16278,66690
37.17092,62857
37.17903,66560
37.18715,66386
37.19528,65605
37.20340,65286
37.21153,68089
37.21965,68392
37.22777,66724
37.23590,64834
37.24402,68160
37.25213,68768
37.26027,67257
37.26838,72690
37.27652,66481
37.28463,65734
37.29275,63209
37.30088,67413
37.30900,66547
37.31713,68962
37.32525,72562
37.33337,83136
37.34150,86894
37.34962,90433
37.35773,92558
37.36587,95392
37.37398,99523
37.38212,91948
37.39023,92588
37.39835,85997
37.40648,79632
37.41460,83289
37.42273,79045
37.43085,81804
37.43897,82212
37.44710,77455
37.45522,80034
37.46335,80222
37.47147,77920
37.47958,78813
37.48772,77851
