C:\MassHunter\GCMS\1\data\JTB-E18\JTB-E18-025-06.D Thu Sep 12 11:26:36 2019
Start of data points
2.09530	109726
2.10342	108833
2.11153	102257
2.11967	102198
2.12778	106736
2.13592	103402
2.14403	100819
2.15215	107560
2.16028	94798
2.16840	99264
2.17652	94759
2.18465	87595
2.19277	90787
2.20090	93582
2.20902	86078
2.21713	89546
2.22527	86942
2.23338	78906
2.24152	85072
2.24963	81459
2.25775	83332
2.26588	102215
2.27400	511424
2.28213	1565720
2.29025	1215407
2.29837	583625
2.30650	389835
2.31462	328025
2.32273	305858
2.33087	269460
2.33898	252771
2.34712	237965
2.35523	210819
2.36335	199196
2.37148	193330
2.37960	207382
2.38773	279974
2.39585	246206
2.40397	197731
2.41210	186361
2.42022	175173
2.42833	188915
2.43647	176874
2.44458	175231
2.45272	180882
2.46083	167644
2.46895	157311
2.47708	156527
2.48520	149597
2.49333	162460
2.50145	172374
2.50957	158097
2.51770	149492
2.52582	150878
2.53395	145311
2.54207	143289
2.55018	152778
2.55832	157424
2.56643	170288
2.57455	154525
2.58268	142159
2.59080	146171
2.59893	147466
2.60705	267778
2.61517	715598
2.62330	754229
2.63142	457598
2.63955	320849
2.64767	258313
2.65578	222410
2.66392	205252
2.67203	192506
2.68017	207785
2.68828	208749
2.69640	171960
2.70453	156660
2.71265	150136
2.72077	146539
2.72890	143395
2.73702	146524
2.74515	139133
2.75327	140705
2.76138	135755
2.76952	134922
2.77763	140557
2.78577	169098
2.79388	194128
2.80200	175621
2.81013	153359
2.81825	162853
2.82637	266771
2.83450	546208
2.84262	593446
2.85075	336991
2.85887	236535
2.86698	234558
2.87512	211401
2.88323	178807
2.89137	159679
2.89948	146912
2.90760	141663
2.91573	147779
2.92385	132688
2.93198	123501
2.94010	130298
2.94822	124090
2.95635	117999
2.96447	132779
2.97258	135561
2.98072	127806
2.98883	133472
2.99697	139013
3.00508	145559
3.01320	161404
3.02133	179023
3.02945	293378
3.03758	559285
3.04570	790874
3.05382	2008475
3.06195	5280889
3.07007	6451622
3.07820	4010770
3.08632	2120051
3.09443	1970203
3.10257	2437732
3.11068	3692768
3.11880	4121287
3.12693	2855748
3.13505	1904046
3.14318	1493601
3.15130	1216124
3.15942	1023632
3.16755	899585
3.17567	814986
3.18380	775187
3.19192	955366
3.20003	1188380
3.20817	1054130
3.21628	810765
3.22440	696550
3.23253	628283
3.24065	560516
3.24878	504016
3.25690	457293
3.26502	421494
3.27315	408699
3.28127	426801
3.28940	684936
3.29752	1534782
3.30563	2932687
3.31377	3795422
3.32188	3371740
3.33002	2449085
3.33813	1823863
3.34625	1429340
3.35438	1176979
3.36250	1046484
3.37062	989899
3.37875	1119826
3.38687	1197307
3.39500	1057942
3.40312	1106752
3.41123	2021809
3.41937	3279455
3.42748	3040214
3.43562	1878322
3.44373	1123694
3.45185	814854
3.45998	703619
3.46810	639272
3.47622	584984
3.48435	544449
3.49247	500169
3.50060	463451
3.50872	437032
3.51683	418552
3.52497	409337
3.53308	404948
3.54122	406206
3.54933	402065
3.55745	378517
3.56558	378931
3.57370	401636
3.58183	443759
3.58995	407985
3.59807	371999
3.60620	359325
3.61432	394934
3.62243	645461
3.63057	1255092
3.63868	1870221
3.64682	1722163
3.65493	1142809
3.66305	814197
3.67118	1235405
3.67930	2552018
3.68743	3220733
3.69555	2382100
3.70367	1499245
3.71180	1118757
3.71992	918875
3.72805	810404
3.73617	731838
3.74428	680961
3.75242	638456
3.76053	597979
3.76865	580046
3.77678	556312
3.78490	525267
3.79303	505731
3.80115	552599
3.80927	896659
3.81740	1523995
3.82552	1710162
3.83365	1311869
3.84177	949995
3.84988	777229
3.85802	671988
3.86613	618619
3.87425	565266
3.88238	533215
3.89050	501424
3.89863	480856
3.90675	459654
3.91487	477494
3.92300	526754
3.93112	584492
3.93925	597688
3.94737	630787
3.95548	1007419
3.96362	1843346
3.97173	2391311
3.97987	1970281
3.98798	1338981
3.99610	1728524
4.00423	4941634
4.01235	1.117087E+07
4.02047	1.449929E+07
4.02860	1.135191E+07
4.03672	6386404
4.04485	3397779
4.05297	2241198
4.06108	1683238
4.06922	1366666
4.07733	1161123
4.08547	982110
4.09358	869763
4.10170	772700
4.10983	708797
4.11795	656046
4.12608	614665
4.13420	582990
4.14232	597169
4.15045	618318
4.15857	634296
4.16668	592664
4.17482	536660
4.18293	491384
4.19107	459144
4.19918	431717
4.20730	492153
4.21543	1112654
4.22355	3644069
4.23168	8461890
4.23980	1.275987E+07
4.24792	1.296765E+07
4.25605	9397952
4.26417	6031794
4.27228	4179802
4.28042	3124287
4.28853	2435609
4.29667	1907806
4.30478	1590621
4.31290	1329912
4.32103	1148430
4.32915	1040989
4.33728	937175
4.34540	864896
4.35352	818481
4.36165	785073
4.36977	737271
4.37790	681634
4.38602	629894
4.39413	592391
4.40227	558870
4.41038	532508
4.41850	517108
4.42663	486842
4.43475	474245
4.44288	464587
4.45100	460803
4.45912	457302
4.46725	449608
4.47537	435280
4.48350	413564
4.49162	393387
4.49973	381673
4.50787	377071
4.51598	368474
4.52410	345482
4.53223	345568
4.54035	341773
4.54848	338389
4.55660	334311
4.56472	327640
4.57285	320375
4.58097	305214
4.58910	303644
4.59722	307575
4.60533	291082
4.61347	304523
4.62158	312454
4.62972	375690
4.63783	473331
4.64595	533113
4.65408	473480
4.66220	395628
4.67032	338165
4.67845	319993
4.68657	302118
4.69470	285361
4.70282	282601
4.71093	278602
4.71907	271042
4.72718	271546
4.73532	264191
4.74343	251142
4.75155	249333
4.75968	240747
4.76780	248799
4.77593	240853
4.78405	242479
4.79217	251699
4.80030	283783
4.80842	327885
4.81653	326132
4.82467	311635
4.83278	286046
4.84092	289008
4.84903	292668
4.85715	279081
4.86528	288418
4.87340	275679
4.88153	272288
4.88965	249778
4.89777	250347
4.90590	252941
4.91402	253954
4.92215	282947
4.93027	396377
4.93838	679977
4.94652	1086675
4.95463	1395821
4.96275	1388879
4.97088	1204854
4.97900	959376
4.98713	757353
4.99525	643977
5.00337	548109
5.01150	501238
5.01962	478409
5.02775	544937
5.03587	672120
5.04398	850910
5.05212	864419
5.06023	742376
5.06835	629637
5.07648	561176
5.08460	504251
5.09273	495178
5.10085	495369
5.10897	521768
5.11710	551170
5.12522	556309
5.13335	513710
5.14147	462684
5.14958	435080
5.15772	425043
5.16583	437883
5.17397	496551
5.18208	521757
5.19020	539472
5.19833	522137
5.20645	494084
5.21457	437455
5.22270	406221
5.23082	388272
5.23895	378419
5.24707	378479
5.25518	355111
5.26332	328456
5.27143	306607
5.27957	301184
5.28768	310825
5.29580	304913
5.30393	296487
5.31205	291667
5.32017	292118
5.32830	285821
5.33642	311354
5.34455	304598
5.35267	304750
5.36078	293259
5.36892	284875
5.37703	267979
5.38517	266037
5.39328	255603
5.40140	267519
5.40953	247076
5.41765	245453
5.42578	244901
5.43390	235243
5.44202	241868
5.45015	244508
5.45827	243719
5.46638	235622
5.47452	232381
5.48263	234613
5.49077	230986
5.49888	232999
5.50700	233750
5.51513	236209
5.52325	232213
5.53138	237882
5.53950	227590
5.54762	223009
5.55575	233229
5.56387	247692
5.57200	244051
5.58012	260756
5.58823	247776
5.59637	243385
5.60448	246328
5.61260	235479
5.62073	238405
5.62885	253191
5.63698	259188
5.64510	255006
5.65322	253848
5.66135	251340
5.66947	238281
5.67760	255464
5.68572	283720
5.69383	325690
5.70197	333971
5.71008	332270
5.71820	318001
5.72633	327040
5.73445	317771
5.74258	306500
5.75070	290451
5.75882	298105
5.76695	308686
5.77507	313226
5.78320	307129
5.79132	289680
5.79943	292843
5.80757	402402
5.81568	628269
5.82382	991252
5.83193	1336382
5.84005	1393375
5.84818	1204348
5.85630	880159
5.86442	614477
5.87255	429257
5.88067	347406
5.88880	308254
5.89692	281140
5.90503	309641
5.91317	365464
5.92128	498300
5.92942	639850
5.93753	706271
5.94565	647015
5.95378	522750
5.96190	409293
5.97003	343534
5.97815	336738
5.98627	337422
5.99440	329079
6.00252	311553
6.01063	277252
6.01877	255295
6.02688	221530
6.03502	213748
6.04313	198542
6.05125	197724
6.05938	187214
6.06750	186071
6.07563	178251
6.08375	174115
6.09187	171997
6.10000	170329
6.10812	168133
6.11623	170324
6.12437	185312
6.13248	232334
6.14062	298967
6.14873	352448
6.15685	338102
6.16498	292595
6.17310	254385
6.18123	228320
6.18935	227721
6.19747	248257
6.20560	249029
6.21372	241080
6.22185	223998
6.22997	211058
6.23808	209750
6.24622	200288
6.25433	201759
6.26245	197911
6.27058	202498
6.27870	200927
6.28683	205144
6.29495	200983
6.30307	196621
6.31120	207446
6.31932	207540
6.32745	212102
6.33557	222070
6.34368	216502
6.35182	218452
6.35993	222118
6.36805	224431
6.37618	230590
6.38430	231759
6.39243	224370
6.40055	219482
6.40867	225776
6.41680	222493
6.42492	233032
6.43305	225471
6.44117	228018
6.44928	236535
6.45742	233888
6.46553	243582
6.47367	251328
6.48178	240324
6.48990	249842
6.49803	243568
6.50615	243869
6.51427	247946
6.52240	250672
6.53052	254582
6.53865	257399
6.54677	263676
6.55488	257008
6.56302	261552
6.57113	268289
6.57927	270809
6.58738	285858
6.59550	279272
6.60363	273838
6.61175	265081
6.61988	263758
6.62800	253384
6.63612	266114
6.64425	259132
6.65237	262635
6.66048	271737
6.66862	286696
6.67673	312379
6.68487	333552
6.69298	382598
6.70110	421467
6.70923	402390
6.71735	357059
6.72548	312477
6.73360	242439
6.74172	204653
6.74985	189662
6.75797	173178
6.76608	177128
6.77422	187610
6.78233	212046
6.79047	317350
6.79858	502969
6.80670	762340
6.81483	975203
6.82295	997393
6.83108	834383
6.83920	587280
6.84732	405934
6.85545	314850
6.86357	294312
6.87170	253870
6.87982	219764
6.88793	192096
6.89607	155032
6.90418	137677
6.91230	126708
6.92043	135328
6.92855	145397
6.93668	186144
6.94480	257317
6.95292	346466
6.96105	425883
6.96917	448827
6.97730	409385
6.98542	337098
6.99353	250294
7.00167	187672
7.00978	156254
7.01792	141471
7.02603	128813
7.03415	123605
7.04228	126169
7.05040	120154
7.05852	122204
7.06665	114723
7.07477	115078
7.08290	103522
7.09102	102179
7.09913	103732
7.10727	97078
7.11538	100290
7.12352	101075
7.13163	102020
7.13975	110084
7.14788	123459
7.15600	147333
7.16412	173456
7.17225	190756
7.18037	196166
7.18850	201129
7.19662	219246
7.20473	276905
7.21287	423583
7.22098	720200
7.22912	1044627
7.23723	1146733
7.24535	943480
7.25348	639205
7.26160	438691
7.26973	326035
7.27785	246658
7.28597	190858
7.29410	162868
7.30222	168186
7.31033	195570
7.31847	257746
7.32658	313472
7.33472	347432
7.34283	338429
7.35095	285731
7.35908	230208
7.36720	183676
7.37533	148092
7.38345	143643
7.39157	142571
7.39970	132884
7.40782	143090
7.41595	159662
7.42407	188174
7.43218	216241
7.44032	236416
7.44843	241303
7.45655	209971
7.46468	177234
7.47280	145537
7.48093	124627
7.48905	112307
7.49717	106484
7.50530	105212
7.51342	103685
7.52155	113367
7.52967	127639
7.53778	158375
7.54592	196561
7.55403	219945
7.56215	230616
7.57028	213821
7.57840	186193
7.58653	151891
7.59465	135896
7.60277	118172
7.61090	116117
7.61902	110509
7.62715	102323
7.63527	105926
7.64338	100458
7.65152	97685
7.65963	94884
7.66777	95122
7.67588	93953
7.68400	89647
7.69213	94598
7.70025	91297
7.70837	92154
7.71650	94010
7.72462	95731
7.73275	89898
7.74087	91916
7.74898	89282
7.75712	95370
7.76523	89020
7.77337	87599
7.78148	90314
7.78960	92443
7.79773	90849
7.80585	90970
7.81397	89343
7.82210	88748
7.83022	95253
7.83835	85220
7.84647	87150
7.85458	92730
7.86272	90359
7.87083	94791
7.87897	94533
7.88708	97244
7.89520	89450
7.90333	93801
7.91145	89344
7.91958	96429
7.92770	104457
7.93582	117780
7.94395	127743
7.95207	127692
7.96018	132643
7.96832	119079
7.97643	104496
7.98457	88267
7.99268	83393
8.00080	82854
8.00893	78153
8.01705	76589
8.02518	76809
8.03330	79773
8.04142	73910
8.04955	76121
8.05767	76065
8.06580	78928
8.07392	76973
8.08203	74523
8.09017	81401
8.09828	74856
8.10640	76731
8.11453	77323
8.12265	78955
8.13078	81652
8.13890	90312
8.14702	88703
8.15515	95768
8.16327	91000
8.17140	83816
8.17952	84003
8.18763	77327
8.19577	77251
8.20388	76857
8.21200	79230
8.22013	72034
8.22825	77945
8.23638	74290
8.24450	75617
8.25262	70013
8.26075	75002
8.26887	73752
8.27700	66639
8.28512	67884
8.29323	73418
8.30137	74935
8.30948	78643
8.31762	87134
8.32573	87170
8.33385	80482
8.34198	81326
8.35010	76274
8.35822	73148
8.36635	72369
8.37447	73456
8.38260	66295
8.39072	68211
8.39883	69912
8.40697	66311
8.41508	68931
8.42322	70021
8.43133	67804
8.43945	64854
8.44758	66406
8.45570	64028
8.46383	68491
8.47195	74182
8.48007	71512
8.48820	69031
8.49632	72223
8.50443	77487
8.51257	75540
8.52068	92386
8.52882	119898
8.53693	167670
8.54505	211736
8.55318	221926
8.56130	200339
8.56943	160592
8.57755	112698
8.58567	90475
8.59380	84691
8.60192	80374
8.61003	77995
8.61817	77192
8.62628	78316
8.63442	78339
8.64253	71518
8.65065	72396
8.65878	70334
8.66690	73371
8.67503	75216
8.68315	76370
8.69127	79465
8.69940	85451
8.70752	81407
8.71565	75280
8.72377	79643
8.73188	101155
8.74002	156095
8.74813	267719
8.75625	402898
8.76438	500272
8.77250	501759
8.78063	412561
8.78875	303222
8.79687	221746
8.80500	176765
8.81312	153671
8.82125	143670
8.82937	140339
8.83748	140940
8.84562	143628
8.85373	137647
8.86185	140053
8.86998	144266
8.87810	133342
8.88623	129100
8.89435	122331
8.90247	115257
8.91060	113105
8.91872	122104
8.92685	117302
8.93497	129822
8.94308	130494
8.95122	127483
8.95933	130989
8.96747	121432
8.97558	127426
8.98370	116391
8.99183	114655
8.99995	116254
9.00807	115483
9.01620	112376
9.02432	104683
9.03245	109932
9.04057	103836
9.04868	108197
9.05682	103664
9.06493	109420
9.07307	103059
9.08118	102817
9.08930	107040
9.09743	106664
9.10555	110434
9.11368	113134
9.12180	116805
9.12992	111621
9.13805	106850
9.14617	101069
9.15428	99887
9.16242	99237
9.17053	94668
9.17867	91246
9.18678	96558
9.19490	95365
9.20303	99235
9.21115	94067
9.21928	95317
9.22740	94745
9.23552	92958
9.24365	92353
9.25177	93531
9.25990	98828
9.26802	116488
9.27613	115034
9.28427	123540
9.29238	120710
9.30050	111714
9.30863	100617
9.31675	94437
9.32488	92070
9.33300	93122
9.34112	98237
9.34925	97573
9.35737	95600
9.36550	96628
9.37362	84179
9.38173	87930
9.38987	88671
9.39798	88761
9.40610	94302
9.41423	99044
9.42235	98189
9.43048	106415
9.43860	109617
9.44672	100042
9.45485	96867
9.46297	90709
9.47110	91477
9.47922	80127
9.48733	84679
9.49547	84392
9.50358	83578
9.51172	93393
9.51983	90997
9.52795	97633
9.53608	88545
9.54420	78545
9.55232	73808
9.56045	69268
9.56857	72272
9.57670	73203
9.58482	76866
9.59293	78580
9.60107	82510
9.60918	74831
9.61732	73640
9.62543	69159
9.63355	75861
9.64168	78599
9.64980	76337
9.65792	73204
9.66605	71773
9.67417	69489
9.68230	65274
9.69042	62111
9.69853	56536
9.70667	63472
9.71478	57541
9.72292	55945
9.73103	57748
9.73915	59579
9.74728	59845
9.75540	57595
9.76353	57896
9.77165	60391
9.77977	60893
9.78790	59337
9.79602	58331
9.80413	58643
9.81227	57749
9.82038	60553
9.82852	59038
9.83663	59547
9.84475	59808
9.85288	59721
9.86100	61668
9.86913	64417
9.87725	67303
9.88537	63819
9.89350	59887
9.90162	62881
9.90975	57321
9.91787	62425
9.92598	69815
9.93412	87996
9.94223	105636
9.95035	123903
9.95848	129179
9.96660	120940
9.97473	109575
9.98285	94811
9.99097	84535
9.99910	82238
10.00722	71152
10.01535	65302
10.02347	64389
10.03158	64386
10.03972	63034
10.04783	62533
10.05595	62019
10.06408	63655
10.07220	68403
10.08033	61457
10.08845	64640
10.09657	68470
10.10470	61653
10.11282	60667
10.12095	62646
10.12907	63821
10.13718	64807
10.14532	57036
10.15343	58066
10.16157	56773
10.16968	55004
10.17780	58290
10.18593	55722
10.19405	57025
10.20217	54767
10.21030	54989
10.21842	56080
10.22655	58529
10.23467	63125
10.24278	61100
10.25092	74903
10.25903	91140
10.26717	159072
10.27528	315405
10.28340	574851
10.29153	876533
10.29965	1261209
10.30778	1757003
10.31590	2544480
10.32402	3528332
10.33215	4142468
10.34027	3937246
10.34838	3000997
10.35652	1905397
10.36463	1117659
10.37277	709264
10.38088	468882
10.38900	350482
10.39713	267245
10.40525	214333
10.41338	175374
10.42150	149456
10.42962	140903
10.43775	137511
10.44587	133244
10.45398	119879
10.46212	118309
10.47023	111847
10.47837	105275
10.48648	109641
10.49460	106286
10.50273	103362
10.51085	99630
10.51898	98663
10.52710	99222
10.53522	92476
10.54335	91686
10.55147	88272
10.55960	82594
10.56772	85258
10.57583	83718
10.58397	87982
10.59208	81758
10.60020	78525
10.60833	76913
10.61645	78388
10.62458	74389
10.63270	76740
10.64082	73466
10.64895	75873
10.65707	70285
10.66520	72963
10.67332	74021
10.68143	67377
10.68957	74480
10.69768	72324
10.70580	71095
10.71393	72109
10.72205	64851
10.73018	68571
10.73830	69469
10.74642	67510
10.75455	67915
10.76267	63613
10.77080	63358
10.77892	63475
10.78703	64674
10.79517	62394
10.80328	61925
10.81142	62386
10.81953	57109
10.82765	60763
10.83578	58838
10.84390	58255
10.85202	58004
10.86015	57036
10.86827	53653
10.87640	58820
10.88452	57964
10.89263	55172
10.90077	52372
10.90888	54959
10.91702	53740
10.92513	54905
10.93325	55529
10.94138	53941
10.94950	53876
10.95763	59586
10.96575	63789
10.97387	63470
10.98200	59746
10.99012	57667
10.99823	59808
11.00637	51798
11.01448	52846
11.02262	53090
11.03073	52660
11.03885	54551
11.04698	54714
11.05510	58121
11.06323	64927
11.07135	72088
11.07947	82376
11.08760	82713
11.09572	83858
11.10383	87908
11.11197	83395
11.12008	88638
11.12822	86378
11.13633	92611
11.14445	96354
11.15258	100478
11.16070	98189
11.16883	100940
11.17695	100358
11.18507	104249
11.19320	105486
11.20132	106806
11.20945	103925
11.21757	103030
11.22568	102591
11.23382	103028
11.24193	99163
11.25005	102115
11.25818	113388
11.26630	127023
11.27443	154302
11.28255	181486
11.29067	212047
11.29880	214012
11.30692	228948
11.31505	234857
11.32317	249959
11.33128	270486
11.33942	288656
11.34753	280218
11.35567	248737
11.36378	211680
11.37190	173825
11.38003	154814
11.38815	137459
11.39627	135219
11.40440	124595
11.41252	120171
11.42065	115069
11.42877	113160
11.43688	106709
11.44502	109818
11.45313	103075
11.46127	106893
11.46938	104253
11.47750	109657
11.48563	124571
11.49375	132802
11.50187	144341
11.51000	144419
11.51812	142978
11.52625	135284
11.53437	133342
11.54248	132780
11.55062	126621
11.55873	114679
11.56687	109021
11.57498	101406
11.58310	103256
11.59123	106851
11.59935	106372
11.60748	121251
11.61560	137549
11.62372	128745
11.63185	122386
11.63997	112353
11.64808	105236
11.65622	97414
11.66433	96484
11.67247	97170
11.68058	108221
11.68870	111937
11.69683	128478
11.70495	132591
11.71308	135825
11.72120	132415
11.72932	137755
11.73745	130048
11.74557	127911
11.75368	115889
11.76182	113050
11.76993	109675
11.77807	105224
11.78618	111399
11.79430	107328
11.80243	99147
11.81055	105116
11.81868	97227
11.82680	98947
11.83492	91108
11.84305	89925
11.85117	86822
11.85930	89814
11.86742	91592
11.87553	93371
11.88367	80445
11.89178	76541
11.89990	77069
11.90803	83089
11.91615	87287
11.92428	94147
11.93240	98660
11.94052	103181
11.94865	104084
11.95677	89135
11.96490	89469
11.97302	75687
11.98113	75237
11.98927	86838
11.99738	98355
12.00552	106308
12.01363	119422
12.02175	115041
12.02988	103701
12.03800	95076
12.04612	81546
12.05425	76583
12.06237	75725
12.07050	70420
12.07862	69377
12.08673	71644
12.09487	68425
12.10298	63518
12.11112	64664
12.11923	71729
12.12735	67003
12.13548	70239
12.14360	64664
12.15172	74856
12.15985	63479
12.16797	64009
12.17610	65162
12.18422	63981
12.19233	63091
12.20047	64443
12.20858	63133
12.21672	60144
12.22483	61461
12.23295	62443
12.24108	63131
12.24920	62364
12.25733	68651
12.26545	66927
12.27357	67367
12.28170	70356
12.28982	66321
12.29793	67688
12.30607	70309
12.31418	67829
12.32232	73315
12.33043	73710
12.33855	74793
12.34668	71236
12.35480	73607
12.36293	73133
12.37105	73958
12.37917	65233
12.38730	73914
12.39542	76286
12.40355	91869
12.41167	107645
12.41978	114785
12.42792	132060
12.43603	119879
12.44415	109141
12.45228	92488
12.46040	82903
12.46853	78163
12.47665	79902
12.48477	72972
12.49290	68710
12.50102	64915
12.50915	62288
12.51727	65985
12.52538	62091
12.53352	71894
12.54163	77078
12.54975	84689
12.55788	97563
12.56600	112959
12.57413	112343
12.58225	101286
12.59037	88740
12.59850	78178
12.60662	71864
12.61475	67653
12.62287	65835
12.63098	66792
12.63912	67225
12.64723	62189
12.65537	62508
12.66348	60303
12.67160	59908
12.67973	59484
12.68785	61046
12.69597	60126
12.70410	62831
12.71222	66888
12.72035	70173
12.72847	77197
12.73658	82162
12.74472	76823
12.75283	72475
12.76097	66372
12.76908	65918
12.77720	72039
12.78533	66621
12.79345	71672
12.80158	71477
12.80970	70698
12.81782	67941
12.82595	63898
12.83407	61502
12.84218	61524
12.85032	62802
12.85843	57757
12.86657	58333
12.87468	58355
12.88280	55611
12.89093	53693
12.89905	51822
12.90718	51187
12.91530	52469
12.92342	58957
12.93155	60303
12.93967	76560
12.94778	92353
12.95592	116974
12.96403	133173
12.97217	141999
12.98028	139377
12.98840	121791
12.99653	104178
13.00465	85358
13.01278	81868
13.02090	76931
13.02902	76325
13.03715	73396
13.04527	76089
13.05340	66136
13.06152	61846
13.06963	58144
13.07777	61217
13.08588	55131
13.09400	53227
13.10213	53432
13.11025	54602
13.11838	50320
13.12650	55041
13.13462	50817
13.14275	50522
13.15087	52112
13.15900	51646
13.16712	51849
13.17523	51347
13.18337	50976
13.19148	51858
13.19960	50754
13.20773	48659
13.21585	50452
13.22398	57052
13.23210	58268
13.24022	57513
13.24835	63155
13.25647	65365
13.26460	68879
13.27272	69077
13.28083	67979
13.28897	62090
13.29708	66449
13.30522	59974
13.31333	62621
13.32145	68593
13.32958	69608
13.33770	62700
13.34582	65266
13.35395	59479
13.36207	56886
13.37020	53897
13.37832	53846
13.38643	53744
13.39457	57054
13.40268	51592
13.41082	51311
13.41893	54427
13.42705	51099
13.43518	49094
13.44330	50163
13.45143	47100
13.45955	46128
13.46767	44804
13.47580	44271
13.48392	48461
13.49203	47874
13.50017	45504
13.50828	46915
13.51642	48291
13.52453	49158
13.53265	48369
13.54078	55334
13.54890	56147
13.55703	61833
13.56515	59304
13.57327	62255
13.58140	60951
13.58952	61740
13.59763	79527
13.60577	92480
13.61388	112015
13.62202	126778
13.63013	127341
13.63825	123622
13.64638	95864
13.65450	85620
13.66263	73568
13.67075	69236
13.67887	63001
13.68700	61973
13.69512	64313
13.70325	59784
13.71137	58959
13.71948	63785
13.72762	59100
13.73573	69983
13.74385	108649
13.75198	177419
13.76010	296581
13.76823	420369
13.77635	561243
13.78447	562370
13.79260	467875
13.80072	383502
13.80885	286108
13.81697	231570
13.82508	212080
13.83322	194781
13.84133	172931
13.84947	157685
13.85758	130991
13.86570	128395
13.87383	105920
13.88195	102215
13.89007	97033
13.89820	94748
13.90632	92639
13.91445	92462
13.92257	85805
13.93068	80557
13.93882	79677
13.94693	77050
13.95507	79158
13.96318	74485
13.97130	78063
13.97943	76000
13.98755	74889
13.99567	72729
14.00380	73389
14.01192	73213
14.02005	69870
14.02817	73041
14.03628	64720
14.04442	64938
14.05253	65627
14.06067	63342
14.06878	59620
14.07690	56100
14.08503	60064
14.09315	57744
14.10128	57472
14.10940	55699
14.11752	55607
14.12565	54942
14.13377	60152
14.14188	67740
14.15002	87191
14.15813	111422
14.16627	147053
14.17438	179729
14.18250	200004
14.19063	198313
14.19875	172249
14.20688	157477
14.21500	147874
14.22312	137333
14.23125	133664
14.23937	115937
14.24748	123859
14.25562	114682
14.26373	111553
14.27187	107270
14.27998	95062
14.28810	86987
14.29623	89288
14.30435	81539
14.31248	82469
14.32060	73042
14.32872	65909
14.33685	57009
14.34497	53491
14.35310	54220
14.36122	50124
14.36933	49636
14.37747	50689
14.38558	55411
14.39370	69095
14.40183	93676
14.40995	127264
14.41808	158293
14.42620	171940
14.43432	160878
14.44245	131406
14.45057	105155
14.45870	78493
14.46682	70701
14.47493	66308
14.48307	60260
14.49118	64411
14.49932	56526
14.50743	55087
14.51555	53244
14.52368	54681
14.53180	56114
14.53992	54553
14.54805	55650
14.55617	55315
14.56430	55916
14.57242	53310
14.58053	49639
14.58867	51972
14.59678	53591
14.60492	53604
14.61303	49833
14.62115	45585
14.62928	46324
14.63740	48934
14.64553	44056
14.65365	46669
14.66177	47578
14.66990	45872
14.67802	43566
14.68613	45008
14.69427	43998
14.70238	47103
14.71052	45744
14.71863	44906
14.72675	50852
14.73488	49520
14.74300	45532
14.75113	47233
14.75925	49643
14.76737	47117
14.77550	47838
14.78362	56131
14.79173	85875
14.79987	167414
14.80798	323834
14.81612	550896
14.82423	752901
14.83235	872880
14.84048	791636
14.84860	600494
14.85673	422748
14.86485	265223
14.87297	180003
14.88110	143070
14.88922	116940
14.89735	104207
14.90547	93173
14.91358	93338
14.92172	81554
14.92983	87580
14.93795	78283
14.94608	73134
14.95420	70029
14.96233	66006
14.97045	67967
14.97857	63272
14.98670	58048
14.99482	65919
15.00295	58534
15.01107	56108
15.01918	57341
15.02732	57339
15.03543	62197
15.04355	58527
15.05168	55149
15.05980	51987
15.06793	50143
15.07605	49401
15.08417	56605
15.09230	51859
15.10042	52231
15.10855	48340
15.11667	47907
15.12478	50986
15.13292	50696
15.14103	56342
15.14917	55778
15.15728	50351
15.16540	50620
15.17353	47265
15.18165	46207
15.18977	45431
15.19790	46178
15.20602	43163
15.21415	43237
15.22227	42899
15.23038	42873
15.23852	41351
15.24663	41436
15.25477	43134
15.26288	41489
15.27100	41847
15.27913	40916
15.28725	39052
15.29538	44009
15.30350	37394
15.31162	37761
15.31975	39961
15.32787	39118
15.33598	39473
15.34412	43187
15.35223	40168
15.36037	43217
15.36848	39984
15.37660	38930
15.38473	42478
15.39285	38847
15.40098	37358
15.40910	38839
15.41722	39150
15.42535	40369
15.43347	41857
15.44158	44125
15.44972	40774
15.45783	42274
15.46597	43764
15.47408	49531
15.48220	56802
15.49033	63237
15.49845	68413
15.50658	66835
15.51470	63527
15.52282	59757
15.53095	56560
15.53907	51730
15.54720	49074
15.55532	44585
15.56343	46225
15.57157	42259
15.57968	42861
15.58780	41303
15.59593	41137
15.60405	40171
15.61218	38721
15.62030	39774
15.62842	37823
15.63655	39656
15.64467	37231
15.65280	41983
15.66092	39893
15.66903	39969
15.67717	40920
15.68528	38623
15.69342	34475
15.70153	40302
15.70965	43426
15.71778	39452
15.72590	41394
15.73402	44190
15.74215	47890
15.75027	58157
15.75840	75986
15.76652	90750
15.77463	109662
15.78277	119623
15.79088	124408
15.79902	111544
15.80713	94110
15.81525	77221
15.82338	63805
15.83150	58091
15.83962	49610
15.84775	48344
15.85587	50503
15.86400	48787
15.87212	45967
15.88023	46263
15.88837	47814
15.89648	47032
15.90462	47055
15.91273	44816
15.92085	38381
15.92898	48211
15.93710	49465
15.94523	48384
15.95335	55537
15.96147	53844
15.96960	60763
15.97772	60244
15.98583	64476
15.99397	69802
16.00208	77012
16.01022	76982
16.01833	83101
16.02645	79678
16.03458	79566
16.04270	74349
16.05083	66904
16.05895	61436
16.06707	58513
16.07520	49393
16.08332	52748
16.09143	50938
16.09957	50387
16.10768	50663
16.11582	52838
16.12393	51150
16.13205	51168
16.14018	50721
16.14830	49360
16.15643	52530
16.16455	53267
16.17267	46531
16.18080	48646
16.18892	45243
16.19705	51075
16.20517	48631
16.21328	43844
16.22142	43937
16.22953	46294
16.23765	48079
16.24578	48271
16.25390	47593
16.26203	48122
16.27015	45337
16.27827	48184
16.28640	50965
16.29452	49452
16.30265	51354
16.31077	47204
16.31888	48766
16.32702	44447
16.33513	49513
16.34327	44922
16.35138	49713
16.35950	50578
16.36763	55951
16.37575	53364
16.38387	58304
16.39200	56921
16.40012	51865
16.40825	46326
16.41637	47969
16.42448	47342
16.43262	47715
16.44073	52372
16.44887	59798
16.45698	79559
16.46510	107604
16.47323	132965
16.48135	155939
16.48947	145021
16.49760	124173
16.50572	97293
16.51385	77249
16.52197	60696
16.53008	59359
16.53822	54413
16.54633	53046
16.55447	49973
16.56258	57299
16.57070	47896
16.57883	51077
16.58695	54031
16.59508	51159
16.60320	56293
16.61132	58679
16.61945	56743
16.62757	57215
16.63568	54276
16.64382	49013
16.65193	43047
16.66007	46790
16.66818	46592
16.67630	48227
16.68443	47076
16.69255	46480
16.70068	51240
16.70880	48617
16.71692	47832
16.72505	44552
16.73317	44330
16.74130	45100
16.74942	45848
16.75753	45637
16.76567	44656
16.77378	47914
16.78190	49659
16.79003	45514
16.79815	43733
16.80628	46089
16.81440	43831
16.82252	43481
16.83065	42582
16.83877	43199
16.84690	47297
16.85502	45329
16.86313	40489
16.87127	43412
16.87938	41535
16.88750	44412
16.89563	45730
16.90375	43032
16.91188	44795
16.92000	45875
16.92812	41461
16.93625	41430
16.94437	43758
16.95250	42993
16.96062	47285
16.96873	41264
16.97687	42206
16.98498	41826
16.99312	42090
17.00123	40116
17.00935	41125
17.01748	42761
17.02560	39575
17.03372	43944
17.04185	44759
17.04997	45110
17.05810	47269
17.06622	47641
17.07433	43011
17.08247	42514
17.09058	41142
17.09872	45227
17.10683	44568
17.11495	45910
17.12308	43390
17.13120	42950
17.13933	44721
17.14745	43806
17.15557	46640
17.16370	43368
17.17182	42475
17.17993	40882
17.18807	43286
17.19618	45340
17.20432	40099
17.21243	38295
17.22055	40554
17.22868	39274
17.23680	46103
17.24493	41288
17.25305	39213
17.26117	41866
17.26930	40984
17.27742	41924
17.28553	40971
17.29367	41668
17.30178	41028
17.30992	42773
17.31803	44624
17.32615	45467
17.33428	47615
17.34240	48210
17.35053	51695
17.35865	49550
17.36677	49239
17.37490	52850
17.38302	54370
17.39115	52120
17.39927	52677
17.40738	52096
17.41552	54373
17.42363	53544
17.43175	51439
17.43988	49536
17.44800	51160
17.45613	49862
17.46425	48672
17.47237	45986
17.48050	47491
17.48862	48079
17.49675	45309
17.50487	49962
17.51298	54620
17.52112	52949
17.52923	61077
17.53735	61854
17.54548	66411
17.55360	73896
17.56173	79381
17.56985	98303
17.57797	116902
17.58610	142080
17.59422	177950
17.60235	185712
17.61047	188829
17.61858	177905
17.62672	149614
17.63483	121727
17.64297	101813
17.65108	87848
17.65920	82259
17.66733	75802
17.67545	72215
17.68357	68622
17.69170	73447
17.69982	65951
17.70795	61612
17.71607	59616
17.72418	60260
17.73232	62260
17.74043	59371
17.74857	52301
17.75668	54537
17.76480	53657
17.77293	50756
17.78105	50471
17.78918	54776
17.79730	58494
17.80542	68138
17.81355	69333
17.82167	76528
17.82978	79030
17.83792	82785
17.84603	74455
17.85417	74800
17.86228	75366
17.87040	64766
17.87853	63387
17.88665	58166
17.89478	52525
17.90290	50839
17.91102	48425
17.91915	48899
17.92727	49542
17.93538	47010
17.94352	48761
17.95163	45849
17.95977	48298
17.96788	45927
17.97600	44041
17.98413	67097
17.99225	117789
18.00038	196626
18.00850	302969
18.01662	355256
18.02475	384602
18.03287	408309
18.04100	412610
18.04912	425676
18.05723	451706
18.06537	530737
18.07348	651224
18.08160	847507
18.08973	1018416
18.09785	1079811
18.10598	998011
18.11410	851677
18.12222	690229
18.13035	567603
18.13847	468518
18.14660	414106
18.15472	382796
18.16283	366504
18.17097	340873
18.17908	339334
18.18722	312802
18.19533	306258
18.20345	286182
18.21158	275149
18.21970	269283
18.22782	256338
18.23595	251157
18.24407	241632
18.25220	233585
18.26032	225743
18.26843	212188
18.27657	205753
18.28468	190201
18.29282	184704
18.30093	187040
18.30905	172281
18.31718	161639
18.32530	165501
18.33342	159151
18.34155	153636
18.34967	152697
18.35780	147774
18.36592	140987
18.37403	134932
18.38217	137663
18.39028	136929
18.39842	132954
18.40653	127645
18.41465	132714
18.42278	126472
18.43090	127295
18.43903	134115
18.44715	133087
18.45527	139398
18.46340	149988
18.47152	155024
18.47963	168067
18.48777	159277
18.49588	145960
18.50402	132984
18.51213	116503
18.52025	116433
18.52838	111259
18.53650	104225
18.54463	100615
18.55275	91639
18.56087	96347
18.56900	94542
18.57712	97381
18.58523	92832
18.59337	89124
18.60148	90001
18.60962	98743
18.61773	94328
18.62585	92834
18.63398	90809
18.64210	93974
18.65023	87534
18.65835	89527
18.66647	81781
18.67460	84401
18.68272	78681
18.69085	81021
18.69897	76948
18.70708	76594
18.71522	75824
18.72333	70527
18.73145	77002
18.73958	72757
18.74770	71473
18.75583	73093
18.76395	63994
18.77207	69107
18.78020	67028
18.78832	68052
18.79645	68356
18.80457	64787
18.81268	62379
18.82082	62763
18.82893	60725
18.83707	59850
18.84518	61545
18.85330	63014
18.86143	62133
18.86955	61787
18.87767	63560
18.88580	62691
18.89392	63306
18.90205	61904
18.91017	65163
18.91828	65022
18.92642	61966
18.93453	64354
18.94267	66454
18.95078	66174
18.95890	62320
18.96703	61415
18.97515	61672
18.98328	60344
18.99140	58359
18.99952	63040
19.00765	60365
19.01577	56601
19.02388	58113
19.03202	61361
19.04013	54981
19.04827	58039
19.05638	60726
19.06450	69098
19.07263	75640
19.08075	95882
19.08888	124595
19.09700	143035
19.10512	158017
19.11325	142505
19.12137	130807
19.12948	114092
19.13762	106539
19.14573	98448
19.15387	97361
19.16198	92412
19.17010	91826
19.17823	87844
19.18635	80820
19.19448	73557
19.20260	72547
19.21072	66880
19.21885	64932
19.22697	63298
19.23510	64573
19.24322	60048
19.25133	59775
19.25947	54770
19.26758	60558
19.27570	63027
19.28383	64045
19.29195	66266
19.30008	67508
19.30820	67992
19.31632	61018
19.32445	61065
19.33257	58216
19.34070	64691
19.34882	64038
19.35693	72294
19.36507	77814
19.37318	81103
19.38130	76334
19.38943	70534
19.39755	69648
19.40568	66280
19.41380	61953
19.42192	64366
19.43005	59089
19.43817	61392
19.44630	70913
19.45442	86493
19.46253	107699
19.47067	137553
19.47878	159810
19.48692	165028
19.49503	143303
19.50315	120985
19.51128	91437
19.51940	77291
19.52752	64453
19.53565	62728
19.54377	60385
19.55190	58648
19.56002	56170
19.56813	56861
19.57627	56211
19.58438	49849
19.59252	54370
19.60063	53375
19.60875	50940
19.61688	53647
19.62500	64457
19.63313	74122
19.64125	92690
19.64937	108040
19.65750	148372
19.66562	161168
19.67373	162486
19.68187	147605
19.68998	131585
19.69812	116324
19.70623	102370
19.71435	93986
19.72248	84592
19.73060	78119
19.73873	78785
19.74685	66016
19.75497	70856
19.76310	66531
19.77122	67538
19.77933	66407
19.78747	68446
19.79558	67165
19.80372	68194
19.81183	65580
19.81995	63479
19.82808	60283
19.83620	63737
19.84433	93473
19.85245	187470
19.86057	420355
19.86870	949052
19.87682	1923298
19.88495	3270360
19.89307	4742205
19.90118	5494331
19.90932	5208503
19.91743	4071080
19.92555	2811249
19.93368	1811451
19.94180	1180210
19.94993	832323
19.95805	661518
19.96617	563090
19.97430	495140
19.98242	459188
19.99055	398975
19.99867	366795
20.00678	359470
20.01492	321475
20.02303	303465
20.03117	280437
20.03928	245717
20.04740	214574
20.05553	178435
20.06365	156307
20.07177	128745
20.07990	115173
20.08802	104946
20.09615	98730
20.10427	94605
20.11238	92984
20.12052	92948
20.12863	87079
20.13677	83810
20.14488	82796
20.15300	87265
20.16113	88421
20.16925	89783
20.17737	94711
20.18550	100784
20.19362	98705
20.20175	92743
20.20987	93675
20.21798	91638
20.22612	92880
20.23423	93000
20.24237	105593
20.25048	133878
20.25860	146717
20.26673	159297
20.27485	158750
20.28298	158948
20.29110	142811
20.29922	123609
20.30735	105300
20.31547	92902
20.32358	85950
20.33172	76640
20.33983	70353
20.34797	68799
20.35608	64463
20.36420	63236
20.37233	62763
20.38045	57045
20.38858	60254
20.39670	62416
20.40482	66140
20.41295	61939
20.42107	67250
20.42918	73334
20.43732	68106
20.44543	72010
20.45357	70909
20.46168	65004
20.46980	66437
20.47793	64855
20.48605	56023
20.49418	58725
20.50230	57521
20.51042	57016
20.51855	54991
20.52667	53619
20.53480	57083
20.54292	52864
20.55103	54294
20.55917	51619
20.56728	51124
20.57540	50176
20.58353	51511
20.59165	50964
20.59978	49992
20.60790	50419
20.61602	49106
20.62415	49889
20.63227	49804
20.64040	51774
20.64852	50872
20.65663	49518
20.66477	51058
20.67288	56879
20.68102	48376
20.68913	46413
20.69725	49218
20.70538	51965
20.71350	47767
20.72162	49651
20.72975	51265
20.73787	49166
20.74600	50098
20.75412	56649
20.76223	53786
20.77037	54608
20.77848	64944
20.78662	73543
20.79473	88247
20.80285	105097
20.81098	112067
20.81910	116608
20.82722	109478
20.83535	93878
20.84347	75047
20.85160	66747
20.85972	58195
20.86783	57099
20.87597	55008
20.88408	55308
20.89222	52716
20.90033	52765
20.90845	55008
20.91658	58147
20.92470	57136
20.93283	64465
20.94095	64448
20.94907	77749
20.95720	69961
20.96532	73051
20.97343	73263
20.98157	70991
20.98968	71078
20.99782	70133
21.00593	67346
21.01405	70672
21.02218	71618
21.03030	69152
21.03843	73266
21.04655	73907
21.05467	70428
21.06280	69247
21.07092	65710
21.07905	70831
21.08717	66943
21.09528	66252
21.10342	64348
21.11153	64385
21.11965	63385
21.12778	65432
21.13590	69640
21.14403	71348
21.15215	74013
21.16027	75247
21.16840	77962
21.17652	72057
21.18465	72543
21.19277	67851
21.20088	62180
21.20902	64857
21.21713	60292
21.22525	57958
21.23338	63520
21.24150	59121
21.24963	59816
21.25775	63277
21.26587	58049
21.27400	58088
21.28212	60184
21.29025	62740
21.29837	57689
21.30648	55787
21.31462	58818
21.32273	54643
21.33087	55896
21.33898	60849
21.34710	57398
21.35523	52781
21.36335	58843
21.37147	56215
21.37960	58614
21.38772	57594
21.39585	66057
21.40397	66172
21.41208	62986
21.42022	65099
21.42833	63883
21.43647	62117
21.44458	54627
21.45270	56329
21.46083	56322
21.46895	54706
21.47707	50744
21.48520	55998
21.49332	52913
21.50145	54298
21.50957	52411
21.51768	49926
21.52582	52307
21.53393	53089
21.54207	54836
21.55018	52090
21.55830	49716
21.56643	51077
21.57455	54585
21.58268	60865
21.59080	64289
21.59892	73357
21.60705	77335
21.61517	81415
21.62328	89263
21.63142	80992
21.63953	78280
21.64767	71706
21.65578	69210
21.66390	65854
21.67203	68194
21.68015	63271
21.68828	65424
21.69640	67377
21.70452	65284
21.71265	72045
21.72077	99455
21.72890	134469
21.73702	161655
21.74513	172104
21.75327	194014
21.76138	190194
21.76950	201260
21.77763	202753
21.78575	200977
21.79388	216011
21.80200	208303
21.81012	219044
21.81825	216112
21.82637	207383
21.83450	196915
21.84262	181171
21.85073	173642
21.85887	168408
21.86698	147195
21.87510	149740
21.88323	139440
21.89135	143896
21.89948	128878
21.90760	127110
21.91572	123183
21.92385	116749
21.93197	111922
21.94010	106969
21.94822	107363
21.95633	98164
21.96447	94211
21.97258	92751
21.98072	88770
21.98883	89459
21.99695	80747
22.00508	83003
22.01320	78273
22.02132	78767
22.02945	78932
22.03757	76402
22.04570	78474
22.05382	76945
22.06193	73228
22.07007	71411
22.07818	69447
22.08632	71699
22.09443	67312
22.10255	68895
22.11068	70344
22.11880	70957
22.12693	68985
22.13505	67064
22.14317	71113
22.15130	66317
22.15942	61369
22.16753	57459
22.17567	61480
22.18378	58365
22.19192	67104
22.20003	61248
22.20815	65919
22.21628	63691
22.22440	59476
22.23253	61554
22.24065	60052
22.24877	56695
22.25690	57060
22.26502	56992
22.27313	55673
22.28127	57796
22.28938	55313
22.29752	57458
22.30563	60275
22.31375	63146
22.32188	61953
22.33000	63502
22.33813	65242
22.34625	60284
22.35437	61495
22.36250	57776
22.37062	58670
22.37875	56255
22.38687	59842
22.39498	63275
22.40312	74405
22.41123	76478
22.41935	79079
22.42748	73893
22.43560	71405
22.44373	69758
22.45185	62526
22.45997	59013
22.46810	62914
22.47622	60814
22.48435	69651
22.49247	71942
22.50058	73114
22.50872	71907
22.51683	66434
22.52497	66003
22.53308	60046
22.54120	60830
22.54933	59309
22.55745	61971
22.56557	56749
22.57370	55558
22.58182	52420
22.58995	52912
22.59807	51882
22.60618	49657
22.61432	48840
22.62243	45232
22.63057	52903
22.63868	47469
22.64680	50301
22.65493	48107
22.66305	54071
22.67117	52177
22.67930	56339
22.68742	49616
22.69555	54150
22.70367	61170
22.71178	56298
22.71992	54997
22.72803	50764
22.73617	54039
22.74428	51454
22.75240	52022
22.76053	50903
22.76865	56285
22.77678	55292
22.78490	56850
22.79302	56266
22.80115	59917
22.80927	62884
22.81738	62834
22.82552	58848
22.83363	58155
22.84177	54939
22.84988	56230
22.85800	54697
22.86613	56158
22.87425	57844
22.88238	58652
22.89050	66911
22.89862	73406
22.90675	81421
22.91487	101650
22.92298	122724
22.93112	125465
22.93923	121576
22.94737	121989
22.95548	110416
22.96360	90667
22.97173	84854
22.97985	76398
22.98798	76692
22.99610	72464
23.00422	64963
23.01235	62591
23.02047	58870
23.02860	57351
23.03672	57041
23.04483	55684
23.05297	50863
23.06108	53400
23.06920	52526
23.07733	51811
23.08545	54843
23.09358	55565
23.10170	49625
23.10982	52350
23.11795	53818
23.12607	51990
23.13420	52017
23.14232	51301
23.15043	50477
23.15857	50538
23.16668	47323
23.17482	47056
23.18293	49038
23.19105	48489
23.19918	50379
23.20730	48115
23.21542	44630
23.22355	49777
23.23167	48972
23.23980	53564
23.24792	53366
23.25603	54819
23.26417	53140
23.27228	53450
23.28042	52003
23.28853	52366
23.29665	53113
23.30478	51156
23.31290	53470
23.32102	57417
23.32915	61055
23.33727	64719
23.34540	74195
23.35352	94031
23.36163	106325
23.36977	129774
23.37788	148446
23.38602	160962
23.39413	164140
23.40225	167982
23.41038	162014
23.41850	159576
23.42663	155600
23.43475	145298
23.44287	143660
23.45100	134476
23.45912	126790
23.46723	127644
23.47537	127121
23.48348	143512
23.49162	175512
23.49973	192837
23.50785	214445
23.51598	224033
23.52410	232161
23.53223	231714
23.54035	222391
23.54847	246643
23.55660	232650
23.56472	239796
23.57285	243710
23.58097	242730
23.58908	254048
23.59722	267967
23.60533	255692
23.61345	244619
23.62158	227498
23.62970	214054
23.63783	210807
23.64595	202581
23.65407	193453
23.66220	195602
23.67032	195631
23.67845	186473
23.68657	178215
23.69468	171041
23.70282	168348
23.71093	156185
23.71905	153003
23.72718	151736
23.73530	171242
23.74343	272803
23.75155	480235
23.75967	989207
23.76780	1688401
23.77592	2497448
23.78405	3120052
23.79217	3305897
23.80028	2947953
23.80842	2313035
23.81653	1719865
23.82467	1300248
23.83278	961058
23.84090	738967
23.84903	587399
23.85715	492981
23.86527	416109
23.87340	366959
23.88152	326532
23.88965	295963
23.89777	282788
23.90588	242623
23.91402	236547
23.92213	234113
23.93027	203429
23.93838	203596
23.94650	192698
23.95463	180510
23.96275	168454
23.97087	163497
23.97900	153864
23.98712	150660
23.99525	147696
24.00337	134953
24.01148	138853
24.01962	137525
24.02773	140148
24.03587	137230
24.04398	130710
24.05210	126502
24.06023	120646
24.06835	120323
24.07648	118525
24.08460	118580
24.09272	121538
24.10085	115437
24.10897	119397
24.11708	108471
24.12522	108937
24.13333	104972
24.14147	101556
24.14958	103106
24.15770	107856
24.16583	111605
24.17395	116413
24.18208	115624
24.19020	119668
24.19832	124840
24.20645	125617
24.21457	123137
24.22270	122717
24.23082	114822
24.23893	106302
24.24707	102395
24.25518	96970
24.26330	90999
24.27143	88871
24.27955	84170
24.28768	83494
24.29580	80329
24.30392	82835
24.31205	79312
24.32017	85388
24.32830	86690
24.33642	94969
24.34453	103896
24.35267	125560
24.36078	139599
24.36892	139511
24.37703	138659
24.38515	122013
24.39328	102124
24.40140	86902
24.40952	87800
24.41765	88844
24.42577	93249
24.43390	95860
24.44202	95751
24.45013	99085
24.45827	96504
24.46638	100499
24.47452	107029
24.48263	106184
24.49075	95060
24.49888	98223
24.50700	88046
24.51512	88588
24.52325	81371
24.53137	80771
24.53950	84305
24.54762	86744
24.55573	86038
24.56387	89246
24.57198	85535
24.58012	83158
24.58823	71513
24.59635	74705
24.60448	63638
24.61260	67523
24.62073	64489
24.62885	64462
24.63697	63946
24.64510	64762
24.65322	68571
24.66133	63377
24.66947	62633
24.67758	63570
24.68572	63244
24.69383	74126
24.70195	90014
24.71008	129269
24.71820	160582
24.72633	193195
24.73445	232857
24.74257	247184
24.75070	267144
24.75882	254160
24.76693	277919
24.77507	271130
24.78318	260937
24.79132	263289
24.79943	257209
24.80755	251307
24.81568	241433
24.82380	233755
24.83193	239521
24.84005	244484
24.84817	241101
24.85630	252592
24.86442	276862
24.87255	291097
24.88067	311055
24.88878	312243
24.89692	291506
24.90503	267543
24.91315	225993
24.92128	193544
24.92940	170801
24.93753	159192
24.94565	137078
24.95377	131087
24.96190	125736
24.97002	115942
24.97815	117644
24.98627	111719
24.99438	105548
25.00252	99947
25.01063	103189
25.01877	104490
25.02688	87953
25.03500	94763
25.04313	93012
25.05125	85419
25.05937	90651
25.06750	82952
25.07562	84242
25.08375	90352
25.09187	96157
25.09998	118828
25.10812	171408
25.11623	274167
25.12437	400374
25.13248	540963
25.14060	650827
25.14873	697497
25.15685	590490
25.16497	460872
25.17310	320551
25.18122	224902
25.18935	155448
25.19747	121448
25.20558	106335
25.21372	95468
25.22183	91876
25.22997	91868
25.23808	99562
25.24620	106938
25.25433	115839
25.26245	118375
25.27058	130551
25.27870	123148
25.28682	116846
25.29495	103827
25.30307	99737
25.31118	96054
25.31932	94888
25.32743	90071
25.33557	80473
25.34368	77046
25.35180	73793
25.35993	70376
25.36805	70720
25.37618	66474
25.38430	64515
25.39242	64909
25.40055	63826
25.40867	65119
25.41680	64468
25.42492	61519
25.43303	63931
25.44117	65357
25.44928	64033
25.45740	63664
25.46553	65513
25.47365	62814
25.48178	64643
25.48990	64415
25.49802	60493
25.50615	56141
25.51427	60796
25.52240	60775
25.53052	63697
25.53863	59563
25.54677	57420
25.55488	58208
25.56300	57337
25.57113	57430
25.57925	54365
25.58738	52592
25.59550	56746
25.60362	54017
25.61175	53629
25.61987	52679
25.62800	51339
25.63612	50761
25.64423	52779
25.65237	50546
25.66048	50816
25.66862	52668
25.67673	51630
25.68485	50550
25.69298	53057
25.70110	51612
25.70922	48332
25.71735	55470
25.72547	55565
25.73360	54182
25.74172	50967
25.74983	47983
25.75797	51295
25.76608	53193
25.77422	50194
25.78233	52879
25.79045	53127
25.79858	55086
25.80670	51015
25.81482	53752
25.82295	54087
25.83107	55548
25.83920	55074
25.84732	55380
25.85543	50007
25.86357	52857
25.87168	50397
25.87982	49831
25.88793	53244
25.89605	47498
25.90418	49124
25.91230	48608
25.92043	51076
25.92855	50094
25.93667	48996
25.94480	52608
25.95292	51670
25.96103	50702
25.96917	55544
25.97728	47932
25.98542	49018
25.99353	50385
26.00165	46276
26.00978	48652
26.01790	49006
26.02603	50824
26.03415	48866
26.04227	48441
26.05040	43713
26.05852	46224
26.06665	45719
26.07477	46391
26.08288	43694
26.09102	48074
26.09913	49311
26.10725	48054
26.11538	51661
26.12350	59510
26.13163	59922
26.13975	57215
26.14787	58472
26.15600	64578
26.16412	61097
26.17225	61665
26.18037	60424
26.18848	57210
26.19662	57404
26.20473	55733
26.21285	56233
26.22098	52953
26.22910	49269
26.23723	49606
26.24535	47971
26.25347	47473
26.26160	47231
26.26972	45244
26.27785	48275
26.28597	49648
26.29408	44675
26.30222	43827
26.31033	46587
26.31847	47144
26.32658	44185
26.33470	41030
26.34283	44090
26.35095	47140
26.35907	44038
26.36720	47465
26.37532	44795
26.38345	49916
26.39157	50056
26.39968	49650
26.40782	51737
26.41593	46301
26.42407	46383
26.43218	46553
26.44030	42593
26.44843	43503
26.45655	44069
26.46468	44925
26.47280	45263
26.48092	46338
26.48905	44913
26.49717	45137
26.50528	45429
26.51342	43190
26.52153	41728
26.52967	46828
26.53778	47615
26.54590	43427
26.55403	49167
26.56215	44789
26.57028	43856
26.57840	46052
26.58652	40846
26.59465	44856
26.60277	43377
26.61088	44400
26.61902	44604
26.62713	45850
26.63527	43284
26.64338	44319
26.65150	45703
26.65963	45353
26.66775	44098
26.67588	44347
26.68400	45229
26.69212	50005
26.70025	45924
26.70837	48221
26.71650	47464
26.72462	46719
26.73273	48607
26.74087	43067
26.74898	45069
26.75710	43145
26.76523	47827
26.77335	47833
26.78148	47081
26.78960	48034
26.79772	48828
26.80585	49955
26.81397	49590
26.82210	51545
26.83022	49636
26.83833	48177
26.84647	43682
26.85458	47146
26.86272	51342
26.87083	46244
26.87895	45718
26.88708	45009
26.89520	46333
26.90332	44566
26.91145	47937
26.91957	50892
26.92770	48065
26.93582	54844
26.94393	57444
26.95207	70973
26.96018	116002
26.96832	165351
26.97643	267903
26.98455	410452
26.99268	566824
27.00080	691989
27.00892	772748
27.01705	785408
27.02517	705806
27.03330	566941
27.04142	463443
27.04953	348038
27.05767	282095
27.06578	232494
27.07392	194925
27.08203	163746
27.09015	140574
27.09828	132052
27.10640	123566
27.11453	114115
27.12265	111676
27.13077	103798
27.13890	95734
27.14702	93924
27.15513	94512
27.16327	92308
27.17138	98792
27.17952	89463
27.18763	87923
27.19575	90065
27.20388	86520
27.21200	78258
27.22013	72415
27.22825	75499
27.23637	71784
27.24450	67913
27.25262	64607
27.26073	66099
27.26887	65426
27.27698	60813
27.28512	63933
27.29323	63842
27.30135	56200
27.30948	63163
27.31760	58733
27.32573	59175
27.33385	58012
27.34197	56216
27.35010	56904
27.35822	58844
27.36635	55974
27.37447	61788
27.38258	53018
27.39072	55810
27.39883	56330
27.40695	55276
27.41508	52872
27.42320	53999
27.43133	51215
27.43945	53137
27.44757	55014
27.45570	51382
27.46382	49837
27.47195	53191
27.48007	53334
27.48818	51322
27.49632	54956
27.50443	50284
27.51257	54328
27.52068	49544
27.52880	50630
27.53693	54779
27.54505	54421
27.55317	53162
27.56130	54595
27.56942	51902
27.57755	58374
27.58567	61538
27.59378	55545
27.60192	56128
27.61003	55481
27.61817	55315
27.62628	49123
27.63440	47089
27.64253	48953
27.65065	47991
27.65877	47496
27.66690	53060
27.67502	52072
27.68315	51534
27.69127	49620
27.69938	50044
27.70752	48793
27.71563	46189
27.72377	47948
27.73188	51106
27.74000	55910
27.74813	51989
27.75625	53162
27.76438	52589
27.77250	52290
27.78062	55926
27.78875	50896
27.79687	46693
27.80498	52614
27.81312	47866
27.82123	48920
27.82937	48713
27.83748	50068
27.84560	45543
27.85373	47430
27.86185	46046
27.86998	47818
27.87810	46685
27.88622	44121
27.89435	43357
27.90247	45361
27.91060	43854
27.91872	44786
27.92683	44658
27.93497	42371
27.94308	47674
27.95120	50644
27.95933	48238
27.96745	45477
27.97558	48192
27.98370	48948
27.99182	48801
27.99995	50678
28.00807	49639
28.01620	50897
28.02432	50462
28.03243	51680
28.04057	57434
28.04868	56393
28.05680	55130
28.06493	56078
28.07305	56624
28.08118	56597
28.08930	64495
28.09742	73270
28.10555	77091
28.11367	81239
28.12180	75998
28.12992	72671
28.13803	68593
28.14617	58795
28.15428	58735
28.16242	60439
28.17053	60133
28.17865	60128
28.18678	56489
28.19490	59290
28.20302	53035
28.21115	55546
28.21927	59058
28.22740	53800
28.23552	55247
28.24363	57230
28.25177	56784
28.25988	60077
28.26802	69044
28.27613	92723
28.28425	116400
28.29238	147554
28.30050	181108
28.30862	226529
28.31675	247353
28.32487	275364
28.33300	275830
28.34112	267975
28.34923	254315
28.35737	238700
28.36548	216579
28.37362	188861
28.38173	170762
28.38985	154854
28.39798	145585
28.40610	125624
28.41423	114538
28.42235	108327
28.43047	97676
28.43860	90058
28.44672	83235
28.45483	82770
28.46297	81765
28.47108	75010
28.47922	72731
28.48733	70213
28.49545	69545
28.50358	66516
28.51170	65873
28.51983	67391
28.52795	65968
28.53607	63877
28.54420	68985
28.55232	65747
28.56045	63971
28.56857	61598
28.57668	65597
28.58482	58111
28.59293	59751
28.60105	56094
28.60918	59551
28.61730	56780
28.62543	58608
28.63355	61408
28.64167	66753
28.64980	64651
28.65792	66955
28.66605	69096
28.67417	63204
28.68228	64810
28.69042	64123
28.69853	63192
28.70665	66386
28.71478	68839
28.72290	77229
28.73103	83642
28.73915	78810
28.74727	74717
28.75540	68931
28.76352	61167
28.77165	56342
28.77977	54676
28.78788	50675
28.79602	51314
28.80413	54250
28.81227	57423
28.82038	53044
28.82850	51356
28.83663	52653
28.84475	56492
28.85287	55483
28.86100	50314
28.86912	53091
28.87725	51726
28.88537	48830
28.89348	56026
28.90162	51489
28.90973	55716
28.91787	54320
28.92598	51590
28.93410	50924
28.94223	53549
28.95035	51614
28.95848	52516
28.96660	52827
28.97472	50671
28.98285	48758
28.99097	48402
28.99908	46610
29.00722	46992
29.01533	46705
29.02347	46146
29.03158	48982
29.03970	46688
29.04783	48561
29.05595	48685
29.06408	50289
29.07220	46516
29.08032	46996
29.08845	47493
29.09657	50021
29.10468	47188
29.11282	45237
29.12093	44897
29.12907	45426
29.13718	44690
29.14530	44670
29.15343	46598
29.16155	52689
29.16968	50198
29.17780	51791
29.18592	52221
29.19405	55134
29.20217	57947
29.21030	61149
29.21842	56821
29.22653	60400
29.23467	56533
29.24278	54159
29.25090	54287
29.25903	48802
29.26715	50562
29.27528	49000
29.28340	45858
29.29152	47061
29.29965	47366
29.30777	50005
29.31590	43136
29.32402	50469
29.33213	45695
29.34027	42110
29.34838	44389
29.35650	42715
29.36463	46439
29.37275	44363
29.38088	44806
29.38900	47714
29.39712	44438
29.40525	44637
29.41337	43029
29.42150	47006
29.42962	48858
29.43773	47802
29.44587	47973
29.45398	47755
29.46212	46512
29.47023	44469
29.47835	53498
29.48648	49529
29.49460	48018
29.50272	50268
29.51085	51489
29.51897	51659
29.52710	49604
29.53522	47102
29.54333	43737
29.55147	49107
29.55958	47680
29.56772	50850
29.57583	51998
29.58395	57350
29.59208	60888
29.60020	59786
29.60833	60532
29.61645	58098
29.62457	57200
29.63270	54463
29.64082	51410
29.64893	43785
29.65707	42739
29.66518	47077
29.67332	48882
29.68143	50604
29.68955	53675
29.69768	53410
29.70580	59604
29.71393	63019
29.72205	63553
29.73017	66872
29.73830	66981
29.74642	64039
29.75455	63854
29.76267	65868
29.77078	58892
29.77892	59213
29.78703	61380
29.79515	58829
29.80328	64698
29.81140	55672
29.81953	58956
29.82765	56651
29.83577	54013
29.84390	58802
29.85202	58838
29.86015	59127
29.86827	56097
29.87638	62226
29.88452	68742
29.89263	75839
29.90075	90135
29.90888	91340
29.91700	102061
29.92513	105926
29.93325	118111
29.94137	135541
29.94950	134099
29.95762	146445
29.96575	144599
29.97387	153291
29.98198	149669
29.99012	145506
29.99823	136129
30.00637	130823
30.01448	124837
30.02260	117395
30.03073	108686
30.03885	110969
30.04697	96835
30.05510	92508
30.06322	88190
30.07135	82738
30.07947	76668
30.08758	76449
30.09572	80043
30.10383	71240
30.11197	73374
30.12008	69259
30.12820	67578
30.13633	68105
30.14445	68889
30.15257	64436
30.16070	68980
30.16882	62326
30.17695	62451
30.18507	57928
30.19318	57080
30.20132	59456
30.20943	57905
30.21757	57676
30.22568	53586
30.23380	59227
30.24193	57224
30.25005	51667
30.25818	51918
30.26630	57654
30.27442	53376
30.28255	57110
30.29067	52176
30.29878	54099
30.30692	51981
30.31503	51591
30.32317	53377
30.33128	53230
30.33940	49954
30.34753	54519
30.35565	52064
30.36378	51658
30.37190	49979
30.38002	46015
30.38815	50238
30.39627	51508
30.40440	49136
30.41252	46413
30.42063	50887
30.42877	50780
30.43688	49679
30.44500	49097
30.45313	44706
30.46125	49433
30.46938	49226
30.47750	49439
30.48562	46915
30.49375	46559
30.50187	47940
30.51000	49996
30.51812	49936
30.52623	48195
30.53437	48690
30.54248	48212
30.55060	50016
30.55873	48030
30.56685	45804
30.57498	47288
30.58310	45855
30.59122	49518
30.59935	48300
30.60747	50367
30.61560	50357
30.62372	46644
30.63183	48081
30.63997	50072
30.64808	50164
30.65622	47875
30.66433	46939
30.67245	46133
30.68058	47264
30.68870	46203
30.69682	46514
30.70495	44387
30.71307	45678
30.72120	45641
30.72932	44531
30.73743	49010
30.74557	45633
30.75368	45129
30.76182	48341
30.76993	50527
30.77805	51390
30.78618	56960
30.79430	64329
30.80243	65994
30.81055	69169
30.81867	66397
30.82680	58965
30.83492	53209
30.84303	56107
30.85117	51184
30.85928	46295
30.86742	44604
30.87553	45630
30.88365	48871
30.89178	45434
30.89990	48587
30.90803	43620
30.91615	45022
30.92427	46518
30.93240	47797
30.94052	45384
30.94863	43847
30.95677	43956
30.96488	47587
30.97302	46041
30.98113	44249
30.98925	43593
30.99738	46118
31.00550	45167
31.01363	51199
31.02175	46037
31.02987	49189
31.03800	48192
31.04612	47616
31.05425	50256
31.06237	49226
31.07048	48796
31.07862	53855
31.08673	54847
31.09485	55040
31.10298	61969
31.11110	56753
31.11923	55949
31.12735	59339
31.13547	56859
31.14360	51539
31.15172	55419
31.15985	54610
31.16797	61833
31.17608	68528
31.18422	84788
31.19233	108059
31.20045	130478
31.20858	146827
31.21670	155209
31.22483	143605
31.23295	128478
31.24107	101289
31.24920	84420
31.25732	66749
31.26545	57736
31.27357	51095
31.28168	51514
31.28982	49508
31.29793	50546
31.30607	51165
31.31418	50105
31.32230	53889
31.33043	47759
31.33855	47634
31.34667	47019
31.35480	49671
31.36292	48914
31.37105	54303
31.37917	48383
31.38728	52394
31.39542	51507
31.40353	48732
31.41167	47170
31.41978	45582
31.42790	50290
31.43603	48896
31.44415	48113
31.45228	50089
31.46040	50932
31.46852	46366
31.47665	51441
31.48477	44933
31.49288	47601
31.50102	46982
31.50913	49267
31.51727	44886
31.52538	43392
31.53350	47202
31.54163	50515
31.54975	48938
31.55788	47655
31.56600	45245
31.57412	48623
31.58225	49837
31.59037	48205
31.59848	43282
31.60662	45506
31.61473	46963
31.62287	44609
31.63098	48437
31.63910	52012
31.64723	46736
31.65535	51769
31.66348	56269
31.67160	52768
31.67972	55999
31.68785	57382
31.69597	58356
31.70410	57043
31.71222	54198
31.72033	56104
31.72847	46746
31.73658	49609
31.74470	47307
31.75283	47333
31.76095	46362
31.76908	46949
31.77720	49806
31.78532	48088
31.79345	52596
31.80157	48973
31.80970	48914
31.81782	52606
31.82593	52669
31.83407	53644
31.84218	61757
31.85032	65712
31.85843	73482
31.86655	83397
31.87468	91328
31.88280	98182
31.89092	104573
31.89905	105020
31.90717	109730
31.91530	111234
31.92342	109069
31.93153	108129
31.93967	96567
31.94778	94873
31.95592	92758
31.96403	84718
31.97215	86012
31.98028	82797
31.98840	75203
31.99652	76085
32.00465	75716
32.01277	75269
32.02090	74382
32.02902	71352
32.03713	72321
32.04527	67152
32.05338	61663
32.06152	65533
32.06963	57687
32.07775	61675
32.08588	58745
32.09400	62741
32.10213	58674
32.11025	56774
32.11837	55666
32.12650	52928
32.13462	53858
32.14273	50280
32.15087	54135
32.15898	56026
32.16712	52098
32.17523	51015
32.18335	52328
32.19148	57553
32.19960	50020
32.20773	50904
32.21585	54524
32.22397	51939
32.23210	52368
32.24022	57574
32.24835	49496
32.25647	50829
32.26458	49260
32.27272	57039
32.28083	51766
32.28895	52831
32.29708	54867
32.30520	51573
32.31333	47264
32.32145	51725
32.32957	55245
32.33770	54059
32.34582	52127
32.35395	51585
32.36207	52224
32.37018	51378
32.37832	51548
32.38643	49699
32.39455	52275
32.40268	49401
32.41080	45464
32.41893	48374
32.42705	49402
32.43517	48476
32.44330	49911
32.45142	50506
32.45955	49940
32.46767	49693
32.47578	52338
32.48392	51399
32.49203	51873
32.50017	49453
32.50828	48295
32.51640	53197
32.52453	51133
32.53265	51323
32.54077	49823
32.54890	53895
32.55702	54869
32.56515	51949
32.57327	48638
32.58138	49978
32.58952	51797
32.59763	54333
32.60577	61656
32.61388	68718
32.62200	74923
32.63013	70678
32.63825	69615
32.64637	64784
32.65450	54956
32.66262	52384
32.67075	51718
32.67887	52181
32.68698	51377
32.69512	51521
32.70323	54428
32.71137	57545
32.71948	57733
32.72760	54774
32.73573	51862
32.74385	59479
32.75198	51778
32.76010	51055
32.76822	53434
32.77635	48572
32.78447	48456
32.79258	44702
32.80072	49821
32.80883	49537
32.81697	47166
32.82508	50048
32.83320	47305
32.84133	52714
32.84945	46441
32.85758	47823
32.86570	47581
32.87382	51424
32.88195	50524
32.89007	50061
32.89820	47809
32.90632	50444
32.91443	52196
32.92257	46842
32.93068	49867
32.93880	51846
32.94693	52700
32.95505	51835
32.96318	50094
32.97130	51797
32.97942	55131
32.98755	54290
32.99567	54148
33.00380	55362
33.01192	54248
33.02003	52900
33.02817	50575
33.03628	49391
33.04440	54027
33.05253	53843
33.06065	48961
33.06878	52771
33.07690	51085
33.08502	56563
33.09315	56000
33.10127	60580
33.10940	66856
33.11752	64493
33.12563	72093
33.13377	72473
33.14188	61231
33.15002	60557
33.15813	56281
33.16625	60312
33.17438	53099
33.18250	55172
33.19062	50997
33.19875	50620
33.20687	52944
33.21500	48529
33.22312	49810
33.23123	50256
33.23937	49981
33.24748	50248
33.25562	48984
33.26373	52788
33.27185	52903
33.27998	52721
33.28810	52498
33.29623	50406
33.30435	50026
33.31247	49626
33.32060	53473
33.32872	47211
33.33683	50306
33.34497	46837
33.35308	52077
33.36122	52821
33.36933	48536
33.37745	51076
33.38558	51308
33.39370	50561
33.40183	47443
33.40995	45839
33.41807	49083
33.42620	50014
33.43432	50309
33.44243	56973
33.45057	51599
33.45868	51046
33.46682	51097
33.47493	48867
33.48305	55245
33.49118	47075
33.49930	49996
33.50743	53055
33.51555	51490
33.52367	54548
33.53180	55494
33.53992	52168
33.54805	54987
33.55617	54129
33.56428	57320
33.57242	53301
33.58053	52533
33.58865	50341
33.59678	53848
33.60490	51132
33.61303	51525
33.62115	53062
33.62927	58010
33.63740	51800
33.64552	51658
33.65365	53134
33.66177	54190
33.66988	49566
33.67802	51368
33.68613	49965
33.69425	52096
33.70238	48510
33.71050	50618
33.71863	48499
33.72675	48041
33.73487	51805
33.74300	49966
33.75112	51431
33.75925	46654
33.76737	50953
33.77548	53695
33.78362	49835
33.79173	52282
33.79987	55056
33.80798	54875
33.81610	58061
33.82423	54919
33.83235	51402
33.84047	52736
33.84860	53135
33.85672	50676
33.86485	53819
33.87297	56955
33.88108	57508
33.88922	56148
33.89733	58829
33.90547	59833
33.91358	59918
33.92170	58194
33.92983	59098
33.93795	58386
33.94608	58074
33.95420	54373
33.96232	58291
33.97045	58902
33.97857	62264
33.98668	57332
33.99482	58459
34.00293	57712
34.01107	56859
34.01918	59502
34.02730	57049
34.03543	62129
34.04355	56533
34.05168	58549
34.05980	57837
34.06792	56823
34.07605	59661
34.08417	56093
34.09228	56476
34.10042	63157
34.10853	57909
34.11667	57133
34.12478	62498
34.13290	56098
34.14103	58806
34.14915	52674
34.15728	54396
34.16540	56240
34.17352	51805
34.18165	55498
34.18977	54386
34.19790	59485
34.20602	51844
34.21413	55503
34.22227	57126
34.23038	53007
34.23850	53871
34.24663	52353
34.25475	51448
34.26288	54040
34.27100	57543
34.27912	59273
34.28725	56206
34.29537	53327
34.30350	56659
34.31162	58400
34.31973	55249
34.32787	55714
34.33598	55555
34.34412	58254
34.35223	55148
34.36035	54708
34.36848	52942
34.37660	54744
34.38472	56864
34.39285	52112
34.40097	56279
34.40910	54356
34.41722	54205
34.42533	51438
34.43347	59335
34.44158	57658
34.44972	57613
34.45783	64073
34.46595	70301
34.47408	73596
34.48220	83473
34.49032	91675
34.49845	101342
34.50657	105878
34.51470	104668
34.52282	101888
34.53093	105443
34.53907	91587
34.54718	87521
34.55532	80411
34.56343	82544
34.57155	75429
34.57968	72907
34.58780	71235
34.59593	73562
34.60405	73288
34.61217	69790
34.62030	67445
34.62842	66628
34.63653	64634
34.64467	65190
34.65278	67272
34.66092	68246
34.66903	68726
34.67715	66640
34.68528	67771
34.69340	67257
34.70153	65789
34.70965	66668
34.71777	65642
34.72590	62109
34.73402	66655
34.74213	62275
34.75027	64066
34.75838	64423
34.76652	69798
34.77463	65413
34.78275	63647
34.79088	65579
34.79900	64500
34.80713	69754
34.81525	63267
34.82337	63439
34.83150	64037
34.83962	65248
34.84775	64393
34.85587	63663
34.86398	64219
34.87212	61902
34.88023	62714
34.88835	63753
34.89648	61866
34.90460	60467
34.91273	62711
34.92085	66358
34.92897	66094
34.93710	61334
34.94522	67594
34.95335	66767
34.96147	64126
34.96958	61570
34.97772	65197
34.98583	62900
34.99397	64756
35.00208	59011
35.01020	60440
35.01833	62967
35.02645	64263
35.03457	59364
35.04270	60267
35.05082	58151
35.05895	58129
35.06707	60954
35.07518	62334
35.08332	62400
35.09143	63215
35.09957	64758
35.10768	64936
35.11580	66200
35.12393	64367
35.13205	67932
35.14018	70590
35.14830	73111
35.15642	74944
35.16455	68653
35.17267	66917
35.18078	67864
35.18892	68562
35.19703	66565
35.20517	68394
35.21328	72345
35.22140	69345
35.22953	67302
35.23765	67285
35.24578	70480
35.25390	69502
35.26202	72038
35.27015	77389
35.27827	72342
35.28638	70134
35.29452	66183
35.30263	74903
35.31077	64103
35.31888	67374
35.32700	66908
35.33513	66346
35.34325	61924
35.35138	64140
35.35950	65456
35.36762	63827
35.37575	62582
35.38387	66978
35.39200	63406
35.40012	65912
35.40823	66515
35.41637	66202
35.42448	65146
35.43260	66034
35.44073	71742
35.44885	69869
35.45698	74726
35.46510	73814
35.47322	78451
35.48135	72913
35.48947	71458
35.49760	66338
35.50572	66940
35.51383	69142
35.52197	65253
35.53008	64227
35.53820	70504
35.54633	69429
35.55445	70789
35.56258	70157
35.57070	72154
35.57882	74622
35.58695	70384
35.59507	72570
35.60320	73413
35.61132	70789
35.61943	71940
35.62757	74711
35.63568	73456
35.64382	70293
35.65193	72819
35.66005	67722
35.66818	69364
35.67630	70229
35.68442	69696
35.69255	62895
35.70067	65872
35.70880	68137
35.71692	68982
35.72503	67516
35.73317	65057
35.74128	68558
35.74942	69897
35.75753	71941
35.76565	72142
35.77378	70115
35.78190	69160
35.79003	70138
35.79815	69059
35.80627	72082
35.81440	67045
35.82252	68259
35.83063	71387
35.83877	67249
35.84688	66381
35.85502	72132
35.86313	70127
35.87125	63835
35.87938	69654
35.88750	66955
35.89563	71261
35.90375	67106
35.91187	68786
35.92000	67804
35.92812	72346
35.93623	72629
35.94437	70053
35.95248	63342
35.96062	67029
35.96873	73967
35.97685	70987
35.98498	66223
35.99310	74741
36.00123	71444
36.00935	75928
36.01747	71359
36.02560	79172
36.03372	74938
36.04185	76654
36.04997	71719
36.05808	71968
36.06622	70103
36.07433	79707
36.08245	70539
36.09058	70686
36.09870	72813
36.10683	72078
36.11495	71110
36.12307	68300
36.13120	75461
36.13932	74500
36.14745	79123
36.15557	80254
36.16368	75884
36.17182	69916
36.17993	74126
36.18807	71173
36.19618	67309
36.20430	68980
36.21243	69222
36.22055	74081
36.22867	73022
36.23680	74337
36.24492	73605
36.25305	89428
36.26117	95440
36.26928	94758
36.27742	101686
36.28553	92261
36.29367	88266
36.30178	83510
36.30990	78117
36.31803	75707
36.32615	72345
36.33427	76435
36.34240	73703
36.35052	71814
36.35865	73478
36.36677	75372
36.37488	74682
36.38302	75203
36.39113	79204
36.39927	83970
36.40738	80936
36.41550	79097
36.42363	76742
36.43175	74088
36.43988	74323
36.44800	70755
36.45612	69527
36.46425	75274
36.47237	73222
36.48048	75313
36.48862	76596
36.49673	74408
36.50487	78844
36.51298	70780
36.52110	72381
36.52923	72511
36.53735	72201
36.54548	72887
36.55360	75122
36.56172	74364
36.56985	72595
36.57797	74428
36.58608	78872
36.59422	78567
36.60233	78132
36.61047	74796
36.61858	80718
36.62670	73497
36.63483	82088
36.64295	73550
36.65108	77697
36.65920	75758
36.66732	76914
36.67545	72719
36.68357	75225
36.69170	74558
36.69982	73315
36.70793	82676
36.71607	71354
36.72418	72533
36.73230	77388
36.74043	71070
36.74855	73415
36.75668	75341
36.76480	75623
36.77292	72775
36.78105	71164
36.78917	79266
36.79730	74033
36.80542	75175
36.81353	77317
36.82167	81167
36.82978	77150
36.83792	78078
36.84603	75292
36.85415	78074
36.86228	84371
36.87040	79371
36.87852	85632
36.88665	77603
36.89477	81645
36.90290	76253
36.91102	74965
36.91913	77495
36.92727	83398
36.93538	81178
36.94352	84801
36.95163	81884
36.95975	83490
36.96788	80007
36.97600	81466
36.98412	88360
36.99225	95440
37.00037	107184
37.00850	116399
37.01662	125872
37.02473	141498
37.03287	146082
37.04098	142522
37.04912	128240
37.05723	112362
37.06535	99669
37.07348	92528
37.08160	85648
37.08973	86296
37.09785	84474
37.10597	85958
37.11410	81170
37.12222	84355
37.13033	81733
37.13847	84006
37.14658	85780
37.15472	86168
37.16283	83324
37.17095	88636
37.17908	82615
37.18720	84896
37.19533	85918
37.20345	81679
37.21157	83548
37.21970	79636
37.22782	80899
37.23595	81213
37.24407	83594
37.25218	86257
37.26032	87349
37.26843	90447
37.27655	99355
37.28468	107129
37.29280	112045
37.30093	127017
37.30905	121080
37.31717	124094
37.32530	120788
37.33342	110890
37.34155	108689
37.34967	106053
37.35778	106588
37.36592	100895
37.37403	103648
37.38215	101088
37.39028	104984
37.39840	98220
37.40653	95375
37.41465	94911
37.42277	97371
37.43090	93445
37.43902	95169
37.44715	93419
37.45527	97322
37.46338	92329
37.47152	98214
37.47963	93064
37.48777	90219
