Z:\data\JTB-E02\BACandBLUE\JTB-E02-193-12.D Wed Dec 19 10:58:04 2018
Start of data points
2.09525,84928
2.10337,84810
2.11148,90563
2.11962,87819
2.12773,84917
2.13587,84495
2.14398,93098
2.15210,92774
2.16023,81970
2.16835,81610
2.17648,83113
2.18460,81080
2.19272,79911
2.20085,85229
2.20897,77976
2.21708,73649
2.22522,74652
2.23333,73428
2.24147,85092
2.24958,245253
2.25770,586205
2.26583,449842
2.27395,374058
2.28208,884990
2.29020,1079158
2.29832,651076
2.30645,442639
2.31457,348269
2.32268,301740
2.33082,263959
2.33893,232572
2.34707,216400
2.35518,207540
2.36330,187028
2.37143,179206
2.37955,174514
2.38768,165611
2.39580,171534
2.40392,162111
2.41205,160513
2.42017,151128
2.42830,146735
2.43642,145278
2.44453,142612
2.45267,140529
2.46078,129699
2.46890,135863
2.47703,133775
2.48515,130597
2.49328,126370
2.50140,136366
2.50952,142356
2.51765,129665
2.52577,128512
2.53390,134377
2.54202,135047
2.55013,128826
2.55827,128075
2.56638,126768
2.57450,121029
2.58263,137731
2.59075,209790
2.59888,224758
2.60700,196563
2.61512,267068
2.62325,335965
2.63137,280131
2.63950,215776
2.64762,180443
2.65573,160663
2.66387,149242
2.67198,135001
2.68012,129942
2.68823,120376
2.69635,114710
2.70448,114820
2.71260,116164
2.72072,111647
2.72885,108814
2.73697,104096
2.74510,106296
2.75322,152285
2.76133,670109
2.76947,1449694
2.77758,1166856
2.78572,1167228
2.79383,2097850
2.80195,2000611
2.81008,1254430
2.81820,870653
2.82633,703855
2.83445,586073
2.84257,485961
2.85070,417117
2.85882,354708
2.86693,307791
2.87507,283096
2.88318,263680
2.89132,241951
2.89943,220656
2.90755,205787
2.91568,189013
2.92380,180792
2.93193,172621
2.94005,170496
2.94817,168273
2.95630,162433
2.96442,153377
2.97253,154096
2.98067,157129
2.98878,148080
2.99692,145795
3.00503,146563
3.01315,143695
3.02128,141269
3.02940,139846
3.03753,136008
3.04565,136337
3.05377,122748
3.06190,134754
3.07002,246397
3.07815,515255
3.08627,1092128
3.09438,1990838
3.10252,2100612
3.11063,2231960
3.11875,3196200
3.12688,3131521
3.13500,2214814
3.14313,1574432
3.15125,1265470
3.15937,1077340
3.16750,1293748
3.17562,2373522
3.18375,3005575
3.19187,2945231
3.19998,4112989
3.20812,4940503
3.21623,4056405
3.22437,2935096
3.23248,2285223
3.24060,1858055
3.24873,1574178
3.25685,1337770
3.26497,1186492
3.27310,1114778
3.28122,1302772
3.28935,2076401
3.29747,3072081
3.30558,3923178
3.31372,5014029
3.32183,5776439
3.32997,5156171
3.33808,3812988
3.34620,2734661
3.35433,2090940
3.36245,1717459
3.37057,1458459
3.37870,1257443
3.38682,1134214
3.39495,1003121
3.40307,918352
3.41118,856791
3.41932,821827
3.42743,785335
3.43557,740746
3.44368,729163
3.45180,780182
3.45993,838129
3.46805,806352
3.47618,790022
3.48430,796508
3.49242,745267
3.50055,620849
3.50867,539825
3.51678,523860
3.52492,525416
3.53303,512168
3.54117,502959
3.54928,522547
3.55740,499582
3.56553,452328
3.57365,389189
3.58178,378010
3.58990,361083
3.59802,354122
3.60615,332744
3.61427,350810
3.62238,347818
3.63052,340850
3.63863,374286
3.64677,998347
3.65488,5766254
3.66300,1.779157E+07
3.67113,2.67869E+07
3.67925,2.841028E+07
3.68738,3.423909E+07
3.69550,3.913029E+07
3.70362,3.412356E+07
3.71175,2.512272E+07
3.71987,1.897576E+07
3.72800,1.536827E+07
3.73612,1.304015E+07
3.74423,1.118731E+07
3.75237,9768832
3.76048,8676217
3.76860,7715609
3.77673,6895674
3.78485,6318026
3.79298,5890046
3.80110,5642735
3.80922,5438652
3.81735,5207340
3.82547,5164703
3.83360,5009076
3.84172,4561061
3.84983,4134685
3.85797,3756913
3.86608,3491823
3.87422,3297763
3.88233,3073386
3.89045,2949297
3.89858,2829740
3.90670,2836112
3.91482,2982429
3.92295,3141642
3.93107,3129506
3.93920,3181065
3.94732,3163212
3.95543,2979220
3.96357,2712934
3.97168,2526250
3.97982,2443931
3.98793,2312891
3.99605,2271893
4.00418,2312545
4.01230,2371657
4.02043,2415461
4.02855,2412645
4.03667,2193175
4.04480,1882156
4.05292,1671293
4.06103,1525831
4.06917,1445580
4.07728,1384234
4.08542,1330273
4.09353,1299969
4.10165,1266764
4.10978,1221493
4.11790,1177875
4.12603,1160374
4.13415,1121869
4.14227,1100216
4.15040,1096318
4.15852,1067692
4.16663,1057172
4.17477,1075142
4.18288,1045162
4.19102,1038475
4.19913,1380334
4.20725,3366139
4.21538,9044910
4.22350,1.708901E+07
4.23163,2.30437E+07
4.23975,2.501665E+07
4.24787,2.545143E+07
4.25600,2.815185E+07
4.26412,3.054124E+07
4.27225,2.913538E+07
4.28037,2.129975E+07
4.28848,1.341632E+07
4.29662,9438185
4.30473,7305992
4.31285,5918921
4.32098,4864375
4.32910,4166679
4.33723,3630162
4.34535,3178193
4.35347,2890883
4.36160,2742719
4.36972,2693558
4.37785,2570138
4.38597,2429489
4.39408,2176924
4.40222,1902023
4.41033,1659982
4.41845,1521269
4.42658,1418169
4.43470,1338983
4.44283,1250834
4.45095,1177751
4.45907,1128869
4.46720,1074196
4.47532,1028708
4.48345,997525
4.49157,956696
4.49968,928514
4.50782,911483
4.51593,885117
4.52407,859129
4.53218,875806
4.54030,853244
4.54843,862557
4.55655,863150
4.56467,856689
4.57280,832894
4.58092,768515
4.58905,744516
4.59717,728428
4.60528,697747
4.61342,729147
4.62153,908034
4.62967,1292495
4.63778,1771463
4.64590,2219370
4.65403,2472278
4.66215,2358241
4.67028,1945600
4.67840,1495504
4.68652,1217659
4.69465,1059555
4.70277,916452
4.71088,823833
4.71902,733018
4.72713,678222
4.73527,642362
4.74338,617780
4.75150,609421
4.75963,575600
4.76775,550567
4.77588,569724
4.78400,553644
4.79212,593790
4.80025,665256
4.80837,708502
4.81648,774987
4.82462,774865
4.83273,767712
4.84087,752521
4.84898,791303
4.85710,828080
4.86523,831864
4.87335,806278
4.88148,688334
4.88960,639118
4.89772,579464
4.90585,563498
4.91397,528321
4.92210,508030
4.93022,499110
4.93833,521599
4.94647,643525
4.95458,923154
4.96270,1422884
4.97083,1998122
4.97895,2401641
4.98708,2285509
4.99520,1958165
5.00332,1537763
5.01145,1249786
5.01957,1123497
5.02770,1204388
5.03582,1425728
5.04393,1717717
5.05207,2001317
5.06018,2094710
5.06832,1884326
5.07643,1584846
5.08455,1345153
5.09268,1186742
5.10080,1083868
5.10892,993933
5.11705,930021
5.12517,873720
5.13330,817354
5.14142,812401
5.14953,874449
5.15767,986898
5.16578,1202849
5.17392,1349278
5.18203,1464887
5.19015,1411123
5.19828,1321709
5.20640,1306465
5.21452,1324038
5.22265,1339834
5.23077,1255848
5.23890,1099956
5.24702,931473
5.25513,810116
5.26327,726683
5.27138,683333
5.27952,604052
5.28763,552971
5.29575,529316
5.30388,506622
5.31200,509033
5.32013,484275
5.32825,501777
5.33637,501417
5.34450,516927
5.35262,503821
5.36073,508064
5.36887,486292
5.37698,459338
5.38512,468615
5.39323,488941
5.40135,527991
5.40948,565769
5.41760,569480
5.42573,549283
5.43385,500041
5.44197,475686
5.45010,500613
5.45822,567644
5.46633,608702
5.47447,615467
5.48258,563458
5.49072,499511
5.49883,432024
5.50695,401751
5.51508,382796
5.52320,383418
5.53133,367508
5.53945,380231
5.54757,394345
5.55570,521108
5.56382,757937
5.57195,1124738
5.58007,1504036
5.58818,1666686
5.59632,1545746
5.60443,1216545
5.61255,864689
5.62068,652455
5.62880,526836
5.63693,483961
5.64505,459691
5.65317,439042
5.66130,412526
5.66942,391708
5.67755,388348
5.68567,403307
5.69378,420200
5.70192,447918
5.71003,456011
5.71817,482153
5.72628,483906
5.73440,460437
5.74253,422288
5.75065,377621
5.75877,352545
5.76690,329931
5.77502,322342
5.78315,308182
5.79127,305599
5.79938,296478
5.80752,299969
5.81563,292043
5.82377,296489
5.83188,290724
5.84000,291139
5.84813,290793
5.85625,288413
5.86437,284997
5.87250,274859
5.88062,274611
5.88875,276263
5.89687,271505
5.90498,288809
5.91312,291062
5.92123,312489
5.92937,336821
5.93748,344733
5.94560,332324
5.95373,344017
5.96185,369925
5.96998,424063
5.97810,530927
5.98622,657932
5.99435,790671
6.00247,826123
6.01058,844035
6.01872,812954
6.02683,799945
6.03497,725734
6.04308,614297
6.05120,503751
6.05933,410048
6.06745,350329
6.07558,319949
6.08370,311714
6.09182,292066
6.09995,276678
6.10807,273670
6.11620,257811
6.12432,318368
6.13243,502267
6.14057,863636
6.14868,1372512
6.15680,1762077
6.16493,1824112
6.17305,1557762
6.18118,1191697
6.18930,895242
6.19742,716455
6.20555,605646
6.21367,520486
6.22180,466537
6.22992,429298
6.23803,409911
6.24617,414752
6.25428,433661
6.26240,480108
6.27053,517407
6.27865,522129
6.28678,476581
6.29490,409718
6.30302,380373
6.31115,356494
6.31927,340902
6.32740,341287
6.33552,323995
6.34363,335684
6.35177,320904
6.35988,330134
6.36802,319524
6.37613,320035
6.38425,315507
6.39238,316547
6.40050,312254
6.40862,316841
6.41675,294410
6.42487,288739
6.43300,294697
6.44112,279499
6.44923,292562
6.45737,301641
6.46548,312477
6.47362,312261
6.48173,314163
6.48985,309286
6.49798,296308
6.50610,295278
6.51423,301641
6.52235,315163
6.53047,306920
6.53860,314749
6.54672,301597
6.55483,297950
6.56297,344667
6.57108,484794
6.57922,773729
6.58733,1163016
6.59545,1440839
6.60358,1342045
6.61170,1044600
6.61983,711039
6.62795,494918
6.63607,374917
6.64420,328234
6.65232,277812
6.66043,253898
6.66857,254351
6.67668,240134
6.68482,239758
6.69293,236504
6.70105,212244
6.70918,207326
6.71730,197342
6.72543,186843
6.73355,186102
6.74167,192195
6.74980,191572
6.75792,186461
6.76605,180115
6.77417,182430
6.78228,177726
6.79042,175659
6.79853,176584
6.80665,179276
6.81478,172296
6.82290,169405
6.83103,162384
6.83915,164539
6.84727,169646
6.85540,173233
6.86352,179598
6.87165,179710
6.87977,210962
6.88788,232918
6.89602,243979
6.90413,233539
6.91225,201073
6.92038,175625
6.92850,153364
6.93663,147986
6.94475,139496
6.95287,139705
6.96100,140645
6.96912,139146
6.97725,155223
6.98537,167985
6.99348,189867
7.00162,191450
7.00973,187570
7.01787,161691
7.02598,164223
7.03410,163930
7.04223,171483
7.05035,164439
7.05847,148600
7.06660,147582
7.07472,150553
7.08285,180109
7.09097,227254
7.09908,303394
7.10722,360183
7.11533,376597
7.12347,348051
7.13158,299100
7.13970,231035
7.14783,208015
7.15595,238289
7.16408,422900
7.17220,1031474
7.18032,2534462
7.18845,5002560
7.19657,7790241
7.20468,9431248
7.21282,8480448
7.22093,5461309
7.22907,2518518
7.23718,915947
7.24530,382633
7.25343,244716
7.26155,213191
7.26968,203981
7.27780,197005
7.28592,182152
7.29405,182424
7.30217,179116
7.31028,181726
7.31842,172428
7.32653,167990
7.33467,164453
7.34278,172103
7.35090,181161
7.35903,216435
7.36715,267356
7.37528,322921
7.38340,339119
7.39152,338198
7.39965,302022
7.40777,255011
7.41590,207503
7.42402,184891
7.43213,164584
7.44027,151829
7.44838,144972
7.45650,138443
7.46463,145048
7.47275,139566
7.48088,151238
7.48900,156789
7.49712,153676
7.50525,157366
7.51337,159391
7.52150,145570
7.52962,136211
7.53773,138042
7.54587,163537
7.55398,234071
7.56212,471445
7.57023,993987
7.57835,2061403
7.58648,3614544
7.59460,5415846
7.60272,6738635
7.61085,6995262
7.61897,6239639
7.62710,4699417
7.63522,3127830
7.64333,1902452
7.65147,1181568
7.65958,720463
7.66772,491702
7.67583,351526
7.68395,262379
7.69208,241566
7.70020,248757
7.70832,298332
7.71645,371409
7.72457,401428
7.73270,416785
7.74082,416303
7.74893,384725
7.75707,361531
7.76518,328407
7.77332,290992
7.78143,261122
7.78955,235743
7.79768,208467
7.80580,202050
7.81393,216767
7.82205,255304
7.83017,300128
7.83830,315175
7.84642,287165
7.85453,250461
7.86267,199945
7.87078,184588
7.87892,186253
7.88703,206652
7.89515,257462
7.90328,322400
7.91140,396881
7.91953,429860
7.92765,417277
7.93577,363236
7.94390,320026
7.95202,300043
7.96013,302260
7.96827,301939
7.97638,297479
7.98452,266854
7.99263,239556
8.00075,196189
8.00888,178782
8.01700,139070
8.02513,135124
8.03325,122048
8.04137,111297
8.04950,114725
8.05762,112982
8.06575,107550
8.07387,111389
8.08198,115304
8.09012,115112
8.09823,112646
8.10635,115243
8.11448,116250
8.12260,107362
8.13073,112893
8.13885,130244
8.14697,184970
8.15510,258464
8.16322,334421
8.17135,378986
8.17947,361761
8.18758,302415
8.19572,239877
8.20383,183906
8.21197,160631
8.22008,143102
8.22820,134984
8.23633,126303
8.24445,117870
8.25257,112814
8.26070,110548
8.26882,105372
8.27695,110638
8.28507,104829
8.29318,102661
8.30132,100741
8.30943,102051
8.31757,99271
8.32568,96529
8.33380,103397
8.34193,116401
8.35005,121982
8.35817,133962
8.36630,129379
8.37442,120089
8.38255,111654
8.39067,105946
8.39878,99381
8.40692,89776
8.41503,89253
8.42317,89614
8.43128,87506
8.43940,90790
8.44753,85952
8.45565,90785
8.46378,86181
8.47190,84809
8.48002,87533
8.48815,86454
8.49627,90078
8.50438,89298
8.51252,112086
8.52063,145677
8.52877,201645
8.53688,266023
8.54500,268569
8.55313,242624
8.56125,171941
8.56938,131348
8.57750,108793
8.58562,100204
8.59375,94536
8.60187,87540
8.61000,91609
8.61812,88480
8.62623,100660
8.63437,121349
8.64248,142504
8.65060,165513
8.65873,176746
8.66685,178265
8.67498,158538
8.68310,148822
8.69122,118490
8.69935,102293
8.70747,91460
8.71560,91329
8.72372,85033
8.73183,94228
8.73997,96698
8.74808,96755
8.75620,95666
8.76433,92806
8.77245,100160
8.78058,105429
8.78870,141558
8.79682,245147
8.80495,432782
8.81307,653918
8.82120,821551
8.82932,824572
8.83743,685567
8.84557,538227
8.85368,415054
8.86182,331469
8.86993,265410
8.87805,239774
8.88618,221222
8.89430,200544
8.90242,190269
8.91055,193765
8.91867,209863
8.92680,270194
8.93492,356790
8.94303,435994
8.95117,464115
8.95928,394382
8.96742,313474
8.97553,241810
8.98365,216011
8.99178,234333
8.99990,266665
9.00802,309975
9.01615,311310
9.02427,286736
9.03240,247378
9.04052,210425
9.04863,187481
9.05677,168288
9.06488,160515
9.07302,149638
9.08113,148704
9.08925,151397
9.09738,148804
9.10550,161379
9.11363,201360
9.12175,273482
9.12987,361154
9.13800,445045
9.14612,456551
9.15423,423804
9.16237,344368
9.17048,279502
9.17862,229516
9.18673,210153
9.19485,194287
9.20298,181750
9.21110,181702
9.21923,166434
9.22735,167169
9.23547,166263
9.24360,159116
9.25172,160181
9.25985,160832
9.26797,158222
9.27608,149051
9.28422,140065
9.29233,141165
9.30045,133365
9.30858,134067
9.31670,134940
9.32483,125830
9.33295,128533
9.34107,122020
9.34920,124045
9.35732,120785
9.36545,118779
9.37357,116991
9.38168,120657
9.38982,111650
9.39793,115568
9.40607,113400
9.41418,130603
9.42230,156467
9.43043,188555
9.43855,260629
9.44667,341600
9.45480,436180
9.46292,513862
9.47105,556549
9.47917,533938
9.48728,448762
9.49542,366781
9.50353,292876
9.51167,251554
9.51978,235336
9.52790,234523
9.53603,240017
9.54415,243068
9.55227,237440
9.56040,228281
9.56852,206996
9.57665,183135
9.58477,156392
9.59288,126269
9.60102,115847
9.60913,120096
9.61727,109400
9.62538,101708
9.63350,101360
9.64163,101436
9.64975,97853
9.65788,91055
9.66600,89772
9.67412,88457
9.68225,84075
9.69037,93512
9.69848,87203
9.70662,89841
9.71473,96080
9.72287,94808
9.73098,107790
9.73910,100444
9.74723,97917
9.75535,89315
9.76348,86402
9.77160,79099
9.77972,74554
9.78785,79120
9.79597,75914
9.80408,78215
9.81222,75615
9.82033,78950
9.82847,75037
9.83658,76201
9.84470,81346
9.85283,74669
9.86095,74449
9.86908,75994
9.87720,79231
9.88532,77293
9.89345,77794
9.90157,72093
9.90970,71199
9.91782,76790
9.92593,73162
9.93407,73391
9.94218,73618
9.95030,84450
9.95843,107903
9.96655,137735
9.97468,196062
9.98280,264298
9.99092,345538
9.99905,370551
10.00717,356812
10.01530,286496
10.02342,222449
10.03153,176788
10.03967,169154
10.04778,170905
10.05592,179600
10.06403,187042
10.07215,176181
10.08028,172406
10.08840,159889
10.09652,149229
10.10465,137613
10.11277,136274
10.12090,131518
10.12902,120877
10.13713,120152
10.14527,115032
10.15338,110784
10.16152,110306
10.16963,108858
10.17775,114692
10.18588,112277
10.19400,101722
10.20212,103868
10.21025,97024
10.21837,102289
10.22650,92192
10.23462,93820
10.24273,102440
10.25087,115129
10.25898,154220
10.26712,294917
10.27523,737520
10.28335,1785454
10.29148,3715774
10.29960,6462238
10.30773,9781995
10.31585,1.336377E+07
10.32397,1.774815E+07
10.33210,2.337832E+07
10.34022,3.00481E+07
10.34833,3.782854E+07
10.35647,4.565046E+07
10.36458,4.971172E+07
10.37272,4.61607E+07
10.38083,3.170225E+07
10.38895,1.588338E+07
10.39708,8658963
10.40520,6602804
10.41333,5565271
10.42145,4374949
10.42957,3332600
10.43770,2559970
10.44582,2108818
10.45395,1879453
10.46207,1728205
10.47018,1587068
10.47832,1412778
10.48643,1198586
10.49455,984478
10.50268,817680
10.51080,683522
10.51893,606680
10.52705,552260
10.53517,514233
10.54330,489077
10.55142,473756
10.55955,446784
10.56767,447599
10.57578,432290
10.58392,441836
10.59203,437698
10.60015,419319
10.60828,401466
10.61640,371511
10.62453,354364
10.63265,322148
10.64077,311421
10.64890,297294
10.65702,285387
10.66515,276795
10.67327,269216
10.68138,263779
10.68952,246865
10.69763,247288
10.70577,243761
10.71388,256455
10.72200,272174
10.73013,274167
10.73825,281427
10.74637,272029
10.75450,277964
10.76262,254630
10.77075,256679
10.77887,241958
10.78698,228074
10.79512,208630
10.80323,213173
10.81137,208539
10.81948,213764
10.82760,227357
10.83573,236059
10.84385,249156
10.85197,246133
10.86010,230205
10.86822,203911
10.87635,186641
10.88447,169526
10.89258,167317
10.90072,157836
10.90883,161566
10.91697,158861
10.92508,156660
10.93320,154890
10.94133,150922
10.94945,149049
10.95758,147502
10.96570,145321
10.97382,145979
10.98195,144723
10.99007,139041
10.99818,133091
11.00632,138075
11.01443,135443
11.02257,145571
11.03068,157280
11.03880,161402
11.04693,172474
11.05505,169291
11.06318,165688
11.07130,162344
11.07942,153738
11.08755,158969
11.09567,160446
11.10380,170561
11.11192,191223
11.12003,190211
11.12817,192253
11.13628,184123
11.14440,171169
11.15253,154582
11.16065,141002
11.16878,137787
11.17690,127261
11.18502,125357
11.19315,118598
11.20127,114183
11.20940,113990
11.21752,108708
11.22563,101482
11.23377,98701
11.24188,93522
11.25000,89096
11.25813,80801
11.26625,85144
11.27438,81146
11.28250,80413
11.29062,75738
11.29875,77304
11.30687,76042
11.31500,92550
11.32312,143227
11.33123,293099
11.33937,651713
11.34748,1359409
11.35562,2390701
11.36373,3562036
11.37185,4429598
11.37998,4631174
11.38810,4226978
11.39622,3517338
11.40435,2770378
11.41247,2106578
11.42060,1563653
11.42872,1174220
11.43683,865917
11.44497,665665
11.45308,543123
11.46122,441024
11.46933,374807
11.47745,325627
11.48558,293275
11.49370,275114
11.50183,264665
11.50995,302752
11.51807,352522
11.52620,428882
11.53432,507065
11.54243,560659
11.55057,564329
11.55868,542951
11.56682,460962
11.57493,394182
11.58305,351147
11.59118,322561
11.59930,328439
11.60743,398644
11.61555,537692
11.62367,712315
11.63180,822405
11.63992,845935
11.64803,723685
11.65617,548265
11.66428,413593
11.67242,298934
11.68053,235112
11.68865,191568
11.69678,167799
11.70490,164872
11.71303,179525
11.72115,188856
11.72927,221086
11.73740,233080
11.74552,227202
11.75365,203941
11.76177,176793
11.76988,156847
11.77802,134439
11.78613,120823
11.79425,112833
11.80238,108918
11.81050,103241
11.81863,99755
11.82675,99653
11.83487,98186
11.84300,89218
11.85112,94263
11.85925,90467
11.86737,85764
11.87548,89558
11.88362,92407
11.89173,83324
11.89987,85722
11.90798,78905
11.91610,80182
11.92423,85376
11.93235,84082
11.94047,93755
11.94860,101381
11.95672,104153
11.96485,89444
11.97297,84644
11.98108,80363
11.98922,76357
11.99733,80368
12.00547,76251
12.01358,69141
12.02170,69641
12.02983,73432
12.03795,65101
12.04607,73600
12.05420,68725
12.06232,76577
12.07045,73368
12.07857,77798
12.08668,81770
12.09482,80751
12.10293,83819
12.11107,99071
12.11918,113235
12.12730,158291
12.13543,269926
12.14355,455833
12.15168,700242
12.15980,950100
12.16792,1116777
12.17605,1131451
12.18417,1009375
12.19228,850890
12.20042,671346
12.20853,541190
12.21667,435197
12.22478,367287
12.23290,311327
12.24103,267894
12.24915,252744
12.25728,227809
12.26540,216288
12.27352,196417
12.28165,199715
12.28977,191103
12.29788,182105
12.30602,179238
12.31413,175151
12.32227,162472
12.33038,154758
12.33850,148815
12.34663,146697
12.35475,145313
12.36288,138739
12.37100,141967
12.37912,137118
12.38725,136673
12.39537,141423
12.40350,163702
12.41162,225597
12.41973,356238
12.42787,539966
12.43598,754499
12.44410,874366
12.45223,818345
12.46035,658891
12.46848,487645
12.47660,354878
12.48472,266376
12.49285,225592
12.50097,205565
12.50910,182631
12.51722,168406
12.52533,157611
12.53347,163718
12.54158,163378
12.54972,196120
12.55783,245688
12.56595,305276
12.57408,352699
12.58220,364071
12.59032,341420
12.59845,282282
12.60657,231801
12.61470,197809
12.62282,174687
12.63093,164761
12.63907,158783
12.64718,145837
12.65532,137135
12.66343,129014
12.67155,125934
12.67968,119337
12.68780,126022
12.69592,116898
12.70405,117195
12.71217,109960
12.72030,109857
12.72842,104607
12.73653,106432
12.74467,108896
12.75278,110266
12.76092,110625
12.76903,113631
12.77715,115088
12.78528,104344
12.79340,97224
12.80153,101218
12.80965,94142
12.81777,89717
12.82590,88107
12.83402,88503
12.84213,74923
12.85027,73601
12.85838,63247
12.86652,64598
12.87463,66679
12.88275,63538
12.89088,62879
12.89900,58363
12.90713,62169
12.91525,63844
12.92337,62973
12.93150,57598
12.93962,57379
12.94775,62434
12.95587,61828
12.96398,62567
12.97212,71806
12.98023,82217
12.98835,83594
12.99648,92149
13.00460,87947
13.01273,80466
13.02085,78719
13.02897,70693
13.03710,71114
13.04522,63468
13.05335,69535
13.06147,67724
13.06958,68437
13.07772,63884
13.08583,71456
13.09395,75460
13.10208,76796
13.11020,81789
13.11833,69435
13.12645,72728
13.13457,67482
13.14270,63780
13.15082,61136
13.15895,61490
13.16707,61954
13.17518,67921
13.18332,74215
13.19143,75134
13.19957,75762
13.20768,76962
13.21580,74101
13.22393,77176
13.23205,79991
13.24017,86483
13.24830,98055
13.25642,97484
13.26455,99310
13.27267,101956
13.28078,102538
13.28892,94241
13.29703,96564
13.30517,79350
13.31328,72992
13.32140,62601
13.32953,62078
13.33765,59151
13.34577,58901
13.35390,58825
13.36202,60068
13.37015,58569
13.37827,56966
13.38638,55671
13.39452,56029
13.40263,55902
13.41077,57873
13.41888,56856
13.42700,58199
13.43513,54756
13.44325,55234
13.45138,58384
13.45950,57990
13.46762,58776
13.47575,58199
13.48387,59533
13.49198,67865
13.50012,62884
13.50823,67245
13.51637,72418
13.52448,72564
13.53260,74758
13.54073,77685
13.54885,82889
13.55698,76938
13.56510,66263
13.57322,64532
13.58135,69970
13.58947,69530
13.59760,77708
13.60572,95132
13.61383,118228
13.62197,147200
13.63008,161203
13.63820,181102
13.64633,165905
13.65445,151620
13.66258,113371
13.67070,98624
13.67882,82571
13.68695,69829
13.69507,62258
13.70320,63193
13.71132,58609
13.71943,51134
13.72757,50130
13.73568,52845
13.74382,52990
13.75193,60483
13.76005,69256
13.76818,84283
13.77630,118688
13.78442,171191
13.79255,247292
13.80067,366015
13.80880,477823
13.81692,612427
13.82503,702232
13.83317,795831
13.84128,921065
13.84942,1140414
13.85753,1357678
13.86565,1520904
13.87378,1512508
13.88190,1322547
13.89002,1021001
13.89815,702184
13.90627,472929
13.91440,320358
13.92252,231486
13.93063,172991
13.93877,143272
13.94688,122040
13.95502,106907
13.96313,103797
13.97125,98350
13.97938,91449
13.98750,84772
13.99563,81200
14.00375,79735
14.01187,86993
14.02000,93824
14.02812,95824
14.03623,96030
14.04437,90143
14.05248,82242
14.06062,78011
14.06873,74359
14.07685,72709
14.08498,72879
14.09310,77984
14.10123,72856
14.10935,73187
14.11747,71455
14.12560,71729
14.13372,64807
14.14183,64611
14.14997,68045
14.15808,66987
14.16622,73187
14.17433,78975
14.18245,87592
14.19058,99985
14.19870,99251
14.20683,112474
14.21495,128026
14.22307,155228
14.23120,176010
14.23932,213461
14.24745,243819
14.25557,247674
14.26368,267513
14.27182,284676
14.27993,294952
14.28805,296126
14.29618,264673
14.30430,224861
14.31243,183473
14.32055,153389
14.32867,128021
14.33680,130660
14.34492,121866
14.35305,116086
14.36117,109198
14.36928,106290
14.37742,113104
14.38553,105408
14.39367,99015
14.40178,102183
14.40990,107971
14.41803,138514
14.42615,182680
14.43427,231050
14.44240,267923
14.45052,281264
14.45865,242913
14.46677,198187
14.47488,164453
14.48302,138032
14.49113,134094
14.49927,130944
14.50738,134861
14.51550,143881
14.52363,145376
14.53175,123673
14.53987,119016
14.54800,109823
14.55612,94027
14.56425,88107
14.57237,91925
14.58048,82773
14.58862,80828
14.59673,76392
14.60487,68637
14.61298,64616
14.62110,64150
14.62923,63737
14.63735,64281
14.64548,57290
14.65360,58458
14.66172,53977
14.66985,55846
14.67797,54510
14.68608,58000
14.69422,54817
14.70233,56489
14.71047,52654
14.71858,61808
14.72670,55475
14.73483,57458
14.74295,60431
14.75108,62159
14.75920,63263
14.76732,69649
14.77545,66297
14.78357,73205
14.79170,82974
14.79982,125266
14.80793,273494
14.81607,801960
14.82418,2260956
14.83230,5252330
14.84043,1.010087E+07
14.84855,1.592677E+07
14.85668,2.115509E+07
14.86480,2.455418E+07
14.87292,2.344175E+07
14.88105,1.856558E+07
14.88917,1.167948E+07
14.89730,6318299
14.90542,3506178
14.91353,2319813
14.92167,1774045
14.92978,1516445
14.93790,1299105
14.94603,1160383
14.95415,1047663
14.96228,950169
14.97040,865248
14.97852,785663
14.98665,730738
14.99477,688697
15.00290,646285
15.01102,623283
15.01913,574065
15.02727,537654
15.03538,506807
15.04352,479905
15.05163,463649
15.05975,437581
15.06788,414429
15.07600,396108
15.08412,361363
15.09225,358373
15.10037,345471
15.10850,328946
15.11662,314101
15.12473,303774
15.13287,299944
15.14098,330263
15.14912,366719
15.15723,431771
15.16535,479208
15.17348,469811
15.18160,402832
15.18972,324616
15.19785,242406
15.20597,184815
15.21410,144688
15.22222,129877
15.23033,120794
15.23847,123406
15.24658,114390
15.25472,107809
15.26283,106075
15.27095,97578
15.27908,95933
15.28720,102729
15.29533,94760
15.30345,93930
15.31157,90436
15.31970,86972
15.32782,82804
15.33593,87297
15.34407,78589
15.35218,77592
15.36032,76797
15.36843,76059
15.37655,81841
15.38468,84000
15.39280,89230
15.40093,101795
15.40905,99085
15.41717,95349
15.42530,84014
15.43342,84272
15.44155,76706
15.44967,74656
15.45778,71510
15.46592,78802
15.47403,76580
15.48215,93428
15.49028,110221
15.49840,165345
15.50653,265976
15.51465,405030
15.52277,579958
15.53090,733125
15.53902,798834
15.54715,770290
15.55527,654874
15.56338,502669
15.57152,355463
15.57963,256539
15.58775,189587
15.59588,159834
15.60400,134769
15.61213,123284
15.62025,109849
15.62837,108559
15.63650,109500
15.64462,100496
15.65275,102693
15.66087,94729
15.66898,93876
15.67712,92116
15.68523,89472
15.69337,84717
15.70148,78984
15.70960,72409
15.71773,66995
15.72585,66663
15.73397,66803
15.74210,66920
15.75022,67786
15.75835,80959
15.76647,107809
15.77458,209837
15.78272,437504
15.79083,866568
15.79897,1394767
15.80708,1887742
15.81520,1984297
15.82333,1833624
15.83145,1345052
15.83958,869479
15.84770,557635
15.85582,360386
15.86395,270612
15.87207,228880
15.88018,210066
15.88832,194543
15.89643,185292
15.90457,169299
15.91268,158777
15.92080,148378
15.92893,142542
15.93705,132360
15.94518,125606
15.95330,128421
15.96142,118047
15.96955,114260
15.97767,110555
15.98578,108123
15.99392,99720
16.00203,105734
16.01017,108896
16.01828,121628
16.02640,131569
16.03453,145487
16.04265,160887
16.05078,163827
16.05890,149208
16.06702,142746
16.07515,130696
16.08327,115931
16.09140,99814
16.09952,90455
16.10763,87384
16.11577,79958
16.12388,77955
16.13200,81745
16.14013,90918
16.14825,106180
16.15638,130945
16.16450,148145
16.17262,170382
16.18075,166192
16.18887,159641
16.19700,146123
16.20512,126934
16.21323,108221
16.22137,102790
16.22948,103246
16.23760,107791
16.24573,106938
16.25385,95070
16.26198,89900
16.27010,88237
16.27822,75924
16.28635,82183
16.29447,84648
16.30260,94360
16.31072,114899
16.31883,126152
16.32697,142918
16.33508,154439
16.34322,166484
16.35133,163806
16.35945,161216
16.36758,158781
16.37570,152950
16.38382,135525
16.39195,124563
16.40007,113158
16.40820,95806
16.41632,86972
16.42443,87729
16.43257,84946
16.44068,83932
16.44882,98648
16.45693,138785
16.46505,283513
16.47318,706945
16.48130,1626623
16.48943,3165136
16.49755,4816990
16.50567,5988190
16.51380,5994447
16.52192,4904726
16.53003,3328776
16.53817,2004849
16.54628,1166964
16.55442,741441
16.56253,549687
16.57065,431040
16.57878,361602
16.58690,336592
16.59503,314930
16.60315,298112
16.61127,274167
16.61940,251057
16.62752,230263
16.63563,211832
16.64377,207555
16.65188,184414
16.66002,175749
16.66813,169391
16.67625,160538
16.68438,148379
16.69250,143820
16.70063,143164
16.70875,128930
16.71687,126191
16.72500,116608
16.73312,113759
16.74125,109050
16.74937,100220
16.75748,96008
16.76562,114538
16.77373,139401
16.78185,173232
16.78998,186581
16.79810,195661
16.80623,154491
16.81435,128440
16.82247,105243
16.83060,92101
16.83872,82025
16.84685,71521
16.85497,76592
16.86308,71483
16.87122,70466
16.87933,75709
16.88747,63138
16.89558,66600
16.90370,66318
16.91183,61682
16.91995,61024
16.92807,59065
16.93620,62923
16.94432,60838
16.95245,63689
16.96057,64267
16.96868,62963
16.97682,64490
16.98493,67010
16.99307,68214
17.00118,64362
17.00930,65010
17.01743,70802
17.02555,69340
17.03367,67772
17.04180,81930
17.04992,89406
17.05805,115318
17.06617,146220
17.07428,169193
17.08242,175783
17.09053,172840
17.09867,149014
17.10678,119375
17.11490,93110
17.12303,88368
17.13115,81010
17.13928,85206
17.14740,88637
17.15552,86318
17.16365,89723
17.17177,91128
17.17988,94561
17.18802,85024
17.19613,86265
17.20427,76320
17.21238,79277
17.22050,71409
17.22863,64999
17.23675,65167
17.24488,65385
17.25300,66663
17.26112,69028
17.26925,75733
17.27737,74123
17.28550,74369
17.29362,77057
17.30173,68168
17.30987,62337
17.31798,62540
17.32610,70170
17.33423,75404
17.34235,93690
17.35048,132824
17.35860,187371
17.36672,221259
17.37485,246399
17.38297,249120
17.39110,229581
17.39922,198893
17.40733,176342
17.41547,164690
17.42358,153263
17.43170,153401
17.43983,153711
17.44795,151252
17.45608,147900
17.46420,144244
17.47232,140053
17.48045,129389
17.48857,116516
17.49670,101384
17.50482,97482
17.51293,90712
17.52107,92115
17.52918,85597
17.53732,87762
17.54543,85089
17.55355,88704
17.56168,93552
17.56980,110205
17.57792,175859
17.58605,354338
17.59417,823622
17.60230,1788795
17.61042,3197096
17.61853,4789842
17.62667,5978576
17.63478,6177570
17.64292,5431212
17.65103,4076749
17.65915,2686149
17.66728,1605540
17.67540,883114
17.68352,526162
17.69165,352866
17.69977,270571
17.70790,230682
17.71602,211060
17.72413,202653
17.73227,186931
17.74038,182404
17.74852,164341
17.75663,159863
17.76475,136932
17.77288,130489
17.78100,116482
17.78913,114632
17.79725,105656
17.80537,94596
17.81350,98698
17.82162,84428
17.82973,86324
17.83787,91648
17.84598,97921
17.85412,110962
17.86223,137004
17.87035,176627
17.87848,235415
17.88660,279086
17.89473,306297
17.90285,288383
17.91097,232504
17.91910,175238
17.92722,128979
17.93535,102450
17.94347,98123
17.95158,84576
17.95972,79517
17.96783,76495
17.97595,74452
17.98408,73284
17.99220,67720
18.00033,65433
18.00845,74408
18.01657,77535
18.02470,84815
18.03282,124256
18.04095,177324
18.04907,281908
18.05718,390824
18.06532,494965
18.07343,682239
18.08155,1180537
18.08968,2324262
18.09780,4319942
18.10593,6932930
18.11405,9166857
18.12217,9862655
18.13030,9122964
18.13842,7399980
18.14655,5386272
18.15467,3917960
18.16278,2989474
18.17092,2347425
18.17903,1980312
18.18717,1713672
18.19528,1473625
18.20340,1314068
18.21153,1175619
18.21965,1052071
18.22777,954416
18.23590,873343
18.24402,828636
18.25215,752993
18.26027,710227
18.26838,629124
18.27652,576841
18.28463,546825
18.29277,458989
18.30088,375008
18.30900,295553
18.31713,226824
18.32525,185477
18.33338,159502
18.34150,136962
18.34962,136128
18.35775,126762
18.36587,119268
18.37398,121093
18.38212,114751
18.39023,117716
18.39837,116655
18.40648,107694
18.41460,111309
18.42273,110140
18.43085,120998
18.43898,138411
18.44710,167603
18.45522,219722
18.46335,325356
18.47147,514684
18.47958,833030
18.48772,1326750
18.49583,1857986
18.50397,2199178
18.51208,2143767
18.52020,1845475
18.52833,1365417
18.53645,877844
18.54458,548401
18.55270,333715
18.56082,225833
18.56895,165006
18.57707,141587
18.58520,122237
18.59332,112867
18.60143,105647
18.60957,116650
18.61768,113514
18.62580,122913
18.63393,138764
18.64205,147298
18.65018,157459
18.65830,155730
18.66642,135622
18.67455,128445
18.68267,110919
18.69080,97970
18.69892,89052
18.70703,83018
18.71517,80531
18.72328,75710
18.73140,80616
18.73953,75516
18.74765,79721
18.75578,76570
18.76390,70206
18.77202,76363
18.78015,71536
18.78827,72193
18.79640,71954
18.80452,68491
18.81263,73292
18.82077,74014
18.82888,77302
18.83702,75547
18.84513,75339
18.85325,67439
18.86138,70372
18.86950,72243
18.87762,78229
18.88575,77713
18.89387,81678
18.90200,89528
18.91012,87485
18.91823,90788
18.92637,100210
18.93448,96734
18.94262,113300
18.95073,126158
18.95885,137123
18.96698,153263
18.97510,179217
18.98323,186119
18.99135,184966
18.99947,175360
19.00760,152322
19.01572,129158
19.02383,122346
19.03197,107619
19.04008,101123
19.04822,116144
19.05633,159169
19.06445,198397
19.07258,223957
19.08070,227637
19.08883,242355
19.09695,250380
19.10507,266781
19.11320,288037
19.12132,343991
19.12943,349409
19.13757,350795
19.14568,332109
19.15382,315556
19.16193,285058
19.17005,277753
19.17818,252091
19.18630,245233
19.19443,240672
19.20255,242782
19.21067,239376
19.21880,251255
19.22692,245307
19.23505,236762
19.24317,251046
19.25128,253480
19.25942,242137
19.26753,251791
19.27565,235280
19.28378,238062
19.29190,239351
19.30003,234729
19.30815,250239
19.31627,250995
19.32440,262953
19.33252,256986
19.34065,261665
19.34877,244701
19.35688,248331
19.36502,277313
19.37313,312390
19.38127,394073
19.38938,480346
19.39750,564032
19.40563,571712
19.41375,518869
19.42187,443474
19.43000,382343
19.43812,323585
19.44625,296090
19.45437,269384
19.46248,273488
19.47062,263973
19.47873,255575
19.48687,255988
19.49498,250353
19.50310,249201
19.51123,265309
19.51935,289267
19.52747,309682
19.53560,343594
19.54372,368597
19.55185,380332
19.55997,369996
19.56808,371982
19.57622,347723
19.58433,303875
19.59247,284314
19.60058,249610
19.60870,238818
19.61683,227938
19.62495,215869
19.63308,205921
19.64120,206699
19.64932,221839
19.65745,248204
19.66557,320654
19.67368,428312
19.68182,604274
19.68993,755097
19.69807,906577
19.70618,978065
19.71430,934027
19.72243,835488
19.73055,721884
19.73868,605875
19.74680,526240
19.75492,461478
19.76305,389984
19.77117,352519
19.77928,315239
19.78742,304017
19.79553,324536
19.80367,363712
19.81178,437403
19.81990,493167
19.82803,532462
19.83615,530955
19.84428,497465
19.85240,425724
19.86052,342494
19.86865,300119
19.87677,284983
19.88490,303946
19.89302,375789
19.90113,518293
19.90927,692886
19.91738,906170
19.92550,1004092
19.93363,963525
19.94175,824402
19.94988,690590
19.95800,535509
19.96612,443989
19.97425,381476
19.98237,339873
19.99050,300915
19.99862,299058
20.00673,276512
20.01487,267194
20.02298,280292
20.03112,269327
20.03923,264773
20.04735,264953
20.05548,252296
20.06360,253683
20.07172,252647
20.07985,270890
20.08797,311571
20.09610,381306
20.10422,436681
20.11233,463992
20.12047,495417
20.12858,429568
20.13672,367902
20.14483,326099
20.15295,289516
20.16108,261591
20.16920,288366
20.17733,376462
20.18545,552592
20.19357,794302
20.20170,1126664
20.20982,1410225
20.21793,1576572
20.22607,1564917
20.23418,1386116
20.24232,1118379
20.25043,883585
20.25855,737804
20.26668,699270
20.27480,832487
20.28293,1049391
20.29105,1322816
20.29917,1554944
20.30730,1667753
20.31542,1573595
20.32353,1391561
20.33167,1076747
20.33978,769137
20.34792,555747
20.35603,428123
20.36415,329466
20.37228,282604
20.38040,250093
20.38853,226719
20.39665,211112
20.40477,203669
20.41290,188966
20.42102,189437
20.42915,184210
20.43727,188577
20.44538,205074
20.45352,239510
20.46163,255823
20.46975,281062
20.47788,282646
20.48600,279182
20.49413,262063
20.50225,237928
20.51037,210550
20.51850,190536
20.52662,189267
20.53475,178881
20.54287,178730
20.55098,182219
20.55912,178273
20.56723,189481
20.57535,189225
20.58348,190772
20.59160,178919
20.59973,174701
20.60785,169549
20.61597,160558
20.62410,159940
20.63222,148012
20.64035,152970
20.64847,154925
20.65658,162727
20.66472,165755
20.67283,173932
20.68097,185382
20.68908,178105
20.69720,169745
20.70533,172547
20.71345,158392
20.72157,149700
20.72970,141835
20.73782,147692
20.74595,141482
20.75407,139471
20.76218,153063
20.77032,167032
20.77843,183606
20.78657,206738
20.79468,239271
20.80280,337377
20.81093,557086
20.81905,974884
20.82718,1523509
20.83530,2070186
20.84342,2391372
20.85155,2284495
20.85967,1872730
20.86778,1269711
20.87592,768960
20.88403,461744
20.89217,308295
20.90028,227483
20.90840,201282
20.91653,186903
20.92465,184198
20.93278,188356
20.94090,195036
20.94902,205120
20.95715,207266
20.96527,215485
20.97338,212903
20.98152,205885
20.98963,188214
20.99777,169777
21.00588,161604
21.01400,144399
21.02213,149466
21.03025,142446
21.03838,140811
21.04650,153065
21.05462,162898
21.06275,166425
21.07087,160546
21.07900,155343
21.08712,150515
21.09523,143073
21.10337,137972
21.11148,135954
21.11960,134872
21.12773,139246
21.13585,140060
21.14398,150195
21.15210,186030
21.16022,262477
21.16835,382484
21.17647,520057
21.18460,621577
21.19272,640289
21.20083,583488
21.20897,474401
21.21708,362617
21.22522,279677
21.23333,239343
21.24145,209100
21.24958,191280
21.25770,170566
21.26582,156738
21.27395,145355
21.28207,144326
21.29020,130713
21.29832,135318
21.30643,126195
21.31457,129041
21.32268,123576
21.33082,122621
21.33893,120772
21.34705,124869
21.35518,122863
21.36330,119057
21.37142,120408
21.37955,126926
21.38767,134103
21.39580,151377
21.40392,174019
21.41203,220295
21.42017,275951
21.42828,336583
21.43642,385409
21.44453,390472
21.45265,361841
21.46078,326438
21.46890,287287
21.47703,234292
21.48515,212372
21.49327,191197
21.50140,170808
21.50952,156063
21.51763,146327
21.52577,135573
21.53388,135091
21.54202,123608
21.55013,123328
21.55825,124756
21.56638,120394
21.57450,128132
21.58263,125684
21.59075,141834
21.59887,161801
21.60700,181433
21.61512,216917
21.62323,206612
21.63137,208986
21.63948,188659
21.64762,190811
21.65573,183323
21.66385,221621
21.67198,249983
21.68010,277099
21.68823,319800
21.69635,340388
21.70447,355263
21.71260,349024
21.72072,304064
21.72885,256129
21.73697,209179
21.74508,160152
21.75322,153539
21.76133,136453
21.76945,134349
21.77758,128848
21.78570,124039
21.79383,125803
21.80195,127379
21.81007,123301
21.81820,120356
21.82632,131928
21.83445,128678
21.84257,137722
21.85068,148161
21.85882,164113
21.86693,184421
21.87507,196790
21.88318,199984
21.89130,193375
21.89943,178116
21.90755,164009
21.91567,155346
21.92380,146590
21.93192,141735
21.94005,147348
21.94817,130616
21.95628,120602
21.96442,115294
21.97253,114244
21.98067,100218
21.98878,91821
21.99690,89999
22.00503,89706
22.01315,87045
22.02127,93695
22.02940,96590
22.03752,104228
22.04565,112993
22.05377,120572
22.06188,129447
22.07002,128354
22.07813,134168
22.08627,130569
22.09438,122201
22.10250,113398
22.11063,110790
22.11875,105481
22.12688,98910
22.13500,99081
22.14312,94045
22.15125,96881
22.15937,96271
22.16748,91534
22.17562,86451
22.18373,87510
22.19187,86231
22.19998,82867
22.20810,87237
22.21623,89945
22.22435,85735
22.23248,83231
22.24060,92287
22.24872,98584
22.25685,104275
22.26497,110461
22.27310,116879
22.28122,118172
22.28933,121056
22.29747,133968
22.30558,137919
22.31370,158735
22.32183,155208
22.32995,152107
22.33808,148204
22.34620,129227
22.35432,121088
22.36245,121493
22.37057,116009
22.37870,108966
22.38682,105007
22.39493,115249
22.40307,143743
22.41118,200011
22.41930,301813
22.42743,459091
22.43555,609242
22.44368,707339
22.45180,729725
22.45992,633389
22.46805,487532
22.47617,336194
22.48430,254079
22.49242,206650
22.50053,199376
22.50867,220982
22.51678,258651
22.52492,286528
22.53303,319226
22.54115,316081
22.54928,298487
22.55740,274278
22.56552,226345
22.57365,201505
22.58177,162528
22.58990,143811
22.59802,131884
22.60613,116975
22.61427,107753
22.62238,108200
22.63052,100846
22.63863,95892
22.64675,89965
22.65488,99308
22.66300,103615
22.67113,112432
22.67925,117011
22.68737,116370
22.69550,129923
22.70362,138154
22.71173,174913
22.71987,228208
22.72798,305251
22.73612,363014
22.74423,391522
22.75235,376552
22.76048,340772
22.76860,272613
22.77673,220611
22.78485,202197
22.79297,207006
22.80110,255449
22.80922,353576
22.81733,481164
22.82547,621812
22.83358,710388
22.84172,722736
22.84983,636367
22.85795,519559
22.86608,410520
22.87420,321814
22.88233,277454
22.89045,261072
22.89857,286372
22.90670,304961
22.91482,350298
22.92295,379899
22.93107,429802
22.93918,466448
22.94732,542710
22.95543,574739
22.96355,549730
22.97168,486045
22.97980,407300
22.98793,312640
22.99605,266498
23.00417,227897
23.01230,194303
23.02042,171747
23.02855,155251
23.03667,141726
23.04478,136858
23.05292,114338
23.06103,111412
23.06915,116864
23.07728,120568
23.08540,117389
23.09353,128295
23.10165,127021
23.10977,127977
23.11790,120253
23.12602,110143
23.13415,105272
23.14227,100423
23.15038,110610
23.15852,105651
23.16663,101492
23.17477,101922
23.18288,95100
23.19100,93113
23.19913,87555
23.20725,83972
23.21537,77859
23.22350,80908
23.23162,78633
23.23975,79692
23.24787,77779
23.25598,91994
23.26412,117395
23.27223,137254
23.28037,173091
23.28848,201475
23.29660,203237
23.30473,194338
23.31285,156277
23.32098,129616
23.32910,111747
23.33722,106200
23.34535,121678
23.35347,153781
23.36158,209598
23.36972,291040
23.37783,383133
23.38597,464730
23.39408,470183
23.40220,431669
23.41033,383357
23.41845,302972
23.42658,224009
23.43470,179719
23.44282,147449
23.45095,129026
23.45907,121184
23.46718,109097
23.47532,109542
23.48343,108251
23.49157,97626
23.49968,102995
23.50780,93860
23.51593,89333
23.52405,88654
23.53218,93031
23.54030,90999
23.54842,94149
23.55655,97031
23.56467,104202
23.57280,119629
23.58092,136788
23.58903,171340
23.59717,229266
23.60528,288716
23.61340,369289
23.62153,435465
23.62965,439905
23.63778,405040
23.64590,322473
23.65402,245696
23.66215,184657
23.67027,147298
23.67840,140586
23.68652,131945
23.69463,126617
23.70277,116728
23.71088,111689
23.71902,102179
23.72713,94483
23.73525,89112
23.74338,88476
23.75150,80164
23.75962,81635
23.76775,93441
23.77587,133500
23.78400,251186
23.79212,495789
23.80023,890286
23.80837,1341865
23.81648,1661452
23.82462,1717867
23.83273,1558859
23.84085,1279983
23.84898,986314
23.85710,742974
23.86522,561702
23.87335,453556
23.88147,376602
23.88960,329200
23.89772,299893
23.90583,293848
23.91397,314969
23.92208,369804
23.93022,422399
23.93833,489871
23.94645,497331
23.95458,441782
23.96270,362902
23.97083,289620
23.97895,242630
23.98707,200497
23.99520,173943
24.00332,163367
24.01143,149584
24.01957,143451
24.02768,141485
24.03582,151495
24.04393,146843
24.05205,147971
24.06018,158804
24.06830,154352
24.07643,142029
24.08455,134995
24.09267,124658
24.10080,117809
24.10892,115849
24.11703,111540
24.12517,109962
24.13328,114732
24.14142,113481
24.14953,120911
24.15765,138250
24.16578,169910
24.17390,180769
24.18203,200548
24.19015,207880
24.19827,210464
24.20640,209687
24.21452,195600
24.22265,198356
24.23077,188920
24.23888,166952
24.24702,156523
24.25513,148033
24.26325,138588
24.27138,132142
24.27950,122228
24.28763,117398
24.29575,106569
24.30387,112446
24.31200,109098
24.32012,115601
24.32825,119534
24.33637,128009
24.34448,132336
24.35262,129187
24.36073,126703
24.36887,113949
24.37698,111158
24.38510,104313
24.39323,101316
24.40135,98524
24.40947,108679
24.41760,126364
24.42572,128706
24.43385,138559
24.44197,146275
24.45008,142675
24.45822,136831
24.46633,128754
24.47447,112642
24.48258,108508
24.49070,114172
24.49883,114300
24.50695,111543
24.51507,111485
24.52320,122250
24.53132,126925
24.53945,136830
24.54757,151213
24.55568,188449
24.56382,211207
24.57193,239378
24.58007,274628
24.58818,275103
24.59630,273265
24.60443,248275
24.61255,209365
24.62068,188424
24.62880,164448
24.63692,146081
24.64505,123573
24.65317,113187
24.66128,101989
24.66942,101040
24.67753,101133
24.68567,102773
24.69378,101731
24.70190,99091
24.71003,96612
24.71815,95619
24.72628,95919
24.73440,97435
24.74252,99972
24.75065,102866
24.75877,102371
24.76690,108718
24.77502,110223
24.78313,138455
24.79127,148789
24.79938,166935
24.80750,177905
24.81563,192148
24.82375,189818
24.83188,181660
24.84000,190787
24.84812,233112
24.85625,297611
24.86437,426379
24.87250,653142
24.88062,930279
24.88873,1387856
24.89687,2004771
24.90498,2806766
24.91310,3295538
24.92123,3274255
24.92935,2898502
24.93748,2229587
24.94560,1537515
24.95372,899148
24.96185,542979
24.96997,333038
24.97810,220489
24.98622,170393
24.99433,150340
25.00247,134138
25.01058,128221
25.01872,120416
25.02683,122228
25.03495,123501
25.04308,124450
25.05120,123716
25.05932,119542
25.06745,110869
25.07557,113263
25.08370,118247
25.09182,119378
25.09993,124644
25.10807,166668
25.11618,299582
25.12432,712179
25.13243,1796864
25.14055,4042824
25.14868,7511615
25.15680,1.169915E+07
25.16492,1.513809E+07
25.17305,1.657186E+07
25.18117,1.536655E+07
25.18930,1.219685E+07
25.19742,8215486
25.20553,4750935
25.21367,2531781
25.22178,1272317
25.22992,688862
25.23803,404863
25.24615,306757
25.25428,296480
25.26240,373613
25.27053,493330
25.27865,665814
25.28677,785162
25.29490,840434
25.30302,803608
25.31113,677229
25.31927,510972
25.32738,358846
25.33552,258201
25.34363,184272
25.35175,154245
25.35988,135339
25.36800,119111
25.37613,114421
25.38425,102131
25.39237,100292
25.40050,95152
25.40862,88308
25.41675,90102
25.42487,85637
25.43298,86637
25.44112,83351
25.44923,82423
25.45735,82225
25.46548,79679
25.47360,84975
25.48173,81273
25.48985,81232
25.49797,87476
25.50610,83761
25.51422,87659
25.52235,89123
25.53047,92485
25.53858,88175
25.54672,85050
25.55483,80171
25.56297,81076
25.57108,95132
25.57920,106975
25.58733,122200
25.59545,120596
25.60357,108553
25.61170,99243
25.61982,93819
25.62795,85953
25.63607,79930
25.64418,82450
25.65232,81017
25.66043,76088
25.66857,71139
25.67668,83699
25.68480,82763
25.69293,83868
25.70105,88627
25.70917,98991
25.71730,99959
25.72542,98849
25.73355,108022
25.74167,110731
25.74978,97470
25.75792,93219
25.76603,82149
25.77417,82620
25.78228,80092
25.79040,74364
25.79853,74293
25.80665,75396
25.81478,77493
25.82290,72549
25.83102,68432
25.83915,75304
25.84727,74428
25.85538,72078
25.86352,73976
25.87163,72523
25.87977,76434
25.88788,76479
25.89600,77736
25.90413,71724
25.91225,78802
25.92038,82110
25.92850,77359
25.93662,76048
25.94475,74020
25.95287,79624
25.96098,82188
25.96912,99666
25.97723,123306
25.98537,175823
25.99348,246431
26.00160,311998
26.00973,345870
26.01785,364028
26.02598,367992
26.03410,369028
26.04222,374768
26.05035,373292
26.05847,383458
26.06660,389504
26.07472,382637
26.08283,387744
26.09097,408367
26.09908,405542
26.10720,409695
26.11533,422039
26.12345,420928
26.13158,412879
26.13970,406570
26.14782,405793
26.15595,414194
26.16407,409945
26.17220,414337
26.18032,425343
26.18843,412796
26.19657,426185
26.20468,416002
26.21282,413165
26.22093,397552
26.22905,395403
26.23718,398632
26.24530,401161
26.25342,404414
26.26155,388692
26.26967,391950
26.27780,366579
26.28592,358362
26.29403,353864
26.30217,364813
26.31028,356368
26.31842,363756
26.32653,362689
26.33465,351568
26.34278,327072
26.35090,342066
26.35902,352678
26.36715,344848
26.37527,374349
26.38340,423503
26.39152,513877
26.39963,632853
26.40777,781728
26.41588,865066
26.42402,947127
26.43213,913330
26.44025,833481
26.44838,713572
26.45650,581938
26.46463,490807
26.47275,439947
26.48087,404729
26.48900,380420
26.49712,371849
26.50523,356837
26.51337,359668
26.52148,336227
26.52962,324672
26.53773,313711
26.54585,303075
26.55398,305142
26.56210,293618
26.57023,288500
26.57835,279952
26.58647,282253
26.59460,286702
26.60272,292036
26.61085,273789
26.61897,269805
26.62708,271772
26.63522,265778
26.64333,272923
26.65145,258884
26.65958,278045
26.66770,278432
26.67583,274858
26.68395,260618
26.69207,258466
26.70020,249209
26.70832,255774
26.71645,261267
26.72457,258523
26.73268,254795
26.74082,254979
26.74893,250481
26.75705,245459
26.76518,250363
26.77330,245000
26.78143,246123
26.78955,248131
26.79767,243853
26.80580,250821
26.81392,248894
26.82205,250638
26.83017,249144
26.83828,250190
26.84642,249053
26.85453,246362
26.86267,239453
26.87078,240597
26.87890,236455
26.88703,240622
26.89515,237685
26.90327,228398
26.91140,239121
26.91952,228334
26.92765,224687
26.93577,219316
26.94388,223127
26.95202,212336
26.96013,221636
26.96827,225851
26.97638,229192
26.98450,247876
26.99263,288727
27.00075,335881
27.00887,428671
27.01700,634070
27.02512,880227
27.03325,1129394
27.04137,1347083
27.04948,1403539
27.05762,1267194
27.06573,1062432
27.07387,849732
27.08198,690928
27.09010,559800
27.09823,491744
27.10635,428093
27.11448,384513
27.12260,375031
27.13072,352067
27.13885,344595
27.14697,341887
27.15508,327780
27.16322,314047
27.17133,318920
27.17947,323479
27.18758,357067
27.19570,392550
27.20383,411256
27.21195,434117
27.22008,436570
27.22820,398649
27.23632,359779
27.24445,326146
27.25257,294073
27.26070,265810
27.26882,247790
27.27693,240700
27.28507,221533
27.29318,212629
27.30130,207631
27.30943,205426
27.31755,206339
27.32568,209220
27.33380,203330
27.34192,207893
27.35005,200265
27.35817,213884
27.36630,211655
27.37442,212418
27.38253,220210
27.39067,220656
27.39878,215189
27.40690,202798
27.41503,195376
27.42315,195840
27.43128,192838
27.43940,189058
27.44752,180319
27.45565,190684
27.46377,181667
27.47190,180969
27.48002,176206
27.48813,172611
27.49627,166203
27.50438,163597
27.51252,164603
27.52063,168293
27.52875,157994
27.53688,157863
27.54500,161518
27.55312,161622
27.56125,155170
27.56937,162071
27.57750,166201
27.58562,197233
27.59373,222967
27.60187,261512
27.60998,310471
27.61812,338559
27.62623,332348
27.63435,322452
27.64248,279741
27.65060,243186
27.65873,212453
27.66685,198340
27.67497,175459
27.68310,169943
27.69122,166887
27.69933,168575
27.70747,168367
27.71558,172456
27.72372,173526
27.73183,166736
27.73995,153594
27.74808,143698
27.75620,137092
27.76433,132339
27.77245,129985
27.78057,136407
27.78870,139217
27.79682,152314
27.80493,160500
27.81307,168738
27.82118,159578
27.82932,152982
27.83743,151643
27.84555,142717
27.85368,127374
27.86180,124011
27.86993,129588
27.87805,117180
27.88617,118761
27.89430,120976
27.90242,122465
27.91055,120107
27.91867,123577
27.92678,127230
27.93492,117993
27.94303,118120
27.95115,113163
27.95928,108689
27.96740,113425
27.97553,106214
27.98365,105114
27.99177,106120
27.99990,113619
28.00802,111692
28.01615,114775
28.02427,129265
28.03238,137145
28.04052,151066
28.04863,173539
28.05677,208781
28.06488,233667
28.07300,246154
28.08113,238316
28.08925,223958
28.09737,192636
28.10550,156300
28.11362,132627
28.12175,121015
28.12987,112576
28.13798,107490
28.14612,106331
28.15423,108308
28.16237,103444
28.17048,105215
28.17860,99211
28.18673,109372
28.19485,116164
28.20297,129158
28.21110,161531
28.21922,209222
28.22735,260386
28.23547,306790
28.24358,346315
28.25172,337693
28.25983,312687
28.26797,261333
28.27608,212124
28.28420,169310
28.29233,144512
28.30045,125456
28.30858,128230
28.31670,134832
28.32482,164468
28.33295,179717
28.34107,212455
28.34918,229159
28.35732,229181
28.36543,220719
28.37357,218833
28.38168,226624
28.38980,232990
28.39793,246323
28.40605,254300
28.41418,254204
28.42230,248548
28.43042,248496
28.43855,236425
28.44667,221866
28.45478,202530
28.46292,175969
28.47103,165787
28.47917,160084
28.48728,154216
28.49540,152367
28.50353,153635
28.51165,161324
28.51978,170737
28.52790,171709
28.53602,172484
28.54415,162029
28.55227,147067
28.56040,131013
28.56852,122105
28.57663,120697
28.58477,109030
28.59288,112699
28.60100,102788
28.60913,105021
28.61725,108127
28.62538,118134
28.63350,121359
28.64162,126363
28.64975,137813
28.65787,139484
28.66600,133431
28.67412,136406
28.68223,130455
28.69037,134524
28.69848,127386
28.70662,115477
28.71473,106637
28.72285,111396
28.73098,101371
28.73910,98978
28.74722,92586
28.75535,94045
28.76347,93347
28.77160,95967
28.77972,100044
28.78783,103063
28.79597,107166
28.80408,123731
28.81222,137553
28.82033,155085
28.82845,166305
28.83658,168690
28.84470,152725
28.85282,150107
28.86095,136995
28.86907,125466
28.87720,122525
28.88532,129022
28.89343,138578
28.90157,166490
28.90968,192290
28.91782,213216
28.92593,217430
28.93405,209915
28.94218,179817
28.95030,155685
28.95843,134234
28.96655,116931
28.97467,109331
28.98280,103832
28.99092,102745
28.99903,103916
29.00717,88257
29.01528,95015
29.02342,92559
29.03153,90568
29.03965,93588
29.04778,92497
29.05590,89302
29.06403,86786
29.07215,88441
29.08027,97808
29.08840,96153
29.09652,99741
29.10465,109467
29.11277,110604
29.12088,119238
29.12902,111231
29.13713,98356
29.14525,94585
29.15338,89299
29.16150,84427
29.16963,83844
29.17775,88105
29.18587,92316
29.19400,105356
29.20212,130619
29.21025,174158
29.21837,235855
29.22648,317382
29.23462,365897
29.24273,386726
29.25085,344392
29.25898,302273
29.26710,252890
29.27523,212608
29.28335,187238
29.29147,152944
29.29960,135260
29.30772,111304
29.31585,99873
29.32397,86754
29.33208,88363
29.34022,83255
29.34833,85770
29.35647,80191
29.36458,78186
29.37270,80772
29.38083,79049
29.38895,80108
29.39707,84379
29.40520,83121
29.41332,82307
29.42145,80805
29.42957,82679
29.43768,84835
29.44582,95860
29.45393,92342
29.46207,90534
29.47018,85539
29.47830,80054
29.48643,79986
29.49455,86493
29.50267,80717
29.51080,85499
29.51892,88095
29.52705,92736
29.53517,94547
29.54328,102336
29.55142,97239
29.55953,91023
29.56767,90580
29.57578,88185
29.58390,82626
29.59203,81666
29.60015,79858
29.60828,78566
29.61640,79136
29.62452,81818
29.63265,79503
29.64077,77009
29.64888,75130
29.65702,78371
29.66513,78520
29.67327,75259
29.68138,82076
29.68950,89352
29.69763,98541
29.70575,110218
29.71388,125303
29.72200,126576
29.73012,119484
29.73825,107306
29.74637,99739
29.75450,93443
29.76262,88600
29.77073,80381
29.77887,81132
29.78698,75765
29.79510,76702
29.80323,69206
29.81135,69505
29.81948,71133
29.82760,67972
29.83572,72434
29.84385,72012
29.85197,69783
29.86010,71198
29.86822,75610
29.87633,80721
29.88447,85425
29.89258,111202
29.90070,141755
29.90883,181708
29.91695,219378
29.92508,233949
29.93320,220063
29.94132,186611
29.94945,147190
29.95757,115165
29.96570,92699
29.97382,86315
29.98193,84801
29.99007,85097
29.99818,90831
30.00632,99778
30.01443,104907
30.02255,120587
30.03068,117956
30.03880,127686
30.04692,130475
30.05505,137435
30.06317,141039
30.07130,138335
30.07942,139155
30.08753,140839
30.09567,134436
30.10378,129941
30.11192,128733
30.12003,127362
30.12815,118922
30.13628,119511
30.14440,117761
30.15253,115723
30.16065,111576
30.16877,109550
30.17690,107345
30.18502,106072
30.19313,102824
30.20127,110628
30.20938,111646
30.21752,115291
30.22563,120350
30.23375,114715
30.24188,114405
30.25000,103984
30.25813,98784
30.26625,88669
30.27437,88818
30.28250,79118
30.29062,80226
30.29873,78139
30.30687,79604
30.31498,77605
30.32312,78306
30.33123,77051
30.33935,75478
30.34748,77335
30.35560,84059
30.36373,81297
30.37185,84521
30.37997,80733
30.38810,81463
30.39622,84160
30.40435,78192
30.41247,77990
30.42058,70629
30.42872,76212
30.43683,71569
30.44495,70442
30.45308,73201
30.46120,75112
30.46933,72389
30.47745,75882
30.48557,75652
30.49370,72501
30.50182,75546
30.50995,80591
30.51807,78493
30.52618,78533
30.53432,85718
30.54243,86898
30.55055,74507
30.55868,80052
30.56680,82637
30.57493,76966
30.58305,83927
30.59117,85229
30.59930,84711
30.60742,79119
30.61555,86194
30.62367,82155
30.63178,78227
30.63992,82725
30.64803,78674
30.65617,76372
30.66428,70732
30.67240,74236
30.68053,69938
30.68865,67174
30.69677,66416
30.70490,63953
30.71302,66991
30.72115,66674
30.72927,71004
30.73738,67931
30.74552,72930
30.75363,74639
30.76177,75706
30.76988,75324
30.77800,78110
30.78613,81535
30.79425,102987
30.80238,131477
30.81050,186768
30.81862,251154
30.82675,318181
30.83487,330739
30.84298,316044
30.85112,260313
30.85923,202304
30.86737,141847
30.87548,119350
30.88360,97147
30.89173,89948
30.89985,88175
30.90798,88949
30.91610,77925
30.92422,78058
30.93235,74331
30.94047,74272
30.94860,75167
30.95672,72162
30.96483,74804
30.97297,71809
30.98108,78634
30.98920,77078
30.99733,70146
31.00545,73931
31.01358,72045
31.02170,77720
31.02982,74420
31.03795,70032
31.04607,73121
31.05420,69915
31.06232,72688
31.07043,77010
31.07857,72297
31.08668,76379
31.09480,87311
31.10293,91629
31.11105,110326
31.11918,120463
31.12730,135812
31.13542,137537
31.14355,131491
31.15167,124069
31.15980,115995
31.16792,112894
31.17603,122027
31.18417,123800
31.19228,125658
31.20042,126775
31.20853,142255
31.21665,162810
31.22478,192294
31.23290,241987
31.24102,264270
31.24915,270639
31.25727,245596
31.26540,209165
31.27352,159537
31.28163,124097
31.28977,97999
31.29788,90160
31.30602,82300
31.31413,81968
31.32225,87405
31.33038,94372
31.33850,99827
31.34662,109417
31.35475,122216
31.36287,118112
31.37100,111372
31.37912,104969
31.38723,98898
31.39537,87536
31.40348,83411
31.41162,76416
31.41973,75387
31.42785,75953
31.43598,78012
31.44410,74155
31.45223,72550
31.46035,75881
31.46847,72088
31.47660,72892
31.48472,77797
31.49283,74997
31.50097,77020
31.50908,81494
31.51722,93161
31.52533,100793
31.53345,100081
31.54158,106806
31.54970,103462
31.55783,106738
31.56595,102448
31.57407,104873
31.58220,98393
31.59032,90504
31.59845,87542
31.60657,84479
31.61468,75187
31.62282,77568
31.63093,75378
31.63905,75760
31.64718,71653
31.65530,74469
31.66343,82586
31.67155,98988
31.67967,108350
31.68780,123316
31.69592,124857
31.70405,125434
31.71217,123639
31.72028,111121
31.72842,101371
31.73653,91760
31.74465,76671
31.75278,67939
31.76090,75492
31.76903,71892
31.77715,67470
31.78527,70317
31.79340,67805
31.80152,70837
31.80965,68611
31.81777,74904
31.82588,79631
31.83402,77621
31.84213,73718
31.85027,73637
31.85838,77040
31.86650,87241
31.87463,87447
31.88275,90321
31.89087,95033
31.89900,94397
31.90712,90644
31.91525,87136
31.92337,83531
31.93148,69385
31.93962,78194
31.94773,76966
31.95587,83400
31.96398,81684
31.97210,93336
31.98023,104343
31.98835,108229
31.99648,117683
32.00460,118879
32.01272,139744
32.02085,143821
32.02897,147874
32.03708,150166
32.04522,144120
32.05333,128989
32.06147,119354
32.06958,109870
32.07770,98122
32.08583,96209
32.09395,94643
32.10208,91896
32.11020,88708
32.11832,92953
32.12645,85875
32.13457,90152
32.14268,84636
32.15082,85985
32.15893,78601
32.16707,71455
32.17518,71972
32.18330,75930
32.19143,70081
32.19955,71647
32.20768,77888
32.21580,77773
32.22392,69386
32.23205,71191
32.24017,73167
32.24830,72320
32.25642,71894
32.26453,72649
32.27267,77762
32.28078,73403
32.28890,78446
32.29703,80384
32.30515,81730
32.31328,72923
32.32140,76678
32.32952,73233
32.33765,70389
32.34577,70423
32.35390,70377
32.36202,71741
32.37013,71453
32.37827,79695
32.38638,75507
32.39450,73953
32.40263,73165
32.41075,72834
32.41888,70925
32.42700,67755
32.43512,67918
32.44325,70623
32.45137,69295
32.45950,68226
32.46762,70444
32.47573,66216
32.48387,64012
32.49198,66215
32.50012,67697
32.50823,73819
32.51635,69588
32.52448,69579
32.53260,69777
32.54072,76789
32.54885,71312
32.55697,69000
32.56510,68040
32.57322,72398
32.58133,67524
32.58947,73593
32.59758,70238
32.60572,69537
32.61383,65519
32.62195,68641
32.63008,70247
32.63820,68714
32.64633,69434
32.65445,70787
32.66257,64322
32.67070,64545
32.67882,72372
32.68693,77144
32.69507,80402
32.70318,80765
32.71132,80188
32.71943,84071
32.72755,82941
32.73568,78574
32.74380,74787
32.75193,75424
32.76005,76366
32.76817,74284
32.77630,67387
32.78442,69160
32.79253,66521
32.80067,67433
32.80878,68110
32.81692,70251
32.82503,68572
32.83315,67799
32.84128,70997
32.84940,68833
32.85753,75379
32.86565,72503
32.87377,70890
32.88190,76571
32.89002,71566
32.89815,75880
32.90627,80659
32.91438,92601
32.92252,92931
32.93063,96703
32.93875,87508
32.94688,93410
32.95500,79819
32.96313,82900
32.97125,76478
32.97937,79179
32.98750,88389
32.99562,107168
33.00375,150289
33.01187,183495
33.01998,215486
33.02812,237446
33.03623,228784
33.04437,192566
33.05248,167218
33.06060,138286
33.06873,137121
33.07685,142860
33.08497,156911
33.09310,178313
33.10122,194647
33.10935,228168
33.11747,250090
33.12558,253339
33.13372,251110
33.14183,234573
33.14997,208756
33.15808,180737
33.16620,159335
33.17433,144714
33.18245,126532
33.19057,117374
33.19870,103808
33.20682,100646
33.21495,92318
33.22307,86653
33.23118,88400
33.23932,88614
33.24743,88957
33.25557,87175
33.26368,85638
33.27180,85800
33.27993,79616
33.28805,79262
33.29618,78235
33.30430,78750
33.31242,81269
33.32055,83538
33.32867,82196
33.33678,83453
33.34492,81726
33.35303,93972
33.36117,95797
33.36928,103181
33.37740,109443
33.38553,113710
33.39365,112600
33.40178,109493
33.40990,100057
33.41802,87867
33.42615,83900
33.43427,77067
33.44240,75350
33.45052,69200
33.45863,67702
33.46677,67281
33.47488,65569
33.48300,71293
33.49113,71515
33.49925,67643
33.50738,73246
33.51550,80568
33.52362,79432
33.53175,91050
33.53987,82614
33.54800,94111
33.55612,96730
33.56423,118452
33.57237,130069
33.58048,131337
33.58860,133687
33.59673,121284
33.60485,105334
33.61298,89863
33.62110,82752
33.62922,80139
33.63735,76187
33.64547,75778
33.65360,84292
33.66172,87163
33.66983,88214
33.67797,97267
33.68608,89978
33.69422,94332
33.70233,86731
33.71045,84969
33.71858,74246
33.72670,73608
33.73482,77217
33.74295,69632
33.75107,69498
33.75920,76472
33.76732,67686
33.77543,71504
33.78357,68514
33.79168,67398
33.79982,70550
33.80793,68199
33.81605,70666
33.82418,65801
33.83230,69688
33.84042,69757
33.84855,70599
33.85667,71803
33.86480,74605
33.87292,75281
33.88103,75856
33.88917,75089
33.89728,79387
33.90542,77216
33.91353,78767
33.92165,72478
33.92978,74771
33.93790,74237
33.94603,69183
33.95415,71613
33.96227,76514
33.97040,70192
33.97852,70476
33.98663,75598
33.99477,67975
34.00288,70022
34.01102,70768
34.01913,66720
34.02725,73154
34.03538,69088
34.04350,70368
34.05163,68726
34.05975,71466
34.06787,75330
34.07600,67647
34.08412,71665
34.09225,68651
34.10037,67005
34.10848,65110
34.11662,70551
34.12473,70258
34.13285,72911
34.14098,70550
34.14910,70241
34.15723,72196
34.16535,71127
34.17347,72497
34.18160,72629
34.18972,67698
34.19785,68116
34.20597,71989
34.21408,71136
34.22222,68195
34.23033,69331
34.23845,65167
34.24658,63217
34.25470,71624
34.26283,65680
34.27095,68126
34.27907,66446
34.28720,65357
34.29532,62967
34.30345,64329
34.31157,72158
34.31968,68317
34.32782,69042
34.33593,66323
34.34407,63774
34.35218,68813
34.36030,68437
34.36843,66365
34.37655,66835
34.38467,67401
34.39280,74378
34.40092,69360
34.40905,66724
34.41717,64496
34.42528,74602
34.43342,67908
34.44153,64270
34.44967,69874
34.45778,68928
34.46590,68232
34.47403,67496
34.48215,68459
34.49028,72089
34.49840,70869
34.50652,70180
34.51465,64388
34.52277,68581
34.53088,68867
34.53902,76159
34.54713,68187
34.55527,76232
34.56338,78832
34.57150,86931
34.57963,99568
34.58775,100906
34.59588,97554
34.60400,101436
34.61212,101709
34.62025,94343
34.62837,84886
34.63648,89048
34.64462,88637
34.65273,86554
34.66087,81432
34.66898,83039
34.67710,76548
34.68523,78274
34.69335,76402
34.70148,81630
34.70960,72527
34.71772,75384
34.72585,77379
34.73397,72882
34.74210,72619
34.75022,71221
34.75833,72624
34.76647,79991
34.77458,87368
34.78270,80393
34.79083,84292
34.79895,80141
34.80708,89895
34.81520,83176
34.82332,82018
34.83145,80125
34.83957,77303
34.84770,77688
34.85582,71195
34.86393,76215
34.87207,73349
34.88018,74632
34.88830,73635
34.89643,74662
34.90455,74891
34.91268,73233
34.92080,67243
34.92892,71031
34.93705,70856
34.94517,70710
34.95330,73417
34.96142,80140
34.96953,81603
34.97767,91898
34.98578,91900
34.99392,90928
35.00203,92183
35.01015,89140
35.01828,90055
35.02640,80927
35.03452,74188
35.04265,75138
35.05077,77149
35.05890,74111
35.06702,75425
35.07513,74496
35.08327,74643
35.09138,80230
35.09952,73065
35.10763,74979
35.11575,71935
35.12388,74353
35.13200,75219
35.14013,73884
35.14825,79220
35.15637,78205
35.16450,75408
35.17262,78570
35.18073,79291
35.18887,76314
35.19698,81677
35.20512,79567
35.21323,73762
35.22135,76803
35.22948,71731
35.23760,72644
35.24573,72722
35.25385,73646
35.26197,76993
35.27010,72844
35.27822,77863
35.28633,81945
35.29447,77045
35.30258,80836
35.31072,81832
35.31883,77352
35.32695,75444
35.33508,75884
35.34320,71205
35.35133,70800
35.35945,69155
35.36757,73669
35.37570,71802
35.38382,70998
35.39195,71778
35.40007,76682
35.40818,72109
35.41632,77938
35.42443,82695
35.43255,85656
35.44068,94548
35.44880,98349
35.45693,88525
35.46505,95409
35.47317,88740
35.48130,91072
35.48942,83557
35.49755,81702
35.50567,84741
35.51378,88047
35.52192,82770
35.53003,86928
35.53817,80573
35.54628,77915
35.55440,81966
35.56253,79937
35.57065,75847
35.57877,68027
35.58690,77981
35.59502,75578
35.60315,75273
35.61127,74151
35.61938,78354
35.62752,72401
35.63563,71859
35.64377,74644
35.65188,73276
35.66000,73570
35.66813,73867
35.67625,72601
35.68437,75961
35.69250,72797
35.70062,75024
35.70875,72625
35.71687,74194
35.72498,80786
35.73312,80973
35.74123,79100
35.74937,85083
35.75748,96378
35.76560,108893
35.77373,120737
35.78185,132844
35.78998,152206
35.79810,144656
35.80622,135655
35.81435,127932
35.82247,103852
35.83058,90766
35.83872,84699
35.84683,82000
35.85497,82924
35.86308,79302
35.87120,82257
35.87933,81598
35.88745,81639
35.89558,78212
35.90370,78295
35.91182,78349
35.91995,78903
35.92807,70858
35.93618,74300
35.94432,77651
35.95243,74853
35.96057,74991
35.96868,71254
35.97680,75865
35.98493,71789
35.99305,76960
36.00118,75272
36.00930,79730
36.01742,75510
36.02555,72027
36.03367,80085
36.04180,82963
36.04992,78853
36.05803,79262
36.06617,72335
36.07428,78919
36.08240,74404
36.09053,73927
36.09865,79038
36.10678,77111
36.11490,73066
36.12302,78139
36.13115,79562
36.13927,88118
36.14740,83130
36.15552,93957
36.16363,94064
36.17177,100799
36.17988,94481
36.18802,95706
36.19613,85914
36.20425,84143
36.21238,81665
36.22050,80695
36.22862,73448
36.23675,77739
36.24487,80860
36.25300,80447
36.26112,79651
36.26923,74792
36.27737,73128
36.28548,78993
36.29362,77739
36.30173,77247
36.30985,82093
36.31798,85085
36.32610,80255
36.33423,87696
36.34235,85721
36.35047,93656
36.35860,89081
36.36672,91794
36.37483,85933
36.38297,85674
36.39108,82667
36.39922,86707
36.40733,87541
36.41545,88221
36.42358,93057
36.43170,87769
36.43983,87595
36.44795,94865
36.45607,92564
36.46420,89462
36.47232,86508
36.48043,86565
36.48857,79787
36.49668,80759
36.50482,79975
36.51293,76224
36.52105,74750
36.52918,76377
36.53730,80486
36.54543,81481
36.55355,86026
36.56167,79914
36.56980,82175
36.57792,81011
36.58605,78515
36.59417,74981
36.60228,79126
36.61042,74916
36.61853,77485
36.62665,76849
36.63478,83995
36.64290,82423
36.65103,77735
36.65915,82454
36.66727,79230
36.67540,81118
36.68352,82871
36.69165,75749
36.69977,79832
36.70788,82613
36.71602,79158
36.72413,83010
36.73225,83049
36.74038,80275
36.74850,86961
36.75663,84508
36.76475,80754
36.77287,83791
36.78100,81289
36.78912,81474
36.79725,82746
36.80537,79027
36.81348,84847
36.82162,86830
36.82973,85885
36.83787,81840
36.84598,79564
36.85410,75519
36.86223,79989
36.87035,76481
36.87847,73903
36.88660,73870
36.89472,76451
36.90285,78453
36.91097,86731
36.91908,73146
36.92722,75364
36.93533,80695
36.94347,85144
36.95158,90240
36.95970,104683
36.96783,126042
36.97595,158295
36.98408,196074
36.99220,208020
37.00032,215266
37.00845,196689
37.01657,158368
37.02468,139463
37.03282,114022
37.04093,98786
37.04907,90942
37.05718,88663
37.06530,89449
37.07343,93514
37.08155,88361
37.08968,94864
37.09780,93173
37.10592,93558
37.11405,98586
37.12217,95115
37.13028,101208
37.13842,100509
37.14653,97045
37.15467,91762
37.16278,88512
37.17090,89897
37.17903,84501
37.18715,79413
37.19528,82374
37.20340,86501
37.21152,85252
37.21965,87139
37.22777,88060
37.23590,90193
37.24402,90463
37.25213,90101
37.26027,83522
37.26838,81070
37.27650,85106
37.28463,83697
37.29275,86695
37.30088,83049
37.30900,85335
37.31712,81809
37.32525,84712
37.33337,85090
37.34150,83387
37.34962,86596
37.35773,88424
37.36587,91331
37.37398,87913
37.38212,92526
37.39023,93249
37.39835,97008
37.40648,99062
37.41460,97597
37.42272,99444
37.43085,101520
37.43897,105652
37.44710,104730
37.45522,100650
37.46333,102097
37.47147,95593
37.47958,95737
37.48772,96869
