C:\MassHunter\GCMS\1\data\JTB-E18\JTB-E18-039-09.D Wed Nov 20 13:41:04 2019
Start of data points
2.09523	325276
2.10335	307831
2.11148	291830
2.11960	293451
2.12772	281854
2.13585	280257
2.14397	270815
2.15210	264985
2.16022	259225
2.16833	242596
2.17647	242610
2.18458	239144
2.19270	228857
2.20083	226088
2.20895	215690
2.21708	220375
2.22520	210325
2.23332	205355
2.24145	202376
2.24957	198486
2.25770	194449
2.26582	208676
2.27393	699398
2.28207	2405051
2.29018	2094076
2.29832	970023
2.30643	663605
2.31455	555623
2.32268	527626
2.33080	453183
2.33892	434801
2.34705	393449
2.35517	352752
2.36330	326619
2.37142	312832
2.37953	297994
2.38767	308075
2.39578	291974
2.40392	276855
2.41203	268846
2.42015	272068
2.42828	271617
2.43640	258963
2.44452	246095
2.45265	259230
2.46077	236190
2.46890	225947
2.47702	224417
2.48513	215550
2.49327	225618
2.50138	229867
2.50952	216302
2.51763	216435
2.52575	216166
2.53388	203596
2.54200	200032
2.55013	212691
2.55825	251888
2.56637	275742
2.57450	232614
2.58262	204582
2.59073	196296
2.59887	199923
2.60698	260167
2.61512	477954
2.62323	480964
2.63135	326486
2.63948	258429
2.64760	220081
2.65573	209092
2.66385	195680
2.67197	197530
2.68010	193649
2.68822	194513
2.69633	177415
2.70447	176828
2.71258	171586
2.72072	172454
2.72883	174106
2.73695	170235
2.74508	166227
2.75320	168247
2.76133	170114
2.76945	168431
2.77757	166588
2.78570	179854
2.79382	202442
2.80195	185408
2.81007	185132
2.81818	195260
2.82632	257397
2.83443	402099
2.84255	451573
2.85068	328155
2.85880	250545
2.86693	228294
2.87505	213399
2.88317	189319
2.89130	182778
2.89942	176600
2.90755	167929
2.91567	163752
2.92378	163181
2.93192	160039
2.94003	156469
2.94817	143470
2.95628	151689
2.96440	142512
2.97253	150506
2.98065	147652
2.98877	143086
2.99690	143533
3.00502	160588
3.01315	170199
3.02127	161884
3.02938	169856
3.03752	190958
3.04563	210939
3.05377	332571
3.06188	692271
3.07000	847530
3.07813	639010
3.08625	736434
3.09438	1499249
3.10250	2480242
3.11062	3863883
3.11875	3769066
3.12687	2303216
3.13498	1408488
3.14312	1048601
3.15123	785579
3.15937	648918
3.16748	551406
3.17560	532261
3.18373	611281
3.19185	1113961
3.19998	1639284
3.20810	1293931
3.21622	865963
3.22435	691986
3.23247	580755
3.24058	482162
3.24872	425202
3.25683	371945
3.26497	333326
3.27308	326422
3.28120	435226
3.28933	1197313
3.29745	3314353
3.30558	5801233
3.31370	6130576
3.32182	4493823
3.32995	2922287
3.33807	2073005
3.34620	1604877
3.35432	1324897
3.36243	1099224
3.37057	985901
3.37868	919773
3.38680	823649
3.39493	769856
3.40305	748613
3.41118	832815
3.41930	999032
3.42742	960345
3.43555	782276
3.44367	659842
3.45180	576429
3.45992	551488
3.46803	527274
3.47617	505609
3.48428	501907
3.49240	470162
3.50053	432954
3.50865	427792
3.51678	409055
3.52490	401854
3.53302	401835
3.54115	417321
3.54927	405067
3.55740	385619
3.56552	375881
3.57363	359898
3.58177	348757
3.58988	339973
3.59802	332143
3.60613	330924
3.61425	344840
3.62238	458487
3.63050	748043
3.63862	1057116
3.64675	1019780
3.65487	808698
3.66300	1023344
3.67112	3190137
3.67923	7320600
3.68737	8850353
3.69548	6653812
3.70362	4357722
3.71173	3224523
3.71985	2631985
3.72798	2174950
3.73610	1846307
3.74423	1605460
3.75235	1416595
3.76047	1281682
3.76860	1146354
3.77672	1046771
3.78483	980366
3.79297	963184
3.80108	968800
3.80922	1219303
3.81733	1560808
3.82545	1565946
3.83358	1245656
3.84170	1015728
3.84983	883897
3.85795	779782
3.86607	712505
3.87420	660743
3.88232	629231
3.89043	599168
3.89857	569111
3.90668	558462
3.91482	571989
3.92293	680463
3.93105	766892
3.93918	758969
3.94730	717950
3.95543	904095
3.96355	1311015
3.97167	1518210
3.97980	1280086
3.98792	930618
3.99605	818081
4.00417	1105135
4.01228	1660790
4.02042	1856462
4.02853	1492830
4.03665	1021539
4.04478	745279
4.05290	611169
4.06103	541882
4.06915	474688
4.07727	434907
4.08540	415213
4.09352	392820
4.10165	377384
4.10977	356075
4.11788	361328
4.12602	404497
4.13413	718280
4.14227	1467376
4.15038	2142815
4.15850	2013765
4.16663	1309063
4.17475	842428
4.18287	597201
4.19100	489036
4.19912	503164
4.20725	1207729
4.21537	4470969
4.22348	1.089809E+07
4.23162	1.703257E+07
4.23973	2.041593E+07
4.24787	1.760584E+07
4.25598	1.084139E+07
4.26410	6384570
4.27223	4472189
4.28035	3341824
4.28847	2650665
4.29660	2078640
4.30472	1729057
4.31285	1476131
4.32097	1290188
4.32908	1168768
4.33722	1049351
4.34533	950375
4.35347	895317
4.36158	873141
4.36970	830083
4.37783	777660
4.38595	719787
4.39408	662957
4.40220	619051
4.41032	598775
4.41845	558826
4.42657	536459
4.43468	525451
4.44282	511779
4.45093	498112
4.45907	469404
4.46718	456882
4.47530	456228
4.48343	441038
4.49155	423717
4.49968	415297
4.50780	400507
4.51592	391781
4.52405	385747
4.53217	384904
4.54028	382799
4.54842	385096
4.55653	365720
4.56467	363093
4.57278	345350
4.58090	340393
4.58903	331427
4.59715	329622
4.60528	320982
4.61340	331359
4.62152	352751
4.62965	434027
4.63777	572240
4.64590	623634
4.65402	580228
4.66213	491304
4.67027	423924
4.67838	391899
4.68650	367011
4.69463	342595
4.70275	325312
4.71088	306529
4.71900	307786
4.72712	290341
4.73525	280904
4.74337	279421
4.75150	271384
4.75962	264056
4.76773	263755
4.77587	261164
4.78398	290470
4.79212	364427
4.80023	538570
4.80835	702657
4.81648	690427
4.82460	577858
4.83272	495242
4.84085	444286
4.84897	432717
4.85710	392901
4.86522	360084
4.87333	331887
4.88147	315127
4.88958	297741
4.89772	291132
4.90583	325195
4.91395	494863
4.92208	994519
4.93020	1964536
4.93832	2938812
4.94645	3234074
4.95457	2758029
4.96270	1940517
4.97082	1328472
4.97893	962767
4.98707	741590
4.99518	676210
5.00332	607180
5.01143	563308
5.01955	562061
5.02768	586888
5.03580	711546
5.04393	757811
5.05205	730388
5.06017	646381
5.06830	600234
5.07642	561335
5.08453	511386
5.09267	510180
5.10078	497325
5.10892	511659
5.11703	504300
5.12515	507435
5.13328	468366
5.14140	448083
5.14953	440201
5.15765	475754
5.16577	516805
5.17390	545721
5.18202	541276
5.19015	534086
5.19827	533603
5.20638	516608
5.21452	487127
5.22263	467661
5.23075	449104
5.23888	446776
5.24700	429889
5.25513	388828
5.26325	369618
5.27137	330474
5.27950	330323
5.28762	317068
5.29575	318168
5.30387	311965
5.31198	301342
5.32012	305666
5.32823	298939
5.33635	305425
5.34448	305690
5.35260	306802
5.36073	305116
5.36885	293080
5.37697	282726
5.38510	279743
5.39322	282170
5.40135	286613
5.40947	289305
5.41758	287932
5.42572	271375
5.43383	265211
5.44197	270943
5.45008	272192
5.45820	274545
5.46633	264436
5.47445	262862
5.48257	257213
5.49070	251282
5.49882	254243
5.50695	249814
5.51507	244665
5.52318	252321
5.53132	240425
5.53943	242350
5.54757	242877
5.55568	271236
5.56380	297486
5.57193	339050
5.58005	337050
5.58817	320464
5.59630	294386
5.60442	267887
5.61255	252471
5.62067	260309
5.62878	254583
5.63692	258376
5.64503	264844
5.65317	246153
5.66128	243431
5.66940	260142
5.67753	272883
5.68565	281430
5.69378	299458
5.70190	282894
5.71002	272879
5.71815	266281
5.72627	252126
5.73438	258528
5.74252	258160
5.75063	243551
5.75877	240387
5.76688	245081
5.77500	246008
5.78313	231409
5.79125	238055
5.79938	248957
5.80750	269543
5.81562	354988
5.82375	442082
5.83187	537417
5.84000	546123
5.84812	487392
5.85623	389752
5.86437	321253
5.87248	275873
5.88060	263463
5.88873	253336
5.89685	237831
5.90498	244671
5.91310	242694
5.92122	280583
5.92935	312671
5.93747	344931
5.94560	341466
5.95372	331782
5.96183	329455
5.96997	347116
5.97808	382168
5.98620	404437
5.99433	393350
6.00245	336626
6.01058	277936
6.01870	239929
6.02682	221269
6.03495	202995
6.04307	194024
6.05120	187455
6.05932	181533
6.06743	177358
6.07557	174139
6.08368	163751
6.09182	173559
6.09993	177824
6.10805	198228
6.11618	219864
6.12430	260847
6.13242	339848
6.14055	416207
6.14867	445557
6.15680	409593
6.16492	339973
6.17303	291876
6.18117	267388
6.18928	256115
6.19742	248771
6.20553	255683
6.21365	241049
6.22178	220673
6.22990	213943
6.23803	211917
6.24615	204132
6.25427	209680
6.26240	217419
6.27052	210186
6.27863	207265
6.28677	205459
6.29488	201212
6.30302	197393
6.31113	200160
6.31925	207300
6.32738	211475
6.33550	223875
6.34363	221475
6.35175	222272
6.35987	212184
6.36800	217993
6.37612	219179
6.38423	210142
6.39237	217127
6.40048	220620
6.40862	213597
6.41673	217067
6.42485	228965
6.43298	221374
6.44110	228323
6.44923	218490
6.45735	225835
6.46547	227677
6.47360	227682
6.48172	232402
6.48985	245636
6.49797	238278
6.50608	239330
6.51422	241054
6.52233	248148
6.53045	252029
6.53858	247431
6.54670	250832
6.55483	259421
6.56295	271233
6.57107	285247
6.57920	298276
6.58732	303150
6.59545	286881
6.60357	275825
6.61168	257415
6.61982	265333
6.62793	261900
6.63607	259054
6.64418	268722
6.65230	296083
6.66043	351501
6.66855	394525
6.67667	411925
6.68480	394294
6.69292	382274
6.70105	361625
6.70917	331266
6.71728	312924
6.72542	303739
6.73353	297176
6.74167	301037
6.74978	291154
6.75790	268425
6.76603	234619
6.77415	250716
6.78227	293887
6.79040	400913
6.79852	501051
6.80665	540768
6.81477	495098
6.82288	400803
6.83102	304832
6.83913	243016
6.84727	201374
6.85538	177595
6.86350	154579
6.87163	148811
6.87975	139427
6.88788	125912
6.89600	128814
6.90412	116451
6.91225	123187
6.92037	134848
6.92848	160608
6.93662	201377
6.94473	230556
6.95287	238393
6.96098	229572
6.96910	203175
6.97723	173834
6.98535	154160
6.99348	134213
7.00160	126668
7.00972	120488
7.01785	107404
7.02597	113997
7.03408	110169
7.04222	112069
7.05033	108956
7.05847	109304
7.06658	106515
7.07470	99761
7.08283	94136
7.09095	91560
7.09908	89346
7.10720	90544
7.11532	91001
7.12345	93928
7.13157	92741
7.13970	97900
7.14782	103824
7.15593	117695
7.16407	125204
7.17218	137811
7.18030	138848
7.18843	138922
7.19655	147698
7.20468	205522
7.21280	486920
7.22092	1167059
7.22905	2232301
7.23717	2972548
7.24530	2824323
7.25342	1984872
7.26153	1148676
7.26967	662438
7.27778	446802
7.28592	335585
7.29403	261673
7.30215	236126
7.31028	218839
7.31840	215226
7.32652	200457
7.33465	177032
7.34277	158887
7.35090	141913
7.35902	129207
7.36713	118835
7.37527	118296
7.38338	115388
7.39152	119214
7.39963	126858
7.40775	136877
7.41588	146156
7.42400	151151
7.43212	147234
7.44025	146371
7.44837	131165
7.45650	117771
7.46462	113216
7.47273	105827
7.48087	101617
7.48898	95054
7.49712	99585
7.50523	103245
7.51335	121484
7.52148	163570
7.52960	225408
7.53773	294992
7.54585	348642
7.55397	358999
7.56210	330209
7.57022	269339
7.57833	221128
7.58647	162066
7.59458	132879
7.60272	121636
7.61083	107224
7.61895	104185
7.62708	101369
7.63520	92274
7.64333	95138
7.65145	93634
7.65957	96510
7.66770	89698
7.67582	90001
7.68395	86857
7.69207	89834
7.70018	87332
7.70832	88078
7.71643	83546
7.72455	84677
7.73268	88446
7.74080	78872
7.74893	81219
7.75705	82716
7.76517	81253
7.77330	83035
7.78142	86933
7.78955	94711
7.79767	98560
7.80578	99046
7.81392	94182
7.82203	90586
7.83015	83643
7.83828	81759
7.84640	87368
7.85453	91839
7.86265	93575
7.87077	100077
7.87890	105936
7.88702	105558
7.89515	96265
7.90327	88292
7.91138	91107
7.91952	95911
7.92763	113265
7.93577	121542
7.94388	136401
7.95200	126239
7.96013	113945
7.96825	95490
7.97637	87744
7.98450	85765
7.99262	77305
8.00075	75695
8.00887	72066
8.01698	71663
8.02512	68812
8.03323	69992
8.04137	70755
8.04948	72298
8.05760	71297
8.06573	74726
8.07385	68789
8.08197	63614
8.09010	63659
8.09822	64522
8.10635	66099
8.11447	68368
8.12258	71199
8.13072	77657
8.13883	84604
8.14697	83079
8.15508	82460
8.16320	81237
8.17133	74162
8.17945	70507
8.18758	66179
8.19570	67198
8.20382	65418
8.21195	62695
8.22007	62931
8.22818	62348
8.23632	61601
8.24443	58874
8.25257	60711
8.26068	62929
8.26880	61889
8.27693	64660
8.28505	68536
8.29318	70851
8.30130	81416
8.30942	88105
8.31755	87363
8.32567	80941
8.33380	77706
8.34192	70315
8.35003	61572
8.35817	63667
8.36628	59042
8.37440	60752
8.38253	56619
8.39065	61576
8.39878	59692
8.40690	55858
8.41502	53443
8.42315	60524
8.43127	55446
8.43940	56812
8.44752	55997
8.45563	57259
8.46377	58107
8.47188	60365
8.48002	57381
8.48813	60758
8.49625	59506
8.50438	63686
8.51250	73832
8.52062	111074
8.52875	211168
8.53687	379532
8.54500	537480
8.55312	572845
8.56123	480304
8.56937	318928
8.57748	210508
8.58562	131767
8.59373	98689
8.60185	95189
8.60998	82407
8.61810	79270
8.62622	76625
8.63435	73247
8.64247	72079
8.65060	66896
8.65872	70762
8.66683	64890
8.67497	69129
8.68308	67439
8.69122	79703
8.69933	113463
8.70745	215236
8.71558	403373
8.72370	650991
8.73183	850902
8.73995	857394
8.74807	701919
8.75620	481761
8.76432	321523
8.77243	225137
8.78057	170669
8.78868	151858
8.79682	146027
8.80493	151844
8.81305	155068
8.82118	162525
8.82930	164174
8.83743	157544
8.84555	150270
8.85367	148392
8.86180	149040
8.86992	140559
8.87803	137289
8.88617	130054
8.89428	126529
8.90242	138619
8.91053	124735
8.91865	130121
8.92678	138755
8.93490	148492
8.94303	163459
8.95115	157788
8.95927	160094
8.96740	145263
8.97552	143465
8.98365	137186
8.99177	124734
8.99988	118477
9.00802	122661
9.01613	116706
9.02425	111683
9.03238	104964
9.04050	109143
9.04863	105859
9.05675	105140
9.06487	105595
9.07300	100716
9.08112	109448
9.08925	119823
9.09737	122880
9.10548	139365
9.11362	143054
9.12173	135701
9.12987	125257
9.13798	113104
9.14610	106735
9.15423	103240
9.16235	97694
9.17047	96272
9.17860	91104
9.18672	93246
9.19485	89218
9.20297	87531
9.21108	91487
9.21922	92085
9.22733	93721
9.23547	95822
9.24358	101301
9.25170	106692
9.25983	124660
9.26795	128955
9.27607	136142
9.28420	125595
9.29232	116164
9.30045	107645
9.30857	98729
9.31668	94499
9.32482	89672
9.33293	86854
9.34107	86191
9.34918	87325
9.35730	89878
9.36543	85150
9.37355	86065
9.38168	87536
9.38980	88083
9.39792	87694
9.40605	105467
9.41417	106616
9.42228	114072
9.43042	119984
9.43853	119501
9.44667	107102
9.45478	99854
9.46290	89878
9.47103	85660
9.47915	86265
9.48728	85048
9.49540	99566
9.50352	100974
9.51165	110233
9.51977	111472
9.52790	98418
9.53602	89660
9.54413	79048
9.55227	68685
9.56038	67992
9.56850	66211
9.57663	62766
9.58475	60780
9.59288	61077
9.60100	61713
9.60912	54517
9.61725	56568
9.62537	56246
9.63350	60347
9.64162	56876
9.64973	52330
9.65787	55057
9.66598	52837
9.67410	50927
9.68223	49456
9.69035	45244
9.69848	42973
9.70660	45315
9.71472	42332
9.72285	50294
9.73097	42749
9.73910	47436
9.74722	47975
9.75533	43287
9.76347	42856
9.77158	46519
9.77972	45569
9.78783	40422
9.79595	40857
9.80408	41185
9.81220	39232
9.82032	44285
9.82845	42733
9.83657	40609
9.84470	44888
9.85282	50812
9.86093	55261
9.86907	54451
9.87718	52218
9.88532	48272
9.89343	50714
9.90155	42750
9.90968	47783
9.91780	50279
9.92592	57581
9.93405	63896
9.94217	65833
9.95030	70030
9.95842	70655
9.96653	68737
9.97467	59871
9.98278	60871
9.99092	52034
9.99903	48048
10.00715	43053
10.01528	42429
10.02340	41341
10.03153	40659
10.03965	39127
10.04777	39862
10.05590	41514
10.06402	45624
10.07213	40330
10.08027	42503
10.08838	44368
10.09652	44401
10.10463	38470
10.11275	39792
10.12088	37016
10.12900	40088
10.13713	41867
10.14525	39600
10.15337	41024
10.16150	38807
10.16962	36544
10.17775	36938
10.18587	37427
10.19398	35189
10.20212	39286
10.21023	41173
10.21835	37710
10.22648	43792
10.23460	48407
10.24273	54084
10.25085	88106
10.25897	198677
10.26710	489197
10.27522	1132714
10.28335	2144876
10.29147	3494569
10.29958	5187161
10.30772	7817854
10.31583	1.165988E+07
10.32395	1.575417E+07
10.33208	1.787734E+07
10.34020	1.687148E+07
10.34833	1.242843E+07
10.35645	7223090
10.36457	3644008
10.37270	1881135
10.38082	1179717
10.38895	824090
10.39707	646930
10.40518	518892
10.41332	430660
10.42143	390042
10.42957	342161
10.43768	315109
10.44580	284530
10.45393	273683
10.46205	256042
10.47017	238591
10.47830	231400
10.48642	222701
10.49455	206659
10.50267	193619
10.51078	197527
10.51892	174350
10.52703	173343
10.53517	161449
10.54328	152298
10.55140	147298
10.55953	139288
10.56765	143698
10.57578	136415
10.58390	137037
10.59202	130360
10.60015	126648
10.60827	125194
10.61638	119507
10.62452	110552
10.63263	112367
10.64077	112365
10.64888	108660
10.65700	106368
10.66513	107319
10.67325	105404
10.68138	109673
10.68950	104496
10.69762	102183
10.70575	101241
10.71387	94446
10.72198	93528
10.73012	93720
10.73823	89399
10.74637	89329
10.75448	86467
10.76260	87496
10.77073	85878
10.77885	81507
10.78698	76041
10.79510	75157
10.80322	81959
10.81135	80982
10.81947	75576
10.82760	74607
10.83572	69948
10.84383	74189
10.85197	65295
10.86008	62877
10.86820	64402
10.87633	63288
10.88445	64961
10.89258	66854
10.90070	64798
10.90882	61065
10.91695	61688
10.92507	62542
10.93320	59594
10.94132	63466
10.94943	62584
10.95757	65840
10.96568	62306
10.97382	65133
10.98193	62651
10.99005	61850
10.99818	58403
11.00630	60638
11.01442	55525
11.02255	55703
11.03067	54920
11.03880	56654
11.04692	52239
11.05503	56442
11.06317	61598
11.07128	56021
11.07942	60464
11.08753	59943
11.09565	57220
11.10378	54552
11.11190	55540
11.12002	52977
11.12815	57011
11.13627	51043
11.14440	48748
11.15252	50736
11.16063	51565
11.16877	50603
11.17688	48720
11.18502	46745
11.19313	49506
11.20125	49154
11.20938	43291
11.21750	48394
11.22563	49200
11.23375	45757
11.24187	47579
11.25000	59972
11.25812	75457
11.26623	91982
11.27437	99035
11.28248	98259
11.29062	105007
11.29873	114247
11.30685	144991
11.31498	199510
11.32310	255958
11.33123	302504
11.33935	298012
11.34747	261263
11.35560	199913
11.36372	150387
11.37183	113764
11.37997	101979
11.38808	90398
11.39622	91572
11.40433	95810
11.41245	88221
11.42058	84054
11.42870	80428
11.43683	74066
11.44495	73303
11.45307	69108
11.46120	72496
11.46932	74084
11.47745	83648
11.48557	94604
11.49368	102736
11.50182	101792
11.50993	97908
11.51805	91801
11.52618	94414
11.53430	88540
11.54243	91352
11.55055	80233
11.55867	74099
11.56680	63544
11.57492	69721
11.58305	71037
11.59117	80339
11.59928	101407
11.60742	121508
11.61553	130585
11.62367	124745
11.63178	102532
11.63990	86311
11.64803	75390
11.65615	70142
11.66427	68077
11.67240	79228
11.68052	97444
11.68865	111905
11.69677	119167
11.70488	120934
11.71302	111337
11.72113	100509
11.72927	85477
11.73738	72947
11.74550	66379
11.75363	67187
11.76175	60479
11.76987	58928
11.77800	57475
11.78612	58317
11.79425	53163
11.80237	54860
11.81048	58518
11.81862	53354
11.82673	52215
11.83487	50816
11.84298	52187
11.85110	53090
11.85923	49574
11.86735	48818
11.87548	49378
11.88360	49913
11.89172	48510
11.89985	52072
11.90797	63836
11.91608	66502
11.92422	69807
11.93233	66441
11.94047	69225
11.94858	58140
11.95670	50588
11.96483	46844
11.97295	46479
11.98108	50600
11.98920	51407
11.99732	56228
12.00545	54953
12.01357	58314
12.02170	55877
12.02982	48086
12.03793	46605
12.04607	43911
12.05418	45459
12.06230	45406
12.07043	45037
12.07855	46870
12.08668	43836
12.09480	47223
12.10292	48073
12.11105	47368
12.11917	52126
12.12730	49481
12.13542	51810
12.14353	47317
12.15167	45494
12.15978	38950
12.16790	40535
12.17603	39751
12.18415	41992
12.19228	41771
12.20040	38026
12.20852	38950
12.21665	41756
12.22477	38411
12.23290	45598
12.24102	44227
12.24913	41798
12.25727	41111
12.26538	45172
12.27352	39252
12.28163	36335
12.28975	41747
12.29788	38832
12.30600	34054
12.31412	35586
12.32225	35622
12.33037	37329
12.33850	36997
12.34662	35790
12.35473	38440
12.36287	36998
12.37098	38100
12.37912	42207
12.38723	55681
12.39535	75077
12.40348	98707
12.41160	125396
12.41972	132702
12.42785	120180
12.43597	101654
12.44410	83176
12.45222	70490
12.46033	60747
12.46847	56784
12.47658	46469
12.48472	50774
12.49283	45140
12.50095	41860
12.50908	42335
12.51720	41661
12.52533	41729
12.53345	45820
12.54157	52117
12.54970	62326
12.55782	66297
12.56593	71551
12.57407	68775
12.58218	53742
12.59032	48503
12.59843	44291
12.60655	43357
12.61468	39972
12.62280	40802
12.63093	40822
12.63905	39831
12.64717	37521
12.65530	34697
12.66342	32856
12.67155	35273
12.67967	37906
12.68778	36578
12.69592	34295
12.70403	38413
12.71215	41181
12.72028	43635
12.72840	47730
12.73653	46713
12.74465	44684
12.75277	43223
12.76090	41856
12.76902	41967
12.77715	39802
12.78527	44211
12.79338	43329
12.80152	36536
12.80963	34556
12.81775	34777
12.82588	34832
12.83400	32961
12.84213	34446
12.85025	32397
12.85837	35604
12.86650	33873
12.87462	35066
12.88275	35576
12.89087	34045
12.89898	35494
12.90712	32917
12.91523	37943
12.92337	46320
12.93148	53416
12.93960	66875
12.94773	75588
12.95585	80247
12.96397	77260
12.97210	75222
12.98022	69868
12.98835	59556
12.99647	52863
13.00458	51147
13.01272	46969
13.02083	46081
13.02897	46963
13.03708	45129
13.04520	42148
13.05333	43997
13.06145	43758
13.06958	42039
13.07770	38751
13.08582	39339
13.09395	36455
13.10207	37761
13.11018	35275
13.11832	39287
13.12643	36998
13.13457	34740
13.14268	41772
13.15080	36668
13.15893	40670
13.16705	40713
13.17518	40736
13.18330	38781
13.19142	35575
13.19955	33927
13.20767	42467
13.21578	38307
13.22392	40488
13.23203	52627
13.24017	43701
13.24828	46484
13.25640	41565
13.26453	45687
13.27265	42846
13.28078	40153
13.28890	40361
13.29702	43764
13.30515	40988
13.31327	41937
13.32140	41908
13.32952	37724
13.33763	36118
13.34577	37162
13.35388	38214
13.36200	34508
13.37013	35822
13.37825	35371
13.38638	37721
13.39450	31630
13.40262	35074
13.41075	35978
13.41887	34157
13.42700	34222
13.43512	34430
13.44323	32799
13.45137	31132
13.45948	34675
13.46760	33363
13.47573	33734
13.48385	31426
13.49198	37804
13.50010	34272
13.50822	35335
13.51635	32589
13.52447	39161
13.53260	39353
13.54072	42480
13.54883	37826
13.55697	40203
13.56508	37597
13.57322	39279
13.58133	45742
13.58945	47896
13.59758	53150
13.60570	63241
13.61382	55791
13.62195	60718
13.63007	53577
13.63820	47912
13.64632	39130
13.65443	34708
13.66257	38929
13.67068	37335
13.67882	37280
13.68693	38489
13.69505	39016
13.70318	41632
13.71130	35090
13.71943	35949
13.72755	36609
13.73567	37334
13.74380	45134
13.75192	57127
13.76003	73528
13.76817	86228
13.77628	108842
13.78442	113937
13.79253	122699
13.80065	135809
13.80878	147978
13.81690	156623
13.82503	171246
13.83315	151928
13.84127	134582
13.84940	114205
13.85752	94175
13.86565	84961
13.87377	76784
13.88188	70797
13.89002	69691
13.89813	60195
13.90625	56561
13.91438	53128
13.92250	53244
13.93063	46397
13.93875	46199
13.94687	48458
13.95500	45748
13.96312	46655
13.97125	49307
13.97937	48326
13.98748	52419
13.99562	50940
14.00373	57741
14.01185	50730
14.01998	48634
14.02810	47972
14.03623	45456
14.04435	43015
14.05247	41156
14.06060	42022
14.06872	38432
14.07685	40671
14.08497	40886
14.09308	41279
14.10122	50154
14.10933	74174
14.11747	114137
14.12558	173441
14.13370	234276
14.14183	251467
14.14995	235285
14.15807	200865
14.16620	166781
14.17432	133314
14.18245	115081
14.19057	107389
14.19868	100763
14.20682	98799
14.21493	94960
14.22307	92806
14.23118	89203
14.23930	88915
14.24743	88878
14.25555	90168
14.26367	77524
14.27180	73203
14.27992	73370
14.28805	61507
14.29617	51798
14.30428	46309
14.31242	42724
14.32053	41689
14.32867	38534
14.33678	39255
14.34490	39100
14.35303	38836
14.36115	38990
14.36928	37896
14.37740	33884
14.38552	34387
14.39365	38337
14.40177	42215
14.40988	38802
14.41802	44803
14.42613	43851
14.43427	43686
14.44238	39537
14.45050	34776
14.45863	38483
14.46675	34689
14.47488	36623
14.48300	35231
14.49112	33588
14.49925	36071
14.50737	33273
14.51550	34323
14.52362	34008
14.53173	33462
14.53987	32013
14.54798	32026
14.55610	32380
14.56423	36769
14.57235	32398
14.58048	34176
14.58860	32858
14.59672	34883
14.60485	35584
14.61297	27835
14.62110	35260
14.62922	31467
14.63733	32350
14.64547	29911
14.65358	35724
14.66170	30718
14.66983	30101
14.67795	27155
14.68608	30207
14.69420	33228
14.70232	28426
14.71045	29449
14.71857	39119
14.72670	33797
14.73482	28839
14.74293	31248
14.75107	30785
14.75918	33049
14.76732	34148
14.77543	48898
14.78355	108436
14.79168	253407
14.79980	557786
14.80792	1201421
14.81605	1982368
14.82417	2488546
14.83230	2486297
14.84042	1979070
14.84853	1350567
14.85667	886587
14.86478	595877
14.87292	438331
14.88103	326487
14.88915	270447
14.89728	230883
14.90540	195795
14.91353	184087
14.92165	169722
14.92977	153436
14.93790	134413
14.94602	125793
14.95413	119013
14.96227	117325
14.97038	104268
14.97852	105384
14.98663	98689
14.99475	96342
15.00288	89049
15.01100	87878
15.01913	88808
15.02725	87398
15.03537	76413
15.04350	79571
15.05162	71385
15.05973	71871
15.06787	66854
15.07598	67433
15.08412	63291
15.09223	65221
15.10035	66787
15.10848	65779
15.11660	67321
15.12473	69506
15.13285	72872
15.14097	74024
15.14910	67119
15.15722	63016
15.16535	62650
15.17347	52229
15.18158	49105
15.18972	49711
15.19783	45382
15.20595	44784
15.21408	48596
15.22220	45527
15.23033	45899
15.23845	42570
15.24657	41783
15.25470	40968
15.26282	43167
15.27095	41411
15.27907	39017
15.28718	41137
15.29532	40951
15.30343	38276
15.31155	40285
15.31968	37605
15.32780	35694
15.33593	35526
15.34405	38833
15.35217	38701
15.36030	37757
15.36842	39151
15.37655	36028
15.38467	35812
15.39278	35264
15.40092	36288
15.40903	35490
15.41717	39215
15.42528	37837
15.43340	35685
15.44153	40202
15.44965	43635
15.45777	43119
15.46590	52450
15.47402	61590
15.48215	68690
15.49027	77941
15.49838	72502
15.50652	73445
15.51463	67947
15.52277	72553
15.53088	64074
15.53900	64182
15.54713	58372
15.55525	52660
15.56338	51983
15.57150	49941
15.57962	44313
15.58775	41484
15.59587	42663
15.60398	40580
15.61212	45019
15.62023	41209
15.62837	40748
15.63648	38005
15.64460	37485
15.65273	39353
15.66085	37010
15.66898	35258
15.67710	35713
15.68522	34542
15.69335	37751
15.70147	34477
15.70958	33580
15.71772	36303
15.72583	39987
15.73397	43686
15.74208	49937
15.75020	67686
15.75833	79983
15.76645	109905
15.77458	126402
15.78270	143533
15.79082	129756
15.79895	107302
15.80707	88254
15.81520	71370
15.82332	62562
15.83143	57677
15.83957	51937
15.84768	49470
15.85580	47881
15.86393	45720
15.87205	49419
15.88018	48484
15.88830	42456
15.89642	44854
15.90455	43953
15.91267	39761
15.92080	44227
15.92892	41849
15.93703	42694
15.94517	43657
15.95328	39981
15.96142	41851
15.96953	45209
15.97765	46167
15.98578	47859
15.99390	49649
16.00202	57904
16.01015	58166
16.01827	52163
16.02640	55559
16.03452	49797
16.04263	48246
16.05077	41969
16.05888	44185
16.06702	37835
16.07513	38081
16.08325	40772
16.09138	39586
16.09950	38020
16.10762	41236
16.11575	42301
16.12387	40195
16.13200	39525
16.14012	40827
16.14823	41665
16.15637	39046
16.16448	37750
16.17262	38241
16.18073	35228
16.18885	37373
16.19698	34318
16.20510	32383
16.21323	37762
16.22135	36648
16.22947	33884
16.23760	35947
16.24572	33554
16.25383	38170
16.26197	41673
16.27008	37887
16.27822	39720
16.28633	40566
16.29445	39683
16.30258	40579
16.31070	39625
16.31883	37422
16.32695	37275
16.33507	38457
16.34320	38329
16.35132	35410
16.35945	41181
16.36757	39163
16.37568	40232
16.38382	35121
16.39193	39175
16.40005	36118
16.40818	36927
16.41630	37420
16.42443	42768
16.43255	46733
16.44067	76706
16.44880	130572
16.45692	206357
16.46505	300135
16.47317	363993
16.48128	373005
16.48942	315634
16.49753	232835
16.50565	177064
16.51378	124255
16.52190	101289
16.53003	94924
16.53815	72974
16.54627	73736
16.55440	71111
16.56252	63743
16.57065	58981
16.57877	58200
16.58688	55279
16.59502	56425
16.60313	52039
16.61127	54432
16.61938	49488
16.62750	53085
16.63563	48205
16.64375	51339
16.65187	48212
16.66000	48406
16.66812	48186
16.67625	43011
16.68437	45960
16.69248	41425
16.70062	46558
16.70873	45409
16.71687	39495
16.72498	45050
16.73310	44049
16.74123	42184
16.74935	45692
16.75747	45994
16.76560	46227
16.77372	44276
16.78185	43342
16.78997	39241
16.79808	33820
16.80622	38676
16.81433	39413
16.82247	34957
16.83058	35418
16.83870	41936
16.84683	37274
16.85495	38676
16.86308	35541
16.87120	34820
16.87932	39215
16.88745	37253
16.89557	34722
16.90368	36576
16.91182	37378
16.91993	36385
16.92807	36329
16.93618	38928
16.94430	36683
16.95243	35540
16.96055	36829
16.96868	38986
16.97680	38190
16.98492	39855
16.99305	36362
17.00117	36163
17.00930	36265
17.01742	37161
17.02553	34891
17.03367	37892
17.04178	36171
17.04990	37419
17.05803	39639
17.06615	40001
17.07428	34204
17.08240	35021
17.09052	41098
17.09865	35274
17.10677	35892
17.11490	39206
17.12302	37668
17.13113	37734
17.13927	37984
17.14738	33887
17.15550	33266
17.16363	39542
17.17175	35882
17.17988	34483
17.18800	36448
17.19612	36951
17.20425	32679
17.21237	32498
17.22050	33651
17.22862	32726
17.23673	35659
17.24487	36757
17.25298	39875
17.26112	34128
17.26923	33870
17.27735	32145
17.28548	36785
17.29360	39113
17.30172	34073
17.30985	42788
17.31797	34443
17.32610	38804
17.33422	41302
17.34233	39404
17.35047	40919
17.35858	41153
17.36672	40490
17.37483	43343
17.38295	44155
17.39108	40537
17.39920	37027
17.40733	41287
17.41545	44796
17.42357	40306
17.43170	43262
17.43982	39583
17.44793	41018
17.45607	37851
17.46418	37791
17.47232	35738
17.48043	38358
17.48855	36073
17.49668	35941
17.50480	42290
17.51293	43222
17.52105	48074
17.52917	48677
17.53730	46882
17.54542	53413
17.55353	55366
17.56167	68655
17.56978	81081
17.57792	105955
17.58603	120190
17.59415	129161
17.60228	123063
17.61040	118821
17.61853	100155
17.62665	79568
17.63477	66761
17.64290	61930
17.65102	58649
17.65915	54685
17.66727	55671
17.67538	56047
17.68352	52108
17.69163	50933
17.69975	50727
17.70788	44952
17.71600	46219
17.72413	42712
17.73225	44862
17.74037	44103
17.74850	44980
17.75662	44855
17.76475	45021
17.77287	43124
17.78098	42042
17.78912	41886
17.79723	42037
17.80535	44922
17.81348	44473
17.82160	45946
17.82973	46963
17.83785	49293
17.84597	51400
17.85410	55496
17.86222	54072
17.87035	52031
17.87847	40769
17.88658	45780
17.89472	40833
17.90283	41481
17.91097	39931
17.91908	34820
17.92720	35734
17.93533	36297
17.94345	32616
17.95157	36977
17.95970	36424
17.96782	39707
17.97595	41031
17.98407	35158
17.99218	37984
18.00032	41644
18.00843	45670
18.01657	51526
18.02468	53935
18.03280	57296
18.04093	52827
18.04905	49488
18.05718	48183
18.06530	45034
18.07342	44620
18.08155	54748
18.08967	81512
18.09778	128531
18.10592	184241
18.11403	222272
18.12217	258905
18.13028	279721
18.13840	300539
18.14653	298410
18.15465	311484
18.16278	308289
18.17090	306259
18.17902	317780
18.18715	316408
18.19527	315199
18.20340	305702
18.21152	295071
18.21963	294545
18.22777	295867
18.23588	294244
18.24400	295676
18.25213	291919
18.26025	280880
18.26838	274515
18.27650	267012
18.28462	268596
18.29275	262275
18.30087	254278
18.30900	250983
18.31712	250101
18.32523	249780
18.33337	233889
18.34148	235390
18.34960	224065
18.35773	226896
18.36585	226898
18.37398	220000
18.38210	212414
18.39022	208312
18.39835	209830
18.40647	207466
18.41460	202147
18.42272	207489
18.43083	215297
18.43897	211038
18.44708	215572
18.45522	222225
18.46333	229447
18.47145	221742
18.47958	212301
18.48770	203924
18.49582	199282
18.50395	189411
18.51207	178558
18.52020	168636
18.52832	165481
18.53643	158356
18.54457	159136
18.55268	154453
18.56082	154952
18.56893	151741
18.57705	153601
18.58518	157371
18.59330	150330
18.60142	157847
18.60955	144943
18.61767	150659
18.62580	142278
18.63392	137776
18.64203	131596
18.65017	132911
18.65828	126832
18.66642	125386
18.67453	128019
18.68265	119333
18.69078	116609
18.69890	119736
18.70703	116819
18.71515	113947
18.72327	111109
18.73140	114527
18.73952	108266
18.74763	105823
18.75577	98847
18.76388	103522
18.77202	103949
18.78013	103594
18.78825	107684
18.79638	97673
18.80450	95495
18.81263	91495
18.82075	91586
18.82887	89164
18.83700	91425
18.84512	87355
18.85325	87519
18.86137	86855
18.86948	87810
18.87762	91136
18.88573	90264
18.89385	91720
18.90198	88178
18.91010	91854
18.91823	98768
18.92635	96458
18.93447	104251
18.94260	101818
18.95072	98849
18.95885	92335
18.96697	87342
18.97508	86744
18.98322	78827
18.99133	82782
18.99945	74982
19.00758	73454
19.01570	72135
19.02383	73460
19.03195	76357
19.04007	68440
19.04820	70977
19.05632	70970
19.06445	80944
19.07257	85515
19.08068	99338
19.08882	112644
19.09693	111013
19.10507	111348
19.11318	100643
19.12130	101100
19.12943	93889
19.13755	88206
19.14567	83772
19.15380	81560
19.16192	75483
19.17005	76028
19.17817	69806
19.18628	71635
19.19442	69152
19.20253	67503
19.21067	68600
19.21878	64529
19.22690	63368
19.23503	63665
19.24315	64627
19.25128	63043
19.25940	71269
19.26752	72132
19.27565	72796
19.28377	77025
19.29188	79045
19.30002	77782
19.30813	74067
19.31627	72034
19.32438	67975
19.33250	67728
19.34063	65903
19.34875	70036
19.35688	75669
19.36500	83327
19.37312	78498
19.38125	74594
19.38937	76772
19.39748	79662
19.40562	91908
19.41373	125441
19.42187	162389
19.42998	194531
19.43810	206357
19.44623	186879
19.45435	157959
19.46248	114613
19.47060	92460
19.47872	75768
19.48685	68967
19.49497	66215
19.50310	66403
19.51122	63937
19.51933	64956
19.52747	66842
19.53558	62167
19.54370	61867
19.55183	61642
19.55995	58235
19.56808	56691
19.57620	53019
19.58432	52451
19.59245	53313
19.60057	52768
19.60870	65887
19.61682	86393
19.62493	118726
19.63307	165347
19.64118	211012
19.64930	248772
19.65743	264236
19.66555	240960
19.67368	205775
19.68180	171005
19.68992	134613
19.69805	124029
19.70617	107762
19.71430	94109
19.72242	85288
19.73053	76090
19.73867	71284
19.74678	69358
19.75492	66865
19.76303	65664
19.77115	68878
19.77928	73859
19.78740	72621
19.79552	65834
19.80365	63914
19.81177	59959
19.81990	61659
19.82802	62258
19.83613	58639
19.84427	58726
19.85238	58702
19.86052	57756
19.86863	61110
19.87675	66312
19.88488	69719
19.89300	72695
19.90113	78500
19.90925	80729
19.91737	81435
19.92550	74198
19.93362	71413
19.94173	70205
19.94987	68225
19.95798	65802
19.96612	65552
19.97423	66567
19.98235	63178
19.99048	63682
19.99860	62808
20.00673	61483
20.01485	63288
20.02297	59775
20.03110	59247
20.03922	60811
20.04733	57984
20.05547	64200
20.06358	69238
20.07172	64918
20.07983	64887
20.08795	63826
20.09608	60331
20.10420	56274
20.11233	56897
20.12045	58405
20.12857	53177
20.13670	58109
20.14482	63077
20.15295	67842
20.16107	80041
20.16918	84597
20.17732	89389
20.18543	90721
20.19355	84802
20.20168	83582
20.20980	88154
20.21793	96093
20.22605	110540
20.23417	134376
20.24230	152189
20.25042	161865
20.25855	161976
20.26667	152767
20.27478	133504
20.28292	110251
20.29103	97511
20.29917	80790
20.30728	69631
20.31540	65150
20.32353	62911
20.33165	54760
20.33977	53816
20.34790	50378
20.35602	49350
20.36415	49980
20.37227	53276
20.38038	55623
20.38852	62330
20.39663	65467
20.40477	71034
20.41288	71895
20.42100	68935
20.42913	66857
20.43725	61479
20.44537	56288
20.45350	51745
20.46162	51883
20.46975	51957
20.47787	44450
20.48598	43661
20.49412	43401
20.50223	43661
20.51037	38691
20.51848	42445
20.52660	42729
20.53473	42702
20.54285	39592
20.55098	41749
20.55910	40628
20.56722	39223
20.57535	44322
20.58347	37410
20.59158	39282
20.59972	38474
20.60783	42796
20.61597	39811
20.62408	37142
20.63220	40670
20.64033	39977
20.64845	38666
20.65658	39605
20.66470	39720
20.67282	37132
20.68095	34280
20.68907	40586
20.69718	36309
20.70532	39214
20.71343	35629
20.72157	38792
20.72968	38814
20.73780	34194
20.74593	37523
20.75405	40402
20.76218	40289
20.77030	50190
20.77842	59506
20.78655	67810
20.79467	88839
20.80280	103758
20.81092	105844
20.81903	95419
20.82717	86700
20.83528	70316
20.84340	58286
20.85153	54030
20.85965	48894
20.86778	48715
20.87590	42562
20.88402	46302
20.89215	45358
20.90027	43362
20.90840	45930
20.91652	44439
20.92463	44808
20.93277	47581
20.94088	40033
20.94902	41031
20.95713	41146
20.96525	38268
20.97338	40647
20.98150	36183
20.98962	38261
20.99775	38401
21.00587	32518
21.01400	38425
21.02212	38249
21.03023	42223
21.03837	39552
21.04648	36772
21.05462	39780
21.06273	37142
21.07085	37885
21.07898	39046
21.08710	38344
21.09522	37349
21.10335	38748
21.11147	39175
21.11960	46101
21.12772	52240
21.13583	51881
21.14397	59778
21.15208	61745
21.16022	56980
21.16833	55124
21.17645	52036
21.18458	45295
21.19270	42846
21.20083	38858
21.20895	42711
21.21707	40001
21.22520	36306
21.23332	40159
21.24143	34564
21.24957	39297
21.25768	37330
21.26582	40564
21.27393	42987
21.28205	44159
21.29018	45604
21.29830	48100
21.30643	47892
21.31455	49172
21.32267	48706
21.33080	44841
21.33892	49683
21.34705	48785
21.35517	51528
21.36328	55124
21.37142	49977
21.37953	49309
21.38765	51612
21.39578	53119
21.40390	54623
21.41203	53665
21.42015	55615
21.42827	52370
21.43640	51005
21.44452	53514
21.45265	51073
21.46077	55189
21.46888	52181
21.47702	53240
21.48513	50166
21.49325	49352
21.50138	48936
21.50950	55384
21.51763	55189
21.52575	50559
21.53387	55005
21.54200	57543
21.55012	59393
21.55825	62954
21.56637	79645
21.57448	83936
21.58262	89022
21.59073	91309
21.59887	88328
21.60698	79329
21.61510	72470
21.62323	67429
21.63135	58306
21.63947	57124
21.64760	53284
21.65572	54941
21.66385	52203
21.67197	56028
21.68008	49136
21.68822	50125
21.69633	51128
21.70447	43116
21.71258	45364
21.72070	44245
21.72883	46137
21.73695	44469
21.74508	44240
21.75320	50337
21.76132	56437
21.76945	62433
21.77757	63367
21.78568	67315
21.79382	62930
21.80193	57413
21.81007	49390
21.81818	46977
21.82630	45430
21.83443	45050
21.84255	48366
21.85068	41058
21.85880	41889
21.86692	41379
21.87505	42958
21.88317	42203
21.89128	38661
21.89942	41410
21.90753	38161
21.91567	38576
21.92378	36478
21.93190	38118
21.94003	34922
21.94815	36078
21.95628	40504
21.96440	47098
21.97252	62762
21.98065	75993
21.98877	87302
21.99690	99529
22.00502	102746
22.01313	100911
22.02127	108944
22.02938	111230
22.03750	109677
22.04563	116961
22.05375	114391
22.06188	115147
22.07000	114201
22.07812	115245
22.08625	107311
22.09437	110414
22.10250	110600
22.11062	109485
22.11873	103556
22.12687	119524
22.13498	110938
22.14310	103310
22.15123	108116
22.15935	108020
22.16748	114027
22.17560	108255
22.18372	106828
22.19185	102088
22.19997	102222
22.20810	92191
22.21622	90984
22.22433	86485
22.23247	88854
22.24058	87430
22.24872	83195
22.25683	81527
22.26495	81287
22.27308	84063
22.28120	79259
22.28932	85399
22.29745	78427
22.30557	81686
22.31370	79164
22.32182	77368
22.32993	77955
22.33807	75396
22.34618	72533
22.35432	74844
22.36243	66028
22.37055	66981
22.37868	74777
22.38680	81282
22.39493	80929
22.40305	86038
22.41117	88262
22.41930	82129
22.42742	78285
22.43553	75923
22.44367	69913
22.45178	68036
22.45992	62918
22.46803	59827
22.47615	65704
22.48428	61144
22.49240	60442
22.50053	61203
22.50865	62737
22.51677	60747
22.52490	59847
22.53302	54765
22.54113	58251
22.54927	59096
22.55738	51622
22.56552	49919
22.57363	50634
22.58175	47423
22.58988	49346
22.59800	44354
22.60613	46014
22.61425	43402
22.62237	48412
22.63050	49667
22.63862	43572
22.64675	46096
22.65487	47000
22.66298	44329
22.67112	44296
22.67923	42707
22.68735	47592
22.69548	42821
22.70360	47116
22.71173	44050
22.71985	44787
22.72797	42427
22.73610	41552
22.74422	39329
22.75235	44001
22.76047	40162
22.76858	42497
22.77672	47124
22.78483	41405
22.79297	44904
22.80108	41528
22.80920	42662
22.81733	42810
22.82545	45923
22.83357	45529
22.84170	43612
22.84982	47496
22.85795	48332
22.86607	56915
22.87418	60201
22.88232	63361
22.89043	68582
22.89857	83981
22.90668	98140
22.91480	110728
22.92293	128981
22.93105	130611
22.93917	122334
22.94730	112231
22.95542	102660
22.96355	92243
22.97167	89974
22.97978	79561
22.98792	77195
22.99603	70908
23.00417	63445
23.01228	56482
23.02040	52960
23.02853	51838
23.03665	48673
23.04478	49349
23.05290	45072
23.06102	43370
23.06915	43372
23.07727	47280
23.08538	45178
23.09352	42179
23.10163	44245
23.10977	44256
23.11788	40738
23.12600	40699
23.13413	40859
23.14225	43062
23.15038	39384
23.15850	39553
23.16662	38890
23.17475	38824
23.18287	38857
23.19098	39500
23.19912	39425
23.20723	36912
23.21537	38251
23.22348	38435
23.23160	38035
23.23973	38050
23.24785	39178
23.25598	41763
23.26410	40182
23.27222	42526
23.28035	35355
23.28847	36923
23.29660	36670
23.30472	35815
23.31283	39098
23.32097	36222
23.32908	48697
23.33720	49285
23.34533	55874
23.35345	58764
23.36158	55667
23.36970	59723
23.37782	53410
23.38595	46471
23.39407	46764
23.40220	45204
23.41032	40900
23.41843	38038
23.42657	37274
23.43468	39501
23.44282	37751
23.45093	37547
23.45905	36721
23.46718	34228
23.47530	36959
23.48342	35633
23.49155	31958
23.49967	34639
23.50780	34271
23.51592	34405
23.52403	36281
23.53217	37526
23.54028	38032
23.54842	38510
23.55653	45571
23.56465	44878
23.57278	52932
23.58090	63400
23.58903	68732
23.59715	71306
23.60527	66878
23.61340	67317
23.62152	59265
23.62963	51680
23.63777	52815
23.64588	53961
23.65402	53217
23.66213	52630
23.67025	55558
23.67838	50738
23.68650	47994
23.69463	47946
23.70275	46600
23.71087	47561
23.71900	61664
23.72712	121245
23.73523	296402
23.74337	839473
23.75148	2237122
23.75962	4463631
23.76773	6801363
23.77585	8018254
23.78398	7653612
23.79210	6817066
23.80023	5265647
23.80835	3801042
23.81647	2701464
23.82460	1977854
23.83272	1499021
23.84085	1197110
23.84897	969122
23.85708	839112
23.86522	740828
23.87333	640803
23.88145	597564
23.88958	537246
23.89770	498403
23.90583	447415
23.91395	431193
23.92207	407137
23.93020	375769
23.93832	364261
23.94645	350366
23.95457	318769
23.96268	301349
23.97082	290170
23.97893	278683
23.98705	279549
23.99518	282864
24.00330	286901
24.01143	291590
24.01955	307605
24.02767	323326
24.03580	307246
24.04392	287541
24.05205	269501
24.06017	236823
24.06828	228473
24.07642	209125
24.08453	196218
24.09267	186756
24.10078	186219
24.10890	178305
24.11703	179074
24.12515	178844
24.13327	180504
24.14140	179557
24.14952	184847
24.15765	175680
24.16577	161291
24.17388	159624
24.18202	160947
24.19013	150374
24.19827	141999
24.20638	133313
24.21450	128993
24.22263	130891
24.23075	120995
24.23888	123428
24.24700	119495
24.25512	118656
24.26325	115366
24.27137	122276
24.27948	123078
24.28762	131481
24.29573	149808
24.30387	177563
24.31198	197410
24.32010	197545
24.32823	184286
24.33635	157722
24.34448	134664
24.35260	115319
24.36072	103995
24.36885	106813
24.37697	99349
24.38508	100543
24.39322	95218
24.40133	92660
24.40947	101558
24.41758	101283
24.42570	107488
24.43383	111000
24.44195	109629
24.45008	108337
24.45820	96916
24.46632	88352
24.47445	84321
24.48257	81464
24.49070	84448
24.49882	79400
24.50693	76556
24.51507	77918
24.52318	77843
24.53130	76654
24.53943	80680
24.54755	77414
24.55568	78884
24.56380	77406
24.57192	71007
24.58005	69537
24.58817	67979
24.59630	68504
24.60442	66620
24.61253	67622
24.62067	65647
24.62878	62308
24.63692	65305
24.64503	60556
24.65315	65432
24.66128	62768
24.66940	62930
24.67752	61168
24.68565	65635
24.69377	59052
24.70190	60122
24.71002	56984
24.71813	59782
24.72627	60036
24.73438	58259
24.74252	54877
24.75063	62654
24.75875	60176
24.76688	57550
24.77500	55349
24.78312	57724
24.79125	58251
24.79937	59166
24.80750	62534
24.81562	58341
24.82373	65948
24.83187	70470
24.83998	76001
24.84812	89039
24.85623	110000
24.86435	129953
24.87248	143780
24.88060	154743
24.88873	147101
24.89685	129418
24.90497	114333
24.91310	96931
24.92122	86053
24.92933	83913
24.93747	92348
24.94558	106115
24.95372	129014
24.96183	146992
24.96995	157874
24.97808	168876
24.98620	171278
24.99433	181313
25.00245	179310
25.01057	179735
25.01870	170591
25.02682	170433
25.03493	168618
25.04307	166880
25.05118	168493
25.05932	165991
25.06743	163608
25.07555	169874
25.08368	172263
25.09180	201551
25.09993	260610
25.10805	360021
25.11617	509312
25.12430	713115
25.13242	891493
25.14055	944615
25.14867	854606
25.15678	676578
25.16492	521132
25.17303	379145
25.18115	292455
25.18928	234413
25.19740	203792
25.20553	173089
25.21365	166080
25.22177	161497
25.22990	166250
25.23802	163590
25.24615	171044
25.25427	178467
25.26238	173428
25.27052	172343
25.27863	157069
25.28677	150333
25.29488	141146
25.30300	134371
25.31113	137372
25.31925	131490
25.32737	118494
25.33550	121535
25.34362	104799
25.35175	105378
25.35987	101232
25.36798	100378
25.37612	101579
25.38423	98835
25.39237	98374
25.40048	94960
25.40860	102325
25.41673	91225
25.42485	85782
25.43297	86950
25.44110	83420
25.44922	79248
25.45735	78840
25.46547	77299
25.47358	76295
25.48172	78065
25.48983	75599
25.49797	68330
25.50608	69656
25.51420	67487
25.52233	68137
25.53045	67144
25.53858	68949
25.54670	66042
25.55482	62807
25.56295	67010
25.57107	65185
25.57918	66876
25.58732	65550
25.59543	63040
25.60357	64000
25.61168	59483
25.61980	59038
25.62793	57617
25.63605	62847
25.64418	57476
25.65230	56118
25.66042	55482
25.66855	57590
25.67667	51668
25.68480	54014
25.69292	48511
25.70103	51878
25.70917	55086
25.71728	53442
25.72540	54848
25.73353	51388
25.74165	51077
25.74978	52831
25.75790	52677
25.76602	51354
25.77415	55818
25.78227	55024
25.79040	49284
25.79852	51128
25.80663	47872
25.81477	59354
25.82288	53893
25.83100	58001
25.83913	54933
25.84725	51886
25.85538	50711
25.86350	43445
25.87162	47830
25.87975	48112
25.88787	45107
25.89600	46590
25.90412	41339
25.91223	45676
25.92037	46641
25.92848	47377
25.93662	51315
25.94473	49994
25.95285	48563
25.96098	48168
25.96910	48995
25.97722	46628
25.98535	49273
25.99347	48440
26.00160	46084
26.00972	44628
26.01783	45292
26.02597	43212
26.03408	47160
26.04222	41886
26.05033	45201
26.05845	46500
26.06658	46840
26.07470	42875
26.08282	42476
26.09095	46690
26.09907	48696
26.10720	46351
26.11532	52091
26.12343	51204
26.13157	54319
26.13968	55047
26.14782	54522
26.15593	55157
26.16405	52828
26.17218	53964
26.18030	53558
26.18843	47159
26.19655	45724
26.20467	45384
26.21280	47237
26.22092	48197
26.22903	51616
26.23717	46833
26.24528	43732
26.25342	50171
26.26153	42389
26.26965	41739
26.27778	43651
26.28590	45108
26.29403	43984
26.30215	45936
26.31027	45262
26.31840	41209
26.32652	47606
26.33465	47455
26.34277	54506
26.35088	50233
26.35902	60964
26.36713	64131
26.37525	74469
26.38338	67806
26.39150	72445
26.39963	66916
26.40775	65811
26.41587	61182
26.42400	56593
26.43212	49895
26.44025	47124
26.44837	50171
26.45648	47501
26.46462	45264
26.47273	47280
26.48085	49634
26.48898	44178
26.49710	45102
26.50523	42882
26.51335	50107
26.52147	42855
26.52960	40625
26.53772	39380
26.54585	44167
26.55397	43600
26.56208	41351
26.57022	48331
26.57833	41486
26.58647	40064
26.59458	41353
26.60270	45392
26.61083	43465
26.61895	43879
26.62707	41671
26.63520	43213
26.64332	43576
26.65145	46192
26.65957	50171
26.66768	48037
26.67582	50131
26.68393	48093
26.69207	45323
26.70018	44000
26.70830	43932
26.71643	43290
26.72455	42388
26.73268	43518
26.74080	43945
26.74892	46838
26.75705	44806
26.76517	45389
26.77328	47474
26.78142	46381
26.78953	43814
26.79767	45705
26.80578	42902
26.81390	39400
26.82203	42603
26.83015	46765
26.83828	39644
26.84640	41523
26.85452	41412
26.86265	43197
26.87077	43789
26.87888	44609
26.88702	45257
26.89513	42722
26.90327	47368
26.91138	45970
26.91950	55955
26.92763	55066
26.93575	80340
26.94388	123497
26.95200	220870
26.96012	400410
26.96825	745216
26.97637	1228270
26.98450	1823524
26.99262	2454525
27.00073	2747289
27.00887	2623163
27.01698	2194796
27.02510	1714939
27.03323	1242836
27.04135	917611
27.04948	688474
27.05760	540675
27.06572	412673
27.07385	347457
27.08197	295040
27.09010	247883
27.09822	224648
27.10633	201522
27.11447	171813
27.12258	167734
27.13072	160187
27.13883	146670
27.14695	141438
27.15508	136339
27.16320	130207
27.17132	121828
27.17945	111847
27.18757	115746
27.19570	104691
27.20382	101687
27.21193	92876
27.22007	87974
27.22818	81588
27.23632	80112
27.24443	78198
27.25255	81445
27.26068	76360
27.26880	74486
27.27692	75053
27.28505	73096
27.29317	69555
27.30130	68712
27.30942	65962
27.31753	66642
27.32567	65102
27.33378	60387
27.34192	62803
27.35003	58134
27.35815	57906
27.36628	58570
27.37440	63854
27.38253	61747
27.39065	60509
27.39877	60865
27.40690	60518
27.41502	57905
27.42313	59765
27.43127	62131
27.43938	62345
27.44752	57838
27.45563	57612
27.46375	51584
27.47188	54488
27.48000	52064
27.48813	49615
27.49625	51282
27.50437	50684
27.51250	53653
27.52062	50762
27.52873	52779
27.53687	50995
27.54498	52214
27.55312	49643
27.56123	53849
27.56935	52499
27.57748	52076
27.58560	54750
27.59373	56549
27.60185	51951
27.60997	52366
27.61810	48111
27.62622	48148
27.63435	45637
27.64247	45336
27.65058	42077
27.65872	42689
27.66683	43513
27.67495	46111
27.68308	42501
27.69120	43135
27.69933	44154
27.70745	44489
27.71557	43221
27.72370	45332
27.73182	52070
27.73995	44319
27.74807	46121
27.75618	46556
27.76432	45802
27.77243	44448
27.78057	44017
27.78868	40937
27.79680	44779
27.80493	42789
27.81305	41603
27.82117	41309
27.82930	42939
27.83742	42437
27.84555	44052
27.85367	47999
27.86178	39194
27.86992	40885
27.87803	39724
27.88617	44639
27.89428	36936
27.90240	37229
27.91053	39634
27.91865	37000
27.92677	38790
27.93490	39391
27.94302	37542
27.95115	36628
27.95927	38995
27.96738	35934
27.97552	37462
27.98363	38749
27.99177	38936
27.99988	40231
28.00800	42599
28.01613	40825
28.02425	43866
28.03238	47480
28.04050	40815
28.04862	41571
28.05675	38669
28.06487	38765
28.07298	36757
28.08112	40068
28.08923	41822
28.09737	45992
28.10548	49525
28.11360	51989
28.12173	49290
28.12985	45882
28.13798	39065
28.14610	36475
28.15422	36040
28.16235	37143
28.17047	39362
28.17860	35079
28.18672	43755
28.19483	43424
28.20297	42389
28.21108	44103
28.21920	43285
28.22733	48927
28.23545	47668
28.24358	50784
28.25170	57164
28.25982	69507
28.26795	92135
28.27607	124250
28.28420	153656
28.29232	181001
28.30043	208154
28.30857	241878
28.31668	249576
28.32480	257486
28.33293	243889
28.34105	233899
28.34918	216238
28.35730	202684
28.36542	172865
28.37355	158579
28.38167	143789
28.38980	125648
28.39792	116006
28.40603	100829
28.41417	93663
28.42228	81377
28.43042	77801
28.43853	74454
28.44665	74637
28.45478	66007
28.46290	64617
28.47102	64140
28.47915	60383
28.48727	60024
28.49540	56676
28.50352	57844
28.51163	55917
28.51977	52331
28.52788	51747
28.53602	50777
28.54413	52066
28.55225	45706
28.56038	48052
28.56850	46521
28.57662	43722
28.58475	49194
28.59287	46417
28.60100	48287
28.60912	47010
28.61723	45522
28.62537	51889
28.63348	49114
28.64162	58926
28.64973	61978
28.65785	68162
28.66598	73675
28.67410	87182
28.68223	87177
28.69035	77823
28.69847	69869
28.70660	60594
28.71472	49974
28.72283	46614
28.73097	39394
28.73908	44984
28.74722	41888
28.75533	38055
28.76345	41546
28.77158	41924
28.77970	43916
28.78783	39395
28.79595	39075
28.80407	39248
28.81220	42553
28.82032	40359
28.82845	38878
28.83657	39255
28.84468	35462
28.85282	39838
28.86093	40542
28.86905	39977
28.87718	38142
28.88530	39239
28.89343	39626
28.90155	40926
28.90967	40246
28.91780	37834
28.92592	39300
28.93405	40555
28.94217	37139
28.95028	37830
28.95842	40005
28.96653	39743
28.97467	37970
28.98278	41611
28.99090	38500
28.99903	35824
29.00715	36238
29.01527	37424
29.02340	37351
29.03152	37866
29.03965	36283
29.04777	34975
29.05588	36121
29.06402	37986
29.07213	36528
29.08027	33201
29.08838	34666
29.09650	39139
29.10463	39260
29.11275	32539
29.12087	34428
29.12900	33628
29.13712	38960
29.14525	32932
29.15337	30642
29.16148	36223
29.16962	35604
29.17773	38648
29.18587	41659
29.19398	47140
29.20210	44265
29.21023	41919
29.21835	40105
29.22648	41853
29.23460	35928
29.24272	41475
29.25085	37115
29.25897	36550
29.26708	37556
29.27522	39534
29.28333	32162
29.29147	35263
29.29958	33346
29.30770	33036
29.31583	36053
29.32395	35044
29.33208	43465
29.34020	31310
29.34832	36741
29.35645	33539
29.36457	37173
29.37268	34248
29.38082	36713
29.38893	36006
29.39707	36566
29.40518	40710
29.41330	34605
29.42143	41055
29.42955	33781
29.43768	35615
29.44580	32364
29.45392	33351
29.46205	39460
29.47017	34422
29.47830	33783
29.48642	34784
29.49453	41050
29.50267	39799
29.51078	36879
29.51890	38717
29.52703	35578
29.53515	33919
29.54328	34466
29.55140	32461
29.55952	32605
29.56765	35005
29.57577	34045
29.58390	35030
29.59202	32492
29.60013	35333
29.60827	34166
29.61638	36315
29.62452	34138
29.63263	34521
29.64075	34696
29.64888	31027
29.65700	31615
29.66512	35063
29.67325	32983
29.68137	33296
29.68950	32663
29.69762	29884
29.70573	29000
29.71387	30450
29.72198	31871
29.73012	32910
29.73823	31922
29.74635	30030
29.75448	28484
29.76260	29260
29.77072	30806
29.77885	27238
29.78697	29121
29.79510	30982
29.80322	33238
29.81133	26953
29.81947	29763
29.82758	27203
29.83572	27667
29.84383	34637
29.85195	32528
29.86008	38429
29.86820	42268
29.87633	51590
29.88445	68900
29.89257	71092
29.90070	83459
29.90882	89876
29.91693	91166
29.92507	100586
29.93318	105565
29.94132	105650
29.94943	111138
29.95755	108817
29.96568	105819
29.97380	107986
29.98193	102634
29.99005	100529
29.99817	93093
30.00630	87451
30.01442	78324
30.02255	75230
30.03067	72513
30.03878	66575
30.04692	68694
30.05503	66851
30.06315	62172
30.07128	59188
30.07940	57591
30.08753	59546
30.09565	55396
30.10377	54741
30.11190	57361
30.12002	51030
30.12815	57418
30.13627	50835
30.14438	53549
30.15252	53498
30.16063	54345
30.16875	52395
30.17688	54120
30.18500	48647
30.19313	52100
30.20125	52633
30.20937	52652
30.21750	48105
30.22562	47447
30.23375	45430
30.24187	44866
30.24998	44906
30.25812	40925
30.26623	44954
30.27437	46439
30.28248	42703
30.29060	42494
30.29873	40922
30.30685	41110
30.31497	41067
30.32310	39996
30.33122	35812
30.33935	37506
30.34747	42136
30.35558	38193
30.36372	38781
30.37183	40607
30.37997	37719
30.38808	39939
30.39620	37296
30.40433	37250
30.41245	40558
30.42057	36665
30.42870	36378
30.43682	37060
30.44495	37985
30.45307	35677
30.46118	35704
30.46932	33916
30.47743	34527
30.48557	36624
30.49368	39186
30.50180	35431
30.50993	38728
30.51805	34390
30.52618	35046
30.53430	32124
30.54242	40831
30.55055	33748
30.55867	35755
30.56678	33242
30.57492	33596
30.58303	32911
30.59117	33288
30.59928	33357
30.60740	33799
30.61553	34939
30.62365	32194
30.63178	33600
30.63990	32576
30.64802	33283
30.65615	33602
30.66427	33195
30.67240	32080
30.68052	36151
30.68863	32351
30.69677	30762
30.70488	34544
30.71300	32939
30.72113	32976
30.72925	34561
30.73738	34670
30.74550	36220
30.75362	35333
30.76175	37240
30.76987	39705
30.77800	45320
30.78612	53485
30.79423	54050
30.80237	55970
30.81048	56654
30.81860	51875
30.82673	42910
30.83485	37289
30.84298	37584
30.85110	35612
30.85922	30101
30.86735	35034
30.87547	34523
30.88360	29170
30.89172	31724
30.89983	32969
30.90797	34263
30.91608	35555
30.92422	35476
30.93233	32007
30.94045	28329
30.94858	33003
30.95670	31473
30.96482	33142
30.97295	31065
30.98107	31611
30.98920	33871
30.99732	33920
31.00543	30530
31.01357	32416
31.02168	33138
31.02982	32923
31.03793	33706
31.04605	32806
31.05418	33919
31.06230	38426
31.07043	39750
31.07855	44981
31.08667	43034
31.09480	45921
31.10292	45164
31.11103	45059
31.11917	39427
31.12728	35067
31.13542	35803
31.14353	37302
31.15165	37626
31.15978	38664
31.16790	46214
31.17603	50243
31.18415	63081
31.19227	76495
31.20040	78322
31.20852	85702
31.21663	72170
31.22477	70656
31.23288	53481
31.24102	48269
31.24913	42833
31.25725	34144
31.26538	34987
31.27350	33169
31.28163	35842
31.28975	32345
31.29787	36337
31.30600	37329
31.31412	39046
31.32225	33866
31.33037	34956
31.33848	37141
31.34662	36423
31.35473	36707
31.36285	33362
31.37098	34592
31.37910	33352
31.38723	33824
31.39535	32259
31.40347	33420
31.41160	34960
31.41972	33854
31.42785	33141
31.43597	33770
31.44408	33112
31.45222	34011
31.46033	34164
31.46845	32253
31.47658	33591
31.48470	33801
31.49283	34059
31.50095	31569
31.50907	36340
31.51720	33518
31.52532	33818
31.53345	30830
31.54157	30025
31.54968	31170
31.55782	30192
31.56593	28939
31.57407	29804
31.58218	30011
31.59030	31594
31.59843	33753
31.60655	31853
31.61467	31751
31.62280	33613
31.63092	32159
31.63905	32369
31.64717	30858
31.65528	34258
31.66342	33911
31.67153	40248
31.67967	31403
31.68778	32412
31.69590	32834
31.70403	31147
31.71215	29919
31.72028	32101
31.72840	32414
31.73652	32594
31.74465	33699
31.75277	30168
31.76088	28948
31.76902	32839
31.77713	35499
31.78527	35089
31.79338	39034
31.80150	39000
31.80963	38775
31.81775	43768
31.82588	46827
31.83400	54914
31.84212	62175
31.85025	75771
31.85837	78106
31.86648	85770
31.87462	84012
31.88273	90589
31.89087	89799
31.89898	86257
31.90710	81972
31.91523	76550
31.92335	74788
31.93148	76351
31.93960	69166
31.94772	65611
31.95585	66900
31.96397	66571
31.97210	63759
31.98022	64520
31.98833	58520
31.99647	53414
32.00458	49046
32.01270	45508
32.02083	45840
32.02895	43488
32.03708	44081
32.04520	44420
32.05332	39422
32.06145	39258
32.06957	35609
32.07770	36521
32.08582	40237
32.09393	39116
32.10207	35183
32.11018	36807
32.11832	35965
32.12643	34628
32.13455	34150
32.14268	33341
32.15080	33272
32.15892	37419
32.16705	34644
32.17517	37598
32.18330	30192
32.19142	35941
32.19953	36640
32.20767	36543
32.21578	32514
32.22392	33322
32.23203	31802
32.24015	33603
32.24828	35052
32.25640	36562
32.26452	37553
32.27265	35861
32.28077	34773
32.28890	32059
32.29702	32126
32.30513	31526
32.31327	33375
32.32138	36168
32.32952	31573
32.33763	33030
32.34575	34412
32.35388	35646
32.36200	34700
32.37013	34826
32.37825	32034
32.38637	33000
32.39450	37116
32.40262	31648
32.41073	32884
32.41887	34610
32.42698	38495
32.43512	32971
32.44323	33994
32.45135	32104
32.45948	35511
32.46760	35419
32.47573	33328
32.48385	32308
32.49197	32361
32.50010	34096
32.50822	31921
32.51635	32635
32.52447	32469
32.53258	33213
32.54072	40658
32.54883	41547
32.55695	49137
32.56508	55703
32.57320	60979
32.58133	56415
32.58945	51064
32.59757	41478
32.60570	34977
32.61382	35355
32.62195	33363
32.63007	34127
32.63818	31157
32.64632	34125
32.65443	30522
32.66255	35221
32.67068	31864
32.67880	31532
32.68693	37942
32.69505	38107
32.70317	37101
32.71130	37019
32.71942	37287
32.72755	35831
32.73567	34433
32.74378	32291
32.75192	34796
32.76003	34426
32.76817	33350
32.77628	32374
32.78440	30169
32.79253	32602
32.80065	33405
32.80877	32778
32.81690	28949
32.82502	30791
32.83315	30395
32.84127	33194
32.84938	32366
32.85752	33253
32.86563	34190
32.87377	34189
32.88188	34462
32.89000	36816
32.89813	35433
32.90625	34187
32.91437	32798
32.92250	32311
32.93062	31353
32.93875	32990
32.94687	34646
32.95498	33219
32.96312	32789
32.97123	35035
32.97937	40014
32.98748	39783
32.99560	37244
33.00373	39268
33.01185	35038
33.01998	36964
33.02810	38130
33.03622	33905
33.04435	35682
33.05247	37666
33.06058	35623
33.06872	36484
33.07683	41368
33.08497	43975
33.09308	49145
33.10120	53144
33.10933	55730
33.11745	52530
33.12558	47565
33.13370	45009
33.14182	38805
33.14995	35919
33.15807	36747
33.16620	35957
33.17432	33268
33.18243	33774
33.19057	31622
33.19868	31381
33.20680	36173
33.21493	35063
33.22305	34383
33.23118	30512
33.23930	31758
33.24742	33123
33.25555	30732
33.26367	31253
33.27180	30009
33.27992	32689
33.28803	33185
33.29617	33379
33.30428	32890
33.31240	34707
33.32053	33449
33.32865	31775
33.33678	30990
33.34490	33142
33.35302	29843
33.36115	34739
33.36927	35550
33.37740	34179
33.38552	33515
33.39363	30848
33.40177	34541
33.40988	32189
33.41802	34323
33.42613	34958
33.43425	32347
33.44238	34010
33.45050	33280
33.45862	33400
33.46675	32102
33.47487	37063
33.48300	34653
33.49112	31825
33.49923	35238
33.50737	31349
33.51548	34314
33.52362	37267
33.53173	35542
33.53985	35074
33.54798	35853
33.55610	34915
33.56423	34064
33.57235	35801
33.58047	37544
33.58860	36091
33.59672	37594
33.60483	39361
33.61297	39113
33.62108	36240
33.62922	39047
33.63733	40689
33.64545	37005
33.65358	36944
33.66170	37737
33.66983	43249
33.67795	41150
33.68607	39189
33.69420	40035
33.70232	38545
33.71043	36005
33.71857	37189
33.72668	45330
33.73482	39727
33.74293	40514
33.75105	45115
33.75918	38788
33.76730	41120
33.77543	38970
33.78355	37543
33.79167	41080
33.79980	35050
33.80792	37017
33.81605	37168
33.82417	38798
33.83228	43219
33.84042	36784
33.84853	37895
33.85665	35834
33.86478	38818
33.87290	37615
33.88103	38792
33.88915	38687
33.89727	33656
33.90540	36391
33.91352	35563
33.92165	36814
33.92977	34974
33.93788	37259
33.94602	35749
33.95413	39606
33.96225	37753
33.97038	33764
33.97850	34336
33.98663	33117
33.99475	36267
34.00287	37538
34.01100	36755
34.01912	35528
34.02725	35455
34.03537	35338
34.04348	38271
34.05162	36160
34.05973	34787
34.06787	35695
34.07598	34340
34.08410	35049
34.09223	32303
34.10035	36770
34.10847	35599
34.11660	36287
34.12472	38064
34.13285	36083
34.14097	34321
34.14908	34248
34.15722	35269
34.16533	37423
34.17347	37939
34.18158	34100
34.18970	34743
34.19783	35185
34.20595	34711
34.21408	37208
34.22220	37406
34.23032	36135
34.23845	33850
34.24657	33232
34.25468	39089
34.26282	34079
34.27093	35880
34.27907	33175
34.28718	33954
34.29530	33526
34.30343	33141
34.31155	33273
34.31968	40025
34.32780	34002
34.33592	34840
34.34405	38685
34.35217	38144
34.36030	35348
34.36842	36805
34.37653	41008
34.38467	40383
34.39278	40785
34.40090	43434
34.40903	43266
34.41715	48859
34.42528	54268
34.43340	60791
34.44152	71346
34.44965	84372
34.45777	99442
34.46590	96803
34.47402	102327
34.48213	94944
34.49027	95789
34.49838	82533
34.50650	77809
34.51463	69056
34.52275	69372
34.53088	67197
34.53900	60926
34.54712	54980
34.55525	57288
34.56337	51258
34.57150	53829
34.57962	48648
34.58773	50936
34.59587	51710
34.60398	48418
34.61212	46373
34.62023	46557
34.62835	43787
34.63648	45396
34.64460	47220
34.65272	44400
34.66085	42981
34.66897	45741
34.67710	44777
34.68522	41001
34.69333	39708
34.70147	38921
34.70958	41534
34.71772	40041
34.72583	35992
34.73395	36566
34.74208	37908
34.75020	43033
34.75832	40521
34.76645	42180
34.77457	40862
34.78270	34863
34.79082	36890
34.79893	42270
34.80707	39146
34.81518	37296
34.82332	40383
34.83143	44351
34.83955	39782
34.84768	41716
34.85580	39473
34.86393	40876
34.87205	40120
34.88017	39763
34.88830	38822
34.89642	41116
34.90453	37511
34.91267	39954
34.92078	37442
34.92892	41398
34.93703	41039
34.94515	44779
34.95328	39156
34.96140	42809
34.96953	42563
34.97765	43445
34.98577	38797
34.99390	36956
35.00202	38008
35.01015	41097
35.01827	42781
35.02638	39853
35.03452	41156
35.04263	40917
35.05075	43320
35.05888	45046
35.06700	44915
35.07513	38904
35.08325	40001
35.09137	40624
35.09950	36981
35.10762	38642
35.11575	35814
35.12387	41167
35.13198	40178
35.14012	40304
35.14823	38153
35.15635	41045
35.16448	43906
35.17260	40588
35.18073	41585
35.18885	39376
35.19697	39479
35.20510	40870
35.21322	39296
35.22135	41593
35.22947	40682
35.23758	39308
35.24572	42079
35.25383	48274
35.26197	42503
35.27008	43196
35.27820	39608
35.28633	39398
35.29445	40199
35.30257	41818
35.31070	43075
35.31882	38714
35.32695	39057
35.33507	41594
35.34318	39537
35.35132	39223
35.35943	37539
35.36757	40135
35.37568	38850
35.38380	37278
35.39193	37955
35.40005	39437
35.40818	39073
35.41630	40585
35.42442	39368
35.43255	44295
35.44067	43546
35.44878	46625
35.45692	46456
35.46503	48685
35.47317	47843
35.48128	48043
35.48940	43238
35.49753	45804
35.50565	43557
35.51378	46120
35.52190	45837
35.53002	46796
35.53815	48946
35.54627	47983
35.55438	54111
35.56252	56043
35.57063	59499
35.57877	53489
35.58688	54407
35.59500	52164
35.60313	48847
35.61125	44017
35.61938	47413
35.62750	43814
35.63562	42916
35.64375	46360
35.65187	46645
35.66000	51396
35.66812	41560
35.67623	51153
35.68437	50630
35.69248	44395
35.70060	45241
35.70873	48533
35.71685	46125
35.72498	46661
35.73310	44192
35.74122	44006
35.74935	49319
35.75747	47919
35.76560	49150
35.77372	48377
35.78183	46060
35.78997	45763
35.79808	42507
35.80620	46153
35.81433	46040
35.82245	44330
35.83058	46807
35.83870	46300
35.84682	45840
35.85495	49060
35.86307	43645
35.87120	47823
35.87932	45318
35.88743	47375
35.89557	47693
35.90368	44693
35.91182	46748
35.91993	44883
35.92805	46982
35.93618	48362
35.94430	44878
35.95242	44816
35.96055	43970
35.96867	48907
35.97680	52471
35.98492	52992
35.99303	53294
36.00117	55650
36.00928	53936
36.01742	61940
36.02553	56727
36.03365	56860
36.04178	57919
36.04990	52756
36.05803	50784
36.06615	46611
36.07427	45382
36.08240	46564
36.09052	49355
36.09863	46246
36.10677	46652
36.11488	45482
36.12302	47920
36.13113	49618
36.13925	49886
36.14738	44745
36.15550	51609
36.16363	45540
36.17175	48127
36.17987	51297
36.18800	56850
36.19612	68675
36.20423	70270
36.21237	74563
36.22048	73887
36.22862	70583
36.23673	62237
36.24485	53976
36.25298	51302
36.26110	47522
36.26923	50409
36.27735	45060
36.28547	47422
36.29360	47398
36.30172	49583
36.30985	48356
36.31797	49079
36.32608	44904
36.33422	46826
36.34233	48059
36.35045	48247
36.35858	48842
36.36670	47863
36.37483	47277
36.38295	52610
36.39107	52333
36.39920	46422
36.40732	48444
36.41545	49812
36.42357	49173
36.43168	47347
36.43982	45585
36.44793	47955
36.45607	48662
36.46418	49921
36.47230	46120
36.48043	46733
36.48855	47086
36.49667	48738
36.50480	47914
36.51292	50259
36.52105	46571
36.52917	51346
36.53728	51327
36.54542	57090
36.55353	54409
36.56167	53649
36.56978	54544
36.57790	48456
36.58603	50701
36.59415	54500
36.60227	51738
36.61040	49210
36.61852	51803
36.62665	50865
36.63477	48791
36.64288	49708
36.65102	50089
36.65913	52061
36.66727	52071
36.67538	49913
36.68350	50574
36.69163	53220
36.69975	51953
36.70788	54297
36.71600	54709
36.72412	50403
36.73225	50973
36.74037	50438
36.74848	49319
36.75662	53145
36.76473	52786
36.77287	51042
36.78098	54120
36.78910	51080
36.79723	49765
36.80535	49278
36.81348	51685
36.82160	49387
36.82972	50879
36.83785	51451
36.84597	53382
36.85408	53862
36.86222	54745
36.87033	52287
36.87847	50411
36.88658	50712
36.89470	54701
36.90283	51379
36.91095	53517
36.91908	54781
36.92720	58855
36.93532	59377
36.94345	57088
36.95157	61862
36.95970	58317
36.96782	56999
36.97593	58286
36.98407	59336
36.99218	57042
37.00030	60573
37.00843	64893
37.01655	61511
37.02468	66215
37.03280	62509
37.04092	62459
37.04905	59779
37.05717	61299
37.06530	59467
37.07342	57610
37.08153	60669
37.08967	57776
37.09778	55635
37.10592	59048
37.11403	57901
37.12215	59373
37.13028	56770
37.13840	54559
37.14652	59978
37.15465	57762
37.16277	54425
37.17090	57161
37.17902	60121
37.18713	55439
37.19527	58534
37.20338	55139
37.21152	59318
37.21963	68159
37.22775	71980
37.23588	86457
37.24400	104884
37.25212	108304
37.26025	114271
37.26837	116561
37.27650	103120
37.28462	103199
37.29273	94701
37.30087	87738
37.30898	81889
37.31712	79213
37.32523	74913
37.33335	73332
37.34148	72172
37.34960	67631
37.35773	70199
37.36585	66961
37.37397	68523
37.38210	68975
37.39022	64556
37.39833	64880
37.40647	65162
37.41458	64713
37.42272	68470
37.43083	66619
37.43895	63156
37.44708	61367
37.45520	67243
37.46333	60838
37.47145	63261
37.47957	62890
37.48770	62840
