C:\MassHunter\GCMS\1\data\JTB-E02\BACandBLUE\JTB-E18-021-10.D Wed Jul 10 12:28:30 2019
Start of data points
2.09518	65473
2.10330	62256
2.11143	63944
2.11955	64227
2.12768	63612
2.13580	66122
2.14392	66751
2.15205	64000
2.16017	63235
2.16830	66452
2.17642	63285
2.18453	59133
2.19267	57822
2.20078	59398
2.20892	59153
2.21703	58970
2.22515	54952
2.23328	57320
2.24140	57741
2.24952	58466
2.25765	59620
2.26577	66900
2.27390	331984
2.28202	1337748
2.29013	1032393
2.29827	404550
2.30638	260525
2.31452	210666
2.32263	191018
2.33075	191683
2.33888	371211
2.34700	304523
2.35512	191045
2.36325	168916
2.37137	153024
2.37950	140836
2.38762	132241
2.39573	132872
2.40387	129535
2.41198	142296
2.42012	153518
2.42823	258551
2.43635	197617
2.44448	140250
2.45260	130805
2.46073	123774
2.46885	119494
2.47697	112442
2.48510	107468
2.49322	131312
2.50133	153885
2.50947	120909
2.51758	107683
2.52572	109651
2.53383	103444
2.54195	106489
2.55008	106757
2.55820	133084
2.56633	193519
2.57445	161864
2.58257	125703
2.59070	112161
2.59882	102761
2.60695	195044
2.61507	546694
2.62318	582881
2.63132	346474
2.63943	226786
2.64755	176863
2.65568	154970
2.66380	137295
2.67193	125216
2.68005	118664
2.68817	116887
2.69630	108888
2.70442	108463
2.71255	103462
2.72067	101398
2.72878	96850
2.73692	101377
2.74503	97305
2.75315	94524
2.76128	93431
2.76940	94601
2.77753	102726
2.78565	174162
2.79377	261046
2.80190	192225
2.81002	142148
2.81815	150274
2.82627	163924
2.83438	166183
2.84252	165961
2.85063	137018
2.85877	116428
2.86688	110804
2.87500	104385
2.88313	98490
2.89125	101405
2.89937	100133
2.90750	97753
2.91562	97427
2.92375	87232
2.93187	92582
2.93998	86976
2.94812	95556
2.95623	89608
2.96437	95046
2.97248	100014
2.98060	90636
2.98873	95347
2.99685	97028
3.00498	90748
3.01310	97184
3.02122	91873
3.02935	86583
3.03747	92494
3.04558	86124
3.05372	87866
3.06183	95298
3.06997	96267
3.07808	116402
3.08620	278047
3.09433	903986
3.10245	1797501
3.11058	3224675
3.11870	3632672
3.12682	2329865
3.13495	1423642
3.14307	1070518
3.15118	859763
3.15932	697727
3.16743	600643
3.17557	587185
3.18368	637532
3.19180	1170284
3.19993	1894392
3.20805	1602942
3.21618	1066074
3.22430	820503
3.23242	686173
3.24055	586368
3.24867	523666
3.25680	452906
3.26492	403413
3.27303	361851
3.28117	357576
3.28928	489757
3.29740	1351969
3.30553	3531468
3.31365	5753650
3.32178	5682761
3.32990	4132264
3.33802	2821526
3.34615	2028188
3.35427	1582007
3.36240	1295375
3.37052	1067446
3.37863	930352
3.38677	795347
3.39488	730462
3.40300	653380
3.41113	610478
3.41925	571852
3.42738	531999
3.43550	506912
3.44362	483024
3.45175	455651
3.45987	429505
3.46800	424445
3.47612	424637
3.48423	408308
3.49237	409903
3.50048	386683
3.50862	363435
3.51673	347867
3.52485	341419
3.53298	351938
3.54110	365458
3.54922	359461
3.55735	336457
3.56547	337232
3.57360	337764
3.58172	368319
3.58983	350537
3.59797	316241
3.60608	307789
3.61422	299023
3.62233	312736
3.63045	324665
3.63858	348466
3.64670	367886
3.65483	340244
3.66295	491686
3.67107	1905443
3.67920	5457954
3.68732	7660461
3.69543	5598652
3.70357	3160120
3.71168	2126152
3.71982	1720851
3.72793	1456251
3.73605	1254158
3.74418	1110954
3.75230	993109
3.76043	918979
3.76855	845456
3.77667	796049
3.78480	741258
3.79292	711937
3.80105	757289
3.80917	1145506
3.81728	1842902
3.82542	2052482
3.83353	1549943
3.84165	1131229
3.84978	920659
3.85790	820500
3.86603	728694
3.87415	673928
3.88227	637064
3.89040	605468
3.89852	568794
3.90665	551634
3.91477	563488
3.92288	675780
3.93102	862555
3.93913	889938
3.94725	809010
3.95538	1081808
3.96350	1967171
3.97163	2673396
3.97975	2356920
3.98787	1554597
3.99600	1425831
4.00412	3314398
4.01225	7865145
4.02037	1.110095E+07
4.02848	9357458
4.03662	5201339
4.04473	2675469
4.05287	1663850
4.06098	1245930
4.06910	984063
4.07723	825445
4.08535	732954
4.09347	655120
4.10160	614119
4.10972	570056
4.11785	537467
4.12597	500875
4.13408	511505
4.14222	611890
4.15033	833277
4.15847	909888
4.16658	784987
4.17470	646620
4.18283	572701
4.19095	513294
4.19907	479160
4.20720	669776
4.21532	2180238
4.22345	7036472
4.23157	1.402731E+07
4.23968	1.828821E+07
4.24782	1.695922E+07
4.25593	1.11033E+07
4.26407	6577133
4.27218	4454543
4.28030	3264525
4.28843	2508952
4.29655	2045983
4.30468	1667814
4.31280	1421587
4.32092	1280354
4.32905	1137402
4.33717	1050684
4.34528	983541
4.35342	963480
4.36153	941902
4.36967	899409
4.37778	858024
4.38590	770219
4.39403	713727
4.40215	664454
4.41028	639069
4.41840	598004
4.42652	581882
4.43465	571156
4.44277	534564
4.45090	527276
4.45902	515352
4.46713	481282
4.47527	475784
4.48338	467248
4.49150	443907
4.49963	459379
4.50775	433177
4.51588	437053
4.52400	402577
4.53212	410224
4.54025	393420
4.54837	392315
4.55650	390656
4.56462	379217
4.57273	368290
4.58087	356376
4.58898	353425
4.59710	342534
4.60523	346617
4.61335	341553
4.62148	374374
4.62960	481766
4.63772	730160
4.64585	935912
4.65397	903140
4.66210	708756
4.67022	522098
4.67833	438424
4.68647	410430
4.69458	375468
4.70272	342272
4.71083	330884
4.71895	323678
4.72708	307583
4.73520	304541
4.74332	294282
4.75145	295469
4.75957	278544
4.76770	277839
4.77582	273751
4.78393	281576
4.79207	294276
4.80018	384794
4.80832	466987
4.81643	489764
4.82455	419399
4.83268	382686
4.84080	390900
4.84893	406988
4.85705	389489
4.86517	360882
4.87330	325861
4.88142	308116
4.88953	299893
4.89767	284960
4.90578	272449
4.91392	272835
4.92203	268340
4.93015	335980
4.93828	564101
4.94640	1163742
4.95453	2079843
4.96265	2933909
4.97077	3060101
4.97890	2594156
4.98702	1946321
4.99513	1429512
5.00327	1062463
5.01138	866138
5.01952	785221
5.02763	851248
5.03575	1171818
5.04388	1491985
5.05200	1500075
5.06013	1234799
5.06825	975011
5.07637	815422
5.08450	728821
5.09262	670372
5.10075	615029
5.10887	577249
5.11698	555853
5.12512	518105
5.13323	501769
5.14135	483958
5.14948	483192
5.15760	505402
5.16573	555063
5.17385	588233
5.18197	568218
5.19010	510318
5.19822	502917
5.20635	525297
5.21447	541931
5.22258	531251
5.23072	495301
5.23883	460174
5.24695	454465
5.25508	412630
5.26320	388759
5.27133	355188
5.27945	345553
5.28757	324684
5.29570	311803
5.30382	312892
5.31195	300410
5.32007	306905
5.32818	310045
5.33632	333224
5.34443	343851
5.35257	349779
5.36068	319276
5.36880	306179
5.37693	291585
5.38505	296704
5.39317	303314
5.40130	302448
5.40942	315567
5.41755	304030
5.42567	297765
5.43378	285988
5.44192	284259
5.45003	305227
5.45817	301825
5.46628	294362
5.47440	273431
5.48253	271157
5.49065	257169
5.49878	246097
5.50690	260221
5.51502	259229
5.52315	260083
5.53127	256651
5.53938	253435
5.54752	246068
5.55563	261864
5.56377	280842
5.57188	306314
5.58000	325625
5.58813	311437
5.59625	290502
5.60438	254502
5.61250	240804
5.62062	242044
5.62875	242230
5.63687	245887
5.64498	252748
5.65312	249301
5.66123	239854
5.66937	243553
5.67748	261183
5.68560	310857
5.69373	345238
5.70185	352614
5.70998	310126
5.71810	278639
5.72622	261606
5.73435	238417
5.74247	231079
5.75060	222671
5.75872	219824
5.76683	215970
5.77497	213099
5.78308	206808
5.79120	208171
5.79933	208008
5.80745	207030
5.81558	200882
5.82370	204627
5.83182	202760
5.83995	214493
5.84807	207391
5.85620	210513
5.86432	207892
5.87243	201686
5.88057	196818
5.88868	192187
5.89682	190349
5.90493	185251
5.91305	165926
5.92118	156042
5.92930	154232
5.93742	154070
5.94555	163441
5.95367	181249
5.96180	209429
5.96992	237523
5.97803	276025
5.98617	321890
5.99428	336180
6.00242	310871
6.01053	261990
6.01865	213494
6.02678	180994
6.03490	173562
6.04302	161596
6.05115	161441
6.05927	154578
6.06740	146813
6.07552	141123
6.08363	141009
6.09177	136393
6.09988	137532
6.10802	137787
6.11613	140398
6.12425	168893
6.13238	269737
6.14050	415915
6.14863	558350
6.15675	568924
6.16487	463419
6.17300	335022
6.18112	263767
6.18923	226081
6.19737	215539
6.20548	199847
6.21362	197632
6.22173	194143
6.22985	188459
6.23798	183576
6.24610	186737
6.25423	192727
6.26235	188126
6.27047	193539
6.27860	187012
6.28672	178975
6.29483	183638
6.30297	187139
6.31108	186829
6.31922	191899
6.32733	195648
6.33545	199095
6.34358	209906
6.35170	204344
6.35983	204751
6.36795	188520
6.37607	192861
6.38420	195232
6.39232	188908
6.40045	180070
6.40857	179475
6.41668	180451
6.42482	177625
6.43293	182131
6.44105	183590
6.44918	182043
6.45730	187529
6.46543	185543
6.47355	179642
6.48167	184052
6.48980	188287
6.49792	193582
6.50605	193631
6.51417	193193
6.52228	192551
6.53042	188117
6.53853	192145
6.54667	193048
6.55478	190471
6.56290	201293
6.57103	217855
6.57915	240836
6.58727	252927
6.59540	254855
6.60352	225955
6.61165	213774
6.61977	204814
6.62788	205021
6.63602	205333
6.64413	204636
6.65227	213264
6.66038	229039
6.66850	258208
6.67663	286319
6.68475	269946
6.69287	243717
6.70100	229237
6.70912	218078
6.71725	213859
6.72537	219661
6.73348	212705
6.74162	211074
6.74973	213586
6.75787	211952
6.76598	192809
6.77410	173152
6.78223	171026
6.79035	168356
6.79848	161479
6.80660	153252
6.81472	145872
6.82285	148022
6.83097	141974
6.83908	138752
6.84722	150047
6.85533	163488
6.86347	164990
6.87158	162097
6.87970	143452
6.88783	120617
6.89595	107790
6.90408	95459
6.91220	92346
6.92032	91223
6.92845	83466
6.93657	84876
6.94470	87487
6.95282	87698
6.96093	92895
6.96907	102914
6.97718	120955
6.98530	128883
6.99343	122521
7.00155	108244
7.00968	95583
7.01780	88762
7.02592	91105
7.03405	87491
7.04217	84595
7.05030	86132
7.05842	85088
7.06653	84909
7.07467	82609
7.08278	81366
7.09090	73292
7.09903	73954
7.10715	75327
7.11528	76123
7.12340	71127
7.13152	75074
7.13965	78631
7.14777	95255
7.15590	125859
7.16402	147754
7.17213	154830
7.18027	138231
7.18838	112959
7.19652	92726
7.20463	92671
7.21275	143875
7.22088	327190
7.22900	787005
7.23712	1412386
7.24525	1778955
7.25337	1584509
7.26150	1091405
7.26962	625078
7.27773	378666
7.28587	293151
7.29398	221823
7.30212	170342
7.31023	138593
7.31835	117501
7.32648	114241
7.33460	113860
7.34273	99804
7.35085	98609
7.35897	95264
7.36710	87035
7.37522	89701
7.38333	86889
7.39147	93122
7.39958	89774
7.40772	88249
7.41583	83737
7.42395	84880
7.43208	83964
7.44020	85257
7.44833	85807
7.45645	91953
7.46457	87769
7.47270	81455
7.48082	78249
7.48893	73271
7.49707	72289
7.50518	76198
7.51332	83556
7.52143	112948
7.52955	162988
7.53768	240764
7.54580	334581
7.55393	400167
7.56205	422344
7.57017	375533
7.57830	303300
7.58642	221359
7.59455	153687
7.60267	119901
7.61078	99389
7.61892	88138
7.62703	86916
7.63515	75348
7.64328	77847
7.65140	72169
7.65953	68025
7.66765	67807
7.67577	67602
7.68390	67523
7.69202	68676
7.70015	67957
7.70827	72655
7.71638	66634
7.72452	69035
7.73263	67404
7.74075	69206
7.74888	66978
7.75700	71462
7.76513	69690
7.77325	69799
7.78137	71927
7.78950	80029
7.79762	80639
7.80575	88144
7.81387	94754
7.82198	88643
7.83012	79028
7.83823	74999
7.84637	70401
7.85448	76609
7.86260	82046
7.87073	87231
7.87885	93699
7.88697	97644
7.89510	95685
7.90322	86343
7.91135	83677
7.91947	81734
7.92758	92965
7.93572	110943
7.94383	134367
7.95197	147580
7.96008	136822
7.96820	116797
7.97633	95926
7.98445	82886
7.99258	74085
8.00070	71513
8.00882	69097
8.01695	62437
8.02507	65458
8.03318	61177
8.04132	63880
8.04943	65447
8.05757	61961
8.06568	61708
8.07380	61750
8.08193	63251
8.09005	62867
8.09818	61163
8.10630	61257
8.11442	63809
8.12255	62271
8.13067	70152
8.13878	81052
8.14692	96241
8.15503	104452
8.16317	102853
8.17128	94639
8.17940	80099
8.18753	73333
8.19565	71830
8.20378	68232
8.21190	64250
8.22002	68451
8.22815	62879
8.23627	65329
8.24440	66950
8.25252	61774
8.26063	63408
8.26877	65461
8.27688	60959
8.28500	60304
8.29313	64429
8.30125	61751
8.30938	66407
8.31750	68210
8.32562	66629
8.33375	67749
8.34187	65500
8.35000	59678
8.35812	59176
8.36623	61176
8.37437	58373
8.38248	61403
8.39062	58014
8.39873	59183
8.40685	59574
8.41498	55597
8.42310	57597
8.43122	56511
8.43935	55474
8.44747	53540
8.45560	51552
8.46372	51751
8.47183	56033
8.47997	53592
8.48808	50755
8.49622	51071
8.50433	51126
8.51245	54135
8.52058	60678
8.52870	90645
8.53682	151172
8.54495	264269
8.55307	336002
8.56120	356393
8.56932	297483
8.57743	203573
8.58557	143776
8.59368	101557
8.60182	96630
8.60993	96493
8.61805	93099
8.62618	86064
8.63430	77413
8.64243	72182
8.65055	64123
8.65867	61559
8.66680	67203
8.67492	65396
8.68303	65740
8.69117	67970
8.69928	65415
8.70742	67215
8.71553	71016
8.72365	63274
8.73178	67928
8.73990	92435
8.74803	193605
8.75615	406608
8.76427	770436
8.77240	1178392
8.78052	1422946
8.78863	1294007
8.79677	952840
8.80488	622375
8.81302	377922
8.82113	244500
8.82925	191063
8.83738	175760
8.84550	173216
8.85363	168348
8.86175	172177
8.86987	159549
8.87800	150134
8.88612	138066
8.89425	138737
8.90237	130117
8.91048	124280
8.91862	126593
8.92673	127231
8.93485	136710
8.94298	145404
8.95110	154635
8.95923	156099
8.96735	145864
8.97547	137083
8.98360	128973
8.99172	128159
8.99985	119558
9.00797	112933
9.01608	109473
9.02422	104744
9.03233	103783
9.04047	96422
9.04858	95675
9.05670	96173
9.06483	98758
9.07295	91448
9.08107	95943
9.08920	99442
9.09732	103279
9.10545	120517
9.11357	132630
9.12168	139152
9.12982	135678
9.13793	126964
9.14607	110958
9.15418	105101
9.16230	99784
9.17043	94251
9.17855	92204
9.18668	88886
9.19480	90995
9.20292	83410
9.21105	82256
9.21917	86747
9.22728	84902
9.23542	85895
9.24353	83452
9.25167	78066
9.25978	82263
9.26790	75577
9.27603	77145
9.28415	75008
9.29228	76830
9.30040	79957
9.30852	79973
9.31665	79019
9.32477	73513
9.33288	73988
9.34102	72836
9.34913	67546
9.35727	71137
9.36538	68960
9.37350	69466
9.38163	70827
9.38975	75421
9.39788	73241
9.40600	83917
9.41412	101628
9.42225	109919
9.43037	123134
9.43850	135895
9.44662	130405
9.45473	120972
9.46287	106879
9.47098	95954
9.47910	90229
9.48723	79678
9.49535	85165
9.50348	75776
9.51160	77760
9.51972	99870
9.52785	93099
9.53597	93714
9.54410	83797
9.55222	80150
9.56033	73181
9.56847	75840
9.57658	90135
9.58470	109806
9.59283	121650
9.60095	123485
9.60908	108533
9.61720	86150
9.62532	64177
9.63345	53673
9.64157	50618
9.64970	50544
9.65782	48479
9.66593	49934
9.67407	48207
9.68218	49745
9.69032	47385
9.69843	46922
9.70655	44700
9.71468	46622
9.72280	52036
9.73092	47111
9.73905	41850
9.74717	42101
9.75530	39388
9.76342	41263
9.77153	42512
9.77967	41939
9.78778	48415
9.79592	42864
9.80403	39947
9.81215	45036
9.82028	42302
9.82840	46506
9.83653	43136
9.84465	42345
9.85277	42048
9.86090	45835
9.86902	43764
9.87713	45795
9.88527	45489
9.89338	48921
9.90152	45012
9.90963	45662
9.91775	47880
9.92588	48771
9.93400	62711
9.94213	75128
9.95025	94867
9.95837	101752
9.96650	101489
9.97462	93056
9.98273	79740
9.99087	70948
9.99898	64995
10.00712	62157
10.01523	59964
10.02335	58041
10.03148	52990
10.03960	48272
10.04773	46334
10.05585	49507
10.06397	48538
10.07210	48379
10.08022	50368
10.08835	50085
10.09647	46969
10.10458	51865
10.11272	48369
10.12083	46561
10.12895	47782
10.13708	44381
10.14520	47458
10.15333	51027
10.16145	50051
10.16957	46553
10.17770	44678
10.18582	42978
10.19395	45550
10.20207	45573
10.21018	41344
10.21832	46017
10.22643	50787
10.23457	50590
10.24268	53657
10.25080	59524
10.25893	86716
10.26705	179353
10.27517	431124
10.28330	927911
10.29142	1670458
10.29955	2553308
10.30767	3589441
10.31578	5226175
10.32392	7652363
10.33203	1.027492E+07
10.34017	1.165161E+07
10.34828	1.040963E+07
10.35640	7362870
10.36453	4235285
10.37265	2362222
10.38077	1422138
10.38890	958406
10.39702	676799
10.40515	495784
10.41327	388423
10.42138	319259
10.42952	275366
10.43763	256052
10.44577	240453
10.45388	229457
10.46200	224009
10.47013	205261
10.47825	193713
10.48638	179018
10.49450	169479
10.50262	157120
10.51075	152764
10.51887	152307
10.52698	162808
10.53512	168793
10.54323	170875
10.55137	165904
10.55948	157312
10.56760	146498
10.57573	136740
10.58385	132216
10.59198	119797
10.60010	119807
10.60822	111598
10.61635	104630
10.62447	100555
10.63258	101233
10.64072	96865
10.64883	91430
10.65697	92012
10.66508	87792
10.67320	85268
10.68133	83444
10.68945	82974
10.69758	84672
10.70570	84908
10.71382	83336
10.72195	88593
10.73007	85262
10.73820	90447
10.74632	84965
10.75443	82074
10.76257	79954
10.77068	73733
10.77880	80414
10.78693	73076
10.79505	76356
10.80318	77474
10.81130	77204
10.81942	74686
10.82755	73297
10.83567	71144
10.84380	63857
10.85192	63701
10.86003	62567
10.86817	60577
10.87628	57812
10.88442	59151
10.89253	57698
10.90065	58138
10.90878	57167
10.91690	54408
10.92502	58183
10.93315	56366
10.94127	56035
10.94940	53860
10.95752	57547
10.96563	57132
10.97377	57096
10.98188	53545
10.99002	55963
10.99813	56630
11.00625	56711
11.01438	54267
11.02250	54205
11.03062	54241
11.03875	56899
11.04687	54769
11.05500	48360
11.06312	49365
11.07123	56851
11.07937	55655
11.08748	64326
11.09562	60642
11.10373	56895
11.11185	55164
11.11998	50597
11.12810	48352
11.13623	47726
11.14435	44865
11.15247	41134
11.16060	46984
11.16872	45458
11.17683	48713
11.18497	51645
11.19308	53975
11.20122	50398
11.20933	52654
11.21745	48951
11.22558	44277
11.23370	41217
11.24183	40696
11.24995	42603
11.25807	41606
11.26620	44303
11.27432	42895
11.28245	46218
11.29057	49416
11.29868	63141
11.30682	92908
11.31493	156173
11.32305	265242
11.33118	403058
11.33930	527687
11.34743	590914
11.35555	553140
11.36367	438340
11.37180	310818
11.37992	205351
11.38805	149176
11.39617	118728
11.40428	106864
11.41242	98634
11.42053	96557
11.42865	87919
11.43678	75768
11.44490	75017
11.45303	70492
11.46115	65606
11.46927	65949
11.47740	81764
11.48552	99998
11.49365	126330
11.50177	137655
11.50988	140601
11.51802	126053
11.52613	112364
11.53427	99629
11.54238	89893
11.55050	82350
11.55863	82373
11.56675	77142
11.57487	74854
11.58300	75262
11.59112	78017
11.59925	88935
11.60737	112094
11.61548	127704
11.62362	143437
11.63173	138053
11.63987	109504
11.64798	96285
11.65610	73328
11.66423	62525
11.67235	55081
11.68048	59464
11.68860	59585
11.69672	58759
11.70485	58103
11.71297	52740
11.72108	55572
11.72922	57657
11.73733	60141
11.74547	52179
11.75358	49336
11.76170	45346
11.76983	45277
11.77795	42730
11.78608	45954
11.79420	45156
11.80232	48246
11.81045	47780
11.81857	44273
11.82668	44250
11.83482	41158
11.84293	45670
11.85107	45901
11.85918	42121
11.86730	47116
11.87543	44464
11.88355	43377
11.89168	41440
11.89980	43787
11.90792	41069
11.91605	44347
11.92417	46985
11.93230	49151
11.94042	50752
11.94853	48543
11.95667	47037
11.96478	42469
11.97290	45912
11.98103	54288
11.98915	62013
11.99728	91075
12.00540	115946
12.01352	144635
12.02165	134765
12.02977	115060
12.03790	91374
12.04602	72761
12.05413	60361
12.06227	55989
12.07038	55486
12.07850	53559
12.08663	52964
12.09475	51706
12.10288	55059
12.11100	56564
12.11912	54501
12.12725	61293
12.13537	63403
12.14350	61175
12.15162	62068
12.15973	52077
12.16787	49418
12.17598	42879
12.18412	45727
12.19223	41036
12.20035	45908
12.20848	48416
12.21660	47232
12.22472	44358
12.23285	43791
12.24097	44637
12.24910	43860
12.25722	43225
12.26533	41027
12.27347	40684
12.28158	46201
12.28972	41854
12.29783	43994
12.30595	42093
12.31408	43812
12.32220	40660
12.33033	45927
12.33845	40935
12.34657	41246
12.35470	36738
12.36282	38385
12.37093	41241
12.37907	38948
12.38718	39719
12.39532	44381
12.40343	52872
12.41155	59969
12.41968	71038
12.42780	77783
12.43593	82396
12.44405	73672
12.45217	61936
12.46030	59163
12.46842	54154
12.47653	50130
12.48467	52206
12.49278	48927
12.50092	43488
12.50903	47769
12.51715	51898
12.52528	60000
12.53340	94826
12.54153	173205
12.54965	339727
12.55777	587157
12.56590	794988
12.57402	822425
12.58215	681444
12.59027	472841
12.59838	289814
12.60652	179823
12.61463	128240
12.62275	103067
12.63088	85566
12.63900	83457
12.64713	72134
12.65525	63806
12.66337	66692
12.67150	65009
12.67962	63249
12.68775	56566
12.69587	54821
12.70398	55806
12.71212	53263
12.72023	55847
12.72837	61802
12.73648	63255
12.74460	64150
12.75273	60672
12.76085	55231
12.76897	51778
12.77710	53427
12.78522	51687
12.79335	45482
12.80147	46256
12.80958	42140
12.81772	50372
12.82583	40210
12.83397	41235
12.84208	37645
12.85020	40916
12.85833	42069
12.86645	41987
12.87457	36787
12.88270	37182
12.89082	34972
12.89895	34939
12.90707	40496
12.91518	42279
12.92332	35553
12.93143	37154
12.93957	37198
12.94768	38619
12.95580	43572
12.96393	56482
12.97205	63209
12.98018	72868
12.98830	85830
12.99642	79291
13.00455	71712
13.01267	62683
13.02078	55020
13.02892	46202
13.03703	45651
13.04517	45036
13.05328	38306
13.06140	43605
13.06953	42358
13.07765	41547
13.08578	43445
13.09390	41915
13.10202	39432
13.11015	36556
13.11827	42386
13.12638	37267
13.13452	40739
13.14263	40215
13.15077	36693
13.15888	41459
13.16700	42460
13.17513	47640
13.18325	45253
13.19138	47592
13.19950	45247
13.20762	48365
13.21575	47238
13.22387	50936
13.23200	49410
13.24012	48558
13.24823	42989
13.25637	42295
13.26448	37318
13.27260	40197
13.28073	35200
13.28885	37025
13.29698	34792
13.30510	35689
13.31322	35553
13.32135	35199
13.32947	34793
13.33760	33202
13.34572	34233
13.35383	36532
13.36197	35885
13.37008	36841
13.37822	36512
13.38633	32875
13.39445	34675
13.40258	34197
13.41070	34111
13.41882	33841
13.42695	31459
13.43507	31032
13.44320	35161
13.45132	34396
13.45943	34123
13.46757	35841
13.47568	35196
13.48382	35262
13.49193	34793
13.50005	33040
13.50818	33046
13.51630	36291
13.52442	34102
13.53255	35886
13.54067	31307
13.54880	34824
13.55692	35131
13.56503	34954
13.57317	34514
13.58128	36117
13.58942	41999
13.59753	60359
13.60565	84964
13.61378	121095
13.62190	148203
13.63003	161963
13.63815	147432
13.64627	113857
13.65440	80412
13.66252	62216
13.67063	52692
13.67877	45009
13.68688	43439
13.69502	41370
13.70313	44646
13.71125	40899
13.71938	40044
13.72750	48258
13.73563	68244
13.74375	130082
13.75187	279877
13.76000	579071
13.76812	950107
13.77625	1300605
13.78437	1415766
13.79248	1298185
13.80062	1056282
13.80873	754491
13.81685	556715
13.82498	496039
13.83310	472151
13.84123	450242
13.84935	411428
13.85747	347527
13.86560	287001
13.87372	229049
13.88185	192458
13.88997	160996
13.89808	147631
13.90622	138122
13.91433	131811
13.92245	115744
13.93058	113834
13.93870	113037
13.94683	107221
13.95495	103965
13.96307	98128
13.97120	110359
13.97932	111578
13.98745	110731
13.99557	106942
14.00368	109484
14.01182	98939
14.01993	92885
14.02807	89662
14.03618	95515
14.04430	85683
14.05243	85128
14.06055	84134
14.06867	86423
14.07680	84826
14.08492	82206
14.09305	80045
14.10117	82818
14.10928	78831
14.11742	81973
14.12553	78369
14.13367	82334
14.14178	85816
14.14990	88770
14.15803	94925
14.16615	113498
14.17427	151039
14.18240	219495
14.19052	282875
14.19865	312066
14.20677	304964
14.21488	269889
14.22302	222302
14.23113	182077
14.23927	160477
14.24738	160309
14.25550	145904
14.26363	131273
14.27175	121255
14.27988	110258
14.28800	105643
14.29612	90237
14.30425	84958
14.31237	86298
14.32048	83396
14.32862	79535
14.33673	75545
14.34487	73269
14.35298	66294
14.36110	59196
14.36923	57451
14.37735	54504
14.38548	61633
14.39360	90663
14.40172	148083
14.40985	260763
14.41797	363462
14.42610	450603
14.43422	432417
14.44233	342414
14.45047	239059
14.45858	168091
14.46670	116964
14.47483	97722
14.48295	85438
14.49108	78930
14.49920	74408
14.50732	76203
14.51545	68175
14.52357	65918
14.53170	66537
14.53982	63337
14.54793	60863
14.55607	59741
14.56418	55173
14.57232	53339
14.58043	55403
14.58855	51176
14.59668	54355
14.60480	47512
14.61292	48835
14.62105	48299
14.62917	50317
14.63730	49225
14.64542	46895
14.65353	45964
14.66167	48905
14.66978	46131
14.67792	45945
14.68603	42453
14.69415	46372
14.70228	46615
14.71040	47094
14.71852	43105
14.72665	44752
14.73477	47631
14.74290	48998
14.75102	47134
14.75913	48357
14.76727	47873
14.77538	51627
14.78352	60579
14.79163	101417
14.79975	236721
14.80788	539680
14.81600	1115896
14.82413	1827641
14.83225	2357672
14.84037	2477299
14.84850	2133564
14.85662	1506343
14.86473	959077
14.87287	590089
14.88098	405048
14.88912	303189
14.89723	242371
14.90535	208889
14.91348	175766
14.92160	165593
14.92973	143276
14.93785	134573
14.94597	127193
14.95410	121746
14.96222	121596
14.97033	114865
14.97847	105512
14.98658	111591
14.99472	102802
15.00283	99194
15.01095	92233
15.01908	90456
15.02720	79095
15.03533	84370
15.04345	81957
15.05157	75893
15.05970	76514
15.06782	71118
15.07595	64748
15.08407	69974
15.09218	67700
15.10032	65477
15.10843	61879
15.11655	63901
15.12468	68107
15.13280	73008
15.14093	75828
15.14905	78484
15.15717	77311
15.16530	71162
15.17342	62239
15.18155	63256
15.18967	60143
15.19778	52396
15.20592	50923
15.21403	48795
15.22217	44830
15.23028	45393
15.23840	47320
15.24653	42898
15.25465	43445
15.26277	40851
15.27090	41681
15.27902	40798
15.28715	41358
15.29527	41043
15.30338	42289
15.31152	42370
15.31963	39501
15.32777	42580
15.33588	38123
15.34400	37435
15.35213	42211
15.36025	40559
15.36837	39078
15.37650	41663
15.38462	39294
15.39275	46310
15.40087	49206
15.40898	57285
15.41712	55712
15.42523	56047
15.43337	57345
15.44148	48492
15.44960	45920
15.45773	48081
15.46585	49645
15.47398	63094
15.48210	74614
15.49022	98129
15.49835	120531
15.50647	131292
15.51458	125015
15.52272	113323
15.53083	105813
15.53897	96189
15.54708	87236
15.55520	74044
15.56333	65176
15.57145	58131
15.57958	51973
15.58770	53633
15.59582	44383
15.60395	42408
15.61207	43109
15.62020	44158
15.62832	40531
15.63643	39413
15.64457	41050
15.65268	37640
15.66080	41963
15.66893	38581
15.67705	35513
15.68518	34953
15.69330	37779
15.70142	39018
15.70955	38793
15.71767	38860
15.72580	37849
15.73392	42353
15.74203	45918
15.75017	52913
15.75828	68257
15.76640	102517
15.77453	165769
15.78265	215889
15.79078	262411
15.79890	257682
15.80702	224515
15.81515	176554
15.82327	119691
15.83140	92712
15.83952	78855
15.84763	69399
15.85577	64090
15.86388	61669
15.87202	64945
15.88013	58482
15.88825	56258
15.89638	53313
15.90450	50253
15.91262	49976
15.92075	51309
15.92887	51365
15.93700	48986
15.94512	55157
15.95323	56537
15.96137	69832
15.96948	78935
15.97762	89174
15.98573	92229
15.99385	89111
16.00198	80068
16.01010	74778
16.01822	72352
16.02635	72692
16.03447	70641
16.04260	67756
16.05072	61608
16.05883	56813
16.06697	52650
16.07508	49806
16.08322	47366
16.09133	44061
16.09945	45061
16.10758	48823
16.11570	47814
16.12383	49353
16.13195	52612
16.14007	53216
16.14820	55682
16.15632	53697
16.16443	56488
16.17257	52496
16.18068	50646
16.18882	46705
16.19693	46415
16.20505	47740
16.21318	41848
16.22130	45561
16.22943	45864
16.23755	50584
16.24567	45067
16.25380	40956
16.26192	45433
16.27005	40727
16.27817	44987
16.28628	44536
16.29442	52997
16.30253	49718
16.31065	47931
16.31878	50202
16.32690	48940
16.33503	47728
16.34315	51715
16.35127	51643
16.35940	59603
16.36752	67720
16.37565	79313
16.38377	80072
16.39188	76554
16.40002	63654
16.40813	59057
16.41625	55142
16.42438	51017
16.43250	49107
16.44063	51803
16.44875	59319
16.45687	73799
16.46500	109766
16.47312	143069
16.48125	164485
16.48937	176537
16.49748	158274
16.50562	131725
16.51373	97405
16.52187	75906
16.52998	65130
16.53810	56065
16.54623	56205
16.55435	52977
16.56247	50539
16.57060	54045
16.57872	53241
16.58685	57829
16.59497	63599
16.60308	65899
16.61122	73489
16.61933	78583
16.62747	76167
16.63558	67951
16.64370	68126
16.65183	61243
16.65995	54168
16.66808	52117
16.67620	52378
16.68432	47663
16.69245	45059
16.70057	44078
16.70868	44624
16.71682	46589
16.72493	44396
16.73307	44305
16.74118	42958
16.74930	44095
16.75743	46107
16.76555	46663
16.77368	45495
16.78180	46140
16.78992	43704
16.79805	40401
16.80617	40382
16.81428	37017
16.82242	40776
16.83053	39121
16.83867	39608
16.84678	39462
16.85490	38722
16.86303	35606
16.87115	39051
16.87928	43618
16.88740	39422
16.89552	34378
16.90365	36344
16.91177	35827
16.91990	39628
16.92802	36685
16.93613	36703
16.94427	35151
16.95238	37777
16.96050	37098
16.96863	43615
16.97675	31698
16.98488	35820
16.99300	40238
17.00112	39449
17.00925	37769
17.01737	37437
17.02550	42583
17.03362	44121
17.04173	51611
17.04987	58927
17.05798	58019
17.06610	58846
17.07423	60720
17.08235	65545
17.09048	78382
17.09860	95801
17.10672	110234
17.11485	125129
17.12297	129909
17.13110	133434
17.13922	116059
17.14733	114244
17.15547	102248
17.16358	83490
17.17172	68808
17.17983	62014
17.18795	53987
17.19608	48970
17.20420	44591
17.21232	43056
17.22045	39283
17.22857	40309
17.23670	40570
17.24482	43416
17.25293	42616
17.26107	41553
17.26918	38756
17.27732	37137
17.28543	36760
17.29355	37009
17.30168	38081
17.30980	39503
17.31793	39017
17.32605	47999
17.33417	56852
17.34230	60717
17.35042	61316
17.35853	62385
17.36667	61847
17.37478	57312
17.38292	55982
17.39103	50896
17.39915	51216
17.40728	48865
17.41540	50351
17.42353	51105
17.43165	49500
17.43977	49542
17.44790	48676
17.45602	47294
17.46413	46412
17.47227	48000
17.48038	41890
17.48852	41713
17.49663	38693
17.50475	42040
17.51288	38947
17.52100	41364
17.52913	40572
17.53725	39751
17.54537	47467
17.55350	48910
17.56162	68166
17.56975	108934
17.57787	195020
17.58598	331689
17.59412	540978
17.60223	765822
17.61035	901338
17.61848	874570
17.62660	721939
17.63473	523519
17.64285	365886
17.65097	253344
17.65910	192943
17.66722	171060
17.67535	146587
17.68347	124621
17.69158	104374
17.69972	103834
17.70783	91556
17.71597	88686
17.72408	77943
17.73220	76125
17.74033	72133
17.74845	68718
17.75657	62201
17.76470	65201
17.77282	61683
17.78095	65221
17.78907	62748
17.79718	64467
17.80532	80560
17.81343	104767
17.82157	118450
17.82968	130195
17.83780	136585
17.84593	125774
17.85405	114812
17.86217	107954
17.87030	97106
17.87842	91369
17.88655	78076
17.89467	73433
17.90278	66317
17.91092	64621
17.91903	57659
17.92717	54734
17.93528	56043
17.94340	52482
17.95153	50270
17.95965	52417
17.96778	53948
17.97590	48777
17.98402	49802
17.99215	50252
18.00027	49259
18.00838	49764
18.01652	57959
18.02463	60662
18.03277	77662
18.04088	84704
18.04900	84297
18.05713	94673
18.06525	109175
18.07338	155336
18.08150	220517
18.08962	299200
18.09775	357178
18.10587	333849
18.11400	289723
18.12212	242902
18.13023	208130
18.13837	179740
18.14648	159905
18.15460	143732
18.16273	135388
18.17085	129303
18.17898	115547
18.18710	111473
18.19522	105888
18.20335	104203
18.21147	97668
18.21960	90600
18.22772	88117
18.23583	76802
18.24397	80516
18.25208	85938
18.26020	82559
18.26833	72513
18.27645	75865
18.28458	62940
18.29270	56273
18.30082	51980
18.30895	49154
18.31707	50262
18.32520	51019
18.33332	44589
18.34143	42995
18.34957	45199
18.35768	45084
18.36582	45264
18.37393	46477
18.38205	48248
18.39018	52764
18.39830	56980
18.40642	66824
18.41455	78010
18.42267	88000
18.43080	93891
18.43892	108910
18.44703	146513
18.45517	202432
18.46328	293468
18.47142	382694
18.47953	449716
18.48765	495645
18.49578	479442
18.50390	447057
18.51202	387689
18.52015	341924
18.52827	311705
18.53640	296756
18.54452	285916
18.55263	269871
18.56077	269907
18.56888	258540
18.57702	257097
18.58513	266534
18.59325	262934
18.60138	263278
18.60950	256541
18.61763	258076
18.62575	257662
18.63387	261543
18.64200	251477
18.65012	247030
18.65823	240904
18.66637	241418
18.67448	229262
18.68262	232597
18.69073	228381
18.69885	230532
18.70698	227891
18.71510	222023
18.72323	223129
18.73135	216787
18.73947	209686
18.74760	214388
18.75572	205472
18.76385	204644
18.77197	203818
18.78008	202493
18.78822	202452
18.79633	207816
18.80445	199308
18.81258	190416
18.82070	189766
18.82883	193875
18.83695	191672
18.84507	188423
18.85320	189557
18.86132	190282
18.86945	185019
18.87757	184717
18.88568	186674
18.89382	180218
18.90193	176676
18.91005	175113
18.91818	182437
18.92630	178771
18.93443	176950
18.94255	179763
18.95067	187035
18.95880	183349
18.96692	174513
18.97505	173795
18.98317	169518
18.99128	160309
18.99942	161884
19.00753	165949
19.01567	159081
19.02378	156050
19.03190	159570
19.04003	157689
19.04815	152808
19.05627	152188
19.06440	166762
19.07252	181283
19.08065	207832
19.08877	252127
19.09688	305260
19.10502	353727
19.11313	348584
19.12127	330252
19.12938	279757
19.13750	229535
19.14563	205475
19.15375	172775
19.16188	162490
19.17000	161790
19.17812	154097
19.18625	151595
19.19437	144561
19.20248	138860
19.21062	140592
19.21873	140668
19.22687	134594
19.23498	133989
19.24310	133194
19.25123	133804
19.25935	130299
19.26748	131831
19.27560	134737
19.28372	141581
19.29185	139831
19.29997	144575
19.30808	139180
19.31622	133775
19.32433	130460
19.33247	131699
19.34058	139203
19.34870	148717
19.35683	163714
19.36495	184353
19.37308	197073
19.38120	200736
19.38932	196663
19.39745	181924
19.40557	161125
19.41370	142739
19.42182	133061
19.42993	125334
19.43807	124137
19.44618	120283
19.45430	122504
19.46243	130443
19.47055	142140
19.47868	175864
19.48680	212935
19.49492	247552
19.50305	260231
19.51117	254076
19.51930	220042
19.52742	186737
19.53553	155697
19.54367	132680
19.55178	130631
19.55990	122062
19.56803	117057
19.57615	110826
19.58428	108636
19.59240	104538
19.60052	105088
19.60865	102545
19.61677	102163
19.62490	103111
19.63302	108474
19.64113	122263
19.64927	144173
19.65738	180129
19.66552	209975
19.67363	233378
19.68175	248542
19.68988	245796
19.69800	237237
19.70612	217402
19.71425	187848
19.72237	166105
19.73050	154286
19.73862	143659
19.74673	130637
19.75487	131003
19.76298	119983
19.77112	121679
19.77923	124130
19.78735	132405
19.79548	135231
19.80360	139463
19.81173	137195
19.81985	135745
19.82797	125719
19.83610	117002
19.84422	112489
19.85233	119316
19.86047	162514
19.86858	271782
19.87672	499676
19.88483	824903
19.89295	1224192
19.90108	1487187
19.90920	1559215
19.91733	1476370
19.92545	1237520
19.93357	1007171
19.94170	788061
19.94982	655430
19.95795	569265
19.96607	532659
19.97418	506530
19.98232	459641
19.99043	445607
19.99855	424202
20.00668	410322
20.01480	376804
20.02293	368064
20.03105	349142
20.03917	320342
20.04730	286464
20.05542	257213
20.06355	221271
20.07167	192187
20.07978	171512
20.08792	170849
20.09603	161702
20.10415	157918
20.11228	142129
20.12040	138151
20.12853	130564
20.13665	115236
20.14477	120254
20.15290	126198
20.16102	129057
20.16915	140542
20.17727	147617
20.18538	160470
20.19352	174089
20.20163	177454
20.20977	167176
20.21788	154796
20.22600	144546
20.23413	139658
20.24225	143953
20.25037	154077
20.25850	174520
20.26662	193758
20.27475	226057
20.28287	233976
20.29098	234025
20.29912	214869
20.30723	195823
20.31537	168167
20.32348	147439
20.33160	131842
20.33973	108253
20.34785	100525
20.35597	94569
20.36410	87562
20.37222	86692
20.38035	81436
20.38847	76891
20.39658	71635
20.40472	72097
20.41283	74988
20.42097	83433
20.42908	83838
20.43720	85717
20.44533	90454
20.45345	86532
20.46158	87887
20.46970	85670
20.47782	80622
20.48595	74683
20.49407	75010
20.50218	72273
20.51032	70798
20.51843	72542
20.52657	73781
20.53468	68585
20.54280	73874
20.55093	70503
20.55905	73579
20.56718	68609
20.57530	68192
20.58342	63069
20.59155	66878
20.59967	69178
20.60780	65356
20.61592	63106
20.62403	68179
20.63217	66649
20.64028	62125
20.64840	69489
20.65653	64169
20.66465	73595
20.67278	67136
20.68090	66694
20.68902	62798
20.69715	64990
20.70527	62675
20.71340	61157
20.72152	64593
20.72963	58139
20.73777	64856
20.74588	64931
20.75400	67024
20.76213	71861
20.77025	73190
20.77838	84811
20.78650	105947
20.79462	152020
20.80275	210897
20.81087	288500
20.81900	333107
20.82712	335610
20.83523	293255
20.84337	229447
20.85148	162910
20.85962	117504
20.86773	95548
20.87585	86141
20.88398	73782
20.89210	76663
20.90022	74848
20.90835	75872
20.91647	75416
20.92460	82834
20.93272	78635
20.94083	80674
20.94897	77434
20.95708	74756
20.96522	70916
20.97333	73359
20.98145	64905
20.98958	62470
20.99770	61362
21.00583	63593
21.01395	63065
21.02207	61135
21.03020	66446
21.03832	68727
21.04643	65987
21.05457	64710
21.06268	61622
21.07082	62116
21.07893	63105
21.08705	63639
21.09518	60460
21.10330	55312
21.11143	61605
21.11955	63096
21.12767	60217
21.13580	66936
21.14392	73806
21.15203	85908
21.16017	99991
21.16828	95475
21.17642	91600
21.18453	89134
21.19265	78639
21.20078	73768
21.20890	68768
21.21703	68814
21.22515	66988
21.23327	63035
21.24140	67927
21.24952	61572
21.25765	60952
21.26577	60217
21.27388	59010
21.28202	57887
21.29013	57163
21.29825	60642
21.30638	58255
21.31450	55819
21.32263	55217
21.33075	54465
21.33887	53684
21.34700	55787
21.35512	55398
21.36325	52188
21.37137	56017
21.37948	57155
21.38762	55993
21.39573	59691
21.40385	59639
21.41198	62301
21.42010	63519
21.42823	60354
21.43635	56289
21.44447	58262
21.45260	54329
21.46072	55209
21.46885	51646
21.47697	55562
21.48508	53081
21.49322	51902
21.50133	50408
21.50947	53239
21.51758	49397
21.52570	49683
21.53383	49437
21.54195	50749
21.55007	48632
21.55820	47675
21.56632	51321
21.57445	58178
21.58257	62624
21.59068	73527
21.59882	74011
21.60693	76671
21.61507	74324
21.62318	76495
21.63130	72490
21.63943	82222
21.64755	80019
21.65568	79173
21.66380	83136
21.67192	84314
21.68005	83624
21.68817	86211
21.69628	74193
21.70442	71608
21.71253	65992
21.72067	62378
21.72878	54992
21.73690	54078
21.74503	57283
21.75315	56122
21.76128	52641
21.76940	55090
21.77752	54100
21.78565	52470
21.79377	55725
21.80188	56608
21.81002	58396
21.81813	61181
21.82627	65835
21.83438	68861
21.84250	66425
21.85063	63902
21.85875	63342
21.86688	58907
21.87500	56811
21.88312	54585
21.89125	58903
21.89937	53914
21.90750	49261
21.91562	49848
21.92373	50903
21.93187	53140
21.93998	49707
21.94810	45679
21.95623	48094
21.96435	44891
21.97248	44253
21.98060	43892
21.98872	42425
21.99685	45518
22.00497	45662
22.01310	44935
22.02122	45044
22.02933	44028
22.03747	46644
22.04558	47166
22.05372	46042
22.06183	42070
22.06995	47856
22.07808	46302
22.08620	43438
22.09432	44369
22.10245	44312
22.11057	43200
22.11870	42217
22.12682	42276
22.13493	46100
22.14307	45706
22.15118	52221
22.15932	54388
22.16743	54834
22.17555	60927
22.18368	63751
22.19180	64506
22.19992	63191
22.20805	66710
22.21617	69574
22.22430	73319
22.23242	75067
22.24053	72590
22.24867	75443
22.25678	70796
22.26492	78486
22.27303	82597
22.28115	84576
22.28928	85999
22.29740	88963
22.30553	83374
22.31365	83718
22.32177	82236
22.32990	81662
22.33802	82928
22.34613	85450
22.35427	79787
22.36238	79187
22.37052	77270
22.37863	73658
22.38675	75615
22.39488	92684
22.40300	113238
22.41113	128008
22.41925	149090
22.42737	146732
22.43550	138299
22.44362	125503
22.45175	96623
22.45987	86365
22.46798	72223
22.47612	83848
22.48423	85558
22.49235	93542
22.50048	98103
22.50860	105369
22.51673	97341
22.52485	90384
22.53297	83452
22.54110	70268
22.54922	74438
22.55735	68954
22.56547	61486
22.57358	60981
22.58172	54140
22.58983	51049
22.59795	49969
22.60608	49326
22.61420	47183
22.62233	46857
22.63045	45259
22.63857	45597
22.64670	48637
22.65482	48100
22.66295	55180
22.67107	60360
22.67918	72868
22.68732	90033
22.69543	103872
22.70357	108351
22.71168	119934
22.71980	131197
22.72793	127060
22.73605	127647
22.74417	131022
22.75230	123559
22.76042	122695
22.76855	126996
22.77667	138106
22.78478	143421
22.79292	163171
22.80103	174491
22.80917	182425
22.81728	195870
22.82540	186873
22.83353	176553
22.84165	160411
22.84977	148805
22.85790	142525
22.86602	144935
22.87415	148240
22.88227	158185
22.89038	171771
22.89852	188133
22.90663	212750
22.91477	234078
22.92288	258558
22.93100	271762
22.93913	252011
22.94725	231684
22.95538	197605
22.96350	170436
22.97162	152700
22.97975	147191
22.98787	139912
22.99598	129370
23.00412	127247
23.01223	123782
23.02037	117392
23.02848	122277
23.03660	113962
23.04473	115628
23.05285	117019
23.06098	112126
23.06910	115168
23.07722	107172
23.08535	110482
23.09347	106237
23.10160	104366
23.10972	103512
23.11783	105620
23.12597	98253
23.13408	95306
23.14220	98688
23.15033	95286
23.15845	100423
23.16658	93268
23.17470	94466
23.18282	100985
23.19095	92677
23.19907	96450
23.20720	96106
23.21532	90088
23.22343	93278
23.23157	93322
23.23968	94204
23.24780	98443
23.25593	96527
23.26405	100202
23.27218	102529
23.28030	104820
23.28842	97324
23.29655	98059
23.30467	92523
23.31280	91383
23.32092	93703
23.32903	101801
23.33717	115148
23.34528	127356
23.35342	162080
23.36153	188691
23.36965	221701
23.37778	259296
23.38590	294344
23.39402	327673
23.40215	354169
23.41027	374166
23.41840	369918
23.42652	371256
23.43463	366459
23.44277	355415
23.45088	330563
23.45902	327539
23.46713	302037
23.47525	270176
23.48338	273864
23.49150	245009
23.49963	234236
23.50775	212594
23.51587	210550
23.52400	193015
23.53212	184846
23.54023	176397
23.54837	178409
23.55648	169303
23.56462	174724
23.57273	176530
23.58085	200750
23.58898	232196
23.59710	257993
23.60523	273209
23.61335	264636
23.62147	249810
23.62960	224507
23.63772	195675
23.64583	193708
23.65397	182176
23.66208	179087
23.67022	178376
23.67833	169096
23.68645	157467
23.69458	138573
23.70270	123723
23.71083	123796
23.71895	109810
23.72707	107328
23.73520	111540
23.74332	138551
23.75145	200527
23.75957	348727
23.76768	654818
23.77582	1116613
23.78393	1612823
23.79205	2050203
23.80018	2176088
23.80830	2014735
23.81643	1688141
23.82455	1361080
23.83267	1086207
23.84080	884609
23.84892	698533
23.85705	574597
23.86517	475188
23.87328	408342
23.88142	356754
23.88953	323594
23.89765	298489
23.90578	283245
23.91390	277386
23.92203	251587
23.93015	228747
23.93827	217075
23.94640	202544
23.95452	187146
23.96265	175004
23.97077	165484
23.97888	159815
23.98702	147817
23.99513	159508
24.00327	166847
24.01138	200401
24.01950	250211
24.02763	309752
24.03575	342930
24.04387	328500
24.05200	290953
24.06012	233677
24.06825	173429
24.07637	139764
24.08448	124058
24.09262	115000
24.10073	110446
24.10887	104463
24.11698	109956
24.12510	110508
24.13323	106278
24.14135	111171
24.14948	105436
24.15760	110330
24.16572	106160
24.17385	110390
24.18197	105081
24.19008	103850
24.19822	100470
24.20633	100844
24.21447	98435
24.22258	94144
24.23070	90000
24.23883	86375
24.24695	81893
24.25508	79476
24.26320	77345
24.27132	80557
24.27945	83476
24.28757	76122
24.29568	77462
24.30382	78051
24.31193	69471
24.32007	80989
24.32818	77088
24.33630	72395
24.34443	77642
24.35255	76305
24.36068	86278
24.36880	96400
24.37692	116951
24.38505	127710
24.39317	135005
24.40130	127518
24.40942	109235
24.41753	85453
24.42567	76098
24.43378	67420
24.44190	70964
24.45003	73932
24.45815	82629
24.46628	105649
24.47440	120022
24.48252	141260
24.49065	142654
24.49877	154502
24.50690	168361
24.51502	180434
24.52313	192327
24.53127	210515
24.53938	221498
24.54752	246064
24.55563	265934
24.56375	260953
24.57188	270200
24.58000	273245
24.58812	254014
24.59625	251473
24.60437	250498
24.61250	244336
24.62062	239597
24.62873	240056
24.63687	233459
24.64498	228283
24.65312	230139
24.66123	242250
24.66935	230124
24.67748	224182
24.68560	226557
24.69372	223126
24.70185	233112
24.70997	226229
24.71810	219763
24.72622	209373
24.73433	220526
24.74247	221622
24.75058	218962
24.75872	211538
24.76683	214085
24.77495	220335
24.78308	220585
24.79120	216126
24.79933	216123
24.80745	209498
24.81557	217486
24.82370	215403
24.83182	222149
24.83993	253982
24.84807	275007
24.85618	337302
24.86432	401682
24.87243	507506
24.88055	607851
24.88868	684612
24.89680	739172
24.90493	667393
24.91305	570884
24.92117	429456
24.92930	347146
24.93742	261065
24.94553	229078
24.95367	193888
24.96178	179160
24.96992	166371
24.97803	153081
24.98615	135952
24.99428	124445
25.00240	108917
25.01053	101266
25.01865	93312
25.02677	94263
25.03490	90388
25.04302	81743
25.05115	83536
25.05927	85176
25.06738	75629
25.07552	81181
25.08363	83984
25.09175	103635
25.09988	158305
25.10800	302830
25.11613	641381
25.12425	1197007
25.13237	2002704
25.14050	2664060
25.14862	3122908
25.15675	2942032
25.16487	2355631
25.17298	1572368
25.18112	938445
25.18923	537867
25.19737	312170
25.20548	205804
25.21360	155069
25.22173	124821
25.22985	127641
25.23797	138634
25.24610	162306
25.25422	198461
25.26235	241220
25.27047	272651
25.27858	276774
25.28672	264465
25.29483	215769
25.30297	180165
25.31108	142795
25.31920	115559
25.32733	99785
25.33545	88434
25.34358	80911
25.35170	75372
25.35982	75240
25.36795	73343
25.37607	70032
25.38418	71910
25.39232	77390
25.40043	86100
25.40857	110740
25.41668	150406
25.42480	196623
25.43293	234343
25.44105	254183
25.44918	278511
25.45730	279899
25.46542	286897
25.47355	300915
25.48167	299360
25.48978	300618
25.49792	306393
25.50603	307271
25.51417	305057
25.52228	289127
25.53040	303895
25.53853	303699
25.54665	299224
25.55478	289903
25.56290	293865
25.57102	296918
25.57915	291723
25.58727	290825
25.59540	287755
25.60352	288936
25.61163	282861
25.61977	278436
25.62788	287007
25.63600	296955
25.64413	287516
25.65225	268842
25.66038	278053
25.66850	271867
25.67662	260557
25.68475	266287
25.69287	257174
25.70100	258020
25.70912	250499
25.71723	245381
25.72537	241987
25.73348	241289
25.74160	252744
25.74973	231799
25.75785	240934
25.76598	229453
25.77410	239739
25.78222	235400
25.79035	234357
25.79847	230315
25.80660	229315
25.81472	227505
25.82283	228450
25.83097	214810
25.83908	218537
25.84722	215865
25.85533	219016
25.86345	212938
25.87158	211365
25.87970	208657
25.88782	201466
25.89595	199687
25.90407	200316
25.91220	192597
25.92032	193091
25.92843	197200
25.93657	189230
25.94468	190851
25.95282	176548
25.96093	181755
25.96905	183200
25.97718	181269
25.98530	170458
25.99343	171119
26.00155	170109
26.00967	164820
26.01780	162165
26.02592	161496
26.03403	165267
26.04217	161849
26.05028	158064
26.05842	164233
26.06653	159023
26.07465	160447
26.08278	154560
26.09090	155918
26.09903	150701
26.10715	150088
26.11527	152427
26.12340	146157
26.13152	149352
26.13963	150032
26.14777	153508
26.15588	149373
26.16402	148058
26.17213	146937
26.18025	139755
26.18838	140459
26.19650	138410
26.20463	135381
26.21275	125967
26.22087	129821
26.22900	127239
26.23712	127926
26.24525	121296
26.25337	122194
26.26148	122088
26.26962	115765
26.27773	125976
26.28585	113528
26.29398	115243
26.30210	116192
26.31023	112196
26.31835	113526
26.32647	108016
26.33460	110992
26.34272	104401
26.35085	108412
26.35897	116104
26.36708	115625
26.37522	124963
26.38333	139208
26.39147	157107
26.39958	158173
26.40770	163285
26.41583	163944
26.42395	145088
26.43207	135669
26.44020	120431
26.44832	109768
26.45645	106313
26.46457	99674
26.47268	96802
26.48082	98764
26.48893	96092
26.49707	95985
26.50518	95120
26.51330	88619
26.52143	91202
26.52955	88810
26.53767	84539
26.54580	83004
26.55392	80935
26.56205	81620
26.57017	84191
26.57828	77690
26.58642	77263
26.59453	80745
26.60267	77764
26.61078	74987
26.61890	83260
26.62703	76708
26.63515	75824
26.64328	77197
26.65140	80491
26.65952	79153
26.66765	76438
26.67577	78265
26.68388	74329
26.69202	78516
26.70013	73310
26.70827	72024
26.71638	71994
26.72450	72587
26.73263	70775
26.74075	69842
26.74888	70820
26.75700	70173
26.76512	67651
26.77325	67525
26.78137	75178
26.78948	73782
26.79762	75625
26.80573	82099
26.81387	79227
26.82198	76388
26.83010	71128
26.83823	68545
26.84635	67389
26.85448	71090
26.86260	67516
26.87072	61316
26.87885	62753
26.88697	59944
26.89510	62871
26.90322	61995
26.91133	62081
26.91947	60620
26.92758	62990
26.93570	59013
26.94383	60214
26.95195	64554
26.96008	64505
26.96820	72719
26.97632	90562
26.98445	113534
26.99257	155162
27.00070	218561
27.00882	287076
27.01693	343726
27.02507	382482
27.03318	416293
27.04132	404634
27.04943	373666
27.05755	333626
27.06568	268059
27.07380	234011
27.08192	215574
27.09005	178088
27.09817	161148
27.10630	152125
27.11442	144180
27.12253	129326
27.13067	126241
27.13878	120956
27.14692	111190
27.15503	111762
27.16315	108793
27.17128	109024
27.17940	109963
27.18752	108646
27.19565	105626
27.20377	102149
27.21190	98662
27.22002	96115
27.22813	89168
27.23627	87718
27.24438	83911
27.25252	85700
27.26063	79052
27.26875	75168
27.27688	70639
27.28500	72806
27.29313	69330
27.30125	66768
27.30937	74963
27.31750	69342
27.32562	65191
27.33373	75045
27.34187	65695
27.34998	67234
27.35812	71767
27.36623	68318
27.37435	69348
27.38248	69697
27.39060	66471
27.39873	61291
27.40685	64401
27.41497	63872
27.42310	61526
27.43122	58654
27.43935	64042
27.44747	58421
27.45558	56145
27.46372	60041
27.47183	55935
27.47995	58552
27.48808	58751
27.49620	59553
27.50433	60944
27.51245	61897
27.52057	64617
27.52870	64389
27.53682	61333
27.54495	62102
27.55307	59723
27.56118	62728
27.56932	67208
27.57743	68263
27.58555	75827
27.59368	84481
27.60180	84694
27.60993	79847
27.61805	73576
27.62617	66711
27.63430	65879
27.64242	61120
27.65055	59992
27.65867	61212
27.66678	55245
27.67492	59213
27.68303	58647
27.69117	62966
27.69928	62633
27.70740	62396
27.71553	57358
27.72365	54178
27.73177	54584
27.73990	53664
27.74802	51484
27.75615	47487
27.76427	50216
27.77238	50702
27.78052	55457
27.78863	52780
27.79677	56322
27.80488	54033
27.81300	54235
27.82113	50465
27.82925	50732
27.83738	49860
27.84550	53042
27.85362	50625
27.86175	46307
27.86987	48531
27.87798	48204
27.88612	49792
27.89423	48132
27.90237	47245
27.91048	48618
27.91860	46799
27.92673	44466
27.93485	47049
27.94298	45750
27.95110	49091
27.95922	48598
27.96735	47195
27.97547	45998
27.98358	46711
27.99172	50854
27.99983	49100
28.00797	50987
28.01608	55251
28.02420	66968
28.03233	70997
28.04045	76200
28.04858	85887
28.05670	80792
28.06482	80545
28.07295	72973
28.08107	66388
28.08920	59506
28.09732	57948
28.10543	49998
28.11357	51308
28.12168	50598
28.12980	48929
28.13793	45161
28.14605	44557
28.15418	44409
28.16230	49851
28.17042	49502
28.17855	50292
28.18667	58694
28.19480	62013
28.20292	69718
28.21103	80505
28.21917	79828
28.22728	83023
28.23540	77683
28.24353	71337
28.25165	65597
28.25978	60578
28.26790	51663
28.27602	52961
28.28415	49717
28.29227	51390
28.30040	55671
28.30852	64419
28.31663	68733
28.32477	80768
28.33288	99501
28.34102	99415
28.34913	109430
28.35725	124049
28.36538	138648
28.37350	148420
28.38162	161008
28.38975	161339
28.39787	168196
28.40600	166959
28.41412	164666
28.42223	159185
28.43037	151752
28.43848	144310
28.44662	131545
28.45473	126157
28.46285	112251
28.47098	108254
28.47910	105454
28.48723	110459
28.49535	99550
28.50347	97530
28.51160	89620
28.51972	84983
28.52783	77945
28.53597	73127
28.54408	77329
28.55222	70959
28.56033	70506
28.56845	66690
28.57658	70745
28.58470	65077
28.59283	68393
28.60095	61520
28.60907	66314
28.61720	65057
28.62532	65256
28.63343	67465
28.64157	72773
28.64968	68729
28.65782	66934
28.66593	69644
28.67405	67716
28.68218	64201
28.69030	64604
28.69843	59647
28.70655	61542
28.71467	60244
28.72280	60236
28.73092	63903
28.73905	63561
28.74717	73105
28.75528	77166
28.76342	80899
28.77153	77744
28.77965	74291
28.78778	66034
28.79590	66139
28.80403	65665
28.81215	63457
28.82027	64018
28.82840	61028
28.83652	57801
28.84465	61344
28.85277	57048
28.86088	58146
28.86902	62335
28.87713	63495
28.88527	68994
28.89338	73520
28.90150	72885
28.90963	73004
28.91775	70092
28.92587	63929
28.93400	64709
28.94212	56447
28.95025	59163
28.95837	59976
28.96648	56561
28.97462	60274
28.98273	56011
28.99087	57091
28.99898	54451
29.00710	51100
29.01523	48877
29.02335	51436
29.03147	52456
29.03960	50564
29.04772	48281
29.05585	49291
29.06397	52156
29.07208	55490
29.08022	50635
29.08833	53657
29.09647	56044
29.10458	53050
29.11270	52294
29.12083	50828
29.12895	48780
29.13708	47848
29.14520	50206
29.15332	53820
29.16145	48634
29.16957	51499
29.17768	55942
29.18582	63937
29.19393	74651
29.20207	91868
29.21018	106504
29.21830	102146
29.22643	107166
29.23455	96530
29.24268	83060
29.25080	79338
29.25892	84822
29.26705	70114
29.27517	74509
29.28328	72962
29.29142	64023
29.29953	59871
29.30767	55538
29.31578	54215
29.32390	52730
29.33203	52272
29.34015	48672
29.34828	46947
29.35640	47373
29.36452	48176
29.37265	43807
29.38077	47331
29.38890	42844
29.39702	46446
29.40513	45746
29.41327	42632
29.42138	47372
29.42950	46113
29.43763	48649
29.44575	48268
29.45388	48197
29.46200	46418
29.47012	49066
29.47825	47394
29.48637	45311
29.49450	48930
29.50262	47940
29.51073	52156
29.51887	49340
29.52698	45645
29.53512	46969
29.54323	48962
29.55135	48986
29.55948	44121
29.56760	41981
29.57572	40934
29.58385	44163
29.59197	41870
29.60010	41452
29.60822	42246
29.61633	40649
29.62447	45155
29.63258	43156
29.64072	46333
29.64883	44830
29.65695	45086
29.66508	47249
29.67320	47286
29.68132	48973
29.68945	51939
29.69757	52367
29.70570	50178
29.71382	48854
29.72193	46778
29.73007	52186
29.73818	47239
29.74632	46996
29.75443	44778
29.76255	45559
29.77068	41006
29.77880	38837
29.78693	38613
29.79505	41176
29.80317	42400
29.81130	38656
29.81942	42555
29.82753	45275
29.83567	40385
29.84378	38521
29.85192	41865
29.86003	47570
29.86815	60318
29.87628	81381
29.88440	109363
29.89253	132322
29.90065	151522
29.90877	148731
29.91690	128329
29.92502	108822
29.93315	85090
29.94127	67134
29.94938	61546
29.95752	62869
29.96563	66077
29.97375	70653
29.98188	78302
29.99000	82739
29.99813	87727
30.00625	88831
30.01437	101840
30.02250	98001
30.03062	98909
30.03875	99994
30.04687	103166
30.05498	105246
30.06312	100927
30.07123	101955
30.07935	101042
30.08748	97092
30.09560	102074
30.10373	94376
30.11185	94890
30.11997	95863
30.12810	90307
30.13622	88492
30.14435	85491
30.15247	78507
30.16058	79474
30.16872	76624
30.17683	79004
30.18497	73867
30.19308	74049
30.20120	73563
30.20933	68306
30.21745	63943
30.22557	67046
30.23370	61440
30.24182	61928
30.24995	64036
30.25807	60481
30.26618	57579
30.27432	57214
30.28243	54428
30.29057	55040
30.29868	56247
30.30680	52603
30.31493	52678
30.32305	48693
30.33118	52038
30.33930	49413
30.34742	50294
30.35555	51293
30.36367	50516
30.37178	49220
30.37992	45740
30.38803	47622
30.39617	43343
30.40428	46338
30.41240	52450
30.42053	45270
30.42865	40122
30.43678	45834
30.44490	45603
30.45302	45436
30.46115	46178
30.46927	46793
30.47738	45398
30.48552	43856
30.49363	47405
30.50177	45189
30.50988	45531
30.51800	45144
30.52613	42133
30.53425	42570
30.54238	46000
30.55050	42513
30.55862	46042
30.56675	45072
30.57487	44180
30.58300	47386
30.59112	46432
30.59923	44372
30.60737	46472
30.61548	38386
30.62360	45893
30.63173	42661
30.63985	44332
30.64798	40442
30.65610	44104
30.66422	41631
30.67235	41097
30.68047	43034
30.68860	42424
30.69672	38798
30.70483	44598
30.71297	38372
30.72108	45070
30.72922	42956
30.73733	41499
30.74545	41741
30.75358	44743
30.76170	45007
30.76982	46942
30.77795	53558
30.78607	65602
30.79420	85904
30.80232	97281
30.81043	104867
30.81857	102922
30.82668	99073
30.83482	75923
30.84293	61106
30.85105	55097
30.85918	51359
30.86730	46369
30.87542	45258
30.88355	46672
30.89167	43686
30.89980	44664
30.90792	47201
30.91603	40705
30.92417	42249
30.93228	43557
30.94042	43246
30.94853	39472
30.95665	39608
30.96478	38802
30.97290	40447
30.98103	43194
30.98915	41267
30.99727	40231
31.00540	40586
31.01352	40030
31.02163	43219
31.02977	41750
31.03788	47988
31.04602	45189
31.05413	48774
31.06225	51553
31.07038	56062
31.07850	57977
31.08663	59676
31.09475	67485
31.10287	67085
31.11100	71084
31.11912	69341
31.12723	66123
31.13537	64005
31.14348	64107
31.15162	68053
31.15973	59913
31.16785	66785
31.17598	65008
31.18410	71178
31.19223	77362
31.20035	89053
31.20847	102277
31.21660	109301
31.22472	120995
31.23285	116249
31.24097	109424
31.24908	95047
31.25722	78506
31.26533	72004
31.27345	64687
31.28158	61643
31.28970	62261
31.29783	61699
31.30595	58010
31.31407	60039
31.32220	60375
31.33032	61285
31.33845	63805
31.34657	65849
31.35468	61950
31.36282	59518
31.37093	58960
31.37907	57278
31.38718	62181
31.39530	58626
31.40343	59454
31.41155	58534
31.41967	52832
31.42780	56215
31.43592	60096
31.44405	57596
31.45217	51216
31.46028	52159
31.46842	52585
31.47653	52747
31.48467	56869
31.49278	56177
31.50090	56133
31.50903	59702
31.51715	60412
31.52527	56780
31.53340	56638
31.54152	56293
31.54965	52814
31.55777	52804
31.56588	57159
31.57402	57058
31.58213	56552
31.59027	56122
31.59838	54194
31.60650	54211
31.61463	52595
31.62275	47780
31.63088	52257
31.63900	49044
31.64712	53885
31.65525	51591
31.66337	58348
31.67148	54138
31.67962	54677
31.68773	58222
31.69587	57255
31.70398	53606
31.71210	55585
31.72023	47336
31.72835	47470
31.73648	47266
31.74460	45817
31.75272	44678
31.76085	51984
31.76897	47783
31.77710	43567
31.78522	51833
31.79333	52538
31.80147	46814
31.80958	47420
31.81770	46469
31.82583	51470
31.83395	47067
31.84208	47297
31.85020	48548
31.85832	48316
31.86645	50871
31.87457	51569
31.88270	57792
31.89082	60158
31.89893	65421
31.90707	66229
31.91518	71847
31.92330	77265
31.93143	79444
31.93955	84921
31.94768	83485
31.95580	89680
31.96392	91829
31.97205	91278
31.98017	96862
31.98830	91504
31.99642	94199
32.00453	90588
32.01267	94124
32.02078	88463
32.02892	87803
32.03703	84851
32.04515	84829
32.05328	84087
32.06140	77748
32.06952	80862
32.07765	72605
32.08577	71606
32.09390	63138
32.10202	61447
32.11013	60838
32.11827	58858
32.12638	62349
32.13452	58327
32.14263	56863
32.15075	56704
32.15888	57676
32.16700	52298
32.17512	54679
32.18325	53211
32.19137	53609
32.19950	55260
32.20762	50916
32.21573	52550
32.22387	54909
32.23198	53996
32.24012	49424
32.24823	50953
32.25635	51633
32.26448	57728
32.27260	51729
32.28073	52028
32.28885	52015
32.29697	47159
32.30510	49440
32.31322	48843
32.32133	50524
32.32947	49128
32.33758	48837
32.34572	50539
32.35383	48929
32.36195	53554
32.37008	48019
32.37820	49813
32.38633	46442
32.39445	50015
32.40257	49495
32.41070	44302
32.41882	42546
32.42695	43949
32.43507	44734
32.44318	44339
32.45132	46939
32.45943	47190
32.46755	46987
32.47568	48789
32.48380	44729
32.49193	43329
32.50005	42947
32.50817	46613
32.51630	46488
32.52442	45232
32.53255	45839
32.54067	43900
32.54878	50131
32.55692	49348
32.56503	44187
32.57315	41560
32.58128	42909
32.58940	43170
32.59753	44257
32.60565	42593
32.61377	46141
32.62190	41873
32.63002	50509
32.63815	57948
32.64627	58545
32.65438	57811
32.66252	58145
32.67063	52714
32.67877	55032
32.68688	48729
32.69500	48452
32.70313	47905
32.71125	48847
32.71937	48174
32.72750	44277
32.73562	46007
32.74375	44873
32.75187	41300
32.75998	43491
32.76812	42674
32.77623	38815
32.78437	40643
32.79248	42847
32.80060	38430
32.80873	42604
32.81685	44016
32.82498	44110
32.83310	42327
32.84122	41491
32.84935	42694
32.85747	41283
32.86558	42498
32.87372	43429
32.88183	44247
32.88997	45369
32.89808	48326
32.90620	47163
32.91433	46626
32.92245	46529
32.93058	47687
32.93870	47336
32.94682	44699
32.95495	43950
32.96307	43400
32.97118	48918
32.97932	49690
32.98743	56343
32.99557	59249
33.00368	64803
33.01180	62255
33.01993	59324
33.02805	61547
33.03618	54228
33.04430	47036
33.05242	50418
33.06055	50887
33.06867	55083
33.07680	59059
33.08492	61990
33.09303	62003
33.10117	65912
33.10928	64397
33.11740	65728
33.12553	64037
33.13365	58865
33.14178	57609
33.14990	50168
33.15802	50090
33.16615	48297
33.17427	49066
33.18240	47607
33.19052	46254
33.19863	46113
33.20677	44839
33.21488	46743
33.22302	49440
33.23113	39640
33.23925	42251
33.24738	42213
33.25550	44286
33.26362	45442
33.27175	43099
33.27987	37433
33.28800	38457
33.29612	38745
33.30423	41626
33.31237	45258
33.32048	45948
33.32862	43821
33.33673	41042
33.34485	43653
33.35298	44580
33.36110	47519
33.36922	49135
33.37735	50334
33.38547	48056
33.39360	46228
33.40172	46571
33.40983	45164
33.41797	43733
33.42608	45791
33.43422	42017
33.44233	41400
33.45045	40967
33.45858	44131
33.46670	39756
33.47483	44807
33.48295	42464
33.49107	42006
33.49920	44344
33.50732	41799
33.51543	44713
33.52357	41172
33.53168	42625
33.53982	46689
33.54793	44105
33.55605	52145
33.56418	50847
33.57230	50167
33.58043	45970
33.58855	43303
33.59667	43781
33.60480	42461
33.61292	42008
33.62103	42808
33.62917	44604
33.63728	43216
33.64542	42217
33.65353	45329
33.66165	44603
33.66978	48166
33.67790	45826
33.68603	44368
33.69415	44840
33.70227	42628
33.71040	43406
33.71852	42064
33.72665	44283
33.73477	40767
33.74288	41700
33.75102	41719
33.75913	38504
33.76725	41669
33.77538	41807
33.78350	41553
33.79163	45524
33.79975	43424
33.80787	40666
33.81600	42590
33.82412	42832
33.83225	40391
33.84037	42026
33.84848	45463
33.85662	46385
33.86473	43188
33.87287	41687
33.88098	46205
33.88910	45220
33.89723	45056
33.90535	45890
33.91347	46285
33.92160	45506
33.92972	42014
33.93785	43733
33.94597	43523
33.95408	41778
33.96222	41359
33.97033	43502
33.97847	39210
33.98658	39479
33.99470	44485
34.00283	40799
34.01095	43777
34.01907	42452
34.02720	45526
34.03532	43861
34.04345	42327
34.05157	44998
34.05968	43512
34.06782	44010
34.07593	43656
34.08407	45886
34.09218	46364
34.10030	42240
34.10843	47458
34.11655	43346
34.12468	45358
34.13280	44759
34.14092	47209
34.14905	44732
34.15717	49598
34.16528	47379
34.17342	47367
34.18153	45311
34.18967	44604
34.19778	44257
34.20590	44388
34.21403	41282
34.22215	42748
34.23028	42784
34.23840	43026
34.24652	45271
34.25465	42538
34.26277	44905
34.27090	42605
34.27902	42685
34.28713	42550
34.29527	41273
34.30338	44360
34.31150	43534
34.31963	44817
34.32775	42457
34.33588	37930
34.34400	42106
34.35212	42571
34.36025	42973
34.36837	39575
34.37650	42935
34.38462	39281
34.39273	47483
34.40087	40187
34.40898	40427
34.41710	43396
34.42523	40923
34.43335	44138
34.44148	41614
34.44960	40972
34.45772	41385
34.46585	41042
34.47397	39903
34.48210	46302
34.49022	43571
34.49833	49682
34.50647	54708
34.51458	66781
34.52272	76831
34.53083	78671
34.53895	85643
34.54708	81323
34.55520	84863
34.56332	82995
34.57145	79904
34.57957	78061
34.58770	71175
34.59582	70552
34.60393	67593
34.61207	68232
34.62018	60616
34.62832	59102
34.63643	56181
34.64455	54986
34.65268	54804
34.66080	55965
34.66892	53642
34.67705	54937
34.68517	51084
34.69330	54369
34.70142	52247
34.70953	53075
34.71767	53329
34.72578	51187
34.73392	49345
34.74203	51252
34.75015	48831
34.75828	46459
34.76640	51097
34.77453	49778
34.78265	46573
34.79077	47415
34.79890	49996
34.80702	48198
34.81513	48645
34.82327	45005
34.83138	50061
34.83952	52826
34.84763	54640
34.85575	51431
34.86388	45175
34.87200	49775
34.88013	50121
34.88825	48116
34.89637	48392
34.90450	50053
34.91262	50500
34.92075	47556
34.92887	52187
34.93698	50058
34.94512	51161
34.95323	52290
34.96135	61568
34.96948	55040
34.97760	55317
34.98573	52383
34.99385	50061
35.00197	49234
35.01010	49959
35.01822	47908
35.02635	49279
35.03447	50410
35.04258	49269
35.05072	47354
35.05883	44553
35.06697	45242
35.07508	42799
35.08320	43662
35.09133	46302
35.09945	41939
35.10757	45796
35.11570	46810
35.12382	45550
35.13195	45643
35.14007	47263
35.14818	48988
35.15632	46880
35.16443	45097
35.17257	46827
35.18068	44629
35.18880	47977
35.19693	41507
35.20505	50002
35.21317	47659
35.22130	50782
35.22942	44314
35.23755	44036
35.24567	47159
35.25378	41620
35.26192	41011
35.27003	43209
35.27817	43762
35.28628	47720
35.29440	42942
35.30253	44353
35.31065	43542
35.31878	44840
35.32690	39357
35.33502	45116
35.34315	46301
35.35127	42543
35.35938	45568
35.36752	47640
35.37563	44166
35.38377	50000
35.39188	48829
35.40000	48309
35.40813	57268
35.41625	56765
35.42438	58626
35.43250	63724
35.44062	63284
35.44875	57681
35.45687	54626
35.46498	53063
35.47312	50299
35.48123	52838
35.48937	51978
35.49748	55409
35.50560	48769
35.51373	48971
35.52185	48480
35.52998	47856
35.53810	47938
35.54622	45189
35.55435	48189
35.56247	49385
35.57060	46407
35.57872	45885
35.58683	48417
35.59497	46494
35.60308	43443
35.61120	45697
35.61933	44347
35.62745	47857
35.63558	48742
35.64370	46721
35.65182	47745
35.65995	48489
35.66807	49155
35.67620	50574
35.68432	49564
35.69243	44632
35.70057	47400
35.70868	49813
35.71682	47007
35.72493	46802
35.73305	49453
35.74118	49312
35.74930	51728
35.75742	51931
35.76555	57177
35.77367	54789
35.78180	56052
35.78992	48985
35.79803	47469
35.80617	47449
35.81428	50682
35.82242	46842
35.83053	48575
35.83865	46754
35.84678	50210
35.85490	43701
35.86302	46501
35.87115	46294
35.87927	48120
35.88740	45832
35.89552	47171
35.90363	44204
35.91177	43171
35.91988	45152
35.92802	41634
35.93613	46673
35.94425	48838
35.95238	50961
35.96050	46112
35.96863	44350
35.97675	48269
35.98487	49173
35.99300	51522
36.00112	49860
36.00923	50743
36.01737	52170
36.02548	49021
36.03362	48018
36.04173	51472
36.04985	50672
36.05798	51477
36.06610	48635
36.07423	47760
36.08235	46745
36.09047	45338
36.09860	45267
36.10672	47597
36.11485	47787
36.12297	45447
36.13108	50952
36.13922	50272
36.14733	51600
36.15545	50310
36.16358	49896
36.17170	48846
36.17983	48037
36.18795	47710
36.19607	50337
36.20420	47373
36.21232	47108
36.22045	49362
36.22857	45413
36.23668	47285
36.24482	45076
36.25293	48727
36.26105	49702
36.26918	52818
36.27730	53821
36.28543	56187
36.29355	63103
36.30167	62123
36.30980	60305
36.31792	56394
36.32605	54529
36.33417	52722
36.34228	47001
36.35042	45540
36.35853	49143
36.36667	45831
36.37478	46890
36.38290	45840
36.39103	48440
36.39915	51728
36.40727	50170
36.41540	50087
36.42352	49748
36.43165	49417
36.43977	50308
36.44788	48089
36.45602	45385
36.46413	48550
36.47227	47994
36.48038	46957
36.48850	50121
36.49663	45525
36.50475	48569
36.51287	48093
36.52100	45373
36.52912	48429
36.53725	47346
36.54537	47724
36.55348	48475
36.56162	46815
36.56973	49085
36.57787	51488
36.58598	52221
36.59410	52623
36.60223	52295
36.61035	50828
36.61848	51626
36.62660	48936
36.63472	47615
36.64285	57749
36.65097	53550
36.65908	54533
36.66722	52566
36.67533	51730
36.68347	55687
36.69158	53156
36.69970	55555
36.70783	52980
36.71595	55275
36.72408	49897
36.73220	53480
36.74032	51521
36.74845	51624
36.75657	52238
36.76470	53134
36.77282	52615
36.78093	55162
36.78907	55169
36.79718	53878
36.80530	52111
36.81343	53513
36.82155	53242
36.82968	52285
36.83780	51635
36.84592	52375
36.85405	52769
36.86217	54242
36.87030	52945
36.87842	51322
36.88653	53300
36.89467	50699
36.90278	50919
36.91090	55306
36.91903	56077
36.92715	58538
36.93528	57909
36.94340	62518
36.95152	64797
36.95965	67587
36.96777	65167
36.97590	70366
36.98402	62789
36.99213	62646
37.00027	56150
37.00838	60010
37.01652	59215
37.02463	57636
37.03275	53499
37.04088	57031
37.04900	56688
37.05712	55115
37.06525	55461
37.07337	56835
37.08150	54837
37.08962	57854
37.09773	56238
37.10587	54441
37.11398	54219
37.12212	52641
37.13023	52273
37.13835	54610
37.14648	51850
37.15460	51943
37.16273	58611
37.17085	52409
37.17897	54295
37.18710	57109
37.19522	54235
37.20333	55454
37.21147	52242
37.21958	56162
37.22772	53580
37.23583	50954
37.24395	50914
37.25208	55492
37.26020	53517
37.26833	52021
37.27645	52398
37.28457	52798
37.29270	54057
37.30082	61737
37.30893	62593
37.31707	71103
37.32518	76081
37.33332	83823
37.34143	85152
37.34955	88652
37.35768	81033
37.36580	81791
37.37393	77266
37.38205	76197
37.39017	72027
37.39830	70274
37.40642	70172
37.41455	69434
37.42267	65236
37.43078	69669
37.43892	63966
37.44703	65555
37.45515	67091
37.46328	66863
37.47140	64159
37.47953	64364
37.48765	62142
