Z:\data\JTB-E02\BACandBLUE\JTB-E02-191-15.D Wed Dec 12 18:13:36 2018
Start of data points
2.09517	74380
2.10330	77404
2.11142	73959
2.11953	75545
2.12767	73512
2.13578	85686
2.14392	84118
2.15203	78448
2.16015	77785
2.16828	79818
2.17640	77474
2.18453	73553
2.19265	71709
2.20077	76043
2.20890	71739
2.21702	71434
2.22513	70571
2.23327	69705
2.24138	67065
2.24952	73035
2.25763	161382
2.26575	548576
2.27388	1044232
2.28200	1191827
2.29013	696400
2.29825	429589
2.30637	335884
2.31450	280252
2.32262	253918
2.33073	238264
2.33887	215298
2.34698	204126
2.35512	191355
2.36323	196761
2.37135	189471
2.37948	191791
2.38760	184845
2.39573	178943
2.40385	174729
2.41197	171688
2.42010	172868
2.42822	167283
2.43635	166907
2.44447	160122
2.45258	159559
2.46072	152784
2.46883	145911
2.47695	148610
2.48508	148926
2.49320	153869
2.50133	154195
2.50945	147276
2.51757	143317
2.52570	142107
2.53382	136724
2.54195	142928
2.55007	155698
2.55818	151855
2.56632	144507
2.57443	138679
2.58257	124212
2.59068	141386
2.59880	238581
2.60693	442955
2.61505	530487
2.62317	385237
2.63130	249387
2.63942	200320
2.64755	170693
2.65567	160643
2.66378	147805
2.67192	140741
2.68003	134323
2.68817	133725
2.69628	125059
2.70440	126050
2.71253	122169
2.72065	113449
2.72877	117050
2.73690	118285
2.74502	114539
2.75315	110656
2.76127	131541
2.76938	360963
2.77752	985762
2.78563	1592661
2.79377	1359811
2.80188	803755
2.81000	577440
2.81813	506297
2.82625	407193
2.83438	324650
2.84250	277700
2.85062	240788
2.85875	216168
2.86687	195037
2.87498	185042
2.88312	174948
2.89123	163467
2.89937	155289
2.90748	141617
2.91560	144687
2.92373	140050
2.93185	138308
2.93998	135506
2.94810	125990
2.95622	138886
2.96435	142084
2.97247	138970
2.98060	134531
2.98872	124900
2.99683	128963
3.00497	126469
3.01308	127781
3.02120	122126
3.02933	116417
3.03745	110909
3.04558	112721
3.05370	114551
3.06182	113724
3.06995	139066
3.07807	313292
3.08620	822444
3.09432	2053550
3.10243	4201613
3.11057	5995945
3.11868	5347699
3.12680	3421720
3.13493	2237435
3.14305	1646264
3.15118	1242516
3.15930	1040104
3.16742	987133
3.17555	1301338
3.18367	2675792
3.19180	4865599
3.19992	5648932
3.20803	4291323
3.21617	2921913
3.22428	2138179
3.23242	1712251
3.24053	1386550
3.24865	1188051
3.25678	993493
3.26490	851904
3.27302	774535
3.28115	747653
3.28927	939372
3.29740	1685828
3.30552	2855596
3.31363	3446590
3.32177	3068003
3.32988	2220307
3.33802	1619063
3.34613	1286278
3.35425	1067033
3.36238	943111
3.37050	806587
3.37862	731102
3.38675	672455
3.39487	622996
3.40300	580843
3.41112	548591
3.41923	529123
3.42737	503318
3.43548	521023
3.44362	519563
3.45173	491519
3.45985	576786
3.46798	736879
3.47610	825755
3.48423	721039
3.49235	556261
3.50047	466769
3.50860	397572
3.51672	383632
3.52483	386000
3.53297	419303
3.54108	466358
3.54922	446536
3.55733	385336
3.56545	339661
3.57358	333913
3.58170	308793
3.58983	284218
3.59795	287401
3.60607	272189
3.61420	284622
3.62232	279086
3.63045	289619
3.63857	290634
3.64668	342851
3.65482	1298889
3.66293	7451507
3.67105	2.211361E+07
3.67918	3.650018E+07
3.68730	4.024929E+07
3.69543	3.307127E+07
3.70355	2.227857E+07
3.71167	1.609218E+07
3.71980	1.254599E+07
3.72792	1.027291E+07
3.73605	8724378
3.74417	7454903
3.75228	6519410
3.76042	5708844
3.76853	5063946
3.77665	4444540
3.78478	4104157
3.79290	3795369
3.80103	3657073
3.80915	3790521
3.81727	4056217
3.82540	3927860
3.83352	3451340
3.84165	2999335
3.84977	2681760
3.85788	2454635
3.86602	2320044
3.87413	2140628
3.88227	2023337
3.89038	1926259
3.89850	1816275
3.90663	1776082
3.91475	1918498
3.92287	2283290
3.93100	2592416
3.93912	2494542
3.94725	2186461
3.95537	2021709
3.96348	2088794
3.97162	2118223
3.97973	1884137
3.98787	1592162
3.99598	1568030
4.00410	1875365
4.01223	2467058
4.02035	2715609
4.02848	2299865
4.03660	1737864
4.04472	1372104
4.05285	1178356
4.06097	1071082
4.06908	989949
4.07722	937810
4.08533	901551
4.09347	873103
4.10158	850151
4.10970	823067
4.11783	789556
4.12595	767295
4.13408	752192
4.14220	752727
4.15032	754234
4.15845	752392
4.16657	763429
4.17468	745106
4.18282	742337
4.19093	709243
4.19907	793216
4.20718	1788113
4.21530	5751555
4.22343	1.373545E+07
4.23155	2.22114E+07
4.23968	2.832599E+07
4.24780	3.291263E+07
4.25592	3.532965E+07
4.26405	3.313892E+07
4.27217	2.204854E+07
4.28030	1.189394E+07
4.28842	8281099
4.29653	6464044
4.30467	5286609
4.31278	4442123
4.32090	3774424
4.32903	3269340
4.33715	2842347
4.34528	2522693
4.35340	2298507
4.36152	2204676
4.36965	2137923
4.37777	2014463
4.38590	1805722
4.39402	1595183
4.40213	1424991
4.41027	1319182
4.41838	1206051
4.42650	1169472
4.43463	1076647
4.44275	1015481
4.45088	959829
4.45900	921362
4.46712	879676
4.47525	844129
4.48337	817529
4.49150	797573
4.49962	757725
4.50773	742236
4.51587	706673
4.52398	693863
4.53212	689572
4.54023	679210
4.54835	700851
4.55648	679675
4.56460	666878
4.57272	623271
4.58085	594223
4.58897	572739
4.59710	547712
4.60522	546964
4.61333	556321
4.62147	638868
4.62958	917048
4.63772	1413038
4.64583	1823977
4.65395	1784840
4.66208	1429726
4.67020	1104172
4.67833	862242
4.68645	758201
4.69457	673423
4.70270	618484
4.71082	566321
4.71893	525860
4.72707	492344
4.73518	491985
4.74332	475081
4.75143	459143
4.75955	448339
4.76768	428902
4.77580	423788
4.78393	432287
4.79205	492803
4.80017	608708
4.80830	760114
4.81642	799462
4.82455	704337
4.83267	637520
4.84078	626754
4.84892	705730
4.85703	736103
4.86515	698904
4.87328	599728
4.88140	532108
4.88953	479061
4.89765	451017
4.90577	433106
4.91390	421377
4.92202	403013
4.93015	410256
4.93827	439332
4.94638	616034
4.95452	1045514
4.96263	1606741
4.97075	1998539
4.97888	1988370
4.98700	1642754
4.99513	1250143
5.00325	1007591
5.01137	834783
5.01950	821605
5.02762	983062
5.03575	1361502
5.04387	1801840
5.05198	1903887
5.06012	1693012
5.06823	1367019
5.07637	1130242
5.08448	977200
5.09260	885358
5.10073	811974
5.10885	751468
5.11697	705713
5.12510	651289
5.13322	615554
5.14135	603089
5.14947	657058
5.15758	779779
5.16572	959530
5.17383	1087247
5.18197	1034277
5.19008	899924
5.19820	840760
5.20633	868419
5.21445	931001
5.22257	887599
5.23070	794286
5.23882	755996
5.24695	667561
5.25507	596828
5.26318	527043
5.27132	478418
5.27943	424919
5.28757	418556
5.29568	386783
5.30380	391437
5.31193	391186
5.32005	379163
5.32818	367637
5.33630	394847
5.34442	397970
5.35255	401585
5.36067	381692
5.36878	361476
5.37692	348469
5.38503	356177
5.39317	350827
5.40128	385087
5.40940	386624
5.41753	378548
5.42565	354829
5.43378	339724
5.44190	340083
5.45002	363820
5.45815	403484
5.46627	398454
5.47440	394974
5.48252	361155
5.49063	331624
5.49877	305291
5.50688	306875
5.51500	303087
5.52313	314437
5.53125	311502
5.53938	321922
5.54750	313057
5.55562	362779
5.56375	487918
5.57187	679327
5.58000	796680
5.58812	777960
5.59623	641911
5.60437	510091
5.61248	395635
5.62060	356621
5.62873	321424
5.63685	319405
5.64498	308486
5.65310	304997
5.66122	298768
5.66935	288417
5.67747	304762
5.68560	347054
5.69372	412301
5.70183	448259
5.70997	459070
5.71808	421904
5.72622	362501
5.73433	315996
5.74245	291952
5.75058	280730
5.75870	276559
5.76682	257296
5.77495	260636
5.78307	250884
5.79120	240537
5.79932	244006
5.80743	238807
5.81557	243666
5.82368	237499
5.83182	241886
5.83993	242645
5.84805	235079
5.85618	234811
5.86430	237937
5.87243	224331
5.88055	227214
5.88867	217509
5.89680	226691
5.90492	235890
5.91303	226661
5.92117	231250
5.92928	229545
5.93742	240519
5.94553	255902
5.95365	284351
5.96178	373627
5.96990	493137
5.97803	644997
5.98615	857680
5.99427	1014978
6.00240	1073849
6.01052	1038729
6.01863	850031
6.02677	642597
6.03488	475644
6.04302	373595
6.05113	309900
6.05925	280783
6.06738	256791
6.07550	252161
6.08363	236813
6.09175	230695
6.09987	225264
6.10800	213853
6.11612	220886
6.12425	296855
6.13237	535374
6.14048	987862
6.14862	1502372
6.15673	1669307
6.16485	1415139
6.17298	1025392
6.18110	740231
6.18923	565246
6.19735	491038
6.20547	420568
6.21360	379659
6.22172	341110
6.22985	332667
6.23797	323932
6.24608	313123
6.25422	328763
6.26233	337809
6.27045	337852
6.27858	336637
6.28670	313836
6.29483	288724
6.30295	279053
6.31107	275336
6.31920	279625
6.32732	278053
6.33545	276197
6.34357	291077
6.35168	280116
6.35982	284645
6.36793	271266
6.37607	262856
6.38418	260493
6.39230	269389
6.40043	265849
6.40855	254540
6.41667	248768
6.42480	247786
6.43292	253089
6.44105	243753
6.44917	254922
6.45728	263561
6.46542	263277
6.47353	262476
6.48167	262389
6.48978	264151
6.49790	262535
6.50603	263664
6.51415	264882
6.52228	267428
6.53040	263813
6.53852	267493
6.54665	271490
6.55477	281703
6.56288	303464
6.57102	361732
6.57913	491702
6.58727	593033
6.59538	612442
6.60350	511372
6.61163	421549
6.61975	337417
6.62788	268805
6.63600	245570
6.64412	218512
6.65225	212796
6.66037	199704
6.66848	205254
6.67662	197096
6.68473	189852
6.69287	184816
6.70098	171082
6.70910	173968
6.71723	165177
6.72535	162543
6.73348	162522
6.74160	160854
6.74972	164758
6.75785	161438
6.76597	154039
6.77410	157194
6.78222	153909
6.79033	154626
6.79847	157044
6.80658	152855
6.81470	145017
6.82283	141249
6.83095	143708
6.83908	143781
6.84720	145728
6.85532	153729
6.86345	161110
6.87157	187302
6.87970	210587
6.88782	210844
6.89593	190239
6.90407	171739
6.91218	142714
6.92032	136836
6.92843	123703
6.93655	120904
6.94468	120322
6.95280	116375
6.96092	115710
6.96905	120066
6.97717	136731
6.98530	156391
6.99342	160266
7.00153	157401
7.00967	147400
7.01778	145195
7.02592	140577
7.03403	144205
7.04215	134449
7.05028	120555
7.05840	123518
7.06652	127054
7.07465	144500
7.08277	165349
7.09090	185707
7.09902	202242
7.10713	177558
7.11527	158645
7.12338	142309
7.13152	125468
7.13963	125709
7.14775	144098
7.15588	177002
7.16400	233498
7.17213	370244
7.18025	854354
7.18837	2280654
7.19650	5029078
7.20462	8539224
7.21273	1.058314E+07
7.22087	9883596
7.22898	6794875
7.23712	3390090
7.24523	1336869
7.25335	498565
7.26148	267660
7.26960	189472
7.27773	174082
7.28585	173155
7.29397	166899
7.30210	167182
7.31022	164540
7.31835	161089
7.32647	166212
7.33458	177877
7.34272	211376
7.35083	253200
7.35895	296997
7.36708	311341
7.37520	283728
7.38333	242926
7.39145	201017
7.39957	176079
7.40770	147620
7.41582	137248
7.42395	143503
7.43207	133675
7.44018	136138
7.44832	127265
7.45643	121979
7.46455	121014
7.47268	136803
7.48080	131218
7.48893	124272
7.49705	119571
7.50517	123721
7.51330	119767
7.52142	112527
7.52955	117806
7.53767	146786
7.54578	226714
7.55392	403744
7.56203	790475
7.57017	1390362
7.57828	2096460
7.58640	2642062
7.59453	2816082
7.60265	2499802
7.61077	1886645
7.61890	1301699
7.62702	828399
7.63515	547483
7.64327	376452
7.65138	277015
7.65952	226472
7.66763	190113
7.67577	160770
7.68388	138597
7.69200	127529
7.70013	124281
7.70825	122256
7.71637	141752
7.72450	169983
7.73262	199156
7.74075	216364
7.74887	213478
7.75698	206727
7.76512	196849
7.77323	190457
7.78137	171996
7.78948	159274
7.79760	160148
7.80573	171027
7.81385	190276
7.82198	217176
7.83010	220119
7.83822	209753
7.84635	180142
7.85447	155199
7.86258	139352
7.87072	131820
7.87883	142928
7.88697	158420
7.89508	192206
7.90320	217003
7.91133	245110
7.91945	233305
7.92758	210119
7.93570	188668
7.94382	194580
7.95195	226310
7.96007	252711
7.96820	258701
7.97632	253246
7.98443	220470
7.99257	173792
8.00068	149913
8.00880	129066
8.01693	115964
8.02505	106204
8.03318	104852
8.04130	111810
8.04942	101312
8.05755	100622
8.06567	99618
8.07380	95060
8.08192	91593
8.09003	93154
8.09817	98181
8.10628	87708
8.11440	91752
8.12253	91411
8.13065	105679
8.13878	138370
8.14690	212107
8.15502	292937
8.16315	351092
8.17127	333527
8.17940	276250
8.18752	213715
8.19563	162995
8.20377	130122
8.21188	117495
8.22002	112313
8.22813	102086
8.23625	94535
8.24438	92928
8.25250	96527
8.26062	85374
8.26875	86533
8.27687	84817
8.28500	82830
8.29312	87323
8.30123	83202
8.30937	77677
8.31748	87927
8.32562	83636
8.33373	92791
8.34185	97805
8.34998	101095
8.35810	95484
8.36623	90960
8.37435	80574
8.38247	80283
8.39060	74527
8.39872	78335
8.40683	75832
8.41497	73750
8.42308	68986
8.43122	73148
8.43933	74367
8.44745	77183
8.45558	68635
8.46370	75333
8.47183	75846
8.47995	69122
8.48807	69521
8.49620	69024
8.50432	73186
8.51243	91555
8.52057	126249
8.52868	202980
8.53682	291511
8.54493	317889
8.55305	266512
8.56118	192580
8.56930	132002
8.57743	94139
8.58555	81601
8.59367	80752
8.60180	80142
8.60992	89528
8.61805	105431
8.62617	135073
8.63428	160203
8.64242	169983
8.65053	170264
8.65865	154680
8.66678	127595
8.67490	110723
8.68303	90822
8.69115	84985
8.69927	73608
8.70740	76213
8.71552	69308
8.72365	71443
8.73177	72606
8.73988	71905
8.74802	75349
8.75613	73129
8.76425	82656
8.77238	86824
8.78050	129769
8.78863	217729
8.79675	377119
8.80487	542184
8.81300	656729
8.82112	604849
8.82925	511225
8.83737	386808
8.84548	301553
8.85362	259423
8.86173	226824
8.86987	213771
8.87798	193159
8.88610	181197
8.89423	173321
8.90235	166070
8.91047	167894
8.91860	191057
8.92672	249123
8.93485	350939
8.94297	436788
8.95108	433561
8.95922	374173
8.96733	269139
8.97547	219480
8.98358	195867
8.99170	219270
8.99983	237560
9.00795	230375
9.01608	212591
9.02420	183211
9.03232	157114
9.04045	133232
9.04857	135791
9.05668	127514
9.06482	127045
9.07293	119574
9.08107	121037
9.08918	116731
9.09730	122234
9.10543	150269
9.11355	173777
9.12168	226427
9.12980	253481
9.13792	268159
9.14605	249723
9.15417	211788
9.16230	167947
9.17042	150408
9.17853	137804
9.18667	131659
9.19478	129971
9.20290	122826
9.21103	118240
9.21915	119656
9.22728	115578
9.23540	124556
9.24352	127489
9.25165	122969
9.25977	111848
9.26790	112506
9.27602	107204
9.28413	102478
9.29227	105517
9.30038	103843
9.30850	107620
9.31663	98619
9.32475	99900
9.33288	103743
9.34100	100577
9.34912	92074
9.35725	94041
9.36537	92961
9.37350	89822
9.38162	92064
9.38973	94768
9.39787	96611
9.40598	113867
9.41412	123229
9.42223	145281
9.43035	178348
9.43848	222242
9.44660	262968
9.45472	303144
9.46285	312418
9.47097	284375
9.47910	235051
9.48722	193432
9.49533	148046
9.50347	121770
9.51158	128454
9.51972	135062
9.52783	141975
9.53595	154909
9.54408	162245
9.55220	155938
9.56032	142133
9.56845	124754
9.57657	107096
9.58470	99927
9.59282	88502
9.60093	83225
9.60907	86053
9.61718	79216
9.62532	80141
9.63343	73372
9.64155	75149
9.64968	76126
9.65780	72382
9.66593	68893
9.67405	72152
9.68217	69431
9.69030	71159
9.69842	70113
9.70653	71021
9.71467	79612
9.72278	83060
9.73092	78285
9.73903	83184
9.74715	79836
9.75528	73827
9.76340	67504
9.77153	66334
9.77965	67110
9.78777	64720
9.79590	63575
9.80402	64991
9.81215	65104
9.82027	59982
9.82838	61089
9.83652	63648
9.84463	64261
9.85275	63393
9.86088	73253
9.86900	67966
9.87713	64877
9.88525	62351
9.89337	58686
9.90150	56934
9.90962	63682
9.91775	60690
9.92587	64230
9.93398	71672
9.94212	89753
9.95023	130758
9.95835	197119
9.96648	305435
9.97460	426547
9.98273	494213
9.99085	460334
9.99897	380042
10.00710	264682
10.01522	182065
10.02335	132248
10.03147	115461
10.03958	116395
10.04772	122691
10.05583	127171
10.06397	130498
10.07208	135310
10.08020	126628
10.08833	127743
10.09645	114567
10.10457	106497
10.11270	107350
10.12082	100057
10.12895	96914
10.13707	95916
10.14518	98485
10.15332	86113
10.16143	93579
10.16957	94869
10.17768	92920
10.18580	84400
10.19393	85819
10.20205	82406
10.21018	79032
10.21830	77852
10.22642	82763
10.23455	80340
10.24267	85939
10.25078	104322
10.25892	166125
10.26703	391771
10.27517	1035112
10.28328	2417772
10.29140	4690951
10.29953	7455407
10.30765	1.065693E+07
10.31578	1.401662E+07
10.32390	1.838503E+07
10.33202	2.428744E+07
10.34015	3.161616E+07
10.34827	4.016974E+07
10.35638	4.673014E+07
10.36452	4.772609E+07
10.37263	3.835958E+07
10.38077	2.049712E+07
10.38888	8690403
10.39700	4336154
10.40513	2919806
10.41325	2153339
10.42138	1581307
10.42950	1257654
10.43762	1058324
10.44575	951924
10.45387	899778
10.46200	840709
10.47012	808842
10.47823	736534
10.48637	674145
10.49448	593140
10.50260	538280
10.51073	482079
10.51885	442545
10.52698	422915
10.53510	414127
10.54322	402199
10.55135	397277
10.55947	386610
10.56760	384976
10.57572	374582
10.58383	365307
10.59197	360254
10.60008	342774
10.60820	334319
10.61633	304913
10.62445	283231
10.63258	281737
10.64070	262173
10.64882	252039
10.65695	245437
10.66507	235092
10.67320	229084
10.68132	231225
10.68943	222231
10.69757	225178
10.70568	225135
10.71382	222844
10.72193	227296
10.73005	225999
10.73818	225175
10.74630	222720
10.75442	207770
10.76255	211797
10.77067	207559
10.77880	195988
10.78692	195700
10.79503	184790
10.80317	184678
10.81128	176775
10.81942	175435
10.82753	189296
10.83565	189939
10.84378	178513
10.85190	179707
10.86003	161159
10.86815	153713
10.87627	145450
10.88440	142671
10.89252	144610
10.90063	136874
10.90877	140098
10.91688	146825
10.92502	136515
10.93313	141115
10.94125	141331
10.94938	139014
10.95750	124401
10.96563	131935
10.97375	129268
10.98187	129391
10.99000	121843
10.99812	129996
11.00623	125767
11.01437	129361
11.02248	137497
11.03062	132848
11.03873	132815
11.04685	131734
11.05498	125673
11.06310	124985
11.07123	123715
11.07935	129886
11.08747	141888
11.09560	141485
11.10372	148441
11.11185	148849
11.11997	143468
11.12808	133643
11.13622	119598
11.14433	110921
11.15245	103057
11.16058	96596
11.16870	99115
11.17683	93148
11.18495	98986
11.19307	93135
11.20120	85310
11.20932	84930
11.21745	83341
11.22557	85500
11.23368	75644
11.24182	75350
11.24993	75030
11.25807	74668
11.26618	68485
11.27430	68951
11.28243	67271
11.29055	73031
11.29867	69907
11.30680	79082
11.31492	114624
11.32305	189485
11.33117	379108
11.33928	727243
11.34742	1172787
11.35553	1586939
11.36367	1810947
11.37178	1735255
11.37990	1445372
11.38803	1113376
11.39615	807731
11.40427	619618
11.41240	516463
11.42052	426817
11.42865	353619
11.43677	291352
11.44488	250224
11.45302	209300
11.46113	197159
11.46927	178095
11.47738	160575
11.48550	157869
11.49363	181037
11.50175	222176
11.50988	303324
11.51800	364102
11.52612	417087
11.53425	414011
11.54237	396983
11.55048	368086
11.55862	309334
11.56673	258841
11.57487	242224
11.58298	221709
11.59110	225922
11.59923	263684
11.60735	371169
11.61548	559797
11.62360	701737
11.63172	771631
11.63985	722134
11.64797	566642
11.65610	406905
11.66422	281405
11.67233	206993
11.68047	162570
11.68858	141117
11.69670	135694
11.70483	131873
11.71295	127813
11.72108	132110
11.72920	136233
11.73732	138096
11.74545	132512
11.75357	126912
11.76170	110238
11.76982	95655
11.77793	89315
11.78607	90591
11.79418	82751
11.80230	85848
11.81043	87313
11.81855	75252
11.82668	76007
11.83480	77178
11.84292	76766
11.85105	79198
11.85917	75917
11.86730	77371
11.87542	67923
11.88353	72681
11.89167	70529
11.89978	72458
11.90792	71913
11.91603	71879
11.92415	73552
11.93228	84538
11.94040	88124
11.94852	89802
11.95665	83575
11.96477	72135
11.97290	71248
11.98102	73261
11.98913	68344
11.99727	62362
12.00538	66048
12.01352	62775
12.02163	61878
12.02975	61195
12.03788	61911
12.04600	62166
12.05412	64688
12.06225	65354
12.07037	66519
12.07850	71677
12.08662	75656
12.09473	78477
12.10287	83854
12.11098	81631
12.11912	106291
12.12723	158043
12.13535	233323
12.14348	333496
12.15160	394736
12.15973	411121
12.16785	374559
12.17597	291981
12.18410	235922
12.19222	185022
12.20033	156685
12.20847	142372
12.21658	141525
12.22472	133570
12.23283	123216
12.24095	122248
12.24908	113877
12.25720	105357
12.26533	105616
12.27345	105619
12.28157	103574
12.28970	106436
12.29782	94277
12.30595	88178
12.31407	90399
12.32218	91336
12.33032	88528
12.33843	83288
12.34655	89830
12.35468	89672
12.36280	94519
12.37093	95460
12.37905	103361
12.38717	107393
12.39530	110407
12.40342	125260
12.41155	162938
12.41967	231693
12.42778	320423
12.43592	386716
12.44403	396576
12.45215	354542
12.46028	264104
12.46840	202817
12.47653	168951
12.48465	135208
12.49277	119677
12.50090	110325
12.50902	99342
12.51715	102450
12.52527	96365
12.53338	108486
12.54152	123332
12.54963	170943
12.55777	237719
12.56588	286489
12.57400	323083
12.58213	299345
12.59025	250931
12.59837	195287
12.60650	158637
12.61462	121834
12.62275	107145
12.63087	99008
12.63898	97888
12.64712	96438
12.65523	87722
12.66337	86821
12.67148	92423
12.67960	95723
12.68773	86252
12.69585	89146
12.70398	83784
12.71210	78497
12.72022	73472
12.72835	73651
12.73647	85193
12.74458	83726
12.75272	91827
12.76083	89879
12.76897	84580
12.77708	77596
12.78520	80930
12.79333	75527
12.80145	72902
12.80958	66575
12.81770	68647
12.82582	60750
12.83395	59697
12.84207	58413
12.85018	57826
12.85832	54845
12.86643	53510
12.87457	48470
12.88268	51768
12.89080	52064
12.89893	48887
12.90705	52128
12.91518	54549
12.92330	55567
12.93142	51386
12.93955	50463
12.94767	53233
12.95580	52908
12.96392	55046
12.97203	64914
12.98017	69648
12.98828	75233
12.99640	82379
13.00453	78252
13.01265	74434
13.02078	66533
13.02890	63485
13.03702	58149
13.04515	52789
13.05327	53118
13.06140	58007
13.06952	56548
13.07763	58189
13.08577	65153
13.09388	65043
13.10200	74094
13.11013	66587
13.11825	58839
13.12638	60773
13.13450	59112
13.14262	58344
13.15075	59031
13.15887	59887
13.16700	63415
13.17512	60532
13.18323	60032
13.19137	68465
13.19948	68073
13.20762	64192
13.21573	65400
13.22385	61870
13.23198	69003
13.24010	71714
13.24822	78261
13.25635	89129
13.26447	79683
13.27260	86568
13.28072	84030
13.28883	78694
13.29697	75945
13.30508	66707
13.31322	56680
13.32133	56973
13.32945	55201
13.33758	59799
13.34570	53012
13.35383	53733
13.36195	50810
13.37007	54939
13.37820	53546
13.38632	51042
13.39443	53890
13.40257	51610
13.41068	51524
13.41882	50810
13.42693	48755
13.43505	51408
13.44318	55619
13.45130	49517
13.45943	54253
13.46755	50957
13.47567	51527
13.48380	54062
13.49192	53651
13.50003	54945
13.50817	56268
13.51628	61703
13.52442	75305
13.53253	72589
13.54065	76312
13.54878	76988
13.55690	73103
13.56503	64344
13.57315	56350
13.58127	60912
13.58940	60101
13.59752	71731
13.60565	82597
13.61377	102501
13.62188	122014
13.63002	144997
13.63813	150437
13.64625	133643
13.65438	110409
13.66250	91740
13.67063	73372
13.67875	58513
13.68687	56568
13.69500	52049
13.70312	50996
13.71125	47892
13.71937	44535
13.72748	50533
13.73562	50276
13.74373	48708
13.75187	55857
13.75998	74490
13.76810	104344
13.77623	156329
13.78435	217707
13.79247	301377
13.80060	408905
13.80872	516241
13.81685	597173
13.82497	646438
13.83308	727769
13.84122	819726
13.84933	947727
13.85747	1001965
13.86558	935367
13.87370	801374
13.88183	617926
13.88995	444574
13.89807	330076
13.90620	240148
13.91432	198634
13.92245	146760
13.93057	125704
13.93868	120225
13.94682	101930
13.95493	95375
13.96307	86293
13.97118	85230
13.97930	73070
13.98743	77666
13.99555	74427
14.00368	85319
14.01180	89293
14.01992	87378
14.02805	93840
14.03617	88312
14.04428	78555
14.05242	71015
14.06053	67425
14.06867	65237
14.07678	62801
14.08490	70015
14.09303	63134
14.10115	64977
14.10928	62616
14.11740	61905
14.12552	59350
14.13365	58139
14.14177	60216
14.14988	60969
14.15802	63355
14.16613	66023
14.17427	65379
14.18238	71079
14.19050	79310
14.19863	78124
14.20675	91697
14.21488	104592
14.22300	133006
14.23112	159834
14.23925	181594
14.24737	199720
14.25550	219034
14.26362	223912
14.27173	230926
14.27987	220688
14.28798	200724
14.29610	170765
14.30423	152563
14.31235	135961
14.32048	111579
14.32860	107467
14.33672	101218
14.34485	105735
14.35297	98988
14.36110	98254
14.36922	95687
14.37733	94706
14.38547	90008
14.39358	90414
14.40172	90662
14.40983	105449
14.41795	152678
14.42608	198966
14.43420	245145
14.44232	266104
14.45045	252635
14.45857	208857
14.46670	165386
14.47482	129420
14.48293	117876
14.49107	111382
14.49918	109485
14.50732	109919
14.51543	102542
14.52355	94211
14.53168	85217
14.53980	80495
14.54793	74253
14.55605	76018
14.56417	73718
14.57230	65006
14.58042	67691
14.58853	60073
14.59667	65055
14.60478	60370
14.61292	59719
14.62103	58882
14.62915	56983
14.63728	55254
14.64540	53691
14.65353	52081
14.66165	53669
14.66977	52676
14.67790	51916
14.68602	48905
14.69413	55255
14.70227	53939
14.71038	52267
14.71852	49824
14.72663	51529
14.73475	55683
14.74288	55408
14.75100	55198
14.75913	57129
14.76725	60783
14.77537	62513
14.78350	67995
14.79162	87544
14.79975	183178
14.80787	541886
14.81598	1577179
14.82412	3855509
14.83223	7669458
14.84035	1.275147E+07
14.84848	1.794934E+07
14.85660	2.18633E+07
14.86473	2.165911E+07
14.87285	1.71544E+07
14.88097	1.068956E+07
14.88910	6023364
14.89722	3349500
14.90535	2215405
14.91347	1651353
14.92158	1354052
14.92972	1181323
14.93783	1052645
14.94595	939943
14.95408	862042
14.96220	804734
14.97033	733602
14.97845	675335
14.98657	646379
14.99470	589088
15.00282	557018
15.01095	544999
15.01907	509899
15.02718	484900
15.03532	454716
15.04343	429949
15.05157	414365
15.05968	381392
15.06780	369247
15.07593	357435
15.08405	340652
15.09217	325252
15.10030	307341
15.10842	300953
15.11655	306881
15.12467	290546
15.13278	308947
15.14092	350648
15.14903	396889
15.15717	451763
15.16528	473368
15.17340	425081
15.18153	341441
15.18965	261221
15.19778	189849
15.20590	153348
15.21402	132128
15.22215	117048
15.23027	118148
15.23838	105254
15.24652	101574
15.25463	102371
15.26277	91268
15.27088	91033
15.27900	96045
15.28713	86672
15.29525	81834
15.30338	83716
15.31150	85040
15.31962	80686
15.32775	73513
15.33587	72333
15.34398	78830
15.35212	77914
15.36023	73293
15.36837	77736
15.37648	75743
15.38460	85908
15.39273	87865
15.40085	89299
15.40898	89554
15.41710	87668
15.42522	74373
15.43335	75402
15.44147	72923
15.44960	70046
15.45772	72284
15.46583	70706
15.47397	72206
15.48208	91658
15.49020	127412
15.49833	175202
15.50645	237335
15.51458	301337
15.52270	339727
15.53082	364427
15.53895	335144
15.54707	272567
15.55520	228806
15.56332	177996
15.57143	143592
15.57957	109422
15.58768	103653
15.59582	89827
15.60393	81225
15.61205	81618
15.62018	76684
15.62830	76516
15.63642	74286
15.64455	72430
15.65267	69949
15.66080	77873
15.66892	75531
15.67703	76156
15.68517	66563
15.69328	64595
15.70142	62935
15.70953	60823
15.71765	57738
15.72578	57466
15.73390	61155
15.74202	54377
15.75015	63429
15.75827	89247
15.76640	152797
15.77452	335472
15.78263	669595
15.79077	1213135
15.79888	1779103
15.80702	2051276
15.81513	1917132
15.82325	1483541
15.83138	1012552
15.83950	620717
15.84763	377879
15.85575	286443
15.86387	227360
15.87200	187500
15.88012	179015
15.88823	168588
15.89637	159228
15.90448	140531
15.91262	138102
15.92073	133433
15.92885	130518
15.93698	115637
15.94510	118805
15.95323	114919
15.96135	111429
15.96947	105201
15.97760	99335
15.98572	97609
15.99383	89847
16.00197	98633
16.01008	100397
16.01822	104124
16.02633	108567
16.03445	122642
16.04258	126166
16.05070	126701
16.05883	117808
16.06695	110065
16.07507	95390
16.08320	88737
16.09132	78380
16.09945	76286
16.10757	67042
16.11568	67334
16.12382	71109
16.13193	81549
16.14005	86871
16.14818	101149
16.15630	109685
16.16443	126767
16.17255	124149
16.18067	125686
16.18880	116442
16.19692	98208
16.20505	87558
16.21317	82634
16.22128	89630
16.22942	88546
16.23753	95166
16.24567	91786
16.25378	88528
16.26190	79965
16.27003	74431
16.27815	72564
16.28627	66255
16.29440	75760
16.30252	80349
16.31065	98666
16.31877	106089
16.32688	111748
16.33502	105766
16.34313	94104
16.35127	88860
16.35938	87797
16.36750	85378
16.37563	78676
16.38375	79092
16.39187	75127
16.40000	70404
16.40812	72076
16.41625	69299
16.42437	65906
16.43248	68404
16.44062	77701
16.44873	100560
16.45687	198886
16.46498	483516
16.47310	1208480
16.48123	2487797
16.48935	4149399
16.49748	5521926
16.50560	5837969
16.51372	5124034
16.52185	3690084
16.52997	2284251
16.53808	1317229
16.54622	784935
16.55433	543967
16.56247	422078
16.57058	361812
16.57870	342941
16.58683	301588
16.59495	283079
16.60308	269199
16.61120	242960
16.61932	232448
16.62745	219482
16.63557	191923
16.64370	186097
16.65182	170454
16.65993	162601
16.66807	165450
16.67618	156893
16.68430	147914
16.69243	145583
16.70055	136662
16.70868	124103
16.71680	126534
16.72492	115521
16.73305	103171
16.74117	96719
16.74930	94636
16.75742	110511
16.76553	129637
16.77367	155187
16.78178	178254
16.78990	183939
16.79803	165400
16.80615	137370
16.81428	104486
16.82240	86209
16.83052	73276
16.83865	70740
16.84677	68902
16.85490	65772
16.86302	65654
16.87113	63335
16.87927	62339
16.88738	66237
16.89552	66657
16.90363	60113
16.91175	61829
16.91988	61815
16.92800	59479
16.93612	56755
16.94425	60321
16.95237	60964
16.96050	59022
16.96862	57123
16.97673	67343
16.98487	64213
16.99298	61240
17.00112	66842
17.00923	65402
17.01735	66157
17.02548	65500
17.03360	66495
17.04172	74736
17.04985	95525
17.05797	119544
17.06610	142890
17.07422	172029
17.08233	164213
17.09047	151559
17.09858	123039
17.10672	98808
17.11483	92163
17.12295	80514
17.13108	86404
17.13920	87675
17.14733	86260
17.15545	83850
17.16357	91261
17.17170	84599
17.17982	86922
17.18793	77972
17.19607	71137
17.20418	71044
17.21232	63750
17.22043	61299
17.22855	61324
17.23668	55762
17.24480	56391
17.25293	59804
17.26105	65430
17.26917	63991
17.27730	66703
17.28542	65808
17.29355	61494
17.30167	59702
17.30978	61453
17.31792	64827
17.32603	80123
17.33415	101491
17.34228	148051
17.35040	191324
17.35853	226266
17.36665	237102
17.37477	240334
17.38290	222198
17.39102	195108
17.39915	162799
17.40727	145530
17.41538	141303
17.42352	134583
17.43163	135546
17.43975	130398
17.44788	132400
17.45600	131181
17.46413	127900
17.47225	115874
17.48037	111002
17.48850	98468
17.49662	95817
17.50475	92038
17.51287	87458
17.52098	87853
17.52912	87702
17.53723	86013
17.54537	85877
17.55348	92463
17.56160	98003
17.56973	131515
17.57785	252742
17.58597	559725
17.59410	1238247
17.60222	2410885
17.61035	3825121
17.61847	5018924
17.62658	5493995
17.63472	5077252
17.64283	4024010
17.65097	2840681
17.65908	1765743
17.66720	1069672
17.67533	663046
17.68345	446480
17.69158	341673
17.69970	272447
17.70782	244413
17.71595	217477
17.72407	194096
17.73218	184512
17.74032	168970
17.74843	152196
17.75657	139350
17.76468	123750
17.77280	118687
17.78093	107258
17.78905	104504
17.79718	96318
17.80530	92804
17.81342	88153
17.82155	89470
17.82967	95103
17.83778	92864
17.84592	99051
17.85403	115878
17.86217	134330
17.87028	167946
17.87840	209269
17.88653	227539
17.89465	215166
17.90278	184632
17.91090	145127
17.91902	112275
17.92715	92402
17.93527	80166
17.94340	82535
17.95152	73742
17.95963	69988
17.96777	69459
17.97588	66493
17.98400	63673
17.99213	64896
18.00025	67336
18.00838	66230
18.01650	74683
18.02462	98862
18.03275	140057
18.04087	209362
18.04900	286985
18.05712	379932
18.06523	548919
18.07337	969290
18.08148	2036345
18.08962	4036136
18.09773	6880912
18.10585	9503589
18.11398	1.063468E+07
18.12210	1.043185E+07
18.13022	8559740
18.13835	6431556
18.14647	4510632
18.15460	3364128
18.16272	2637388
18.17083	2190288
18.17897	1848836
18.18708	1632221
18.19522	1409084
18.20333	1246066
18.21145	1113126
18.21958	1047958
18.22770	972360
18.23582	888771
18.24395	801138
18.25207	782029
18.26020	718672
18.26832	651413
18.27643	616383
18.28457	548597
18.29268	450274
18.30082	370024
18.30893	286087
18.31705	218547
18.32518	180743
18.33330	154945
18.34143	142929
18.34955	130336
18.35767	131610
18.36580	122186
18.37392	124223
18.38203	107948
18.39017	103790
18.39828	110266
18.40642	110184
18.41453	112578
18.42265	118016
18.43078	126563
18.43890	134226
18.44703	164691
18.45515	225582
18.46327	335516
18.47140	564060
18.47952	959176
18.48763	1446881
18.49577	1837513
18.50388	1986448
18.51202	1809712
18.52013	1430224
18.52825	997057
18.53638	625156
18.54450	383904
18.55263	254854
18.56075	194047
18.56887	145998
18.57700	132073
18.58512	117975
18.59325	107328
18.60137	100408
18.60948	105116
18.61762	109037
18.62573	111118
18.63385	117542
18.64198	115494
18.65010	110465
18.65823	105825
18.66635	99002
18.67447	93601
18.68260	82163
18.69072	81006
18.69885	70123
18.70697	69394
18.71508	68822
18.72322	64366
18.73133	68234
18.73947	65668
18.74758	65514
18.75570	62378
18.76383	62674
18.77195	63832
18.78007	66221
18.78820	58236
18.79632	60815
18.80445	57732
18.81257	63125
18.82068	62212
18.82882	71676
18.83693	63416
18.84507	64756
18.85318	64420
18.86130	65224
18.86943	61133
18.87755	77083
18.88567	66203
18.89380	72084
18.90192	69038
18.91005	74011
18.91817	69346
18.92628	75538
18.93442	82302
18.94253	94495
18.95067	106697
18.95878	114428
18.96690	124123
18.97503	128694
18.98315	126638
18.99128	126850
18.99940	114762
19.00752	97423
19.01565	86242
19.02377	84016
19.03188	74780
19.04002	66005
19.04813	65464
19.05627	62874
19.06438	61697
19.07250	67315
19.08063	67461
19.08875	83765
19.09688	126314
19.10500	178991
19.11312	257796
19.12125	315267
19.12937	332132
19.13750	305915
19.14562	250057
19.15373	193450
19.16187	135842
19.16998	97146
19.17810	91739
19.18623	78139
19.19435	74162
19.20248	68835
19.21060	65300
19.21872	61873
19.22685	64886
19.23497	66221
19.24310	65879
19.25122	69702
19.25933	68138
19.26747	81817
19.27558	106748
19.28370	143695
19.29183	177583
19.29995	193930
19.30808	207141
19.31620	215156
19.32432	224618
19.33245	222414
19.34057	221414
19.34870	219052
19.35682	243729
19.36493	272145
19.37307	351499
19.38118	457977
19.38932	550756
19.39743	592496
19.40555	544696
19.41368	480179
19.42180	401999
19.42992	338923
19.43805	293558
19.44617	270646
19.45430	251593
19.46242	256080
19.47053	254077
19.47867	247841
19.48678	242265
19.49492	236412
19.50303	255139
19.51115	260584
19.51928	270303
19.52740	294110
19.53552	327956
19.54365	334122
19.55177	339786
19.55990	330999
19.56802	300211
19.57613	272722
19.58427	251291
19.59238	239248
19.60052	214004
19.60863	207949
19.61675	197322
19.62488	199498
19.63300	192952
19.64113	197585
19.64925	201477
19.65737	218157
19.66550	261390
19.67362	321747
19.68173	394873
19.68987	486267
19.69798	524350
19.70612	576639
19.71423	582182
19.72235	556919
19.73048	520912
19.73860	457075
19.74673	406257
19.75485	351919
19.76297	309361
19.77110	282181
19.77922	263424
19.78735	277983
19.79547	288191
19.80358	312260
19.81172	333097
19.81983	370288
19.82795	379451
19.83608	357610
19.84420	313144
19.85233	270035
19.86045	248008
19.86857	243770
19.87670	268914
19.88482	359671
19.89295	539394
19.90107	781878
19.90918	1040960
19.91732	1237263
19.92543	1292178
19.93357	1113131
19.94168	885176
19.94980	692828
19.95793	535760
19.96605	437603
19.97417	396583
19.98230	359931
19.99042	330600
19.99855	325424
20.00667	323992
20.01478	295045
20.02292	290983
20.03103	285817
20.03917	289237
20.04728	272408
20.05540	269375
20.06353	258171
20.07165	253821
20.07977	261446
20.08790	281479
20.09602	294923
20.10415	309359
20.11227	320555
20.12038	310685
20.12852	274684
20.13663	255615
20.14477	235665
20.15288	224007
20.16100	232645
20.16913	273952
20.17725	353564
20.18538	473333
20.19350	620896
20.20162	791286
20.20975	860846
20.21787	906729
20.22598	796044
20.23412	709954
20.24223	570501
20.25037	494648
20.25848	484647
20.26660	513800
20.27473	625254
20.28285	764230
20.29098	916222
20.29910	987340
20.30722	1017477
20.31535	949616
20.32347	795202
20.33158	631865
20.33972	480071
20.34783	381982
20.35597	303223
20.36408	251078
20.37220	233434
20.38033	210336
20.38845	197231
20.39658	194272
20.40470	177704
20.41282	166811
20.42095	175271
20.42907	169710
20.43720	175083
20.44532	179993
20.45343	188918
20.46157	197152
20.46968	212025
20.47780	218619
20.48593	208627
20.49405	194280
20.50218	181195
20.51030	177853
20.51842	166390
20.52655	157967
20.53467	158991
20.54280	162374
20.55092	171236
20.55903	175751
20.56717	179488
20.57528	171083
20.58342	168597
20.59153	172383
20.59965	163714
20.60778	149481
20.61590	148017
20.62402	152036
20.63215	144826
20.64027	143935
20.64840	148637
20.65652	149459
20.66463	156606
20.67277	160096
20.68088	159680
20.68902	157049
20.69713	155063
20.70525	140332
20.71338	138794
20.72150	135881
20.72962	131315
20.73775	137517
20.74587	137461
20.75400	136695
20.76212	146951
20.77023	152187
20.77837	176135
20.78648	184583
20.79462	230632
20.80273	322523
20.81085	520798
20.81898	857621
20.82710	1246603
20.83523	1531517
20.84335	1626708
20.85147	1368516
20.85960	1030226
20.86772	688577
20.87583	449857
20.88397	297366
20.89208	228640
20.90022	199754
20.90833	184731
20.91645	179268
20.92458	173056
20.93270	183767
20.94083	185881
20.94895	191466
20.95707	195105
20.96520	198114
20.97332	183863
20.98145	177974
20.98957	160908
20.99768	152496
21.00582	144740
21.01393	133337
21.02205	136531
21.03018	137529
21.03830	134792
21.04643	141380
21.05455	141623
21.06267	137090
21.07080	140791
21.07892	134760
21.08705	125158
21.09517	121072
21.10328	132488
21.11142	127193
21.11953	126592
21.12765	129655
21.13578	131414
21.14390	142359
21.15203	190360
21.16015	254052
21.16827	346101
21.17640	429690
21.18452	467545
21.19265	462700
21.20077	397313
21.20888	329668
21.21702	257632
21.22513	214901
21.23327	194115
21.24138	179626
21.24950	160107
21.25763	150731
21.26575	137441
21.27387	130099
21.28200	121179
21.29012	121618
21.29825	111254
21.30637	114419
21.31448	109838
21.32262	115275
21.33073	109002
21.33887	107888
21.34698	110507
21.35510	108530
21.36323	105974
21.37135	112546
21.37947	121859
21.38760	126249
21.39572	144317
21.40385	187939
21.41197	245202
21.42008	293965
21.42822	353112
21.43633	375727
21.44447	342949
21.45258	310009
21.46070	256478
21.46883	208278
21.47695	189441
21.48508	177034
21.49320	161857
21.50132	149470
21.50945	134141
21.51757	129751
21.52568	125149
21.53382	111101
21.54193	109016
21.55007	112045
21.55818	113877
21.56630	107251
21.57443	110138
21.58255	115790
21.59068	144264
21.59880	163334
21.60692	189231
21.61505	203843
21.62317	208528
21.63130	190132
21.63942	169716
21.64753	170273
21.65567	169667
21.66378	182604
21.67190	205247
21.68003	239193
21.68815	267574
21.69628	285280
21.70440	288083
21.71252	260124
21.72065	240627
21.72877	192819
21.73690	166928
21.74502	138179
21.75313	129813
21.76127	131379
21.76938	116295
21.77750	110857
21.78563	115156
21.79375	118772
21.80188	108468
21.81000	105052
21.81812	106803
21.82625	105232
21.83437	107081
21.84250	110980
21.85062	120492
21.85873	140721
21.86687	147276
21.87498	163221
21.88312	158014
21.89123	145739
21.89935	144763
21.90748	139593
21.91560	137512
21.92372	135009
21.93185	131195
21.93997	122581
21.94810	112606
21.95622	108302
21.96433	106992
21.97247	100342
21.98058	91209
21.98872	87675
21.99683	86265
22.00495	78492
22.01308	80949
22.02120	90894
22.02933	84654
22.03745	93928
22.04557	102156
22.05370	115136
22.06182	115076
22.06993	129236
22.07807	116069
22.08618	104597
22.09432	106344
22.10243	94370
22.11055	95470
22.11868	86589
22.12680	82307
22.13493	90510
22.14305	86903
22.15117	82178
22.15930	79906
22.16742	80845
22.17553	79034
22.18367	81194
22.19178	80916
22.19992	75271
22.20803	80621
22.21615	78805
22.22428	79358
22.23240	78233
22.24053	78795
22.24865	88412
22.25677	93564
22.26490	93228
22.27302	99281
22.28115	99694
22.28927	106078
22.29738	114293
22.30552	119021
22.31363	120311
22.32175	121272
22.32988	121552
22.33800	120923
22.34613	120186
22.35425	106546
22.36237	105331
22.37050	94568
22.37862	90423
22.38675	94205
22.39487	107532
22.40298	133532
22.41112	197641
22.41923	295906
22.42737	393517
22.43548	490212
22.44360	526761
22.45173	496054
22.45985	409194
22.46797	313102
22.47610	239693
22.48422	193326
22.49235	177453
22.50047	182800
22.50858	203738
22.51672	236314
22.52483	253029
22.53297	257026
22.54108	247642
22.54920	214955
22.55733	186809
22.56545	164087
22.57357	148287
22.58170	129267
22.58982	119064
22.59795	114133
22.60607	109942
22.61418	95572
22.62232	85724
22.63043	85977
22.63857	85067
22.64668	83906
22.65480	93688
22.66293	94255
22.67105	107004
22.67918	100420
22.68730	115971
22.69542	121700
22.70355	156134
22.71167	203022
22.71978	266783
22.72792	341652
22.73603	401605
22.74417	406013
22.75228	354674
22.76040	303363
22.76853	248580
22.77665	220259
22.78478	204071
22.79290	240020
22.80102	319296
22.80915	446489
22.81727	594094
22.82538	728912
22.83352	780965
22.84163	735749
22.84977	625082
22.85788	482489
22.86600	370795
22.87413	314265
22.88225	270693
22.89038	257990
22.89850	256223
22.90662	275809
22.91475	278385
22.92287	301521
22.93100	342458
22.93912	404610
22.94723	446794
22.95537	453252
22.96348	383480
22.97160	338896
22.97973	252738
22.98785	195160
22.99598	153589
23.00410	127316
23.01222	118872
23.02035	98407
23.02847	94050
23.03660	87161
23.04472	90569
23.05283	85951
23.06097	89289
23.06908	91138
23.07722	88453
23.08533	91641
23.09345	96702
23.10158	100692
23.10970	95839
23.11782	95153
23.12595	89653
23.13407	87848
23.14220	80272
23.15032	82917
23.15843	79551
23.16657	82054
23.17468	79355
23.18282	78456
23.19093	76329
23.19905	75136
23.20718	69382
23.21530	69775
23.22342	63975
23.23155	69220
23.23967	69505
23.24780	72921
23.25592	78937
23.26403	105634
23.27217	125218
23.28028	160668
23.28842	167694
23.29653	181650
23.30465	154099
23.31278	129986
23.32090	118494
23.32903	98223
23.33715	95934
23.34527	114641
23.35340	140038
23.36152	179335
23.36963	239822
23.37777	300048
23.38588	330629
23.39402	335619
23.40213	319539
23.41025	270456
23.41838	228975
23.42650	207779
23.43463	177877
23.44275	156118
23.45087	151033
23.45900	143918
23.46712	136745
23.47525	132449
23.48337	129391
23.49148	117517
23.49962	111127
23.50773	113273
23.51585	109013
23.52398	100044
23.53210	105257
23.54023	99412
23.54835	98376
23.55647	100042
23.56460	105293
23.57272	108062
23.58085	125614
23.58897	148155
23.59708	183146
23.60522	231282
23.61333	265467
23.62145	292703
23.62958	284673
23.63770	252130
23.64583	206700
23.65395	159110
23.66207	135289
23.67020	130024
23.67832	118414
23.68645	125100
23.69457	118681
23.70268	118252
23.71082	103993
23.71893	97612
23.72707	86257
23.73518	87934
23.74330	86755
23.75143	76087
23.75955	75495
23.76767	88628
23.77580	121083
23.78392	201805
23.79205	350430
23.80017	604160
23.80828	858908
23.81642	1062913
23.82453	1092042
23.83267	957087
23.84078	796853
23.84890	607586
23.85703	472005
23.86515	381999
23.87327	320464
23.88140	272871
23.88952	236330
23.89765	227593
23.90577	234282
23.91388	247955
23.92202	293568
23.93013	357175
23.93827	389171
23.94638	383458
23.95450	344498
23.96263	277585
23.97075	217621
23.97888	185693
23.98700	158075
23.99512	137712
24.00325	130653
24.01137	126640
24.01948	122250
24.02762	121307
24.03573	134181
24.04387	144616
24.05198	146742
24.06010	153767
24.06823	137724
24.07635	129182
24.08448	107329
24.09260	107924
24.10072	100459
24.10885	91901
24.11697	93891
24.12510	91683
24.13322	91522
24.14133	96958
24.14947	106539
24.15758	113162
24.16570	126696
24.17383	151016
24.18195	160956
24.19008	156356
24.19820	166692
24.20632	172133
24.21445	159493
24.22257	161316
24.23070	149120
24.23882	139626
24.24693	127245
24.25507	114353
24.26318	113633
24.27130	105588
24.27943	98338
24.28755	98031
24.29568	92145
24.30380	93801
24.31192	92782
24.32005	99917
24.32817	102462
24.33630	109333
24.34442	106645
24.35253	107016
24.36067	104417
24.36878	97302
24.37692	96037
24.38503	85285
24.39315	91528
24.40128	86937
24.40940	87438
24.41752	101887
24.42565	111709
24.43377	124095
24.44190	120485
24.45002	122457
24.45813	105043
24.46627	106004
24.47438	102828
24.48252	92685
24.49063	90148
24.49875	91271
24.50688	86719
24.51500	89491
24.52313	95905
24.53125	98599
24.53937	114689
24.54750	122376
24.55562	156019
24.56373	169737
24.57187	189630
24.57998	193374
24.58812	201264
24.59623	186760
24.60435	182761
24.61248	158362
24.62060	145614
24.62873	132591
24.63685	122061
24.64497	102936
24.65310	97685
24.66122	88990
24.66933	93173
24.67747	95263
24.68558	88932
24.69372	82387
24.70183	89592
24.70995	84508
24.71808	89070
24.72620	89752
24.73433	88318
24.74245	87256
24.75057	88685
24.75870	88225
24.76682	90625
24.77495	88069
24.78307	104132
24.79118	125565
24.79932	132319
24.80743	141450
24.81555	143325
24.82368	133275
24.83180	141448
24.83993	157034
24.84805	206500
24.85617	295692
24.86430	422748
24.87242	608671
24.88055	954216
24.88867	1345579
24.89678	1961729
24.90492	2553797
24.91303	2840278
24.92115	2749430
24.92928	2296186
24.93740	1669905
24.94553	1117408
24.95365	688868
24.96177	402797
24.96990	263700
24.97802	189581
24.98615	157396
24.99427	132928
25.00238	124465
25.01052	115056
25.01863	107796
25.02677	115534
25.03488	113669
25.04300	112877
25.05113	105857
25.05925	106540
25.06737	111913
25.07550	111434
25.08362	115066
25.09175	115982
25.09987	131259
25.10798	179963
25.11612	359044
25.12423	841232
25.13237	2026167
25.14048	4075916
25.14860	7102875
25.15673	1.038659E+07
25.16485	1.32027E+07
25.17298	1.367761E+07
25.18110	1.180469E+07
25.18922	8792867
25.19735	5700269
25.20547	3284886
25.21358	1780500
25.22172	928966
25.22983	528839
25.23797	353059
25.24608	284999
25.25420	296410
25.26233	388349
25.27045	527729
25.27858	692270
25.28670	823806
25.29482	875235
25.30295	808838
25.31107	671131
25.31920	493238
25.32732	347783
25.33543	243360
25.34357	173100
25.35168	139852
25.35980	118505
25.36793	105787
25.37605	98605
25.38418	94680
25.39230	91919
25.40042	81581
25.40855	83708
25.41667	77618
25.42480	80762
25.43292	79216
25.44103	77964
25.44917	78049
25.45728	80853
25.46540	76289
25.47353	81906
25.48165	82584
25.48978	77735
25.49790	75283
25.50602	83579
25.51415	81625
25.52227	77867
25.53040	79669
25.53852	71261
25.54663	70862
25.55477	73134
25.56288	72126
25.57102	71302
25.57913	69034
25.58725	74098
25.59538	74936
25.60350	73785
25.61162	74458
25.61975	73806
25.62787	69450
25.63600	72384
25.64412	63375
25.65223	65741
25.66037	67863
25.66848	67108
25.67662	65029
25.68473	66617
25.69285	71521
25.70098	81521
25.70910	103918
25.71722	107427
25.72535	109672
25.73347	99083
25.74160	88684
25.74972	86563
25.75783	79712
25.76597	73236
25.77408	74819
25.78222	72423
25.79033	66601
25.79845	70275
25.80658	66589
25.81470	67761
25.82283	67837
25.83095	65989
25.83907	69908
25.84720	69292
25.85532	71514
25.86343	65941
25.87157	65233
25.87968	70320
25.88782	64103
25.89593	64884
25.90405	67219
25.91218	63302
25.92030	64671
25.92843	69773
25.93655	66186
25.94467	65792
25.95280	74542
25.96092	72737
25.96905	75582
25.97717	75116
25.98528	83141
25.99342	65713
26.00153	67910
26.00965	66923
26.01778	66683
26.02590	62951
26.03403	62589
26.04215	60681
26.05027	64359
26.05840	66409
26.06652	64971
26.07465	69365
26.08277	72603
26.09088	88118
26.09902	113327
26.10713	156791
26.11525	230827
26.12338	297420
26.13150	352155
26.13963	367028
26.14775	374637
26.15587	375875
26.16400	379186
26.17212	380613
26.18025	401283
26.18837	390546
26.19648	380911
26.20462	374798
26.21273	379564
26.22087	391851
26.22898	370204
26.23710	380334
26.24523	382444
26.25335	379221
26.26147	370903
26.26960	364349
26.27772	369165
26.28585	368046
26.29397	360142
26.30208	360604
26.31022	359244
26.31833	363409
26.32647	361924
26.33458	355702
26.34270	342469
26.35083	342848
26.35895	348006
26.36708	370674
26.37520	415683
26.38332	487796
26.39145	589399
26.39957	736394
26.40768	906197
26.41582	971074
26.42393	947598
26.43207	879119
26.44018	766427
26.44830	640483
26.45643	522429
26.46455	443619
26.47268	404398
26.48080	375485
26.48892	370826
26.49705	364532
26.50517	359963
26.51328	343439
26.52142	337205
26.52953	325563
26.53767	315003
26.54578	302517
26.55390	299666
26.56203	287646
26.57015	289380
26.57828	293961
26.58640	273203
26.59452	276791
26.60265	284749
26.61077	284833
26.61890	288083
26.62702	291203
26.63513	283487
26.64327	277317
26.65138	274793
26.65950	280400
26.66763	270960
26.67575	277179
26.68388	268576
26.69200	262774
26.70012	263947
26.70825	257256
26.71637	267271
26.72450	255058
26.73262	255103
26.74073	249733
26.74887	259790
26.75698	260262
26.76510	256029
26.77323	255767
26.78135	245209
26.78948	247998
26.79760	246826
26.80572	244853
26.81385	255109
26.82197	256093
26.83010	256573
26.83822	261248
26.84633	249805
26.85447	245394
26.86258	234718
26.87072	238968
26.87883	231619
26.88695	231723
26.89508	226069
26.90320	227815
26.91132	223494
26.91945	214153
26.92757	219143
26.93570	227412
26.94382	223295
26.95193	212725
26.96007	223728
26.96818	226683
26.97632	226150
26.98443	231761
26.99255	252042
27.00068	283760
27.00880	318228
27.01693	375206
27.02505	461801
27.03317	535510
27.04130	572226
27.04942	592809
27.05753	578915
27.06567	505442
27.07378	437790
27.08192	394111
27.09003	342028
27.09815	313615
27.10628	299006
27.11440	279312
27.12253	289862
27.13065	283096
27.13877	286644
27.14690	288222
27.15502	279972
27.16313	268695
27.17127	276356
27.17938	285112
27.18752	296964
27.19563	334173
27.20375	359948
27.21188	377476
27.22000	357930
27.22813	340979
27.23625	312726
27.24437	279424
27.25250	257901
27.26062	250405
27.26875	222926
27.27687	210195
27.28498	200860
27.29312	194940
27.30123	186950
27.30935	185656
27.31748	180318
27.32560	181933
27.33373	177337
27.34185	177021
27.34997	181331
27.35810	185759
27.36622	190276
27.37435	201643
27.38247	198422
27.39058	195584
27.39872	186584
27.40683	180953
27.41497	168791
27.42308	173619
27.43120	167095
27.43933	165388
27.44745	163326
27.45557	163475
27.46370	166685
27.47182	158394
27.47995	160451
27.48807	153967
27.49618	152800
27.50432	152476
27.51243	152956
27.52057	144262
27.52868	153645
27.53680	150371
27.54493	148170
27.55305	149919
27.56117	147818
27.56930	159915
27.57742	162124
27.58555	172175
27.59367	199795
27.60178	236142
27.60992	268989
27.61803	295982
27.62617	288237
27.63428	262012
27.64240	226607
27.65053	201149
27.65865	176438
27.66678	158401
27.67490	149987
27.68302	147158
27.69115	140332
27.69927	139269
27.70738	154225
27.71552	150179
27.72363	137339
27.73177	133902
27.73988	131069
27.74800	131108
27.75613	119780
27.76425	123899
27.77238	129404
27.78050	135144
27.78862	142161
27.79675	156966
27.80487	173407
27.81298	179865
27.82112	166448
27.82923	158895
27.83737	141438
27.84548	127047
27.85360	124736
27.86173	117346
27.86985	113626
27.87798	114773
27.88610	109508
27.89422	107390
27.90235	108039
27.91047	116342
27.91860	108517
27.92672	105519
27.93483	109353
27.94297	102542
27.95108	102412
27.95920	105889
27.96733	99216
27.97545	98671
27.98358	97282
27.99170	98003
27.99982	106975
28.00795	108614
28.01607	111248
28.02420	116725
28.03232	124633
28.04043	129700
28.04857	149183
28.05668	162211
28.06482	173437
28.07293	179287
28.08105	177831
28.08918	160022
28.09730	139241
28.10542	128862
28.11355	117986
28.12167	115637
28.12980	99989
28.13792	102252
28.14603	102060
28.15417	93589
28.16228	88979
28.17042	90746
28.17853	93018
28.18665	95791
28.19478	102523
28.20290	125620
28.21102	146353
28.21915	188124
28.22727	232604
28.23540	270079
28.24352	298881
28.25163	297084
28.25977	256170
28.26788	217589
28.27602	179903
28.28413	138009
28.29225	112855
28.30038	108730
28.30850	112339
28.31663	129241
28.32475	141590
28.33287	160847
28.34100	174243
28.34912	174802
28.35723	176111
28.36537	156984
28.37348	146473
28.38162	140666
28.38973	139972
28.39785	146297
28.40598	145697
28.41410	152822
28.42223	158960
28.43035	154923
28.43847	158575
28.44660	149206
28.45472	138227
28.46285	126084
28.47097	110618
28.47908	108780
28.48722	110854
28.49533	105214
28.50345	113667
28.51158	114579
28.51970	114668
28.52783	121747
28.53595	122765
28.54407	114355
28.55220	110792
28.56032	100356
28.56845	98807
28.57657	92093
28.58468	90354
28.59282	95590
28.60093	88407
28.60905	91188
28.61718	87807
28.62530	88192
28.63343	101324
28.64155	100613
28.64967	108457
28.65780	107537
28.66592	112864
28.67405	104019
28.68217	107590
28.69028	106032
28.69842	106305
28.70653	98112
28.71467	94756
28.72278	89246
28.73090	86664
28.73903	90747
28.74715	87861
28.75527	84791
28.76340	81638
28.77152	87800
28.77965	88826
28.78777	93103
28.79588	99861
28.80402	116600
28.81213	125259
28.82027	140950
28.82838	143425
28.83650	149452
28.84463	138245
28.85275	136383
28.86088	124072
28.86900	115355
28.87712	116496
28.88525	116672
28.89337	143378
28.90148	167151
28.90962	197251
28.91773	218678
28.92587	216137
28.93398	199027
28.94210	169324
28.95023	140089
28.95835	114800
28.96648	99215
28.97460	100908
28.98272	94551
28.99085	96843
28.99897	92444
29.00708	82507
29.01522	84834
29.02333	84202
29.03147	77239
29.03958	85425
29.04770	81477
29.05583	82563
29.06395	84345
29.07208	82293
29.08020	91739
29.08832	99108
29.09645	104789
29.10457	107592
29.11270	115426
29.12082	107639
29.12893	105083
29.13707	92348
29.14518	85093
29.15330	80152
29.16143	75552
29.16955	78711
29.17768	75916
29.18580	83355
29.19392	96856
29.20205	125903
29.21017	173195
29.21830	246155
29.22642	326672
29.23453	378328
29.24267	387198
29.25078	353384
29.25890	283854
29.26703	240258
29.27515	198860
29.28328	164589
29.29140	132477
29.29952	111792
29.30765	104871
29.31577	92429
29.32390	80405
29.33202	81007
29.34013	73686
29.34827	80847
29.35638	74355
29.36452	73926
29.37263	74914
29.38075	79231
29.38888	75188
29.39700	71806
29.40512	71079
29.41325	76967
29.42137	79975
29.42950	81964
29.43762	85285
29.44573	87918
29.45387	85344
29.46198	83982
29.47012	82419
29.47823	80214
29.48635	75612
29.49448	77353
29.50260	74563
29.51073	79969
29.51885	80013
29.52697	86639
29.53510	83162
29.54322	81730
29.55133	86759
29.55947	86034
29.56758	79495
29.57572	82267
29.58383	79253
29.59195	77494
29.60008	77741
29.60820	74549
29.61633	71394
29.62445	70251
29.63257	74272
29.64070	71262
29.64882	73964
29.65693	74031
29.66507	71237
29.67318	72277
29.68132	77560
29.68943	89499
29.69755	96744
29.70568	107386
29.71380	124365
29.72193	124127
29.73005	112209
29.73817	98813
29.74630	92416
29.75442	83704
29.76255	76261
29.77067	73934
29.77878	74024
29.78692	72293
29.79503	70107
29.80315	67923
29.81128	71290
29.81940	64428
29.82753	66994
29.83565	69219
29.84377	65555
29.85190	63265
29.86002	70239
29.86815	73436
29.87627	78823
29.88438	91238
29.89252	115869
29.90063	159342
29.90877	206693
29.91688	253660
29.92500	264327
29.93313	239849
29.94125	196337
29.94937	153494
29.95750	110706
29.96562	91921
29.97375	84104
29.98187	82201
29.98998	77973
29.99812	81926
30.00623	90853
30.01437	94571
30.02248	94259
30.03060	101275
30.03873	101713
30.04685	103682
30.05497	103277
30.06310	112288
30.07122	110002
30.07935	108932
30.08747	111434
30.09558	112353
30.10372	98442
30.11183	97953
30.11997	104199
30.12808	105195
30.13620	99953
30.14433	97376
30.15245	95111
30.16058	88035
30.16870	86278
30.17682	90451
30.18495	89198
30.19307	92530
30.20118	93233
30.20932	90576
30.21743	93330
30.22557	97014
30.23368	87134
30.24180	90416
30.24993	84170
30.25805	83509
30.26618	78863
30.27430	74630
30.28242	75472
30.29055	76655
30.29867	73618
30.30678	71343
30.31492	74333
30.32303	73922
30.33117	80230
30.33928	70711
30.34740	69699
30.35553	71502
30.36365	72722
30.37178	77604
30.37990	74992
30.38802	75351
30.39615	73881
30.40427	75380
30.41240	71259
30.42052	73505
30.42863	69021
30.43677	74155
30.44488	68352
30.45300	70828
30.46113	68023
30.46925	64678
30.47738	65108
30.48550	66136
30.49362	66851
30.50175	70869
30.50987	74065
30.51800	77089
30.52612	75522
30.53423	71043
30.54237	75749
30.55048	73003
30.55862	70457
30.56673	75883
30.57485	75615
30.58298	73369
30.59110	73691
30.59922	75572
30.60735	75010
30.61547	72393
30.62360	79306
30.63172	76551
30.63983	77417
30.64797	76571
30.65608	73100
30.66422	72020
30.67233	67973
30.68045	65593
30.68858	66560
30.69670	67294
30.70483	60346
30.71295	68751
30.72107	67987
30.72920	68707
30.73732	70094
30.74543	68739
30.75357	70713
30.76168	71697
30.76982	69987
30.77793	70885
30.78605	84215
30.79418	106282
30.80230	158499
30.81043	218287
30.81855	315297
30.82667	394069
30.83480	409593
30.84292	384920
30.85103	306149
30.85917	221642
30.86728	155451
30.87542	119977
30.88353	105114
30.89165	87808
30.89978	92413
30.90790	89361
30.91603	87614
30.92415	77058
30.93227	76489
30.94040	79176
30.94852	79668
30.95665	74673
30.96477	78757
30.97288	88254
30.98102	84283
30.98913	79324
30.99725	82996
31.00538	76585
31.01350	80743
31.02163	79834
31.02975	72904
31.03787	72337
31.04600	73668
31.05412	73468
31.06225	70505
31.07037	70812
31.07848	68581
31.08662	73174
31.09473	82559
31.10285	85437
31.11098	97250
31.11910	117699
31.12723	129888
31.13535	132027
31.14347	128303
31.15160	114301
31.15972	108384
31.16785	114372
31.17597	114306
31.18408	120667
31.19222	121702
31.20033	132173
31.20847	141564
31.21658	172652
31.22470	222119
31.23283	273726
31.24095	301243
31.24907	297120
31.25720	270521
31.26532	223110
31.27345	168783
31.28157	122579
31.28968	99980
31.29782	88534
31.30593	82483
31.31407	81745
31.32218	90894
31.33030	93590
31.33843	97259
31.34655	106672
31.35468	120535
31.36280	124077
31.37092	113163
31.37905	111665
31.38717	103180
31.39528	86478
31.40342	76772
31.41153	77145
31.41967	67846
31.42778	73036
31.43590	75135
31.44403	71375
31.45215	69992
31.46028	77702
31.46840	74032
31.47652	72727
31.48465	74825
31.49277	87611
31.50088	80607
31.50902	84371
31.51713	89215
31.52527	94685
31.53338	88117
31.54150	94491
31.54963	91408
31.55775	90268
31.56588	87593
31.57400	92474
31.58212	91925
31.59025	91240
31.59837	86828
31.60650	83416
31.61462	76957
31.62273	76799
31.63087	75772
31.63898	71604
31.64710	74784
31.65523	73395
31.66335	82151
31.67148	89551
31.67960	111013
31.68772	122256
31.69585	129471
31.70397	135630
31.71210	127637
31.72022	116431
31.72833	106022
31.73647	90536
31.74458	81634
31.75272	84063
31.76083	74791
31.76895	69603
31.77708	71296
31.78520	67223
31.79332	70952
31.80145	69136
31.80957	76079
31.81770	72014
31.82582	72745
31.83393	79319
31.84207	71166
31.85018	72745
31.85832	67772
31.86643	76540
31.87455	79722
31.88268	79601
31.89080	81456
31.89892	78076
31.90705	75552
31.91517	76687
31.92330	68032
31.93142	69115
31.93953	73357
31.94767	73187
31.95578	75177
31.96392	80924
31.97203	82375
31.98015	90735
31.98828	96066
31.99640	100832
32.00453	105074
32.01265	107687
32.02077	110948
32.02890	119867
32.03702	116387
32.04513	109377
32.05327	102729
32.06138	96632
32.06952	93791
32.07763	92940
32.08575	81699
32.09388	90197
32.10200	85331
32.11013	88452
32.11825	84794
32.12637	81830
32.13450	85432
32.14262	75917
32.15073	71970
32.15887	74009
32.16698	70398
32.17512	70433
32.18323	71968
32.19135	68385
32.19948	68384
32.20760	67648
32.21573	73792
32.22385	73318
32.23197	70417
32.24010	71221
32.24822	68824
32.25635	71307
32.26447	69767
32.27258	67142
32.28072	71009
32.28883	76061
32.29695	77287
32.30508	74901
32.31320	72200
32.32133	71094
32.32945	69341
32.33757	70259
32.34570	73927
32.35382	69685
32.36195	67981
32.37007	69389
32.37818	69856
32.38632	68861
32.39443	67434
32.40257	72060
32.41068	69226
32.41880	66553
32.42693	71911
32.43505	66693
32.44317	67243
32.45130	70010
32.45942	72814
32.46755	68866
32.47567	65029
32.48378	68260
32.49192	65939
32.50003	68060
32.50817	69732
32.51628	65416
32.52440	65364
32.53253	69012
32.54065	71663
32.54877	73128
32.55690	64905
32.56502	65943
32.57315	68443
32.58127	67950
32.58938	66170
32.59752	65743
32.60563	66252
32.61377	65413
32.62188	66457
32.63000	63078
32.63813	63001
32.64625	65550
32.65438	64719
32.66250	65084
32.67062	64996
32.67875	66884
32.68687	72337
32.69498	75283
32.70312	78057
32.71123	74878
32.71937	79584
32.72748	73839
32.73560	72377
32.74373	71315
32.75185	71936
32.75998	69083
32.76810	74253
32.77622	70977
32.78435	65451
32.79247	64482
32.80060	68312
32.80872	68625
32.81683	67983
32.82497	68354
32.83308	72303
32.84120	67551
32.84933	65321
32.85745	65705
32.86558	70238
32.87370	77122
32.88182	78845
32.88995	75921
32.89807	87502
32.90620	94578
32.91432	106199
32.92243	106636
32.93057	108614
32.93868	104871
32.94680	101254
32.95493	90341
32.96305	82057
32.97118	77182
32.97930	84238
32.98742	102064
32.99555	127822
33.00367	188351
33.01180	258290
33.01992	302132
33.02803	325967
33.03617	307770
33.04428	256071
33.05242	209425
33.06053	160470
33.06865	146857
33.07678	151340
33.08490	155169
33.09302	166191
33.10115	178150
33.10927	178485
33.11740	186637
33.12552	190721
33.13363	191084
33.14177	171357
33.14988	169175
33.15802	148727
33.16613	136720
33.17425	129643
33.18238	128299
33.19050	121873
33.19863	103022
33.20675	97665
33.21487	87177
33.22300	84960
33.23112	83164
33.23923	91731
33.24737	86117
33.25548	85490
33.26362	91816
33.27173	85342
33.27985	83489
33.28798	78843
33.29610	78496
33.30423	78634
33.31235	72840
33.32047	73779
33.32860	73601
33.33672	74724
33.34483	78555
33.35297	91770
33.36108	87612
33.36922	97021
33.37733	106638
33.38545	110788
33.39358	113409
33.40170	105041
33.40983	89857
33.41795	81844
33.42607	81121
33.43420	72535
33.44232	72705
33.45045	68723
33.45857	74900
33.46668	69108
33.47482	74503
33.48293	67987
33.49105	64487
33.49918	73916
33.50730	78181
33.51543	79258
33.52355	92883
33.53167	93533
33.53980	96899
33.54792	108352
33.55605	112871
33.56417	129523
33.57228	148674
33.58042	153212
33.58853	156545
33.59665	134551
33.60478	109617
33.61290	99325
33.62103	85682
33.62915	79936
33.63727	75359
33.64540	80471
33.65352	79698
33.66165	85468
33.66977	85374
33.67788	88202
33.68602	94187
33.69413	96581
33.70227	93429
33.71038	82126
33.71850	77452
33.72663	72852
33.73475	75533
33.74287	71188
33.75100	74841
33.75912	71049
33.76725	66398
33.77537	65661
33.78348	73441
33.79162	66062
33.79973	66882
33.80787	67589
33.81598	70256
33.82410	65808
33.83223	69853
33.84035	62993
33.84848	64662
33.85660	68947
33.86472	66511
33.87285	73192
33.88097	67978
33.88908	81304
33.89722	75947
33.90533	75465
33.91347	79290
33.92158	76559
33.92970	77634
33.93783	68873
33.94595	73723
33.95408	70862
33.96220	73785
33.97032	65089
33.97845	73718
33.98657	66151
33.99468	69248
34.00282	66281
34.01093	68096
34.01907	72685
34.02718	67930
34.03530	74282
34.04343	69696
34.05155	67654
34.05968	69783
34.06780	68736
34.07592	70748
34.08405	68739
34.09217	65202
34.10030	63478
34.10842	70562
34.11653	69195
34.12467	71237
34.13278	72080
34.14090	68745
34.14903	73379
34.15715	72307
34.16528	70152
34.17340	74656
34.18152	66762
34.18965	71628
34.19777	71540
34.20590	70919
34.21402	74252
34.22213	68871
34.23027	77222
34.23838	77848
34.24652	72117
34.25463	67650
34.26275	69389
34.27088	69123
34.27900	67975
34.28712	75100
34.29525	70600
34.30337	72519
34.31150	65399
34.31962	69205
34.32773	64941
34.33587	68309
34.34398	72534
34.35212	70850
34.36023	67334
34.36835	65427
34.37648	67820
34.38460	74382
34.39272	69686
34.40085	68864
34.40897	67493
34.41710	67432
34.42522	69154
34.43333	72177
34.44147	70678
34.44958	73790
34.45772	70358
34.46583	67682
34.47395	70475
34.48208	71158
34.49020	69890
34.49833	67525
34.50645	74652
34.51457	68532
34.52270	70525
34.53082	64225
34.53893	70262
34.54707	75614
34.55518	82325
34.56332	88662
34.57143	99814
34.57955	99357
34.58768	109952
34.59580	103838
34.60393	107546
34.61205	95392
34.62017	92511
34.62830	91000
34.63642	82615
34.64453	84918
34.65267	79549
34.66078	80953
34.66892	78410
34.67703	81354
34.68515	81325
34.69328	76851
34.70140	74228
34.70953	77624
34.71765	79219
34.72577	73534
34.73390	73003
34.74202	71029
34.75015	76205
34.75827	79634
34.76638	73907
34.77452	78233
34.78263	83121
34.79075	83192
34.79888	77371
34.80700	80876
34.81513	79621
34.82325	82368
34.83137	75188
34.83950	81054
34.84762	79579
34.85575	79202
34.86387	77182
34.87198	78987
34.88012	75996
34.88823	77613
34.89637	79935
34.90448	80753
34.91260	69591
34.92073	71984
34.92885	78660
34.93697	83462
34.94510	84579
34.95322	75834
34.96135	80628
34.96947	82197
34.97758	92001
34.98572	95499
34.99383	104084
35.00197	101130
35.01008	102276
35.01820	92678
35.02633	88931
35.03445	77003
35.04258	85638
35.05070	80012
35.05882	74406
35.06695	75428
35.07507	83538
35.08318	77791
35.09132	77745
35.09943	77917
35.10757	78604
35.11568	78360
35.12380	79140
35.13193	83490
35.14005	77402
35.14818	81277
35.15630	76056
35.16442	80014
35.17255	83400
35.18067	88026
35.18878	85007
35.19692	83624
35.20503	81895
35.21317	82467
35.22128	80177
35.22940	73521
35.23753	73215
35.24565	79194
35.25378	76357
35.26190	76392
35.27002	80683
35.27815	75864
35.28627	76432
35.29440	75924
35.30252	78770
35.31063	82160
35.31877	76926
35.32688	78452
35.33500	83008
35.34313	78311
35.35125	75032
35.35938	77646
35.36750	75958
35.37562	76476
35.38375	70193
35.39187	74103
35.40000	80533
35.40812	82118
35.41623	80391
35.42437	83769
35.43248	90022
35.44060	88847
35.44873	89520
35.45685	93062
35.46498	86729
35.47310	91104
35.48122	86316
35.48935	86263
35.49747	84394
35.50560	86079
35.51372	91178
35.52183	89393
35.52997	86638
35.53808	81463
35.54622	81306
35.55433	81259
35.56245	79075
35.57058	75370
35.57870	78653
35.58682	72216
35.59495	79559
35.60307	80775
35.61120	76900
35.61932	73874
35.62743	74718
35.63557	76164
35.64368	76360
35.65182	79994
35.65993	79685
35.66805	81154
35.67618	76616
35.68430	74073
35.69243	77893
35.70055	80791
35.70867	82721
35.71680	81874
35.72492	84349
35.73303	84492
35.74117	92558
35.74928	89580
35.75742	96190
35.76553	108255
35.77365	123449
35.78178	123756
35.78990	143612
35.79803	141783
35.80615	134287
35.81427	120535
35.82240	107469
35.83052	95860
35.83863	92579
35.84677	91870
35.85488	83315
35.86302	83840
35.87113	81667
35.87925	79953
35.88738	87015
35.89550	84984
35.90363	82348
35.91175	80085
35.91987	79885
35.92800	81525
35.93612	82983
35.94425	82727
35.95237	77450
35.96048	75478
35.96862	78475
35.97673	79930
35.98485	80744
35.99298	77740
36.00110	80710
36.00923	86810
36.01735	82009
36.02547	84691
36.03360	82580
36.04172	88461
36.04985	92275
36.05797	83379
36.06608	84587
36.07422	84337
36.08233	83896
36.09047	83194
36.09858	80488
36.10670	78806
36.11483	87097
36.12295	81986
36.13107	82440
36.13920	85409
36.14732	89742
36.15545	95868
36.16357	102821
36.17168	100548
36.17982	101966
36.18793	93469
36.19607	97306
36.20418	93030
36.21230	87643
36.22043	87265
36.22855	81333
36.23667	85412
36.24480	80132
36.25292	79568
36.26105	76830
36.26917	81122
36.27728	80604
36.28542	84157
36.29353	81054
36.30167	80570
36.30978	81276
36.31790	79992
36.32603	84606
36.33415	92451
36.34228	89394
36.35040	93671
36.35852	89182
36.36665	90512
36.37477	92756
36.38288	89591
36.39102	89659
36.39913	93589
36.40727	89488
36.41538	97037
36.42350	91403
36.43163	103920
36.43975	102779
36.44788	96117
36.45600	99007
36.46412	97164
36.47225	94581
36.48037	86350
36.48848	92621
36.49662	85631
36.50473	80729
36.51287	78455
36.52098	79929
36.52910	78442
36.53723	82910
36.54535	81915
36.55348	84654
36.56160	82281
36.56972	83669
36.57785	83775
36.58597	84476
36.59410	88308
36.60222	82888
36.61033	80203
36.61847	78642
36.62658	81640
36.63470	83686
36.64283	84878
36.65095	86829
36.65908	81662
36.66720	84209
36.67532	83222
36.68345	85621
36.69157	75396
36.69970	85642
36.70782	89498
36.71593	84327
36.72407	80249
36.73218	89242
36.74032	91844
36.74843	89241
36.75655	91424
36.76468	91983
36.77280	85963
36.78092	90051
36.78905	83140
36.79717	83365
36.80530	86502
36.81342	80315
36.82153	92082
36.82967	93288
36.83778	82684
36.84592	86038
36.85403	86854
36.86215	81466
36.87028	82066
36.87840	81349
36.88652	83218
36.89465	80323
36.90277	78515
36.91090	83012
36.91902	86956
36.92713	85449
36.93527	85540
36.94338	91351
36.95152	101145
36.95963	127246
36.96775	162653
36.97588	225046
36.98400	264169
36.99213	303875
37.00025	307955
37.00837	267466
37.01650	209334
37.02462	165115
37.03273	128586
37.04087	111411
37.04898	101660
37.05712	99458
37.06523	99113
37.07335	103931
37.08148	97764
37.08960	97224
37.09773	98240
37.10585	101323
37.11397	106753
37.12210	106905
37.13022	117007
37.13835	105701
37.14647	107968
37.15458	95005
37.16272	91884
37.17083	89894
37.17895	89481
37.18708	86017
37.19520	91410
37.20333	90795
37.21145	88024
37.21957	89124
37.22770	88408
37.23582	89329
37.24395	89410
37.25207	93230
37.26018	92901
37.26832	95807
37.27643	93091
37.28455	89961
37.29268	91606
37.30080	90454
37.30893	89074
37.31705	88515
37.32517	93656
37.33330	92088
37.34142	90315
37.34955	90186
37.35767	96254
37.36578	96356
37.37392	91946
37.38203	95060
37.39017	92218
37.39828	95999
37.40640	105813
37.41453	103289
37.42265	97129
37.43077	102655
37.43890	106645
37.44702	112960
37.45515	108378
37.46327	115141
37.47138	113989
37.47952	103634
37.48763	103797
