Z:\data\JTB-E02\BACandBLUE\JTB-E18-005-10.D Wed Apr 10 14:57:22 2019
Start of data points
2.09535	62722
2.10347	66072
2.11158	65858
2.11972	65797
2.12783	64444
2.13595	67045
2.14408	70826
2.15220	66936
2.16033	61879
2.16845	61703
2.17657	65172
2.18470	61533
2.19282	58744
2.20095	58742
2.20907	56427
2.21718	56710
2.22532	59343
2.23343	53159
2.24157	61197
2.24968	53175
2.25780	59944
2.26593	100322
2.27405	974406
2.28217	2823072
2.29030	2303369
2.29842	1139485
2.30655	780823
2.31467	640968
2.32278	561439
2.33092	478045
2.33903	441861
2.34717	403649
2.35528	357643
2.36340	327756
2.37153	300668
2.37965	290644
2.38777	268992
2.39590	267926
2.40402	249189
2.41215	235265
2.42027	227369
2.42838	242333
2.43652	232922
2.44463	219821
2.45277	215149
2.46088	203570
2.46900	199640
2.47713	198220
2.48525	195289
2.49338	197582
2.50150	207199
2.50962	194824
2.51775	191806
2.52587	187661
2.53398	181917
2.54212	182335
2.55023	193509
2.55837	382730
2.56648	930301
2.57460	959393
2.58273	688929
2.59085	543924
2.59898	452866
2.60710	409628
2.61522	421857
2.62335	424421
2.63147	368100
2.63958	339782
2.64772	299454
2.65583	285294
2.66397	280579
2.67208	266338
2.68020	262497
2.68833	255151
2.69645	247400
2.70458	235019
2.71270	231711
2.72082	223803
2.72895	217083
2.73707	220209
2.74520	221083
2.75332	205223
2.76143	202742
2.76957	204704
2.77768	295038
2.78580	1079039
2.79393	2329544
2.80205	2099350
2.81018	1372128
2.81830	1041957
2.82642	888951
2.83455	751140
2.84267	660216
2.85080	558698
2.85892	483364
2.86703	440480
2.87517	405754
2.88328	371976
2.89142	365214
2.89953	351994
2.90765	337268
2.91578	322515
2.92390	308680
2.93202	300135
2.94015	299881
2.94827	272662
2.95640	270078
2.96452	270038
2.97263	264636
2.98077	260765
2.98888	303444
2.99702	503100
3.00513	717032
3.01325	687578
3.02138	561890
3.02950	490366
3.03762	444149
3.04575	388329
3.05387	376691
3.06200	411092
3.07012	448827
3.07823	434371
3.08637	402204
3.09448	493118
3.10262	872252
3.11073	2016807
3.11885	2818787
3.12698	2320912
3.13510	1654332
3.14323	1299359
3.15135	1066581
3.15947	898962
3.16760	783481
3.17572	749875
3.18383	773779
3.19197	1128394
3.20008	1759811
3.20822	1755858
3.21633	1367620
3.22445	1084858
3.23258	952407
3.24070	837187
3.24883	735037
3.25695	658519
3.26507	598418
3.27320	540514
3.28132	505529
3.28945	540592
3.29757	878670
3.30568	1938142
3.31382	3566019
3.32193	4469434
3.33005	4204532
3.33818	3482408
3.34630	2890759
3.35443	2453423
3.36255	2153213
3.37067	1863267
3.37880	1701056
3.38692	1570224
3.39505	1413676
3.40317	1314023
3.41128	1234153
3.41942	1207530
3.42753	1220340
3.43565	1130902
3.44378	1071085
3.45190	954959
3.46003	876125
3.46815	824307
3.47627	773864
3.48440	741571
3.49252	704827
3.50065	673030
3.50877	663452
3.51688	640700
3.52502	726084
3.53313	843243
3.54127	861504
3.54938	773781
3.55750	698994
3.56563	653817
3.57375	611241
3.58187	572667
3.59000	551194
3.59812	528464
3.60625	518927
3.61437	491657
3.62248	502229
3.63062	493756
3.63873	522464
3.64687	535058
3.65498	533296
3.66310	809534
3.67123	3232899
3.67935	1.017841E+07
3.68748	1.62107E+07
3.69560	1.504351E+07
3.70372	1.040306E+07
3.71185	7276434
3.71997	5825108
3.72808	4866190
3.73622	4211452
3.74433	3781354
3.75247	3342707
3.76058	3034305
3.76870	2780770
3.77683	2542211
3.78495	2332133
3.79308	2214744
3.80120	2064582
3.80932	1943584
3.81745	1822789
3.82557	1748424
3.83368	1641183
3.84182	1554458
3.84993	1489377
3.85807	1428166
3.86618	1354961
3.87430	1271082
3.88243	1231613
3.89055	1179826
3.89868	1134194
3.90680	1094555
3.91492	1087867
3.92305	1130071
3.93117	1275037
3.93930	1346606
3.94742	1303551
3.95553	1429045
3.96367	2043719
3.97178	2786068
3.97990	2903219
3.98803	2277668
3.99615	1731855
4.00428	1659768
4.01240	2170327
4.02052	2857946
4.02865	2805607
4.03677	2187382
4.04490	1626606
4.05302	1293882
4.06113	1100639
4.06927	987830
4.07738	897522
4.08550	820990
4.09363	800973
4.10175	761089
4.10988	741569
4.11800	715195
4.12612	724882
4.13425	1074575
4.14237	2514810
4.15050	5090789
4.15862	6625739
4.16673	5863106
4.17487	3925288
4.18298	2503884
4.19112	1790478
4.19923	1406398
4.20735	1255630
4.21548	1898315
4.22360	4874796
4.23172	1.045334E+07
4.23985	1.536495E+07
4.24797	1.665112E+07
4.25610	1.350087E+07
4.26422	9234598
4.27233	6316786
4.28047	4576631
4.28858	3442193
4.29672	2682766
4.30483	2171689
4.31295	1809253
4.32108	1539316
4.32920	1356227
4.33733	1228867
4.34545	1115533
4.35357	1029779
4.36170	1034852
4.36982	1092723
4.37793	1104633
4.38607	1043277
4.39418	898161
4.40232	809627
4.41043	737369
4.41855	707051
4.42668	660744
4.43480	610223
4.44293	598252
4.45105	585574
4.45917	564794
4.46730	557250
4.47542	570951
4.48353	626409
4.49167	684953
4.49978	731585
4.50792	675027
4.51603	608364
4.52415	561457
4.53228	530396
4.54040	528414
4.54853	519425
4.55665	523167
4.56477	526144
4.57290	488926
4.58102	470218
4.58915	457893
4.59727	446448
4.60538	438239
4.61352	434888
4.62163	457839
4.62975	545337
4.63788	724259
4.64600	987036
4.65413	1097836
4.66225	997915
4.67037	827185
4.67850	724512
4.68662	675194
4.69475	626083
4.70287	587752
4.71098	554131
4.71912	513154
4.72723	485478
4.73537	462876
4.74348	458432
4.75160	457068
4.75973	442196
4.76785	435791
4.77597	425542
4.78410	417745
4.79222	416392
4.80035	420874
4.80847	432512
4.81658	435339
4.82472	422259
4.83283	416748
4.84097	403934
4.84908	398382
4.85720	393913
4.86533	373119
4.87345	381508
4.88157	385655
4.88970	373601
4.89782	374792
4.90595	374099
4.91407	364156
4.92218	361608
4.93032	370030
4.93843	407792
4.94657	581139
4.95468	1005314
4.96280	1738316
4.97093	2367198
4.97905	2594096
4.98718	2337569
4.99530	1959125
5.00342	1632067
5.01155	1402766
5.01967	1231803
5.02778	1116955
5.03592	1118393
5.04403	1114558
5.05217	1114570
5.06028	1060748
5.06840	967407
5.07653	904128
5.08465	851228
5.09278	808709
5.10090	773044
5.10902	733373
5.11715	686670
5.12527	685058
5.13338	659358
5.14152	632714
5.14963	628114
5.15777	657442
5.16588	711123
5.17400	786358
5.18213	794719
5.19025	767104
5.19838	727408
5.20650	771446
5.21462	820702
5.22275	839893
5.23087	774973
5.23900	728596
5.24712	663062
5.25523	616464
5.26337	557463
5.27148	518843
5.27960	481691
5.28773	458974
5.29585	460149
5.30398	435686
5.31210	436556
5.32022	430515
5.32835	423379
5.33647	423956
5.34460	419501
5.35272	423369
5.36083	411723
5.36897	412867
5.37708	409703
5.38522	423762
5.39333	477063
5.40145	519175
5.40958	548077
5.41770	545404
5.42582	494706
5.43395	459845
5.44207	454839
5.45020	459127
5.45832	491562
5.46643	535595
5.47457	525506
5.48268	476953
5.49082	430349
5.49893	402139
5.50705	374599
5.51518	370169
5.52330	369330
5.53142	346442
5.53955	358595
5.54767	363967
5.55580	403290
5.56392	550562
5.57203	805557
5.58017	1045899
5.58828	1129848
5.59642	1012045
5.60453	802957
5.61265	648040
5.62078	547418
5.62890	472850
5.63703	451109
5.64515	431536
5.65327	408408
5.66140	393602
5.66952	404987
5.67763	458587
5.68577	632547
5.69388	867479
5.70202	1031180
5.71013	1027550
5.71825	880875
5.72638	714425
5.73450	612946
5.74263	540317
5.75075	487948
5.75887	462444
5.76700	431337
5.77512	415539
5.78325	400108
5.79137	390591
5.79948	397145
5.80762	385312
5.81573	385130
5.82385	405292
5.83198	437099
5.84010	489109
5.84823	521853
5.85635	545999
5.86447	531516
5.87260	503579
5.88072	493646
5.88885	478792
5.89697	456813
5.90508	424446
5.91322	381770
5.92133	359111
5.92945	352822
5.93758	362577
5.94570	359451
5.95383	366995
5.96195	373403
5.97007	372036
5.97820	384800
5.98632	435535
5.99445	456237
6.00257	458694
6.01068	431815
6.01882	398896
6.02693	354069
6.03507	347849
6.04318	334582
6.05130	308130
6.05943	296789
6.06755	273675
6.07567	267731
6.08380	265167
6.09192	254513
6.10005	251880
6.10817	247432
6.11628	240883
6.12442	255663
6.13253	301195
6.14067	408606
6.14878	547449
6.15690	622137
6.16503	590471
6.17315	507373
6.18127	445370
6.18940	394438
6.19752	362117
6.20565	330557
6.21377	322438
6.22188	296029
6.23002	292782
6.23813	282279
6.24627	286246
6.25438	308126
6.26250	346683
6.27063	379802
6.27875	376172
6.28688	340374
6.29500	309422
6.30312	294913
6.31125	295708
6.31937	285221
6.32748	281806
6.33562	276906
6.34373	272858
6.35187	252698
6.35998	250211
6.36810	241653
6.37623	249407
6.38435	250813
6.39248	249262
6.40060	237559
6.40872	240481
6.41685	222524
6.42497	228977
6.43310	225851
6.44122	229021
6.44933	226813
6.45747	222861
6.46558	222174
6.47370	222962
6.48183	229750
6.48995	228122
6.49808	227407
6.50620	225736
6.51432	227399
6.52245	229432
6.53057	222235
6.53870	238495
6.54682	228550
6.55493	247622
6.56307	281695
6.57118	404537
6.57932	629001
6.58743	857853
6.59555	917877
6.60368	750447
6.61180	561569
6.61992	416283
6.62805	348208
6.63617	313924
6.64430	306120
6.65242	375743
6.66053	673056
6.66867	1204857
6.67678	1749337
6.68492	1855202
6.69303	1513791
6.70115	1083437
6.70928	788331
6.71740	645314
6.72552	538654
6.73365	445019
6.74177	408342
6.74990	402170
6.75802	405746
6.76613	382958
6.77427	359179
6.78238	350424
6.79052	350148
6.79863	387155
6.80675	447158
6.81488	506243
6.82300	547809
6.83113	526364
6.83925	448532
6.84737	375039
6.85550	320358
6.86362	280015
6.87173	236959
6.87987	213015
6.88798	192656
6.89612	183630
6.90423	174387
6.91235	162846
6.92048	166887
6.92860	166658
6.93673	169622
6.94485	191952
6.95297	203929
6.96110	229789
6.96922	235719
6.97733	240809
6.98547	232949
6.99358	213848
7.00172	192234
7.00983	169802
7.01795	157472
7.02608	147989
7.03420	165740
7.04233	188620
7.05045	227070
7.05857	286585
7.06670	352700
7.07482	374690
7.08295	351575
7.09107	314703
7.09918	266169
7.10732	227541
7.11543	199040
7.12355	185937
7.13168	175608
7.13980	172408
7.14793	195797
7.15605	243490
7.16417	302498
7.17230	359308
7.18042	361535
7.18855	320104
7.19667	286798
7.20478	299172
7.21292	407323
7.22103	871375
7.22917	2008419
7.23728	3677427
7.24540	4922489
7.25353	4924701
7.26165	3758398
7.26977	2341898
7.27790	1379385
7.28602	862802
7.29415	573640
7.30227	378128
7.31038	281939
7.31852	257964
7.32663	265718
7.33477	272640
7.34288	283273
7.35100	260371
7.35913	238992
7.36725	228632
7.37537	204914
7.38350	191321
7.39162	190251
7.39975	183303
7.40787	174435
7.41598	171842
7.42412	171747
7.43223	173402
7.44037	173846
7.44848	173241
7.45660	175633
7.46473	175102
7.47285	166316
7.48098	165550
7.48910	160946
7.49722	158111
7.50535	167441
7.51347	224057
7.52158	403833
7.52972	839525
7.53783	1660222
7.54597	2935618
7.55408	4346559
7.56220	5425456
7.57033	5688587
7.57845	5079193
7.58658	3971433
7.59470	2767071
7.60282	1838083
7.61095	1231726
7.61907	857270
7.62720	658505
7.63532	505701
7.64343	414994
7.65157	346196
7.65968	297137
7.66780	256551
7.67593	237089
7.68405	219104
7.69218	198402
7.70030	195213
7.70842	196881
7.71655	193633
7.72467	202586
7.73280	192262
7.74092	181803
7.74903	170506
7.75717	166782
7.76528	173094
7.77340	198321
7.78153	218752
7.78965	236154
7.79778	252809
7.80590	264093
7.81402	269079
7.82215	265113
7.83027	261320
7.83840	269001
7.84652	306591
7.85463	388810
7.86277	535700
7.87088	743740
7.87902	1081137
7.88713	1433488
7.89525	1594064
7.90338	1538699
7.91150	1220640
7.91962	852890
7.92775	607989
7.93587	484598
7.94400	434377
7.95212	398812
7.96023	362588
7.96837	322246
7.97648	275439
7.98462	242319
7.99273	208383
8.00085	189394
8.00898	175152
8.01710	176918
8.02522	182095
8.03335	191405
8.04147	197648
8.04960	204442
8.05772	210670
8.06583	209082
8.07397	195243
8.08208	194660
8.09022	187719
8.09833	191142
8.10645	176468
8.11458	169990
8.12270	173905
8.13083	181564
8.13895	191577
8.14707	193069
8.15520	204010
8.16332	205120
8.17143	197372
8.17957	182274
8.18768	173833
8.19582	168473
8.20393	164238
8.21205	150720
8.22018	150553
8.22830	151007
8.23643	151581
8.24455	150769
8.25267	142155
8.26080	140509
8.26892	133455
8.27705	134945
8.28517	131408
8.29328	135673
8.30142	140470
8.30953	147198
8.31765	151378
8.32578	160876
8.33390	151427
8.34203	150398
8.35015	143344
8.35827	136847
8.36640	128660
8.37452	130606
8.38265	123791
8.39077	131548
8.39888	122109
8.40702	115953
8.41513	119245
8.42325	116074
8.43138	117692
8.43950	119135
8.44763	121595
8.45575	110439
8.46387	114522
8.47200	117996
8.48012	121771
8.48825	109843
8.49637	116609
8.50448	111631
8.51262	120405
8.52073	167372
8.52887	340831
8.53698	848610
8.54510	1719491
8.55323	2780084
8.56135	3511869
8.56947	3273302
8.57760	2317901
8.58572	1348921
8.59385	711052
8.60197	436569
8.61008	339212
8.61822	306261
8.62633	278846
8.63447	258870
8.64258	242772
8.65070	215657
8.65883	209807
8.66695	191921
8.67508	191544
8.68320	184925
8.69132	178150
8.69945	178892
8.70757	175823
8.71568	187396
8.72382	194386
8.73193	191918
8.74007	185255
8.74818	184777
8.75630	205301
8.76443	265649
8.77255	433143
8.78068	713456
8.78880	1061855
8.79692	1307069
8.80505	1261081
8.81317	1029221
8.82128	760944
8.82942	566429
8.83753	448554
8.84567	391255
8.85378	376582
8.86190	366881
8.87003	352116
8.87815	348554
8.88628	334378
8.89440	324276
8.90252	294646
8.91065	282987
8.91877	274502
8.92690	275687
8.93502	278522
8.94313	278299
8.95127	301926
8.95938	302263
8.96750	300517
8.97563	294582
8.98375	284973
8.99188	285499
9.00000	273279
9.00812	266377
9.01625	243853
9.02437	231859
9.03250	233202
9.04062	204291
9.04873	204716
9.05687	201151
9.06498	196079
9.07312	192825
9.08123	193666
9.08935	199049
9.09748	217686
9.10560	230152
9.11372	270678
9.12185	294758
9.12997	302650
9.13810	295585
9.14622	283105
9.15433	253259
9.16247	250517
9.17058	244644
9.17872	231681
9.18683	217318
9.19495	209293
9.20308	203479
9.21120	197476
9.21932	193398
9.22745	191801
9.23557	191539
9.24370	189861
9.25182	194294
9.25993	189097
9.26807	186130
9.27618	181678
9.28432	177008
9.29243	181160
9.30055	167808
9.30868	169457
9.31680	154772
9.32493	160089
9.33305	154405
9.34117	154788
9.34930	157346
9.35742	152745
9.36553	153343
9.37367	154992
9.38178	161207
9.38992	166616
9.39803	171358
9.40615	185657
9.41428	227643
9.42240	278011
9.43053	362182
9.43865	452000
9.44677	520884
9.45490	518784
9.46302	485586
9.47113	419819
9.47927	332111
9.48738	268619
9.49552	219852
9.50363	194220
9.51175	179539
9.51988	185551
9.52800	193838
9.53613	212416
9.54425	211597
9.55237	212546
9.56050	199535
9.56862	183071
9.57675	173745
9.58487	157291
9.59298	154059
9.60112	150858
9.60923	127721
9.61735	121367
9.62548	119040
9.63360	114217
9.64173	113990
9.64985	113765
9.65797	110594
9.66610	108617
9.67422	109433
9.68235	107578
9.69047	108915
9.69858	101735
9.70672	101272
9.71483	99321
9.72297	101335
9.73108	94916
9.73920	95999
9.74733	102882
9.75545	91454
9.76357	95856
9.77170	90757
9.77982	89783
9.78795	97353
9.79607	89202
9.80418	91988
9.81232	90678
9.82043	88893
9.82857	84289
9.83668	85575
9.84480	87345
9.85293	88185
9.86105	96700
9.86917	106803
9.87730	115932
9.88542	113651
9.89355	107126
9.90167	105559
9.90978	92694
9.91792	94915
9.92603	109700
9.93417	123169
9.94228	166936
9.95040	225937
9.95853	283247
9.96665	307108
9.97478	314408
9.98290	271265
9.99102	230091
9.99915	203872
10.00727	193658
10.01538	181596
10.02352	174618
10.03163	168784
10.03977	151340
10.04788	133431
10.05600	126628
10.06413	137439
10.07225	136141
10.08038	137548
10.08850	138772
10.09662	135146
10.10475	137354
10.11287	132792
10.12100	128711
10.12912	124373
10.13723	121280
10.14537	113598
10.15348	116707
10.16160	107228
10.16973	109279
10.17785	107700
10.18598	111261
10.19410	108608
10.20222	103987
10.21035	103991
10.21847	103106
10.22660	106877
10.23472	104105
10.24283	113338
10.25097	129588
10.25908	183629
10.26720	382947
10.27533	1055397
10.28345	2652485
10.29158	5417544
10.29970	9211132
10.30782	1.317917E+07
10.31595	1.642995E+07
10.32407	2.003499E+07
10.33220	2.436381E+07
10.34032	3.028044E+07
10.34843	3.70498E+07
10.35657	4.334396E+07
10.36468	4.579297E+07
10.37282	3.993672E+07
10.38093	2.596707E+07
10.38905	1.326168E+07
10.39718	7317722
10.40530	4725510
10.41342	3337044
10.42155	2465958
10.42967	1985248
10.43780	1739193
10.44592	1649064
10.45403	1657253
10.46217	1709074
10.47028	1758080
10.47842	1709970
10.48653	1599473
10.49465	1400576
10.50278	1229607
10.51090	1084426
10.51902	982949
10.52715	933908
10.53527	861163
10.54340	789625
10.55152	754641
10.55963	719316
10.56777	681248
10.57588	650081
10.58402	636144
10.59213	598189
10.60025	571171
10.60838	537875
10.61650	523130
10.62463	518901
10.63275	490666
10.64087	474934
10.64900	453033
10.65712	431696
10.66523	410736
10.67337	409480
10.68148	395900
10.68962	391491
10.69773	390425
10.70585	395015
10.71398	386686
10.72210	387382
10.73023	372045
10.73835	366375
10.74647	339920
10.75460	341142
10.76272	319796
10.77085	305773
10.77897	294839
10.78708	274538
10.79522	288885
10.80333	287128
10.81145	291413
10.81958	292726
10.82770	294693
10.83583	282908
10.84395	268011
10.85207	253868
10.86020	245693
10.86832	232891
10.87645	232258
10.88457	225289
10.89268	218187
10.90082	217749
10.90893	212603
10.91707	209297
10.92518	210075
10.93330	210660
10.94143	208175
10.94955	220412
10.95767	238295
10.96580	251640
10.97392	293231
10.98205	314272
10.99017	305732
10.99828	287285
11.00642	262554
11.01453	252948
11.02267	237952
11.03078	225420
11.03890	214079
11.04703	206744
11.05515	203756
11.06327	194380
11.07140	202873
11.07952	213217
11.08765	224042
11.09577	224596
11.10388	225639
11.11202	229217
11.12013	219256
11.12827	205189
11.13638	180236
11.14450	175541
11.15263	171295
11.16075	160594
11.16888	152610
11.17700	165720
11.18512	151430
11.19325	154981
11.20137	153944
11.20948	156828
11.21762	143954
11.22573	138425
11.23387	133129
11.24198	127701
11.25010	122961
11.25823	124416
11.26635	112669
11.27448	109447
11.28260	114838
11.29072	119110
11.29885	158719
11.30697	272637
11.31508	533763
11.32322	1056215
11.33133	1913192
11.33947	2844360
11.34758	3495375
11.35570	3602392
11.36383	3135634
11.37195	2431225
11.38008	1764839
11.38820	1293732
11.39632	1014263
11.40445	934918
11.41257	916117
11.42070	878817
11.42882	834207
11.43693	749753
11.44507	665569
11.45318	589442
11.46130	520063
11.46943	471608
11.47755	450914
11.48568	419431
11.49380	438574
11.50192	454492
11.51005	484437
11.51817	479870
11.52630	437959
11.53442	383893
11.54253	357475
11.55067	328326
11.55878	319286
11.56692	296700
11.57503	300914
11.58315	285084
11.59128	272209
11.59940	260918
11.60752	282623
11.61565	308459
11.62377	335379
11.63190	329438
11.64002	318629
11.64813	290158
11.65627	265409
11.66438	237705
11.67252	220345
11.68063	220933
11.68875	211346
11.69688	210779
11.70500	210009
11.71312	204187
11.72125	198711
11.72937	180088
11.73750	157923
11.74562	157569
11.75373	156075
11.76187	151418
11.76998	142660
11.77812	146632
11.78623	147583
11.79435	137246
11.80248	129249
11.81060	130678
11.81873	127974
11.82685	126002
11.83497	122164
11.84310	118421
11.85122	117674
11.85933	117910
11.86747	122602
11.87558	118897
11.88372	117046
11.89183	123046
11.89995	127360
11.90808	139296
11.91620	179491
11.92433	246914
11.93245	309197
11.94057	350389
11.94870	337328
11.95682	293738
11.96495	242600
11.97307	221891
11.98118	310958
11.98932	627603
11.99743	1361554
12.00555	2634856
12.01368	3791384
12.02180	4591975
12.02993	4717750
12.03805	4163249
12.04617	3230732
12.05430	2518334
12.06242	1939960
12.07055	1529899
12.07867	1422036
12.08678	1263351
12.09492	1197515
12.10303	1160138
12.11115	1187968
12.11928	1280911
12.12740	1464994
12.13553	1630818
12.14365	1631722
12.15177	1544881
12.15990	1367854
12.16802	1160055
12.17615	987997
12.18427	881134
12.19238	894092
12.20052	860563
12.20863	878385
12.21677	842084
12.22488	800563
12.23300	769796
12.24113	755677
12.24925	721598
12.25737	691627
12.26550	689364
12.27362	665919
12.28175	655596
12.28987	623487
12.29798	606092
12.30612	564032
12.31423	546266
12.32237	531408
12.33048	512440
12.33860	493260
12.34673	501574
12.35485	482843
12.36297	473883
12.37110	459707
12.37922	449208
12.38735	441764
12.39547	429904
12.40358	412774
12.41172	416453
12.41983	425978
12.42797	438158
12.43608	423753
12.44420	410205
12.45233	412800
12.46045	389862
12.46858	390239
12.47670	381543
12.48482	375024
12.49295	379541
12.50107	385998
12.50918	376218
12.51732	379438
12.52543	381549
12.53357	384329
12.54168	371031
12.54980	361034
12.55793	368270
12.56605	336053
12.57418	327242
12.58230	323282
12.59042	310106
12.59855	320571
12.60667	307937
12.61480	301680
12.62292	290977
12.63103	291563
12.63917	276345
12.64728	273486
12.65540	260301
12.66353	265763
12.67165	235995
12.67978	215540
12.68790	195721
12.69602	173007
12.70415	154284
12.71227	150822
12.72040	143669
12.72852	136439
12.73663	135351
12.74477	138191
12.75288	128591
12.76100	136497
12.76913	126311
12.77725	127338
12.78538	125475
12.79350	124455
12.80162	125180
12.80975	120337
12.81787	115745
12.82600	115233
12.83412	112245
12.84223	108662
12.85037	98470
12.85848	99221
12.86662	95471
12.87473	100593
12.88285	100427
12.89098	100662
12.89910	101260
12.90722	100247
12.91535	96908
12.92347	95407
12.93160	91791
12.93972	99326
12.94783	99242
12.95597	122493
12.96408	171737
12.97222	271400
12.98033	452640
12.98845	629088
12.99658	715486
13.00470	642696
13.01283	500730
13.02095	364912
13.02907	261633
13.03720	208383
13.04532	181014
13.05343	165055
13.06157	151585
13.06968	149083
13.07782	129621
13.08593	131869
13.09405	126585
13.10218	134049
13.11030	127248
13.11843	117765
13.12655	114511
13.13467	115380
13.14280	112701
13.15092	107536
13.15903	110750
13.16717	108002
13.17528	106142
13.18342	108831
13.19153	106512
13.19965	114378
13.20778	110734
13.21590	108795
13.22403	118253
13.23215	111460
13.24027	114166
13.24840	114180
13.25652	111430
13.26465	97665
13.27277	105042
13.28088	101990
13.28902	98342
13.29713	90589
13.30525	94758
13.31338	90990
13.32150	93227
13.32963	93461
13.33775	92242
13.34587	86193
13.35400	87492
13.36212	87329
13.37025	86280
13.37837	84165
13.38648	83446
13.39462	83552
13.40273	82912
13.41085	82083
13.41898	84310
13.42710	87343
13.43523	84944
13.44335	83891
13.45147	87337
13.45960	87595
13.46772	90947
13.47585	94712
13.48397	93176
13.49208	88281
13.50022	87121
13.50833	96144
13.51647	86514
13.52458	89579
13.53270	88988
13.54083	83521
13.54895	90156
13.55707	87947
13.56520	85366
13.57332	89038
13.58145	99202
13.58957	113869
13.59768	126646
13.60582	152717
13.61393	178417
13.62207	199282
13.63018	223567
13.63830	206413
13.64643	185184
13.65455	149102
13.66268	134881
13.67080	116250
13.67892	107615
13.68705	104263
13.69517	95492
13.70328	93851
13.71142	95075
13.71953	89540
13.72767	94845
13.73578	107672
13.74390	135788
13.75203	242547
13.76015	533645
13.76828	990772
13.77640	1697514
13.78452	2374952
13.79265	2780239
13.80077	2773054
13.80888	2411623
13.81702	2063566
13.82513	1744718
13.83327	1566934
13.84138	1500126
13.84950	1402014
13.85763	1303953
13.86575	1156945
13.87388	1005498
13.88200	902806
13.89012	796082
13.89825	708934
13.90637	643366
13.91450	589291
13.92262	548303
13.93073	532382
13.93887	488503
13.94698	519056
13.95510	563026
13.96323	694232
13.97135	946178
13.97948	1222476
13.98760	1660550
13.99572	1708473
14.00385	1793968
14.01197	1509557
14.02010	1242840
14.02822	1074829
14.03633	908418
14.04447	793880
14.05258	687220
14.06072	639517
14.06883	611743
14.07695	588908
14.08508	569725
14.09320	562348
14.10132	533807
14.10945	520828
14.11757	485632
14.12570	503892
14.13382	533448
14.14193	599800
14.15007	692121
14.15818	783307
14.16632	832305
14.17443	808050
14.18255	780644
14.19068	753057
14.19880	779561
14.20692	799681
14.21505	877668
14.22317	913034
14.23130	862994
14.23942	784251
14.24753	705753
14.25567	610923
14.26378	554879
14.27192	515171
14.28003	455752
14.28815	426117
14.29628	395283
14.30440	378089
14.31253	359460
14.32065	344713
14.32877	346885
14.33690	338826
14.34502	327612
14.35313	307879
14.36127	279875
14.36938	274462
14.37752	256160
14.38563	250487
14.39375	246129
14.40188	228735
14.41000	219968
14.41813	220472
14.42625	217417
14.43437	209169
14.44250	196295
14.45062	183971
14.45875	176835
14.46687	160582
14.47498	160625
14.48312	149655
14.49123	151949
14.49935	150459
14.50748	163513
14.51560	176966
14.52373	209137
14.53185	231208
14.53997	243202
14.54810	240708
14.55622	225482
14.56435	203836
14.57247	186301
14.58058	164041
14.58872	155299
14.59683	149233
14.60495	144577
14.61308	132674
14.62120	128556
14.62933	131299
14.63745	117073
14.64557	119398
14.65370	117895
14.66182	117581
14.66995	115918
14.67807	110269
14.68618	110625
14.69432	111528
14.70243	108686
14.71057	113044
14.71868	111342
14.72680	112693
14.73493	131208
14.74305	133045
14.75117	138967
14.75930	146167
14.76742	152154
14.77555	151461
14.78367	154799
14.79178	178066
14.79992	280762
14.80803	572698
14.81617	1256553
14.82428	2467928
14.83240	3821252
14.84053	4812820
14.84865	5182919
14.85677	4504979
14.86490	3342803
14.87302	2421980
14.88115	1699604
14.88927	1248131
14.89738	996515
14.90552	829996
14.91363	716551
14.92177	624737
14.92988	570221
14.93800	534014
14.94613	480620
14.95425	455406
14.96238	428723
14.97050	394529
14.97862	385107
14.98675	357792
14.99487	336843
15.00298	322387
15.01112	299954
15.01923	291992
15.02737	293958
15.03548	285520
15.04360	257443
15.05173	255821
15.05985	254466
15.06798	234164
15.07610	236154
15.08422	224709
15.09235	218864
15.10047	209122
15.10860	196138
15.11672	197498
15.12483	185142
15.13297	197577
15.14108	195900
15.14920	212535
15.15733	201112
15.16545	191205
15.17358	165102
15.18170	152466
15.18982	134472
15.19795	131808
15.20607	123136
15.21420	113969
15.22232	111522
15.23043	117837
15.23857	105336
15.24668	104758
15.25480	104189
15.26293	103330
15.27105	103176
15.27918	95088
15.28730	98842
15.29542	95175
15.30355	92032
15.31167	93632
15.31980	92274
15.32792	87423
15.33603	88917
15.34417	88330
15.35228	84538
15.36042	87170
15.36853	86535
15.37665	86079
15.38478	76270
15.39290	89486
15.40102	84021
15.40915	82313
15.41727	84789
15.42540	83276
15.43352	85371
15.44163	84669
15.44977	87935
15.45788	93443
15.46602	109176
15.47413	139882
15.48225	189184
15.49038	276722
15.49850	378332
15.50663	469271
15.51475	502067
15.52287	518361
15.53100	484873
15.53912	442748
15.54723	401857
15.55537	357083
15.56348	297152
15.57162	259527
15.57973	230448
15.58785	207698
15.59598	184518
15.60410	169103
15.61223	159412
15.62035	153137
15.62847	139833
15.63660	136912
15.64472	127692
15.65283	121259
15.66097	120502
15.66908	118821
15.67722	111147
15.68533	114833
15.69345	103788
15.70158	102142
15.70970	98039
15.71783	100185
15.72595	96627
15.73407	98104
15.74220	99264
15.75032	109113
15.75845	127298
15.76657	169124
15.77468	241208
15.78282	381659
15.79093	531035
15.79905	653503
15.80718	678045
15.81530	607849
15.82343	509621
15.83155	406533
15.83967	321566
15.84780	255705
15.85592	239208
15.86405	202023
15.87217	197148
15.88028	179761
15.88842	164643
15.89653	157571
15.90465	146808
15.91278	144884
15.92090	140516
15.92903	129808
15.93715	131913
15.94527	142660
15.95340	140904
15.96152	157753
15.96965	194602
15.97777	229970
15.98588	265681
15.99402	297736
16.00213	276778
16.01027	263816
16.01838	243846
16.02650	217776
16.03463	207188
16.04275	189051
16.05087	168449
16.05900	167534
16.06712	154328
16.07525	143737
16.08337	138948
16.09148	144211
16.09962	152908
16.10773	165162
16.11587	208777
16.12398	231187
16.13210	260417
16.14023	277163
16.14835	266092
16.15648	241145
16.16460	212400
16.17272	182108
16.18085	164961
16.18897	152056
16.19708	138913
16.20522	135239
16.21333	122583
16.22147	119959
16.22958	113396
16.23770	116645
16.24583	111696
16.25395	111434
16.26208	105012
16.27020	117608
16.27832	115823
16.28645	111866
16.29457	121224
16.30270	129130
16.31082	127494
16.31893	124856
16.32707	129339
16.33518	120429
16.34330	112759
16.35143	115327
16.35955	126877
16.36768	147297
16.37580	179666
16.38392	227351
16.39205	278478
16.40017	312225
16.40830	301170
16.41642	276200
16.42453	236138
16.43267	202677
16.44078	173716
16.44890	161962
16.45703	171909
16.46515	204538
16.47328	316633
16.48140	513893
16.48952	751027
16.49765	953169
16.50577	1001843
16.51390	862942
16.52202	654435
16.53013	469982
16.53827	351809
16.54638	285673
16.55452	249201
16.56263	211853
16.57075	198197
16.57888	185753
16.58700	171546
16.59512	165191
16.60325	164496
16.61137	165012
16.61950	159733
16.62762	147225
16.63573	149610
16.64387	151587
16.65198	141579
16.66012	138995
16.66823	132730
16.67635	121203
16.68448	121731
16.69260	121326
16.70072	111443
16.70885	116124
16.71697	109507
16.72510	105559
16.73322	99199
16.74133	94983
16.74947	94848
16.75758	93247
16.76572	95960
16.77383	98022
16.78195	99546
16.79008	100507
16.79820	96673
16.80633	98105
16.81445	90413
16.82257	88381
16.83070	90741
16.83882	85219
16.84693	84671
16.85507	87739
16.86318	93133
16.87132	98197
16.87943	94277
16.88755	92780
16.89568	92781
16.90380	88819
16.91193	83909
16.92005	82182
16.92817	82284
16.93630	80990
16.94442	86826
16.95255	86408
16.96067	92376
16.96878	91464
16.97692	86379
16.98503	90191
16.99315	81685
17.00128	82143
17.00940	81445
17.01753	82179
17.02565	83406
17.03377	81963
17.04190	80198
17.05002	83009
17.05815	78361
17.06627	83795
17.07438	86291
17.08252	88862
17.09063	93752
17.09875	98140
17.10688	121540
17.11500	130332
17.12313	150131
17.13125	166734
17.13937	175079
17.14750	174492
17.15562	179555
17.16375	168516
17.17187	150833
17.17998	142701
17.18812	131836
17.19623	118890
17.20437	110074
17.21248	102690
17.22060	100636
17.22873	92905
17.23685	93462
17.24497	84680
17.25310	89865
17.26122	85666
17.26935	86875
17.27747	87793
17.28558	91599
17.29372	77773
17.30183	79296
17.30997	84852
17.31808	91493
17.32620	108764
17.33433	123570
17.34245	146078
17.35058	165996
17.35870	172917
17.36682	169242
17.37495	164651
17.38307	155436
17.39118	146257
17.39932	142432
17.40743	148312
17.41557	141655
17.42368	139032
17.43180	147551
17.43993	137955
17.44805	134759
17.45618	128807
17.46430	129676
17.47242	121647
17.48055	104484
17.48867	101079
17.49678	102868
17.50492	98816
17.51303	92216
17.52117	92912
17.52928	97703
17.53740	95588
17.54553	89235
17.55365	83410
17.56178	88240
17.56990	90365
17.57802	92716
17.58615	98781
17.59427	121530
17.60240	157909
17.61052	236732
17.61863	700418
17.62677	8276549
17.63488	2.625973E+07
17.64300	2.992364E+07
17.65113	2.907164E+07
17.65925	2.7805E+07
17.66738	2.656004E+07
17.67550	2.494921E+07
17.68362	2.35521E+07
17.69175	2.216267E+07
17.69987	2.103297E+07
17.70800	1.964888E+07
17.71612	1.858079E+07
17.72423	1.757247E+07
17.73237	1.669018E+07
17.74048	1.542735E+07
17.74860	1.402936E+07
17.75673	1.307258E+07
17.76485	1.207288E+07
17.77298	1.130242E+07
17.78110	1.062404E+07
17.78922	1.006372E+07
17.79735	9420519
17.80547	8701911
17.81360	8235621
17.82172	7705889
17.82983	7366460
17.83797	6808529
17.84608	6454438
17.85422	6192698
17.86233	6026912
17.87045	5659589
17.87858	5348838
17.88670	5125811
17.89482	4852168
17.90295	4625532
17.91107	4411246
17.91920	4188835
17.92732	3963948
17.93543	3885382
17.94357	3675915
17.95168	3532875
17.95982	3354680
17.96793	3206397
17.97605	3125878
17.98418	3046320
17.99230	2985669
18.00043	2834963
18.00855	2719847
18.01667	2595855
18.02480	2546895
18.03292	2515968
18.04103	2480804
18.04917	2434195
18.05728	2361812
18.06542	2290155
18.07353	2150216
18.08165	2057652
18.08978	2049022
18.09790	2004611
18.10603	1963047
18.11415	1904379
18.12227	1856830
18.13040	1859542
18.13852	1783748
18.14663	1744653
18.15477	1707503
18.16288	1677720
18.17102	1645249
18.17913	1570067
18.18725	1514100
18.19538	1452136
18.20350	1426320
18.21163	1381294
18.21975	1358980
18.22787	1301072
18.23600	1267965
18.24412	1226928
18.25225	1189076
18.26037	1166832
18.26848	1157369
18.27662	1112442
18.28473	1082308
18.29285	1061833
18.30098	1037505
18.30910	992069
18.31723	973301
18.32535	961333
18.33347	924439
18.34160	906936
18.34972	860924
18.35785	854617
18.36597	836144
18.37408	837095
18.38222	820085
18.39033	799301
18.39847	795110
18.40658	770491
18.41470	760512
18.42283	752893
18.43095	767505
18.43907	774574
18.44720	777054
18.45532	787918
18.46345	803704
18.47157	834356
18.47968	850724
18.48782	864597
18.49593	873229
18.50407	852668
18.51218	815711
18.52030	762488
18.52843	702828
18.53655	679736
18.54467	656016
18.55280	621967
18.56092	608745
18.56905	611985
18.57717	581753
18.58528	571892
18.59342	586502
18.60153	563540
18.60967	599517
18.61778	577707
18.62590	587747
18.63403	571462
18.64215	570887
18.65028	564607
18.65840	544097
18.66652	532794
18.67465	530055
18.68277	507489
18.69088	492921
18.69902	480549
18.70713	465030
18.71527	470668
18.72338	469756
18.73150	453993
18.73963	449279
18.74775	448622
18.75588	433979
18.76400	432259
18.77212	431420
18.78025	415030
18.78837	416248
18.79648	416461
18.80462	405349
18.81273	410534
18.82087	396449
18.82898	397621
18.83710	396301
18.84523	400335
18.85335	392636
18.86148	385468
18.86960	387801
18.87772	384328
18.88585	378151
18.89397	368791
18.90210	374393
18.91022	366630
18.91833	369707
18.92647	374523
18.93458	386340
18.94270	405377
18.95083	443912
18.95895	463608
18.96708	497576
18.97520	515075
18.98332	498513
18.99145	478184
18.99957	441199
19.00770	420829
19.01582	389078
19.02393	384482
19.03207	366033
19.04018	357469
19.04832	351092
19.05643	339915
19.06455	342856
19.07268	345429
19.08080	388124
19.08892	425657
19.09705	494212
19.10517	581334
19.11330	642679
19.12142	672153
19.12953	620275
19.13767	567100
19.14578	493006
19.15392	440690
19.16203	410980
19.17015	390985
19.17828	374220
19.18640	367503
19.19452	356286
19.20265	340915
19.21077	332688
19.21890	326371
19.22702	310184
19.23513	293328
19.24327	294845
19.25138	279695
19.25952	284977
19.26763	274180
19.27575	280784
19.28388	279545
19.29200	275595
19.30013	273803
19.30825	280194
19.31637	287227
19.32450	281892
19.33262	292803
19.34073	279607
19.34887	284733
19.35698	289910
19.36512	317457
19.37323	338520
19.38135	367427
19.38948	394600
19.39760	384131
19.40573	376382
19.41385	364283
19.42197	335241
19.43010	324473
19.43822	311561
19.44635	305081
19.45447	295600
19.46258	297144
19.47072	287621
19.47883	275478
19.48695	297823
19.49508	309019
19.50320	339525
19.51133	378241
19.51945	448127
19.52757	493034
19.53570	491478
19.54382	472335
19.55195	387489
19.56007	329737
19.56818	306582
19.57632	280751
19.58443	259581
19.59255	243398
19.60068	236755
19.60880	233036
19.61693	228856
19.62505	226426
19.63317	235863
19.64130	253291
19.64942	303260
19.65755	381062
19.66567	508701
19.67378	602749
19.68192	670259
19.69003	720067
19.69817	702920
19.70628	632361
19.71440	558274
19.72253	501900
19.73065	438417
19.73877	398949
19.74690	370051
19.75502	342872
19.76315	325612
19.77127	312937
19.77938	281212
19.78752	292666
19.79563	306481
19.80377	316221
19.81188	325000
19.82000	328094
19.82813	321503
19.83625	309111
19.84438	284546
19.85250	264348
19.86062	263438
19.86875	237515
19.87687	250676
19.88498	286697
19.89312	318587
19.90123	367686
19.90937	423046
19.91748	450845
19.92560	471209
19.93373	486165
19.94185	467630
19.94998	458624
19.95810	439915
19.96622	431942
19.97435	410360
19.98247	415370
19.99058	402439
19.99872	389536
20.00683	384292
20.01497	402747
20.02308	391714
20.03120	387645
20.03933	383149
20.04745	362151
20.05558	348779
20.06370	344133
20.07182	359901
20.07995	384907
20.08807	409499
20.09620	439775
20.10432	452168
20.11243	435388
20.12057	412860
20.12868	394339
20.13680	358440
20.14493	361299
20.15305	392486
20.16118	505224
20.16930	699861
20.17742	1015682
20.18555	1448857
20.19367	1925307
20.20180	2349657
20.20992	2553158
20.21803	2440627
20.22617	2190103
20.23428	1856882
20.24240	1560333
20.25053	1352944
20.25865	1300775
20.26678	1413406
20.27490	1632010
20.28302	1827645
20.29115	1927164
20.29927	1885271
20.30740	1644219
20.31552	1384194
20.32363	1093803
20.33177	857523
20.33988	664098
20.34802	522728
20.35613	423443
20.36425	370941
20.37238	323586
20.38050	289331
20.38862	269129
20.39675	245616
20.40487	237998
20.41300	231737
20.42112	227729
20.42923	224814
20.43737	234493
20.44548	237597
20.45362	251258
20.46173	253870
20.46985	255762
20.47798	241615
20.48610	245976
20.49423	233866
20.50235	216006
20.51047	201898
20.51860	191042
20.52672	186485
20.53483	180351
20.54297	177131
20.55108	169182
20.55922	167857
20.56733	169351
20.57545	164320
20.58358	170026
20.59170	166086
20.59983	160718
20.60795	159138
20.61607	160242
20.62420	157389
20.63232	160822
20.64043	158887
20.64857	154595
20.65668	157157
20.66482	161854
20.67293	159733
20.68105	156022
20.68918	159806
20.69730	156649
20.70543	152480
20.71355	148548
20.72167	148413
20.72980	145987
20.73792	143463
20.74605	149202
20.75417	146951
20.76228	148275
20.77042	161673
20.77853	159693
20.78665	182581
20.79478	219306
20.80290	285411
20.81103	394350
20.81915	513979
20.82727	583422
20.83540	574167
20.84352	513231
20.85165	427020
20.85977	326833
20.86788	267398
20.87602	218141
20.88413	195221
20.89227	182751
20.90038	173179
20.90850	170858
20.91663	175425
20.92475	186873
20.93287	187513
20.94100	194954
20.94912	197634
20.95725	193746
20.96537	191052
20.97348	189202
20.98162	176664
20.98973	175821
20.99787	164340
21.00598	156458
21.01410	150607
21.02223	147061
21.03035	151120
21.03847	155539
21.04660	151844
21.05472	149758
21.06285	153143
21.07097	154305
21.07908	155872
21.08722	159451
21.09533	152180
21.10347	154277
21.11158	157126
21.11970	151336
21.12783	146325
21.13595	156304
21.14408	185314
21.15220	242779
21.16032	291749
21.16845	343277
21.17657	377041
21.18468	355333
21.19282	332328
21.20093	278183
21.20907	241414
21.21718	220998
21.22530	192526
21.23343	184325
21.24155	177084
21.24968	164897
21.25780	158562
21.26592	153531
21.27405	155616
21.28217	148289
21.29028	146321
21.29842	152002
21.30653	146343
21.31467	140867
21.32278	139097
21.33090	138849
21.33903	138087
21.34715	132151
21.35528	132904
21.36340	135330
21.37152	131947
21.37965	134140
21.38777	141748
21.39590	138263
21.40402	153405
21.41213	160260
21.42027	174726
21.42838	182238
21.43650	190637
21.44463	175497
21.45275	174435
21.46088	164687
21.46900	163064
21.47712	151926
21.48525	143024
21.49337	140697
21.50150	143569
21.50962	133643
21.51773	136293
21.52587	144603
21.53398	146954
21.54212	145610
21.55023	138661
21.55835	142071
21.56648	137101
21.57460	136042
21.58272	145396
21.59085	135383
21.59897	139068
21.60710	138992
21.61522	143177
21.62333	146906
21.63147	157552
21.63958	174926
21.64772	187708
21.65583	195925
21.66395	195485
21.67208	191657
21.68020	194213
21.68833	187839
21.69645	177500
21.70457	167670
21.71270	165044
21.72082	149882
21.72893	146112
21.73707	137810
21.74518	135877
21.75332	136811
21.76143	131397
21.76955	141687
21.77768	145481
21.78580	151145
21.79393	162375
21.80205	161904
21.81017	172293
21.81830	176756
21.82642	180314
21.83453	183759
21.84267	183925
21.85078	189600
21.85892	186060
21.86703	176859
21.87515	168761
21.88328	150877
21.89140	147553
21.89953	136167
21.90765	131441
21.91577	120353
21.92390	125600
21.93202	118273
21.94015	112417
21.94827	115549
21.95638	113775
21.96452	106208
21.97263	105443
21.98075	105355
21.98888	101930
21.99700	107697
22.00513	98836
22.01325	104238
22.02137	103882
22.02950	105025
22.03762	105511
22.04575	105723
22.05387	112565
22.06198	113367
22.07012	115062
22.07823	125116
22.08635	120660
22.09448	118320
22.10260	125816
22.11073	121635
22.11885	123757
22.12697	122481
22.13510	117139
22.14322	118322
22.15135	113234
22.15947	113866
22.16758	111902
22.17572	113121
22.18383	117383
22.19197	109608
22.20008	112540
22.20820	106415
22.21633	110198
22.22445	113671
22.23257	110961
22.24070	113023
22.24882	113913
22.25695	109771
22.26507	108300
22.27318	113127
22.28132	102065
22.28943	108529
22.29757	105002
22.30568	114586
22.31380	114106
22.32193	111576
22.33005	119887
22.33818	116539
22.34630	112205
22.35442	111770
22.36255	107918
22.37067	111942
22.37878	111960
22.38692	111397
22.39503	122249
22.40317	135552
22.41128	153485
22.41940	172673
22.42753	201690
22.43565	216282
22.44378	233964
22.45190	219841
22.46002	206209
22.46815	191173
22.47627	182866
22.48438	165352
22.49252	173843
22.50063	162115
22.50877	156982
22.51688	162985
22.52500	164515
22.53313	161914
22.54125	157153
22.54938	158687
22.55750	159492
22.56562	149504
22.57375	145905
22.58187	148540
22.59000	141163
22.59812	145452
22.60623	136868
22.61437	129461
22.62248	131058
22.63060	124050
22.63873	127379
22.64685	124866
22.65498	125939
22.66310	131662
22.67122	130659
22.67935	133909
22.68747	136133
22.69560	141760
22.70372	151529
22.71183	166604
22.71997	179188
22.72808	183815
22.73622	190465
22.74433	195238
22.75245	179746
22.76058	166613
22.76870	172217
22.77682	167043
22.78495	180200
22.79307	200313
22.80120	226659
22.80932	271412
22.81743	300254
22.82557	330776
22.83368	315602
22.84182	294018
22.84993	259093
22.85805	237585
22.86618	217139
22.87430	216628
22.88242	214391
22.89055	232239
22.89867	245807
22.90680	258776
22.91492	273396
22.92303	281847
22.93117	276687
22.93928	266477
22.94742	252614
22.95553	238396
22.96365	199821
22.97178	187392
22.97990	171840
22.98803	158767
22.99615	157367
23.00427	148945
23.01240	148369
23.02052	148167
23.02863	144340
23.03677	140475
23.04488	135595
23.05302	139242
23.06113	142191
23.06925	146324
23.07738	146245
23.08550	149962
23.09363	153787
23.10175	161184
23.10987	151347
23.11800	151564
23.12612	146438
23.13423	144675
23.14237	147683
23.15048	143987
23.15862	149301
23.16673	144273
23.17485	138559
23.18298	140266
23.19110	142043
23.19923	148348
23.20735	152624
23.21547	151290
23.22360	144264
23.23172	147296
23.23985	150023
23.24797	152179
23.25608	151005
23.26422	155052
23.27233	157303
23.28045	156354
23.28858	160855
23.29670	157873
23.30483	147090
23.31295	148251
23.32107	147832
23.32920	151214
23.33732	153599
23.34545	171097
23.35357	198316
23.36168	226843
23.36982	243843
23.37793	251675
23.38607	255056
23.39418	244629
23.40230	212262
23.41043	190237
23.41855	173588
23.42667	160999
23.43480	152830
23.44292	149010
23.45105	140764
23.45917	140360
23.46728	136848
23.47542	139334
23.48353	133004
23.49167	138111
23.49978	136338
23.50790	134579
23.51603	134280
23.52415	131604
23.53227	134656
23.54040	135598
23.54852	138691
23.55665	144422
23.56477	148840
23.57288	165978
23.58102	203665
23.58913	246845
23.59727	310054
23.60538	375920
23.61350	391471
23.62163	383741
23.62975	354940
23.63788	306949
23.64600	255230
23.65412	225261
23.66225	199823
23.67037	181724
23.67848	177118
23.68662	155108
23.69473	155415
23.70287	152656
23.71098	149486
23.71910	146243
23.72723	142059
23.73535	143916
23.74348	158860
23.75160	220487
23.75972	406096
23.76785	891358
23.77597	1886255
23.78410	3351654
23.79222	4822932
23.80033	5650068
23.80847	5401335
23.81658	4562010
23.82470	3469662
23.83283	2517878
23.84095	1836230
23.84908	1352624
23.85720	1036208
23.86532	841070
23.87345	719252
23.88157	635613
23.88970	556435
23.89782	509013
23.90593	471455
23.91407	464538
23.92218	442357
23.93030	411946
23.93843	393911
23.94655	375296
23.95468	348180
23.96280	335728
23.97092	325784
23.97905	297329
23.98717	292900
23.99530	307018
24.00342	362243
24.01153	569267
24.01967	977426
24.02778	1631259
24.03592	2337207
24.04403	2673462
24.05215	2753617
24.06028	2218398
24.06840	1528059
24.07652	948611
24.08465	594047
24.09277	412584
24.10090	324301
24.10902	276522
24.11713	259165
24.12527	242721
24.13338	247593
24.14152	266946
24.14963	285356
24.15775	306044
24.16588	317657
24.17400	306168
24.18212	286911
24.19025	258317
24.19837	244065
24.20650	222715
24.21462	218943
24.22273	213830
24.23087	205935
24.23898	203839
24.24712	193776
24.25523	186745
24.26335	179270
24.27148	171307
24.27960	164573
24.28773	159274
24.29585	154330
24.30397	148934
24.31210	155443
24.32022	152458
24.32833	160666
24.33647	152767
24.34458	161460
24.35272	160839
24.36083	151029
24.36895	150830
24.37708	146387
24.38520	156952
24.39333	166967
24.40145	195272
24.40957	230023
24.41770	245530
24.42582	239549
24.43395	231857
24.44207	190519
24.45018	170180
24.45832	159119
24.46643	148746
24.47455	144819
24.48268	144301
24.49080	138042
24.49893	145178
24.50705	150789
24.51517	155496
24.52330	166367
24.53142	164637
24.53955	179734
24.54767	177229
24.55578	182741
24.56392	188195
24.57203	183131
24.58015	176090
24.58828	168665
24.59640	171037
24.60453	159632
24.61265	151473
24.62077	149467
24.62890	142709
24.63702	140809
24.64515	136361
24.65327	132076
24.66138	138890
24.66952	137424
24.67763	136004
24.68577	127194
24.69388	124310
24.70200	126888
24.71013	132794
24.71825	143027
24.72637	144558
24.73450	155804
24.74262	167704
24.75075	170568
24.75887	170291
24.76698	178748
24.77512	175366
24.78323	197884
24.79137	184547
24.79948	204894
24.80760	196666
24.81573	193038
24.82385	199755
24.83198	210959
24.84010	211318
24.84822	239460
24.85635	266896
24.86447	335208
24.87258	406976
24.88072	512673
24.88883	634533
24.89697	725310
24.90508	760758
24.91320	716715
24.92133	619959
24.92945	499502
24.93758	380961
24.94570	306083
24.95382	253692
24.96195	235819
24.97007	210697
24.97818	202528
24.98632	195847
24.99443	199248
25.00257	206113
25.01068	197569
25.01880	200245
25.02693	192731
25.03505	193564
25.04318	193903
25.05130	191180
25.05942	185491
25.06755	189440
25.07567	194892
25.08380	194130
25.09192	203039
25.10003	212723
25.10817	262097
25.11628	398173
25.12440	721214
25.13253	1244004
25.14065	1938307
25.14878	2619837
25.15690	2996490
25.16502	2990178
25.17315	2609099
25.18127	1992624
25.18940	1437378
25.19752	1001389
25.20563	692699
25.21377	502679
25.22188	390377
25.23002	340491
25.23813	348031
25.24625	420953
25.25438	628536
25.26250	919879
25.27062	1235510
25.27875	1515360
25.28687	1588145
25.29500	1456238
25.30312	1179478
25.31123	867188
25.31937	579053
25.32748	395487
25.33562	299007
25.34373	244969
25.35185	217793
25.35998	210413
25.36810	196408
25.37622	193513
25.38435	180180
25.39247	181991
25.40060	182312
25.40872	178951
25.41683	173204
25.42497	172891
25.43308	176005
25.44122	166915
25.44933	165705
25.45745	175175
25.46558	169227
25.47370	161395
25.48183	160490
25.48995	169747
25.49807	166145
25.50620	165603
25.51432	159294
25.52243	160411
25.53057	152427
25.53868	157160
25.54682	144557
25.55493	152175
25.56305	143503
25.57118	157056
25.57930	146096
25.58743	157459
25.59555	149822
25.60367	148779
25.61180	150128
25.61992	151239
25.62803	153196
25.63617	171893
25.64428	188656
25.65242	203643
25.66053	202016
25.66865	189723
25.67678	173367
25.68490	154529
25.69303	143609
25.70115	126967
25.70927	122119
25.71740	117718
25.72552	113613
25.73365	121213
25.74177	116356
25.74988	114592
25.75802	122386
25.76613	132814
25.77425	157375
25.78238	192137
25.79050	223232
25.79863	242960
25.80675	239710
25.81487	204450
25.82300	174874
25.83112	144474
25.83925	138590
25.84737	136651
25.85548	135063
25.86362	137802
25.87173	130318
25.87987	128777
25.88798	119530
25.89610	124510
25.90423	112774
25.91235	113769
25.92047	110257
25.92860	116334
25.93672	119417
25.94485	123700
25.95297	126096
25.96108	122699
25.96922	127666
25.97733	120842
25.98547	112689
25.99358	104848
26.00170	105036
26.00983	98200
26.01795	100507
26.02608	99102
26.03420	96906
26.04232	101254
26.05045	102751
26.05857	107277
26.06668	110655
26.07482	127734
26.08293	137871
26.09107	146587
26.09918	153233
26.10730	156549
26.11543	155626
26.12355	171104
26.13168	163598
26.13980	173861
26.14792	173833
26.15605	182033
26.16417	180754
26.17228	181763
26.18042	175787
26.18853	179421
26.19667	163721
26.20478	163407
26.21290	161024
26.22103	157321
26.22915	153207
26.23728	154686
26.24540	157332
26.25352	156557
26.26165	153296
26.26977	158017
26.27790	159517
26.28602	156501
26.29413	165575
26.30227	153591
26.31038	153150
26.31850	147284
26.32663	153472
26.33475	149534
26.34288	151227
26.35100	144571
26.35912	154955
26.36725	172012
26.37537	203139
26.38350	242514
26.39162	297790
26.39973	360161
26.40787	406158
26.41598	420550
26.42410	410487
26.43223	369309
26.44035	314306
26.44848	268908
26.45660	223453
26.46472	196184
26.47285	184470
26.48097	176280
26.48910	166415
26.49722	166448
26.50533	161134
26.51347	148410
26.52158	146705
26.52972	139133
26.53783	134295
26.54595	131967
26.55408	132814
26.56220	132982
26.57032	134890
26.57845	135016
26.58657	136596
26.59470	127785
26.60282	128974
26.61093	126710
26.61907	129523
26.62718	124992
26.63532	129812
26.64343	127673
26.65155	126473
26.65968	131307
26.66780	125610
26.67593	124065
26.68405	124897
26.69217	128325
26.70030	129936
26.70842	123023
26.71653	124416
26.72467	124061
26.73278	123962
26.74092	122183
26.74903	121836
26.75715	122295
26.76528	123023
26.77340	117363
26.78153	126552
26.78965	125371
26.79777	125077
26.80590	131597
26.81402	130529
26.82213	127086
26.83027	133681
26.83838	126962
26.84652	125026
26.85463	121043
26.86275	119830
26.87088	116107
26.87900	121827
26.88713	118718
26.89525	124868
26.90337	117315
26.91150	118612
26.91962	120317
26.92775	111249
26.93587	112155
26.94398	112206
26.95212	113467
26.96023	129037
26.96835	130294
26.97648	146053
26.98460	180877
26.99273	253646
27.00085	378962
27.00897	550065
27.01710	719979
27.02522	878817
27.03335	952001
27.04147	945083
27.04958	831894
27.05772	696963
27.06583	540172
27.07397	426994
27.08208	371900
27.09020	310790
27.09833	283416
27.10645	254872
27.11457	231729
27.12270	216822
27.13082	201850
27.13895	197358
27.14707	192404
27.15518	189887
27.16332	188075
27.17143	189082
27.17957	192915
27.18768	200107
27.19580	201451
27.20393	200371
27.21205	193504
27.22017	179214
27.22830	169319
27.23642	165591
27.24455	157175
27.25267	153256
27.26078	142663
27.26892	143798
27.27703	138687
27.28517	138430
27.29328	131093
27.30140	129087
27.30953	134642
27.31765	129815
27.32578	129193
27.33390	133051
27.34202	129429
27.35015	128508
27.35827	127199
27.36638	131403
27.37452	135975
27.38263	133787
27.39077	130316
27.39888	127532
27.40700	127701
27.41513	115053
27.42325	115917
27.43138	117764
27.43950	115110
27.44762	111346
27.45575	112286
27.46387	112819
27.47198	115517
27.48012	104373
27.48823	109363
27.49637	102540
27.50448	101871
27.51260	105527
27.52073	109861
27.52885	107556
27.53698	107625
27.54510	113564
27.55322	107598
27.56135	104281
27.56947	111129
27.57760	118110
27.58572	121974
27.59383	123026
27.60197	141816
27.61008	136380
27.61820	139922
27.62633	132181
27.63445	128576
27.64258	119357
27.65070	112275
27.65882	104563
27.66695	107382
27.67507	104640
27.68320	101955
27.69132	106822
27.69943	105747
27.70757	105467
27.71568	100822
27.72382	101364
27.73193	97351
27.74005	100315
27.74818	98564
27.75630	105207
27.76442	114836
27.77255	137623
27.78067	167395
27.78880	195572
27.79692	217184
27.80503	210458
27.81317	196529
27.82128	161484
27.82942	143012
27.83753	121570
27.84565	103593
27.85378	106273
27.86190	100569
27.87002	99870
27.87815	95085
27.88627	98822
27.89440	91984
27.90252	95139
27.91063	92391
27.91877	90609
27.92688	90903
27.93502	93235
27.94313	95444
27.95125	91533
27.95938	92740
27.96750	88013
27.97563	86569
27.98375	88987
27.99187	95325
28.00000	91521
28.00812	102171
28.01623	104444
28.02437	111308
28.03248	106255
28.04062	111509
28.04873	117385
28.05685	116333
28.06498	121876
28.07310	124522
28.08123	117383
28.08935	108604
28.09747	112213
28.10560	108181
28.11372	102844
28.12185	101929
28.12997	98893
28.13808	94949
28.14622	88852
28.15433	85444
28.16245	89355
28.17058	91173
28.17870	84489
28.18683	94848
28.19495	103354
28.20307	103794
28.21120	124057
28.21932	137255
28.22745	145181
28.23557	148881
28.24368	131548
28.25182	129948
28.25993	119299
28.26805	109699
28.27618	100065
28.28430	102564
28.29243	102708
28.30055	95713
28.30867	96757
28.31680	97077
28.32492	109793
28.33305	107564
28.34117	112215
28.34928	127602
28.35742	138334
28.36553	142827
28.37367	158291
28.38178	165154
28.38990	169277
28.39803	171375
28.40615	183374
28.41427	164509
28.42240	166847
28.43052	160548
28.43865	150854
28.44677	144327
28.45488	135233
28.46302	132825
28.47113	134225
28.47927	130714
28.48738	127040
28.49550	132676
28.50363	132361
28.51175	134433
28.51988	135577
28.52800	134607
28.53612	127740
28.54425	117440
28.55237	109935
28.56048	114048
28.56862	103535
28.57673	111233
28.58487	110185
28.59298	107591
28.60110	107396
28.60923	111954
28.61735	115450
28.62548	119226
28.63360	119062
28.64172	117255
28.64985	126201
28.65797	123450
28.66608	126056
28.67422	125654
28.68233	121273
28.69047	124086
28.69858	114009
28.70670	115270
28.71483	102370
28.72295	112862
28.73108	108230
28.73920	102329
28.74732	99946
28.75545	107972
28.76357	116837
28.77170	116379
28.77982	136298
28.78793	139722
28.79607	143560
28.80418	145872
28.81230	141219
28.82043	129599
28.82855	121064
28.83668	124669
28.84480	115178
28.85292	111266
28.86105	106274
28.86917	100408
28.87730	98627
28.88542	101641
28.89353	104923
28.90167	107691
28.90978	109165
28.91790	106835
28.92603	114059
28.93415	110562
28.94228	112551
28.95040	113966
28.95852	114165
28.96665	117069
28.97477	112362
28.98290	107809
28.99102	106307
28.99913	99923
29.00727	97591
29.01538	91804
29.02352	94726
29.03163	92004
29.03975	99461
29.04788	98062
29.05600	101457
29.06412	110132
29.07225	113996
29.08037	127528
29.08850	137443
29.09662	129430
29.10473	127979
29.11287	114248
29.12098	106056
29.12912	106388
29.13723	90212
29.14535	86604
29.15348	87128
29.16160	92986
29.16973	88488
29.17785	91610
29.18597	90402
29.19410	105015
29.20222	105902
29.21033	112420
29.21847	120963
29.22658	135094
29.23472	149651
29.24283	180036
29.25095	239563
29.25908	316372
29.26720	381113
29.27533	435828
29.28345	422186
29.29157	379232
29.29970	322195
29.30782	241874
29.31593	192239
29.32407	149907
29.33218	131090
29.34032	124727
29.34843	110473
29.35655	101257
29.36468	104526
29.37280	99926
29.38093	104418
29.38905	103726
29.39717	96418
29.40530	97976
29.41342	95071
29.42155	97874
29.42967	98269
29.43778	97286
29.44592	96727
29.45403	95674
29.46215	98909
29.47028	98785
29.47840	95989
29.48653	101136
29.49465	96494
29.50277	108047
29.51090	104872
29.51902	104735
29.52715	97528
29.53527	104093
29.54338	100549
29.55152	96857
29.55963	94078
29.56777	93203
29.57588	90294
29.58400	86817
29.59213	84515
29.60025	90314
29.60837	90856
29.61650	91437
29.62462	96872
29.63275	94324
29.64087	91986
29.64898	86371
29.65712	86174
29.66523	86819
29.67337	84345
29.68148	83349
29.68960	85807
29.69773	89477
29.70585	85760
29.71397	81951
29.72210	83862
29.73022	83830
29.73835	77907
29.74647	80359
29.75458	80359
29.76272	83637
29.77083	82968
29.77897	83677
29.78708	80331
29.79520	83028
29.80333	79894
29.81145	80506
29.81958	77775
29.82770	80131
29.83582	80324
29.84395	84378
29.85207	84132
29.86018	84863
29.86832	92618
29.87643	96667
29.88457	113259
29.89268	136952
29.90080	158951
29.90893	172637
29.91705	165449
29.92518	161570
29.93330	134737
29.94142	115920
29.94955	100665
29.95767	92063
29.96578	92069
29.97392	92646
29.98203	94121
29.99017	101622
29.99828	109391
30.00640	121826
30.01453	115510
30.02265	119100
30.03078	125616
30.03890	126477
30.04702	127794
30.05515	119712
30.06327	124644
30.07140	125373
30.07952	123014
30.08763	119646
30.09577	122852
30.10388	115764
30.11200	119434
30.12013	121340
30.12825	108680
30.13638	124572
30.14450	110848
30.15262	108195
30.16075	101824
30.16887	108778
30.17700	105594
30.18512	106694
30.19323	108719
30.20137	103423
30.20948	108346
30.21762	111256
30.22573	105032
30.23385	106649
30.24198	97888
30.25010	95495
30.25822	98743
30.26635	92433
30.27447	91071
30.28260	85208
30.29072	89811
30.29883	88896
30.30697	87348
30.31508	84303
30.32322	88609
30.33133	82684
30.33945	83059
30.34758	85679
30.35570	85092
30.36382	79072
30.37195	85706
30.38007	84992
30.38820	82169
30.39632	80328
30.40443	81343
30.41257	77642
30.42068	82047
30.42882	77745
30.43693	75131
30.44505	78500
30.45318	75859
30.46130	81943
30.46943	82402
30.47755	81892
30.48567	83358
30.49380	87364
30.50192	85667
30.51003	89203
30.51817	85065
30.52628	87708
30.53442	86998
30.54253	83625
30.55065	80062
30.55878	82163
30.56690	80303
30.57503	87812
30.58315	82773
30.59127	78965
30.59940	82035
30.60752	81996
30.61565	80312
30.62377	84362
30.63188	84397
30.64002	76809
30.64813	82364
30.65625	76343
30.66438	76782
30.67250	78352
30.68063	79126
30.68875	78067
30.69687	77540
30.70500	82333
30.71312	78006
30.72125	72926
30.72937	74657
30.73748	73311
30.74562	76903
30.75373	79154
30.76185	75054
30.76998	81062
30.77810	87537
30.78623	98221
30.79435	117065
30.80247	145445
30.81060	168207
30.81872	181816
30.82685	188200
30.83497	156272
30.84308	129327
30.85122	111769
30.85933	109848
30.86747	97554
30.87558	89437
30.88370	92428
30.89183	88640
30.89995	86620
30.90807	90537
30.91620	81667
30.92432	83063
30.93245	78361
30.94057	83531
30.94868	76883
30.95682	84776
30.96493	81336
30.97307	83162
30.98118	82706
30.98930	80947
30.99743	81661
31.00555	79603
31.01367	80020
31.02180	75925
31.02992	76456
31.03805	78515
31.04617	79098
31.05428	79822
31.06242	85923
31.07053	77243
31.07867	85020
31.08678	91406
31.09490	94925
31.10303	109463
31.11115	114701
31.11928	112044
31.12740	112291
31.13552	105152
31.14365	101285
31.15177	91867
31.15988	87628
31.16802	85079
31.17613	92913
31.18427	94119
31.19238	101552
31.20050	114626
31.20863	135665
31.21675	150876
31.22488	172706
31.23300	169878
31.24112	173671
31.24925	167110
31.25737	147656
31.26550	125836
31.27362	115465
31.28173	95376
31.28987	94495
31.29798	90703
31.30610	89134
31.31423	82736
31.32235	84471
31.33048	84052
31.33860	83376
31.34672	78542
31.35485	83423
31.36297	82159
31.37110	79771
31.37922	81272
31.38733	80258
31.39547	82206
31.40358	77133
31.41172	85522
31.41983	82956
31.42795	81421
31.43608	79106
31.44420	81934
31.45232	83724
31.46045	87035
31.46857	86751
31.47670	88616
31.48482	90336
31.49293	101429
31.50107	102488
31.50918	100042
31.51732	104351
31.52543	102344
31.53355	101822
31.54168	101634
31.54980	107335
31.55792	109306
31.56605	110991
31.57417	120597
31.58230	121748
31.59042	114895
31.59853	111638
31.60667	97701
31.61478	95527
31.62292	92866
31.63103	94274
31.63915	88801
31.64728	92723
31.65540	87119
31.66353	93096
31.67165	90819
31.67977	89028
31.68790	92025
31.69602	83833
31.70413	87077
31.71227	88975
31.72038	85763
31.72852	84464
31.73663	83288
31.74475	80250
31.75288	80760
31.76100	83877
31.76913	87897
31.77725	90449
31.78537	87814
31.79350	98316
31.80162	91904
31.80973	97217
31.81787	92170
31.82598	94116
31.83412	95166
31.84223	90373
31.85035	91427
31.85848	89869
31.86660	88267
31.87473	93999
31.88285	88134
31.89097	87188
31.89910	80289
31.90722	85656
31.91535	87858
31.92347	88420
31.93158	88680
31.93972	94741
31.94783	99704
31.95595	107221
31.96408	109064
31.97220	114066
31.98033	116590
31.98845	120348
31.99657	127250
32.00470	126041
32.01282	121759
32.02095	124482
32.02907	117433
32.03718	116859
32.04532	112801
32.05343	108372
32.06157	104437
32.06968	107820
32.07780	108162
32.08593	107408
32.09405	108377
32.10217	110662
32.11030	103590
32.11842	99255
32.12655	96796
32.13467	96213
32.14278	92749
32.15092	92894
32.15903	93934
32.16717	87416
32.17528	90120
32.18340	87764
32.19153	79589
32.19965	83007
32.20777	88002
32.21590	91204
32.22402	89545
32.23215	84837
32.24027	91224
32.24838	96277
32.25652	93353
32.26463	102586
32.27277	105359
32.28088	110765
32.28900	108661
32.29713	101103
32.30525	97187
32.31338	87944
32.32150	87777
32.32962	89532
32.33775	89324
32.34587	89010
32.35398	91056
32.36212	86968
32.37023	91963
32.37837	88939
32.38648	88748
32.39460	90323
32.40273	85960
32.41085	83310
32.41898	88373
32.42710	87376
32.43522	80625
32.44335	81019
32.45147	80001
32.45960	78229
32.46772	80011
32.47583	75843
32.48397	78292
32.49208	75061
32.50020	76412
32.50833	79182
32.51645	79661
32.52458	74894
32.53270	71354
32.54082	75728
32.54895	77407
32.55707	74893
32.56520	82277
32.57332	80426
32.58143	82974
32.58957	82724
32.59768	76898
32.60580	73559
32.61393	82057
32.62205	80693
32.63018	70999
32.63830	80136
32.64642	76437
32.65455	84206
32.66267	87965
32.67080	96361
32.67892	101034
32.68703	108310
32.69517	110568
32.70328	107040
32.71142	103520
32.71953	103078
32.72765	105491
32.73578	96385
32.74390	95359
32.75202	86780
32.76015	91342
32.76827	79470
32.77640	76807
32.78452	80808
32.79263	80634
32.80077	78116
32.80888	77950
32.81702	82525
32.82513	76378
32.83325	78105
32.84138	76257
32.84950	76994
32.85762	78251
32.86575	79901
32.87387	75486
32.88200	74460
32.89012	76940
32.89823	79883
32.90637	77903
32.91448	82807
32.92262	94941
32.93073	77702
32.93885	86619
32.94698	77936
32.95510	75969
32.96323	82369
32.97135	83085
32.97947	87892
32.98760	102879
32.99572	121707
33.00383	137711
33.01197	144682
33.02008	145114
33.02822	138746
33.03633	124096
33.04445	109495
33.05258	100766
33.06070	98707
33.06883	101340
33.07695	99543
33.08507	102097
33.09320	102291
33.10132	110304
33.10945	126302
33.11757	125581
33.12568	133029
33.13382	129508
33.14193	123776
33.15005	112307
33.15818	100150
33.16630	88903
33.17443	97111
33.18255	85495
33.19067	88180
33.19880	82905
33.20692	84916
33.21505	86714
33.22317	89195
33.23128	90941
33.23942	92825
33.24753	86118
33.25565	91351
33.26378	81894
33.27190	86049
33.28003	84682
33.28815	82795
33.29627	85108
33.30440	86067
33.31252	75785
33.32065	79678
33.32877	80346
33.33688	81623
33.34502	84853
33.35313	79244
33.36127	81382
33.36938	80480
33.37750	79525
33.38563	87019
33.39375	82887
33.40187	86931
33.41000	95924
33.41812	96721
33.42625	107958
33.43437	110018
33.44248	115818
33.45062	108761
33.45873	101529
33.46687	98946
33.47498	91913
33.48310	94169
33.49123	85262
33.49935	88477
33.50748	92949
33.51560	98863
33.52372	96181
33.53185	101030
33.53997	86928
33.54808	86848
33.55622	85292
33.56433	86398
33.57247	87006
33.58058	84793
33.58870	78297
33.59683	74699
33.60495	77128
33.61308	77946
33.62120	78827
33.62932	82307
33.63745	82612
33.64557	87639
33.65368	93179
33.66182	89764
33.66993	92939
33.67807	92734
33.68618	91435
33.69430	89529
33.70243	90826
33.71055	83828
33.71868	95653
33.72680	95760
33.73492	103741
33.74305	111895
33.75117	121725
33.75930	128166
33.76742	122770
33.77553	114630
33.78367	107187
33.79178	99477
33.79990	97435
33.80803	87792
33.81615	85113
33.82428	82871
33.83240	88554
33.84052	92584
33.84865	94020
33.85677	99047
33.86490	101216
33.87302	108632
33.88113	112839
33.88927	112951
33.89738	119799
33.90550	121935
33.91363	128142
33.92175	122706
33.92988	122967
33.93800	121657
33.94612	120864
33.95425	107117
33.96237	98434
33.97050	93279
33.97862	90368
33.98673	89121
33.99487	84457
34.00298	85790
34.01112	83691
34.01923	83999
34.02735	83296
34.03548	84289
34.04360	85535
34.05172	89190
34.05985	85103
34.06797	89679
34.07610	89795
34.08422	86027
34.09233	85706
34.10047	82723
34.10858	87531
34.11672	86251
34.12483	86726
34.13295	81399
34.14108	85328
34.14920	85872
34.15733	85162
34.16545	80419
34.17357	87765
34.18170	88747
34.18982	101169
34.19793	103884
34.20607	109892
34.21418	102812
34.22232	105473
34.23043	105412
34.23855	93444
34.24668	99959
34.25480	90145
34.26293	93202
34.27105	87382
34.27917	82423
34.28730	84399
34.29542	86842
34.30353	85654
34.31167	80658
34.31978	79015
34.32792	79478
34.33603	77171
34.34415	79377
34.35228	79232
34.36040	78458
34.36853	80840
34.37665	82321
34.38477	81581
34.39290	80469
34.40102	80202
34.40915	82507
34.41727	81078
34.42538	76368
34.43352	81382
34.44163	81321
34.44975	85925
34.45788	80497
34.46600	78582
34.47413	78539
34.48225	80806
34.49037	79173
34.49850	80423
34.50662	78093
34.51475	84981
34.52287	83867
34.53098	89029
34.53912	92589
34.54723	98295
34.55537	105092
34.56348	109206
34.57160	115005
34.57973	115470
34.58785	113437
34.59597	121287
34.60410	117346
34.61222	115261
34.62035	120218
34.62847	121073
34.63658	117819
34.64472	124791
34.65283	113939
34.66097	113781
34.66908	109476
34.67720	107242
34.68533	106682
34.69345	104496
34.70157	104432
34.70970	101275
34.71782	98227
34.72595	97432
34.73407	94354
34.74218	91200
34.75032	89920
34.75843	88568
34.76657	86518
34.77468	87640
34.78280	89901
34.79093	89407
34.79905	93576
34.80718	89522
34.81530	89595
34.82342	92131
34.83155	96392
34.83967	95294
34.84778	93218
34.85592	96412
34.86403	93190
34.87217	90680
34.88028	97880
34.88840	90343
34.89653	88863
34.90465	86546
34.91278	87190
34.92090	90066
34.92902	95596
34.93715	98583
34.94527	94967
34.95340	100190
34.96152	97525
34.96963	102211
34.97777	104114
34.98588	106207
34.99400	108807
35.00213	106456
35.01025	109923
35.01838	116016
35.02650	120055
35.03462	119636
35.04275	126337
35.05087	122264
35.05900	123211
35.06712	119798
35.07523	118383
35.08337	114816
35.09148	103744
35.09960	102767
35.10773	97384
35.11585	92921
35.12398	89353
35.13210	86542
35.14022	90507
35.14835	87403
35.15647	81455
35.16460	91265
35.17272	84459
35.18083	88396
35.18897	85900
35.19708	87119
35.20522	90970
35.21333	87502
35.22145	85937
35.22958	88690
35.23770	90674
35.24582	96946
35.25395	94106
35.26207	102166
35.27020	102333
35.27832	101340
35.28643	97153
35.29457	105820
35.30268	91613
35.31082	94972
35.31893	90090
35.32705	94835
35.33518	96025
35.34330	97561
35.35142	93403
35.35955	96845
35.36767	97287
35.37580	107374
35.38392	108018
35.39203	121860
35.40017	126077
35.40828	140769
35.41642	152034
35.42453	160692
35.43265	165266
35.44078	161661
35.44890	152811
35.45703	133021
35.46515	121965
35.47327	117242
35.48140	108454
35.48952	103392
35.49763	93399
35.50577	99487
35.51388	100707
35.52202	100517
35.53013	92665
35.53825	95334
35.54638	92948
35.55450	96740
35.56263	92634
35.57075	100425
35.57887	100290
35.58700	93287
35.59512	95516
35.60325	93253
35.61137	88994
35.61948	86288
35.62762	88523
35.63573	84782
35.64385	86680
35.65198	85599
35.66010	87251
35.66823	95419
35.67635	92751
35.68447	97570
35.69260	101291
35.70072	104436
35.70885	106337
35.71697	114844
35.72508	108284
35.73322	105336
35.74133	104090
35.74945	101360
35.75758	102000
35.76570	95932
35.77383	100005
35.78195	103144
35.79007	102299
35.79820	99851
35.80632	106617
35.81445	106725
35.82257	101108
35.83068	95753
35.83882	92290
35.84693	92618
35.85507	96461
35.86318	94716
35.87130	90834
35.87943	102590
35.88755	98479
35.89567	102947
35.90380	99439
35.91192	100567
35.92005	90515
35.92817	92150
35.93628	86493
35.94442	90077
35.95253	88474
35.96067	92599
35.96878	96103
35.97690	88008
35.98503	90295
35.99315	90493
36.00128	90815
36.00940	93321
36.01752	93307
36.02565	97610
36.03377	95502
36.04188	103971
36.05002	97156
36.05813	94021
36.06627	98595
36.07438	93327
36.08250	95722
36.09063	92977
36.09875	91097
36.10688	94837
36.11500	88929
36.12312	89660
36.13125	93260
36.13937	88279
36.14748	86672
36.15562	85262
36.16373	87176
36.17187	88278
36.17998	87048
36.18810	90546
36.19623	88228
36.20435	85346
36.21248	86593
36.22060	88258
36.22872	86942
36.23685	94740
36.24497	91243
36.25310	96450
36.26122	97788
36.26933	96337
36.27747	101306
36.28558	97776
36.29370	98736
36.30183	100796
36.30995	100041
36.31808	105079
36.32620	110297
36.33432	109595
36.34245	98956
36.35057	98651
36.35870	89813
36.36682	90251
36.37493	90116
36.38307	91935
36.39118	93016
36.39930	90390
36.40743	98654
36.41555	92066
36.42368	95443
36.43180	101773
36.43992	99333
36.44805	112571
36.45617	112318
36.46430	115832
36.47242	118253
36.48053	116314
36.48867	113629
36.49678	115800
36.50492	116269
36.51303	116227
36.52115	114944
36.52928	124433
36.53740	115686
36.54552	113925
36.55365	106615
36.56177	106561
36.56990	98832
36.57802	99811
36.58613	92265
36.59427	95413
36.60238	90095
36.61052	89606
36.61863	98626
36.62675	101124
36.63488	105705
36.64300	114573
36.65113	118471
36.65925	124877
36.66737	122535
36.67550	122305
36.68362	111239
36.69173	112374
36.69987	104662
36.70798	103959
36.71612	101465
36.72423	94070
36.73235	101183
36.74048	95672
36.74860	100513
36.75673	95816
36.76485	92756
36.77297	96134
36.78110	87399
36.78922	97767
36.79735	93581
36.80547	90216
36.81358	97785
36.82172	92845
36.82983	87257
36.83795	88982
36.84608	86229
36.85420	85626
36.86233	87755
36.87045	90656
36.87857	101229
36.88670	96614
36.89482	95728
36.90295	90730
36.91107	93485
36.91918	93820
36.92732	93869
36.93543	91625
36.94355	94276
36.95168	98039
36.95980	107032
36.96793	110830
36.97605	111982
36.98417	103986
36.99230	104829
37.00042	103395
37.00855	100106
37.01667	97380
37.02478	94581
37.03292	101021
37.04103	98389
37.04917	100865
37.05728	100999
37.06540	97475
37.07353	98334
37.08165	102169
37.08977	105204
37.09790	107838
37.10602	109547
37.11415	116416
37.12227	118022
37.13038	122312
37.13852	114764
37.14663	121501
37.15477	118916
37.16288	115506
37.17100	111651
37.17913	114206
37.18725	102976
37.19537	99554
37.20350	100125
37.21162	95464
37.21975	98342
37.22787	92905
37.23598	96029
37.24412	96123
37.25223	101830
37.26037	94198
37.26848	97098
37.27660	94948
37.28473	102917
37.29285	103264
37.30098	103279
37.30910	106598
37.31722	103167
37.32535	103778
37.33347	102348
37.34158	101377
37.34972	106372
37.35783	109265
37.36597	111350
37.37408	120144
37.38220	116721
37.39033	122248
37.39845	111265
37.40658	117105
37.41470	104989
37.42282	116262
37.43095	109370
37.43907	113327
37.44720	104861
37.45532	107427
37.46343	102626
37.47157	107566
37.47968	105152
37.48780	104175
