Z:\data\JTB-E02\BACandBLUE\JTB-E02-190-08.D Tue Dec 11 11:39:06 2018
Start of data points
2.09513,85970
2.10327,87949
2.11138,82479
2.11952,92597
2.12763,92640
2.13575,90109
2.14388,91979
2.15200,94486
2.16013,120673
2.16825,580265
2.17637,1641021
2.18450,1331344
2.19262,644207
2.20073,408927
2.20887,340368
2.21698,280600
2.22512,254900
2.23323,233283
2.24135,209572
2.24948,197836
2.25760,189246
2.26573,182750
2.27385,180751
2.28197,172201
2.29010,175583
2.29822,168757
2.30633,160506
2.31447,167718
2.32258,166603
2.33072,166042
2.33883,159457
2.34695,155027
2.35508,158658
2.36320,149489
2.37133,144838
2.37945,141807
2.38757,144705
2.39570,153210
2.40382,147475
2.41195,141775
2.42007,131590
2.42818,140650
2.43632,133392
2.44443,132505
2.45255,143250
2.46068,160647
2.46880,155803
2.47693,134459
2.48505,132233
2.49317,123266
2.50130,154570
2.50942,345477
2.51755,588976
2.52567,429844
2.53378,261588
2.54192,211304
2.55003,183760
2.55817,160959
2.56628,154631
2.57440,138726
2.58253,138139
2.59065,134858
2.59877,136373
2.60690,124801
2.61502,130329
2.62315,122426
2.63127,121488
2.63938,116786
2.64752,116225
2.65563,119199
2.66377,117985
2.67188,145762
2.68000,852162
2.68813,3639576
2.69625,4856009
2.70437,2863796
2.71250,1496478
2.72062,1126539
2.72875,965541
2.73687,742270
2.74498,579420
2.75312,480857
2.76123,417043
2.76937,363947
2.77748,324933
2.78560,296877
2.79373,268526
2.80185,247711
2.80998,228671
2.81810,219830
2.82622,207458
2.83435,207739
2.84247,193241
2.85058,181236
2.85872,172740
2.86683,181596
2.87497,191166
2.88308,179894
2.89120,165582
2.89933,163683
2.90745,173807
2.91558,172672
2.92370,166354
2.93182,164000
2.93995,154488
2.94807,146557
2.95620,135307
2.96432,135686
2.97243,135301
2.98057,136565
2.98868,215180
2.99680,590039
3.00493,1438539
3.01305,3635504
3.02118,6316129
3.02930,5562782
3.03742,3252573
3.04555,2059417
3.05367,1499754
3.06180,1160751
3.06992,958872
3.07803,953350
3.08617,1106607
3.09428,2342110
3.10240,6399672
3.11053,8762249
3.11865,6641397
3.12678,4202535
3.13490,3001005
3.14302,2351118
3.15115,1868857
3.15927,1563995
3.16740,1306403
3.17552,1134291
3.18363,972828
3.19177,864561
3.19988,815497
3.20802,1051146
3.21613,1939740
3.22425,3274807
3.23238,3835651
3.24050,3207613
3.24862,2302223
3.25675,1698806
3.26487,1382242
3.27300,1162902
3.28112,1010945
3.28923,907977
3.29737,809800
3.30548,742718
3.31362,702138
3.32173,651121
3.32985,615300
3.33798,593661
3.34610,624344
3.35422,645579
3.36235,608793
3.37047,566214
3.37860,659353
3.38672,844306
3.39483,864693
3.40297,689267
3.41108,544495
3.41922,444569
3.42733,420269
3.43545,409965
3.44358,440167
3.45170,509155
3.45983,564549
3.46795,522445
3.47607,433074
3.48420,377633
3.49232,353505
3.50043,332125
3.50857,310061
3.51668,313817
3.52482,296553
3.53293,305755
3.54105,308746
3.54918,321968
3.55730,332941
3.56543,345492
3.57355,799032
3.58167,5988160
3.58980,2.574544E+07
3.59792,4.967923E+07
3.60605,5.823262E+07
3.61417,5.008914E+07
3.62228,3.436937E+07
3.63042,2.354402E+07
3.63853,1.870719E+07
3.64665,1.525535E+07
3.65478,1.289058E+07
3.66290,1.095363E+07
3.67103,9598977
3.67915,8454310
3.68727,7485896
3.69540,6619936
3.70352,6022716
3.71165,5608166
3.71977,5251185
3.72788,5230484
3.73602,5638961
3.74413,5627918
3.75225,4919353
3.76038,4187140
3.76850,3715206
3.77663,3464286
3.78475,3195669
3.79287,2983828
3.80100,2796624
3.80912,2640810
3.81725,2546071
3.82537,2423741
3.83348,2470935
3.84162,2923271
3.84973,3591260
3.85787,3730178
3.86598,3188074
3.87410,2667450
3.88223,2496078
3.89035,2589394
3.89847,2437648
3.90660,2089412
3.91472,1841460
3.92285,1838738
3.93097,2210170
3.93908,2640859
3.94722,2531785
3.95533,2080287
3.96347,1686807
3.97158,1485892
3.97970,1352043
3.98783,1282794
3.99595,1220357
4.00408,1193689
4.01220,1153564
4.02032,1150359
4.02845,1116984
4.03657,1083804
4.04468,1029389
4.05282,991571
4.06093,970122
4.06907,976831
4.07718,984090
4.08530,986843
4.09343,992376
4.10155,984148
4.10968,977536
4.11780,942909
4.12592,909486
4.13405,1255718
4.14217,3494249
4.15028,9749723
4.15842,1.931484E+07
4.16653,2.732392E+07
4.17467,3.280376E+07
4.18278,3.663473E+07
4.19090,3.837729E+07
4.19903,3.300145E+07
4.20715,1.671139E+07
4.21528,9538517
4.22340,7321852
4.23152,5892196
4.23965,4933614
4.24777,4262512
4.25590,3684721
4.26402,3266879
4.27213,2904121
4.28027,2668787
4.28838,2656894
4.29650,2802097
4.30463,2790778
4.31275,2462921
4.32088,2076048
4.32900,1729032
4.33712,1567764
4.34525,1451705
4.35337,1338886
4.36150,1260702
4.36962,1190570
4.37773,1112730
4.38587,1079119
4.39398,1045847
4.40210,988526
4.41023,956566
4.41835,924998
4.42648,896394
4.43460,852439
4.44272,835543
4.45085,818009
4.45897,814719
4.46710,805202
4.47522,825777
4.48333,894851
4.49147,871441
4.49958,810696
4.50772,736272
4.51583,698640
4.52395,671692
4.53208,667475
4.54020,674621
4.54832,714694
4.55645,1039172
4.56457,1796400
4.57270,2780318
4.58082,3187460
4.58893,2641319
4.59707,1880351
4.60518,1398329
4.61332,1213118
4.62143,1066622
4.62955,931775
4.63768,800250
4.64580,724755
4.65393,671669
4.66205,634246
4.67017,598237
4.67830,599255
4.68642,550127
4.69453,544516
4.70267,524479
4.71078,525353
4.71892,524353
4.72703,593195
4.73515,743290
4.74328,893538
4.75140,895708
4.75953,775636
4.76765,716580
4.77577,782500
4.78390,921334
4.79202,963270
4.80015,876756
4.80827,716085
4.81638,632722
4.82452,568938
4.83263,534541
4.84075,497687
4.84888,503820
4.85700,475631
4.86513,474149
4.87325,452431
4.88137,484927
4.88950,563599
4.89762,827502
4.90575,1211299
4.91387,1583691
4.92198,1656308
4.93012,1472800
4.93823,1236021
4.94635,1064271
4.95448,969897
4.96260,1133288
4.97073,1710989
4.97885,2414460
4.98697,2668791
4.99510,2311602
5.00322,1808425
5.01135,1455892
5.01947,1237516
5.02758,1107517
5.03572,1007954
5.04383,936697
5.05197,871933
5.06008,821563
5.06820,762811
5.07633,728903
5.08445,805658
5.09257,1018985
5.10070,1361301
5.10882,1629617
5.11695,1604331
5.12507,1341307
5.13318,1187569
5.14132,1272662
5.14943,1403676
5.15757,1378227
5.16568,1234033
5.17380,1106447
5.18193,908997
5.19005,798088
5.19817,708323
5.20630,604315
5.21442,555619
5.22255,509778
5.23067,488725
5.23878,485159
5.24692,461621
5.25503,463184
5.26317,464542
5.27128,481049
5.27940,502599
5.28753,507167
5.29565,478868
5.30378,459660
5.31190,428783
5.32002,415325
5.32815,454136
5.33627,506275
5.34438,580052
5.35252,578715
5.36063,543952
5.36877,472065
5.37688,443247
5.38500,456796
5.39313,517070
5.40125,624871
5.40938,662826
5.41750,588667
5.42562,497712
5.43375,434142
5.44187,374754
5.45000,365176
5.45812,351846
5.46623,353750
5.47437,371554
5.48248,370207
5.49060,402629
5.49873,591255
5.50685,1016056
5.51498,1603117
5.52310,2008608
5.53122,1909045
5.53935,1428444
5.54747,996598
5.55560,704609
5.56372,539686
5.57183,479482
5.57997,441976
5.58808,395929
5.59620,379799
5.60433,366673
5.61245,352015
5.62058,359010
5.62870,394551
5.63682,475130
5.64495,552934
5.65307,597145
5.66120,530421
5.66932,466775
5.67743,404894
5.68557,345903
5.69368,336646
5.70182,320948
5.70993,315500
5.71805,317097
5.72618,314035
5.73430,305134
5.74242,293362
5.75055,281123
5.75867,284543
5.76680,277649
5.77492,294480
5.78303,289994
5.79117,294468
5.79928,271379
5.80742,270919
5.81553,276403
5.82365,270162
5.83178,266609
5.83990,270496
5.84803,280837
5.85615,306895
5.86427,347242
5.87240,395790
5.88052,399724
5.88863,373941
5.89677,382750
5.90488,460269
5.91302,585003
5.92113,697635
5.92925,892866
5.93738,1132426
5.94550,1333073
5.95363,1327412
5.96175,1095037
5.96987,805410
5.97800,563704
5.98612,433956
5.99423,367677
6.00237,324315
6.01048,305170
6.01862,288828
6.02673,283750
6.03485,270751
6.04298,267788
6.05110,243597
6.05923,255447
6.06735,291721
6.07547,477960
6.08360,978018
6.09172,1831712
6.09985,2485041
6.10797,2451062
6.11608,1872355
6.12422,1287387
6.13233,906344
6.14045,723030
6.14858,618254
6.15670,552777
6.16483,509887
6.17295,486505
6.18107,460046
6.18920,448875
6.19732,456130
6.20545,505206
6.21357,536000
6.22168,554640
6.22982,507573
6.23793,452600
6.24605,400808
6.25418,366137
6.26230,350253
6.27043,338259
6.27855,345294
6.28667,332249
6.29480,340523
6.30292,334532
6.31105,327163
6.31917,306187
6.32728,323491
6.33542,317317
6.34353,323045
6.35167,309544
6.35978,301803
6.36790,289603
6.37603,279810
6.38415,277748
6.39227,291464
6.40040,298534
6.40852,308648
6.41665,303911
6.42477,305496
6.43288,302892
6.44102,306483
6.44913,304323
6.45727,299724
6.46538,309050
6.47350,300861
6.48163,308388
6.48975,306033
6.49788,305538
6.50600,299199
6.51412,372164
6.52225,587489
6.53037,1047576
6.53848,1571056
6.54662,1703966
6.55473,1403131
6.56287,979018
6.57098,660449
6.57910,500716
6.58723,422841
6.59535,385291
6.60348,357629
6.61160,292517
6.61972,292573
6.62785,285382
6.63597,271173
6.64408,246694
6.65222,232179
6.66033,218557
6.66847,215220
6.67658,207580
6.68470,211851
6.69283,203490
6.70095,204374
6.70908,195208
6.71720,196140
6.72532,198454
6.73345,193629
6.74157,189686
6.74970,186389
6.75782,179762
6.76593,171112
6.77407,167954
6.78218,163456
6.79030,160113
6.79843,168529
6.80655,172652
6.81468,204311
6.82280,241913
6.83092,273495
6.83905,291399
6.84717,279419
6.85530,232661
6.86342,195367
6.87153,175660
6.87967,163956
6.88778,146006
6.89592,137251
6.90403,138855
6.91215,135116
6.92028,157343
6.92840,174690
6.93652,201953
6.94465,212753
6.95277,206500
6.96090,186605
6.96902,181662
6.97713,170791
6.98527,182491
6.99338,171521
7.00152,167324
7.00963,163803
7.01775,192530
7.02588,248156
7.03400,340384
7.04212,424491
7.05025,450157
7.05837,414405
7.06650,336011
7.07462,267644
7.08273,229484
7.09087,202352
7.09898,208865
7.10712,223880
7.11523,274303
7.12335,328240
7.13148,352635
7.13960,447844
7.14773,990739
7.15585,2700213
7.16397,5969513
7.17210,1.001657E+07
7.18022,1.243194E+07
7.18833,1.123436E+07
7.19647,7475263
7.20458,3869744
7.21272,1675637
7.22083,675602
7.22895,336663
7.23708,230532
7.24520,210813
7.25333,209636
7.26145,201676
7.26957,191092
7.27770,203645
7.28582,217291
7.29393,253137
7.30207,313238
7.31018,368830
7.31832,396563
7.32643,391690
7.33455,327910
7.34268,279197
7.35080,227409
7.35893,201200
7.36705,185291
7.37517,169408
7.38330,157472
7.39142,156155
7.39955,155905
7.40767,159181
7.41578,153132
7.42392,160185
7.43203,161279
7.44015,169941
7.44828,164457
7.45640,148059
7.46453,143685
7.47265,134534
7.48077,146765
7.48890,206876
7.49702,371713
7.50515,836878
7.51327,1791216
7.52138,3416049
7.52952,5401223
7.53763,7182999
7.54577,8025777
7.55388,7540077
7.56200,5994937
7.57013,4183698
7.57825,2656814
7.58637,1628841
7.59450,1028717
7.60262,723995
7.61075,537570
7.61887,417929
7.62698,341489
7.63512,275987
7.64323,213963
7.65137,188333
7.65948,165609
7.66760,165420
7.67573,167337
7.68385,212136
7.69197,264523
7.70010,324725
7.70822,362424
7.71635,381838
7.72447,357432
7.73258,337006
7.74072,311636
7.74883,274787
7.75697,275316
7.76508,271064
7.77320,316261
7.78133,369408
7.78945,391090
7.79758,375250
7.80570,317634
7.81382,256678
7.82195,236633
7.83007,233109
7.83818,258214
7.84632,297808
7.85443,362291
7.86257,450502
7.87068,507825
7.87880,485007
7.88693,419965
7.89505,347886
7.90318,325962
7.91130,327095
7.91942,353148
7.92755,352628
7.93567,324754
7.94380,276304
7.95192,233705
7.96003,183385
7.96817,162537
7.97628,150989
7.98440,135144
7.99253,136225
8.00065,129102
8.00878,132681
8.01690,127091
8.02502,123202
8.03315,120220
8.04127,126790
8.04940,125136
8.05752,118149
8.06563,112809
8.07377,116276
8.08188,111635
8.09000,123686
8.09813,159752
8.10625,236416
8.11438,351312
8.12250,455008
8.13062,470952
8.13875,399237
8.14687,314799
8.15500,230467
8.16312,180618
8.17123,158819
8.17937,149142
8.18748,134580
8.19562,117101
8.20373,117119
8.21185,117408
8.21998,108430
8.22810,101538
8.23622,104035
8.24435,104748
8.25247,100829
8.26060,96963
8.26872,101666
8.27683,102849
8.28497,105762
8.29308,123738
8.30122,131730
8.30933,130834
8.31745,125845
8.32558,121144
8.33370,105002
8.34183,94001
8.34995,91596
8.35807,87699
8.36620,84786
8.37432,83597
8.38243,85056
8.39057,83419
8.39868,84115
8.40682,83669
8.41493,87872
8.42305,81915
8.43118,81922
8.43930,84045
8.44743,78408
8.45555,76462
8.46367,84772
8.47180,78344
8.47992,88346
8.48803,103244
8.49617,163387
8.50428,246407
8.51242,307547
8.52053,312939
8.52865,254691
8.53678,189683
8.54490,124547
8.55303,101558
8.56115,99441
8.56927,105039
8.57740,120580
8.58552,156962
8.59365,183854
8.60177,195902
8.60988,189770
8.61802,166418
8.62613,138578
8.63425,112947
8.64238,99771
8.65050,94049
8.65863,84190
8.66675,80303
8.67487,86553
8.68300,89662
8.69112,78397
8.69925,76620
8.70737,73015
8.71548,75170
8.72362,71818
8.73173,75890
8.73985,86450
8.74798,103065
8.75610,167369
8.76423,332405
8.77235,624960
8.78047,1010249
8.78860,1264909
8.79672,1280683
8.80485,1033245
8.81297,742935
8.82108,521987
8.82922,384508
8.83733,329363
8.84547,288689
8.85358,261286
8.86170,235496
8.86983,223782
8.87795,203288
8.88607,203831
8.89420,247226
8.90232,324312
8.91045,453883
8.91857,534439
8.92668,515587
8.93482,426740
8.94293,339492
8.95107,305515
8.95918,347324
8.96730,383169
8.97543,369080
8.98355,342398
8.99168,275050
8.99980,213885
9.00792,186657
9.01605,169653
9.02417,153691
9.03228,144424
9.04042,142554
9.04853,138610
9.05667,145339
9.06478,167137
9.07290,209562
9.08103,305208
9.08915,430824
9.09728,527632
9.10540,556363
9.11352,499704
9.12165,372333
9.12977,280396
9.13788,222995
9.14602,193325
9.15413,178785
9.16227,174053
9.17038,162723
9.17850,157819
9.18663,150266
9.19475,150764
9.20288,158070
9.21100,163585
9.21912,165568
9.22725,160718
9.23537,162989
9.24350,147824
9.25162,138188
9.25973,133502
9.26787,135320
9.27598,134556
9.28410,127175
9.29223,126205
9.30035,124571
9.30848,130263
9.31660,117679
9.32472,113682
9.33285,114787
9.34097,106685
9.34910,117195
9.35722,126164
9.36533,148999
9.37347,184587
9.38158,240016
9.38972,297389
9.39783,378964
9.40595,457947
9.41408,540950
9.42220,589408
9.43032,615867
9.43845,558093
9.44657,447212
9.45470,328449
9.46282,227603
9.47093,179075
9.47907,176728
9.48718,176779
9.49532,214280
9.50343,247891
9.51155,266965
9.51968,269660
9.52780,243928
9.53592,211662
9.54405,175960
9.55217,156722
9.56030,135595
9.56842,130521
9.57653,116988
9.58467,108408
9.59278,104905
9.60092,102477
9.60903,97869
9.61715,90656
9.62528,92883
9.63340,88207
9.64153,85321
9.64965,91943
9.65777,93168
9.66590,91620
9.67402,91459
9.68213,96278
9.69027,87919
9.69838,94188
9.70652,99404
9.71463,99899
9.72275,94018
9.73088,88168
9.73900,79466
9.74713,77792
9.75525,75120
9.76337,77321
9.77150,78527
9.77962,82239
9.78773,76135
9.79587,80812
9.80398,72247
9.81212,77122
9.82023,74766
9.82835,79727
9.83648,73778
9.84460,74977
9.85273,72651
9.86085,81228
9.86897,77615
9.87710,77446
9.88522,74644
9.89335,77423
9.90147,83089
9.90958,102993
9.91772,161667
9.92583,262388
9.93395,415026
9.94208,577943
9.95020,664235
9.95833,643126
9.96645,520402
9.97457,361221
9.98270,238364
9.99082,164109
9.99895,121204
10.00707,117762
10.01518,117100
10.02332,134631
10.03143,135871
10.03957,143071
10.04768,156336
10.05580,149243
10.06393,150836
10.07205,138750
10.08017,127912
10.08830,122525
10.09642,128836
10.10455,114977
10.11267,118574
10.12078,115414
10.12892,118882
10.13703,109164
10.14517,106588
10.15328,110469
10.16140,102279
10.16953,102303
10.17765,97373
10.18577,101340
10.19390,105087
10.20202,92263
10.21015,98209
10.21827,106751
10.22638,107410
10.23452,146377
10.24263,290677
10.25077,762443
10.25888,1940945
10.26700,4175046
10.27513,7235806
10.28325,1.080795E+07
10.29138,1.430622E+07
10.29950,1.796967E+07
10.30762,2.320195E+07
10.31575,2.952523E+07
10.32387,3.779892E+07
10.33198,4.6455E+07
10.34012,5.384867E+07
10.34823,5.619086E+07
10.35637,4.833363E+07
10.36448,2.806474E+07
10.37260,1.278219E+07
10.38073,6824550
10.38885,4273198
10.39698,2841002
10.40510,1950774
10.41322,1530743
10.42135,1372705
10.42947,1343646
10.43760,1382285
10.44572,1342030
10.45383,1311116
10.46197,1186792
10.47008,1027208
10.47820,872488
10.48633,732601
10.49445,647159
10.50258,580696
10.51070,560523
10.51882,539535
10.52695,516472
10.53507,503734
10.54320,493479
10.55132,476005
10.55943,465144
10.56757,461946
10.57568,437250
10.58380,416146
10.59193,399087
10.60005,374609
10.60818,347054
10.61630,340574
10.62442,319252
10.63255,307081
10.64067,287680
10.64880,292825
10.65692,286843
10.66503,277643
10.67317,282563
10.68128,288052
10.68942,303577
10.69753,309189
10.70565,312466
10.71378,292226
10.72190,278238
10.73002,276214
10.73815,258794
10.74627,243055
10.75440,231822
10.76252,235589
10.77063,226003
10.77877,223208
10.78688,231400
10.79502,261872
10.80313,291008
10.81125,294713
10.81938,284336
10.82750,254074
10.83562,220889
10.84375,200364
10.85187,181095
10.86000,180457
10.86812,172866
10.87623,168188
10.88437,165465
10.89248,173892
10.90062,171014
10.90873,159656
10.91685,159477
10.92498,155983
10.93310,157481
10.94123,154804
10.94935,149201
10.95747,153779
10.96560,157282
10.97372,156229
10.98183,174385
10.98997,179867
10.99808,190156
11.00622,210200
11.01433,196025
11.02245,189880
11.03058,176295
11.03870,180067
11.04683,168639
11.05495,172043
11.06307,193112
11.07120,214647
11.07932,241161
11.08745,250846
11.09557,229247
11.10368,227917
11.11182,194520
11.11993,171753
11.12805,159007
11.13618,142576
11.14430,134036
11.15243,143142
11.16055,133603
11.16867,124834
11.17680,113616
11.18492,107531
11.19305,105519
11.20117,104456
11.20928,94357
11.21742,89732
11.22553,89771
11.23367,85937
11.24178,81194
11.24990,83463
11.25803,82560
11.26615,82214
11.27427,84768
11.28240,111326
11.29052,173469
11.29865,394844
11.30677,896989
11.31488,1915534
11.32302,3330840
11.33113,4770506
11.33927,5488812
11.34738,5470255
11.35550,4637215
11.36363,3445960
11.37175,2439599
11.37987,1740987
11.38800,1365608
11.39612,1097832
11.40425,929518
11.41237,767737
11.42048,619471
11.42862,523611
11.43673,442892
11.44487,407269
11.45298,347964
11.46110,330198
11.46923,333098
11.47735,377115
11.48548,451816
11.49360,545540
11.50172,638319
11.50985,645150
11.51797,616840
11.52608,547498
11.53422,479084
11.54233,436818
11.55047,408879
11.55858,364055
11.56670,356230
11.57483,355110
11.58295,403657
11.59108,517918
11.59920,717755
11.60732,888194
11.61545,983473
11.62357,906653
11.63168,736549
11.63982,515883
11.64793,364721
11.65607,256812
11.66418,217641
11.67230,192484
11.68043,188018
11.68855,189480
11.69668,172185
11.70480,175095
11.71292,173551
11.72105,172583
11.72917,167754
11.73730,151483
11.74542,138571
11.75353,128860
11.76167,124423
11.76978,114669
11.77790,117564
11.78603,112213
11.79415,107455
11.80228,102346
11.81040,98551
11.81852,94518
11.82665,96138
11.83477,94844
11.84290,90623
11.85102,91937
11.85913,89914
11.86727,87722
11.87538,82336
11.88352,85558
11.89163,89535
11.89975,88276
11.90788,97554
11.91600,100888
11.92412,111170
11.93225,109178
11.94037,98994
11.94850,88372
11.95662,86459
11.96473,82383
11.97287,75552
11.98098,72050
11.98912,73920
11.99723,73692
12.00535,81631
12.01348,69436
12.02160,72736
12.02972,69690
12.03785,77553
12.04597,79078
12.05410,82413
12.06222,89166
12.07033,102681
12.07847,111717
12.08658,147032
12.09472,236535
12.10283,433871
12.11095,803074
12.11908,1261881
12.12720,1735840
12.13533,1918000
12.14345,1821025
12.15157,1447648
12.15970,1007469
12.16782,702020
12.17593,538034
12.18407,458347
12.19218,417570
12.20032,381121
12.20843,353275
12.21655,322013
12.22468,307296
12.23280,273318
12.24093,257811
12.24905,249400
12.25717,236491
12.26530,233374
12.27342,233002
12.28155,227537
12.28967,205599
12.29778,191884
12.30592,182813
12.31403,175731
12.32215,172770
12.33028,166958
12.33840,166167
12.34653,172053
12.35465,158066
12.36277,148068
12.37090,157614
12.37902,156877
12.38715,169707
12.39527,198744
12.40338,274323
12.41152,376128
12.41963,451659
12.42775,516289
12.43588,475477
12.44400,404831
12.45213,323463
12.46025,256621
12.46837,218483
12.47650,192045
12.48462,187280
12.49275,170313
12.50087,175054
12.50898,169132
12.51712,184051
12.52523,208237
12.53337,277230
12.54148,354147
12.54960,406310
12.55773,440097
12.56585,411253
12.57397,347316
12.58210,273559
12.59022,227513
12.59835,190272
12.60647,162766
12.61458,156929
12.62272,146677
12.63083,146329
12.63897,139883
12.64708,133778
12.65520,132826
12.66333,136208
12.67145,134693
12.67957,128887
12.68770,124412
12.69582,120384
12.70395,119686
12.71207,114215
12.72018,117566
12.72832,116330
12.73643,131426
12.74457,125271
12.75268,115624
12.76080,117487
12.76893,106372
12.77705,105503
12.78518,104695
12.79330,96720
12.80142,101309
12.80955,90220
12.81767,94793
12.82578,86485
12.83392,76949
12.84203,68256
12.85017,64641
12.85828,67023
12.86640,62028
12.87453,65773
12.88265,62636
12.89078,64699
12.89890,62417
12.90702,59987
12.91515,61579
12.92327,63824
12.93140,62274
12.93952,69255
12.94763,72305
12.95577,74864
12.96388,87665
12.97200,89175
12.98013,97356
12.98825,91087
12.99638,92206
13.00450,77921
13.01262,70565
13.02075,65493
13.02887,66510
13.03700,63783
13.04512,67240
13.05323,64712
13.06137,68580
13.06948,73272
13.07760,77390
13.08573,77806
13.09385,82970
13.10198,77847
13.11010,71149
13.11822,72144
13.12635,63788
13.13447,68811
13.14260,70262
13.15072,64898
13.15883,70043
13.16697,72899
13.17508,81085
13.18322,79410
13.19133,83583
13.19945,84994
13.20758,81970
13.21570,93504
13.22382,92215
13.23195,88382
13.24007,95390
13.24820,98732
13.25632,101253
13.26443,106285
13.27257,100807
13.28068,88652
13.28882,79761
13.29693,72910
13.30505,68778
13.31318,62123
13.32130,62397
13.32943,56947
13.33755,64395
13.34567,63764
13.35380,61815
13.36192,61096
13.37003,60757
13.37817,59714
13.38628,56685
13.39442,59274
13.40253,60155
13.41065,63647
13.41878,61407
13.42690,60964
13.43503,57604
13.44315,66515
13.45127,66368
13.45940,69512
13.46752,69867
13.47563,73350
13.48377,69886
13.49188,65962
13.50002,65894
13.50813,73689
13.51625,82474
13.52438,82908
13.53250,90965
13.54063,89053
13.54875,76465
13.55687,75518
13.56500,74975
13.57312,78971
13.58125,94631
13.58937,109966
13.59748,128508
13.60562,145754
13.61373,175755
13.62185,186635
13.62998,176819
13.63810,161446
13.64623,119426
13.65435,98852
13.66247,81372
13.67060,70163
13.67872,60455
13.68685,57673
13.69497,56073
13.70308,57504
13.71122,54915
13.71933,54966
13.72747,54294
13.73558,59278
13.74370,73776
13.75183,96902
13.75995,145706
13.76807,217490
13.77620,315022
13.78432,448633
13.79245,621444
13.80057,822494
13.80868,973986
13.81682,1151456
13.82493,1368629
13.83307,1582233
13.84118,1645428
13.84930,1550095
13.85743,1302970
13.86555,1004547
13.87367,731363
13.88180,508330
13.88992,353366
13.89805,264226
13.90617,205512
13.91428,170697
13.92242,157944
13.93053,145603
13.93867,126465
13.94678,115272
13.95490,103131
13.96303,94987
13.97115,94970
13.97928,88315
13.98740,91690
13.99552,102492
14.00365,99615
14.01177,108673
14.01988,102473
14.02802,99400
14.03613,88136
14.04427,82679
14.05238,80700
14.06050,81779
14.06863,73192
14.07675,78406
14.08488,75099
14.09300,76330
14.10112,74582
14.10925,71745
14.11737,65759
14.12548,71156
14.13362,74067
14.14173,82026
14.14987,101108
14.15798,109661
14.16610,109233
14.17423,116858
14.18235,113880
14.19048,120441
14.19860,120178
14.20672,145615
14.21485,165720
14.22297,212176
14.23110,244378
14.23922,290206
14.24733,325002
14.25547,349392
14.26358,353763
14.27170,331985
14.27983,277459
14.28795,219618
14.29608,184745
14.30420,155567
14.31232,138648
14.32045,130624
14.32857,126256
14.33670,126089
14.34482,124937
14.35293,128927
14.36107,122924
14.36918,120484
14.37732,115275
14.38543,111654
14.39355,109088
14.40168,138880
14.40980,195348
14.41792,252927
14.42605,311272
14.43417,319088
14.44230,293329
14.45042,242632
14.45853,194438
14.46667,162083
14.47478,155454
14.48292,155313
14.49103,159249
14.49915,147582
14.50728,132927
14.51540,121927
14.52352,110669
14.53165,99321
14.53977,99516
14.54790,89863
14.55602,83755
14.56413,85345
14.57227,72836
14.58038,80676
14.58852,74262
14.59663,71690
14.60475,66542
14.61288,71675
14.62100,62310
14.62913,61986
14.63725,63098
14.64537,64289
14.65350,60160
14.66162,58300
14.66973,61863
14.67787,54956
14.68598,57051
14.69412,59877
14.70223,58932
14.71035,58203
14.71848,62094
14.72660,56479
14.73473,62734
14.74285,67883
14.75097,73078
14.75910,73667
14.76722,79506
14.77535,86924
14.78347,118298
14.79158,258962
14.79972,738038
14.80783,2067454
14.81595,4987750
14.82408,9600046
14.83220,1.592282E+07
14.84033,2.226307E+07
14.84845,2.679059E+07
14.85657,2.735759E+07
14.86470,2.305679E+07
14.87282,1.531362E+07
14.88095,8299686
14.88907,4276980
14.89718,2572028
14.90532,1881292
14.91343,1566129
14.92155,1343081
14.92968,1194321
14.93780,1084310
14.94593,965692
14.95405,893795
14.96217,826624
14.97030,751838
14.97842,716406
14.98655,662933
14.99467,641467
15.00278,602732
15.01092,571464
15.01903,538315
15.02717,506114
15.03528,484423
15.04340,476286
15.05153,441520
15.05965,415370
15.06777,389543
15.07590,387722
15.08402,360851
15.09215,351210
15.10027,343964
15.10838,332199
15.11652,319149
15.12463,344064
15.13277,396276
15.14088,489443
15.14900,561190
15.15713,568008
15.16525,528810
15.17337,419475
15.18150,301986
15.18962,215407
15.19775,172365
15.20587,142797
15.21398,130201
15.22212,120709
15.23023,120794
15.23837,114694
15.24648,110644
15.25460,103067
15.26273,106282
15.27085,93238
15.27898,98447
15.28710,88737
15.29522,100473
15.30335,92101
15.31147,88239
15.31958,86594
15.32772,84490
15.33583,76598
15.34397,83033
15.35208,81619
15.36020,87208
15.36833,93233
15.37645,93623
15.38458,102155
15.39270,99585
15.40082,100765
15.40895,96034
15.41707,94212
15.42520,84295
15.43332,87170
15.44143,83295
15.44957,83183
15.45768,91696
15.46580,122440
15.47393,178639
15.48205,287131
15.49018,455704
15.49830,647908
15.50642,796994
15.51455,889397
15.52267,813055
15.53080,701742
15.53892,568112
15.54703,430605
15.55517,315771
15.56328,251795
15.57140,188154
15.57953,152982
15.58765,137309
15.59578,123798
15.60390,118194
15.61202,108891
15.62015,108008
15.62827,105394
15.63640,103108
15.64452,101581
15.65263,100220
15.66077,100897
15.66888,96265
15.67702,93195
15.68513,79062
15.69325,82587
15.70138,73396
15.70950,66683
15.71762,73519
15.72575,69321
15.73387,73611
15.74200,82933
15.75012,107209
15.75823,200240
15.76637,425215
15.77448,841547
15.78262,1503779
15.79073,2138406
15.79885,2454307
15.80698,2299469
15.81510,1735784
15.82323,1165808
15.83135,729585
15.83947,448831
15.84760,310926
15.85572,253174
15.86383,219701
15.87197,214364
15.88008,198130
15.88822,181896
15.89633,170736
15.90445,155326
15.91258,141103
15.92070,143549
15.92883,139411
15.93695,138463
15.94507,132105
15.95320,121857
15.96132,117710
15.96943,113812
15.97757,113332
15.98568,112308
15.99382,106112
16.00193,110580
16.01005,118124
16.01818,123168
16.02630,137651
16.03443,141445
16.04255,145929
16.05067,131181
16.05880,123883
16.06692,108291
16.07505,105257
16.08317,99549
16.09128,80223
16.09942,82358
16.10753,83390
16.11565,89324
16.12378,95804
16.13190,120572
16.14003,145015
16.14815,170171
16.15627,174058
16.16440,177707
16.17252,165812
16.18065,140258
16.18877,122344
16.19688,114859
16.20502,109985
16.21313,103352
16.22125,112421
16.22938,116833
16.23750,106438
16.24563,103859
16.25375,93205
16.26187,86218
16.27000,85854
16.27812,89612
16.28625,103455
16.29437,120593
16.30248,138368
16.31062,159280
16.31873,155059
16.32687,152160
16.33498,130411
16.34310,111202
16.35123,106008
16.35935,101714
16.36747,100444
16.37560,101871
16.38372,93406
16.39185,92962
16.39997,86405
16.40808,85675
16.41622,85568
16.42433,89693
16.43247,92434
16.44058,120632
16.44870,222950
16.45683,553990
16.46495,1372245
16.47308,2919042
16.48120,4935446
16.48932,6677944
16.49745,7308113
16.50557,6718404
16.51368,4735963
16.52182,2883603
16.52993,1640643
16.53807,948109
16.54618,638174
16.55430,499557
16.56243,414071
16.57055,358810
16.57868,349395
16.58680,322977
16.59492,291114
16.60305,279526
16.61117,256827
16.61930,244735
16.62742,213838
16.63553,200015
16.64367,189669
16.65178,183288
16.65990,172659
16.66803,174520
16.67615,163202
16.68428,161090
16.69240,147465
16.70052,141322
16.70865,135973
16.71677,128506
16.72490,120680
16.73302,112486
16.74113,113327
16.74927,116777
16.75738,151484
16.76550,173226
16.77363,206543
16.78175,220414
16.78988,191823
16.79800,155994
16.80612,127631
16.81425,99260
16.82237,82404
16.83050,80278
16.83862,76907
16.84673,72624
16.85487,72812
16.86298,75400
16.87112,77333
16.87923,70805
16.88735,70173
16.89548,66048
16.90360,66222
16.91172,66375
16.91985,67639
16.92797,64729
16.93610,67327
16.94422,70387
16.95233,68305
16.96047,66462
16.96858,69990
16.97672,64750
16.98483,73073
16.99295,75173
17.00108,73520
17.00920,76955
17.01732,76062
17.02545,83506
17.03357,86653
17.04170,105532
17.04982,142853
17.05793,168489
17.06607,199291
17.07418,202853
17.08232,174281
17.09043,147607
17.09855,119974
17.10668,98708
17.11480,85473
17.12293,89918
17.13105,99082
17.13917,102401
17.14730,100796
17.15542,103419
17.16353,100020
17.17167,98409
17.17978,96304
17.18792,91103
17.19603,86202
17.20415,77382
17.21228,73913
17.22040,67605
17.22853,67702
17.23665,69331
17.24477,71212
17.25290,84931
17.26102,81226
17.26915,75268
17.27727,75268
17.28538,75256
17.29352,69934
17.30163,69003
17.30975,72336
17.31788,89725
17.32600,126501
17.33413,167851
17.34225,231062
17.35037,283645
17.35850,300904
17.36662,287101
17.37475,257651
17.38287,225081
17.39098,198665
17.39912,184391
17.40723,174172
17.41535,172779
17.42348,172591
17.43160,183458
17.43973,171322
17.44785,162286
17.45597,157156
17.46410,142152
17.47222,123718
17.48035,124556
17.48847,114724
17.49658,108869
17.50472,103806
17.51283,106408
17.52097,96333
17.52908,97364
17.53720,108145
17.54533,101290
17.55345,104425
17.56157,147597
17.56970,290694
17.57782,642387
17.58595,1428520
17.59407,2682545
17.60218,4424648
17.61032,6033279
17.61843,6709254
17.62657,6357410
17.63468,5183212
17.64280,3603971
17.65093,2228402
17.65905,1316511
17.66718,786924
17.67530,522133
17.68342,376293
17.69155,309836
17.69967,263046
17.70778,240991
17.71592,221237
17.72403,217115
17.73217,205998
17.74028,182392
17.74840,170554
17.75653,153212
17.76465,144393
17.77278,133607
17.78090,116313
17.78902,114361
17.79715,103889
17.80527,102844
17.81338,102502
17.82152,100914
17.82963,111398
17.83777,116326
17.84588,139108
17.85400,169865
17.86213,229076
17.87025,287377
17.87838,343401
17.88650,343446
17.89462,287571
17.90275,229023
17.91087,166662
17.91900,124079
17.92712,103017
17.93523,93088
17.94337,87314
17.95148,78823
17.95960,77257
17.96773,79725
17.97585,78124
17.98398,69365
17.99210,73771
18.00022,73659
18.00835,84951
18.01647,106830
18.02460,160458
18.03272,261927
18.04083,367711
18.04897,499712
18.05708,667858
18.06520,1050861
18.07333,2039206
18.08145,4040652
18.08958,6917085
18.09770,9932869
18.10582,1.174188E+07
18.11395,1.181717E+07
18.12207,1.016166E+07
18.13020,7287570
18.13832,5203843
18.14643,3729476
18.15457,2802982
18.16268,2304529
18.17082,1936393
18.17893,1694285
18.18705,1468147
18.19518,1320165
18.20330,1151171
18.21142,1020955
18.21955,941014
18.22767,853512
18.23580,818173
18.24392,737790
18.25203,679357
18.26017,656255
18.26828,603733
18.27642,543396
18.28453,486484
18.29265,404967
18.30078,314480
18.30890,243394
18.31703,192183
18.32515,164366
18.33327,139602
18.34140,133326
18.34952,132985
18.35763,126501
18.36577,121187
18.37388,117991
18.38202,114248
18.39013,107224
18.39825,117865
18.40638,114871
18.41450,128492
18.42263,150649
18.43075,174976
18.43887,223854
18.44700,293679
18.45512,419605
18.46323,656203
18.47137,1099473
18.47948,1664481
18.48762,2169622
18.49573,2418545
18.50385,2283694
18.51198,1858690
18.52010,1335267
18.52823,844388
18.53635,519642
18.54447,343749
18.55260,232894
18.56072,190804
18.56885,158501
18.57697,132018
18.58508,132797
18.59322,122863
18.60133,125050
18.60945,130180
18.61758,142496
18.62570,165196
18.63383,164103
18.64195,159177
18.65007,156431
18.65820,137266
18.66632,123176
18.67445,102685
18.68257,95639
18.69068,89815
18.69882,80282
18.70693,81594
18.71507,84791
18.72318,86127
18.73130,85217
18.73943,74375
18.74755,78344
18.75567,77525
18.76380,73444
18.77192,77349
18.78005,74133
18.78817,78066
18.79628,75424
18.80442,77398
18.81253,83805
18.82067,76802
18.82878,77909
18.83690,78248
18.84503,82736
18.85315,74725
18.86127,80750
18.86940,95429
18.87752,99298
18.88565,104165
18.89377,107109
18.90188,107576
18.91002,104080
18.91813,103532
18.92627,112676
18.93438,133080
18.94250,142305
18.95063,168039
18.95875,172246
18.96688,176121
18.97500,176408
18.98312,169508
18.99125,152198
18.99937,139114
19.00748,120123
19.01562,105143
19.02373,94966
19.03187,92486
19.03998,83996
19.04810,82523
19.05623,79823
19.06435,76984
19.07248,78129
19.08060,94235
19.08872,125586
19.09685,198752
19.10497,276240
19.11310,328156
19.12122,362457
19.12933,355472
19.13747,332909
19.14558,306368
19.15370,285883
19.16183,263184
19.16995,257842
19.17808,250116
19.18620,245826
19.19432,241792
19.20245,243541
19.21057,240867
19.21870,235440
19.22682,242568
19.23493,238752
19.24307,254277
19.25118,251638
19.25930,244572
19.26743,246017
19.27555,255210
19.28368,246570
19.29180,248081
19.29992,259508
19.30805,262666
19.31617,271393
19.32430,277078
19.33242,262265
19.34053,248548
19.34867,263362
19.35678,297061
19.36492,368283
19.37303,489656
19.38115,587867
19.38928,658419
19.39740,664545
19.40552,576025
19.41365,490157
19.42177,395602
19.42990,344686
19.43802,307161
19.44613,298011
19.45427,282248
19.46238,276790
19.47052,274685
19.47863,268777
19.48675,273333
19.49488,278888
19.50300,283427
19.51112,304493
19.51925,334934
19.52737,374735
19.53550,394577
19.54362,422858
19.55173,418027
19.55987,402811
19.56798,365878
19.57612,324857
19.58423,295397
19.59235,256573
19.60048,244395
19.60860,228537
19.61673,229370
19.62485,214526
19.63297,217834
19.64110,226752
19.64922,237884
19.65733,280021
19.66547,345807
19.67358,466253
19.68172,571323
19.68983,677120
19.69795,733071
19.70608,752638
19.71420,685547
19.72233,675692
19.73045,593741
19.73857,518679
19.74670,455750
19.75482,392324
19.76295,343918
19.77107,326933
19.77918,325236
19.78732,358867
19.79543,418914
19.80355,496290
19.81168,555608
19.81980,577724
19.82793,539558
19.83605,470389
19.84417,397084
19.85230,330740
19.86042,301626
19.86855,295993
19.87667,337704
19.88478,440202
19.89292,646542
19.90103,871998
19.90915,1048411
19.91728,1054563
19.92540,1014555
19.93353,820722
19.94165,643389
19.94977,514119
19.95790,407299
19.96602,367718
19.97415,331035
19.98227,307895
19.99038,302778
19.99852,296954
20.00663,282034
20.01477,269321
20.02288,270104
20.03100,262137
20.03913,269780
20.04725,269603
20.05537,271415
20.06350,290399
20.07162,320397
20.07975,388116
20.08787,456046
20.09598,506920
20.10412,522875
20.11223,502362
20.12037,442919
20.12848,384969
20.13660,330979
20.14473,298479
20.15285,318852
20.16098,420684
20.16910,598999
20.17722,877470
20.18535,1244025
20.19347,1651042
20.20158,1937697
20.20972,1999653
20.21783,1857069
20.22597,1559073
20.23408,1271267
20.24220,1041552
20.25033,917424
20.25845,975905
20.26658,1138484
20.27470,1366680
20.28282,1584497
20.29095,1711973
20.29907,1672083
20.30718,1514843
20.31532,1321247
20.32343,1034442
20.33157,778994
20.33968,573837
20.34780,453041
20.35593,365648
20.36405,299110
20.37218,267262
20.38030,243391
20.38842,229826
20.39655,212233
20.40467,203237
20.41280,200897
20.42092,189769
20.42903,190892
20.43717,194284
20.44528,204480
20.45340,226044
20.46153,241497
20.46965,247500
20.47778,242478
20.48590,229606
20.49402,219978
20.50215,200955
20.51027,182383
20.51840,186969
20.52652,174684
20.53463,174963
20.54277,181474
20.55088,186646
20.55900,190074
20.56713,191736
20.57525,192341
20.58338,176245
20.59150,176201
20.59962,163120
20.60775,156737
20.61587,153096
20.62400,158162
20.63212,156171
20.64023,159466
20.64837,164293
20.65648,169986
20.66462,178997
20.67273,189566
20.68085,190323
20.68898,170756
20.69710,163826
20.70522,156548
20.71335,142171
20.72147,148216
20.72960,147165
20.73772,138931
20.74583,141688
20.75397,157619
20.76208,173139
20.77022,200840
20.77833,226836
20.78645,254294
20.79458,375196
20.80270,592168
20.81083,1076477
20.81895,1718057
20.82707,2337375
20.83520,2582846
20.84332,2459748
20.85143,2057292
20.85957,1356920
20.86768,836492
20.87582,506719
20.88393,340595
20.89205,264666
20.90018,232733
20.90830,207588
20.91643,200952
20.92455,202718
20.93267,212837
20.94080,225616
20.94892,231007
20.95703,232256
20.96517,233758
20.97328,206589
20.98142,199354
20.98953,175423
20.99765,161387
21.00578,148357
21.01390,151053
21.02203,146544
21.03015,154196
21.03827,157302
21.04640,160769
21.05452,163296
21.06265,158604
21.07077,157809
21.07888,147863
21.08702,142603
21.09513,140224
21.10325,137844
21.11138,137156
21.11950,131657
21.12763,143878
21.13575,155230
21.14387,199877
21.15200,293464
21.16012,434767
21.16825,594066
21.17637,701795
21.18448,734241
21.19262,663365
21.20073,541388
21.20887,411777
21.21698,323983
21.22510,271611
21.23323,231324
21.24135,205427
21.24947,192193
21.25760,169655
21.26572,160200
21.27385,143899
21.28197,142381
21.29008,133864
21.29822,127931
21.30633,128253
21.31447,124128
21.32258,124017
21.33070,129234
21.33883,116760
21.34695,119374
21.35507,116236
21.36320,132035
21.37132,140406
21.37945,140786
21.38757,157743
21.39568,185081
21.40382,242169
21.41193,308082
21.42007,382142
21.42818,442652
21.43630,431944
21.44443,386903
21.45255,321591
21.46068,273717
21.46880,243255
21.47692,213740
21.48505,193434
21.49317,176708
21.50128,173309
21.50942,154459
21.51753,145711
21.52567,132701
21.53378,134054
21.54190,124240
21.55003,130298
21.55815,120798
21.56628,122315
21.57440,126514
21.58252,149244
21.59065,171919
21.59877,210152
21.60690,231789
21.61502,240499
21.62313,229196
21.63127,199997
21.63938,186513
21.64750,185642
21.65563,187804
21.66375,232288
21.67188,262592
21.68000,302795
21.68812,359454
21.69625,359918
21.70437,369508
21.71250,322620
21.72062,261467
21.72873,213620
21.73687,182169
21.74498,152061
21.75310,137443
21.76123,135813
21.76935,126871
21.77748,127790
21.78560,124795
21.79372,120201
21.80185,126191
21.80997,124395
21.81810,124633
21.82622,130594
21.83433,126359
21.84247,138287
21.85058,146167
21.85872,161527
21.86683,190158
21.87495,192055
21.88308,200054
21.89120,174314
21.89932,173857
21.90745,160701
21.91557,157052
21.92370,155206
21.93182,149349
21.93993,142544
21.94807,125554
21.95618,117889
21.96432,108871
21.97243,102133
21.98055,92889
21.98868,97948
21.99680,90014
22.00493,95234
22.01305,91318
22.02117,105016
22.02930,107407
22.03742,119433
22.04553,124775
22.05367,135582
22.06178,149179
22.06992,143076
22.07803,128775
22.08615,126833
22.09428,120860
22.10240,112668
22.11053,113014
22.11865,106307
22.12677,99551
22.13490,93992
22.14302,90791
22.15113,96877
22.15927,89080
22.16738,94650
22.17552,86200
22.18363,92864
22.19175,85599
22.19988,88661
22.20800,90975
22.21613,95334
22.22425,94243
22.23237,95226
22.24050,95214
22.24862,106559
22.25675,107695
22.26487,119122
22.27298,120491
22.28112,125042
22.28923,138515
22.29735,157567
22.30548,166519
22.31360,160031
22.32173,168303
22.32985,147826
22.33797,141365
22.34610,135639
22.35422,131751
22.36235,113818
22.37047,108235
22.37858,111447
22.38672,118723
22.39483,147049
22.40295,211084
22.41108,325582
22.41920,490421
22.42733,658884
22.43545,763845
22.44357,757743
22.45170,671333
22.45982,535370
22.46795,398725
22.47607,287106
22.48418,230201
22.49232,231102
22.50043,255910
22.50857,293114
22.51668,336153
22.52480,368253
22.53293,371438
22.54105,331589
22.54917,300121
22.55730,261912
22.56542,218179
22.57355,191023
22.58167,162855
22.58978,148476
22.59792,127393
22.60603,119911
22.61417,117604
22.62228,107413
22.63040,107825
22.63853,105733
22.64665,100615
22.65478,108011
22.66290,114082
22.67102,125723
22.67915,129526
22.68727,138236
22.69538,151967
22.70352,198903
22.71163,260055
22.71977,327785
22.72788,402535
22.73600,437348
22.74413,410855
22.75225,366732
22.76038,287698
22.76850,246313
22.77662,228632
22.78475,245047
22.79287,308112
22.80098,414630
22.80912,559846
22.81723,696321
22.82537,798334
22.83348,764014
22.84160,685676
22.84973,560567
22.85785,435165
22.86598,354353
22.87410,301769
22.88222,309332
22.89035,335622
22.89847,367232
22.90660,388849
22.91472,411348
22.92283,433548
22.93097,491507
22.93908,518934
22.94720,535359
22.95533,499328
22.96345,447004
22.97158,340046
22.97970,258625
22.98782,203331
22.99595,169119
23.00407,141487
23.01220,119963
23.02032,112114
23.02843,106923
23.03657,96418
23.04468,98193
23.05282,94477
23.06093,99229
23.06905,109830
23.07718,114413
23.08530,117266
23.09342,126741
23.10155,127910
23.10967,115704
23.11780,110437
23.12592,109460
23.13403,106210
23.14217,98059
23.15028,93845
23.15842,98694
23.16653,91875
23.17465,91422
23.18278,83827
23.19090,88439
23.19902,81618
23.20715,80198
23.21527,71749
23.22340,76930
23.23152,76204
23.23963,81972
23.24777,89720
23.25588,105232
23.26402,138612
23.27213,173251
23.28025,207320
23.28838,222219
23.29650,212177
23.30463,184252
23.31275,145542
23.32087,127357
23.32900,115445
23.33712,130502
23.34523,156974
23.35337,214678
23.36148,298198
23.36962,390194
23.37773,458288
23.38585,477566
23.39398,474095
23.40210,397912
23.41023,320645
23.41835,250786
23.42647,195591
23.43460,160330
23.44272,138867
23.45083,136099
23.45897,115677
23.46708,114587
23.47522,110379
23.48333,100097
23.49145,98186
23.49958,92565
23.50770,89369
23.51583,89702
23.52395,92134
23.53207,94070
23.54020,90221
23.54832,95558
23.55645,101797
23.56457,121443
23.57268,139015
23.58082,176407
23.58893,235990
23.59705,324163
23.60518,407664
23.61330,494041
23.62143,505226
23.62955,451696
23.63767,390363
23.64580,279659
23.65392,215061
23.66205,176789
23.67017,155423
23.67828,145647
23.68642,136076
23.69453,129395
23.70267,122053
23.71078,109129
23.71890,98307
23.72703,98237
23.73515,88970
23.74327,91736
23.75140,89015
23.75952,92325
23.76765,117308
23.77577,198734
23.78388,381725
23.79202,704624
23.80013,1151218
23.80827,1516259
23.81638,1735909
23.82450,1702966
23.83263,1400348
23.84075,1098197
23.84887,832123
23.85700,647475
23.86512,499092
23.87325,411083
23.88137,347310
23.88948,315964
23.89762,294252
23.90573,316523
23.91387,349094
23.92198,440744
23.93010,510741
23.93823,574201
23.94635,519793
23.95448,443540
23.96260,356610
23.97072,272016
23.97885,218967
23.98697,194498
23.99508,168809
24.00322,164014
24.01133,163739
24.01947,154714
24.02758,156154
24.03570,161937
24.04383,161603
24.05195,177472
24.06008,171386
24.06820,163954
24.07632,142994
24.08445,134718
24.09257,123635
24.10070,119399
24.10882,120490
24.11693,113333
24.12507,114624
24.13318,122348
24.14130,122778
24.14943,143162
24.15755,169699
24.16568,202881
24.17380,230109
24.18192,245259
24.19005,261794
24.19817,251382
24.20630,255413
24.21442,257902
24.22253,230220
24.23067,218497
24.23878,197709
24.24690,175903
24.25503,169338
24.26315,154140
24.27128,140833
24.27940,135552
24.28752,131467
24.29565,121336
24.30377,125782
24.31190,127196
24.32002,135231
24.32813,140931
24.33627,146087
24.34438,145549
24.35252,139247
24.36063,137041
24.36875,121467
24.37688,114747
24.38500,111867
24.39312,114761
24.40125,110778
24.40937,117286
24.41750,134281
24.42562,154084
24.43373,162910
24.44187,162319
24.44998,159598
24.45812,142869
24.46623,134688
24.47435,125171
24.48248,120604
24.49060,117434
24.49873,114752
24.50685,120228
24.51497,126010
24.52310,119999
24.53122,141935
24.53933,156213
24.54747,185936
24.55558,242280
24.56372,272699
24.57183,302297
24.57995,320330
24.58808,308083
24.59620,283045
24.60433,261104
24.61245,218519
24.62057,191619
24.62870,160907
24.63682,143760
24.64493,131870
24.65307,113447
24.66118,107009
24.66932,98814
24.67743,98463
24.68555,113765
24.69368,96583
24.70180,102727
24.70993,100810
24.71805,99637
24.72617,105719
24.73430,113739
24.74242,116894
24.75055,123683
24.75867,122449
24.76678,126569
24.77492,137768
24.78303,156693
24.79115,174924
24.79928,189814
24.80740,214503
24.81553,197375
24.82365,198444
24.83177,204052
24.83990,225821
24.84802,307796
24.85615,439833
24.86427,618924
24.87238,900632
24.88052,1345082
24.88863,1972736
24.89675,2681825
24.90488,3402620
24.91300,3625900
24.92113,3365652
24.92925,2686152
24.93737,1865424
24.94550,1169844
24.95362,687811
24.96175,414233
24.96987,265411
24.97798,200225
24.98612,161474
24.99423,150895
25.00237,139110
25.01048,131445
25.01860,133459
25.02673,122642
25.03485,131880
25.04297,124388
25.05110,130015
25.05922,121575
25.06735,122364
25.07547,126001
25.08358,122968
25.09172,131872
25.09983,160795
25.10797,243409
25.11608,536705
25.12420,1299749
25.13233,3017588
25.14045,6183025
25.14858,1.032127E+07
25.15670,1.462906E+07
25.16482,1.728401E+07
25.17295,1.761086E+07
25.18107,1.489119E+07
25.18918,1.077684E+07
25.19732,6569357
25.20543,3606919
25.21357,1866738
25.22168,982620
25.22980,553528
25.23793,374127
25.24605,312106
25.25418,355778
25.26230,462853
25.27042,640265
25.27855,807200
25.28667,879460
25.29478,871728
25.30292,773803
25.31103,602285
25.31917,447933
25.32728,312962
25.33540,227487
25.34353,175728
25.35165,146604
25.35978,130156
25.36790,125302
25.37602,110935
25.38415,113233
25.39227,100441
25.40040,99322
25.40852,96494
25.41663,86478
25.42477,91100
25.43288,85566
25.44100,86517
25.44913,93055
25.45725,89427
25.46538,85863
25.47350,87595
25.48162,89980
25.48975,87947
25.49787,90072
25.50600,98129
25.51412,94569
25.52223,93240
25.53037,92719
25.53848,88663
25.54662,84946
25.55473,82833
25.56285,87851
25.57098,84026
25.57910,82708
25.58722,89635
25.59535,88228
25.60347,91290
25.61160,94613
25.61972,104539
25.62783,111889
25.63597,105831
25.64408,92521
25.65222,81786
25.66033,87482
25.66845,86790
25.67658,89525
25.68470,94207
25.69282,99670
25.70095,107401
25.70907,110020
25.71720,116337
25.72532,114072
25.73343,112363
25.74157,110300
25.74968,108987
25.75782,98466
25.76593,95899
25.77405,87941
25.78218,81710
25.79030,81301
25.79843,78673
25.80655,77209
25.81467,76831
25.82280,81661
25.83092,77931
25.83903,79432
25.84717,74658
25.85528,82692
25.86342,87787
25.87153,77239
25.87965,79038
25.88778,79517
25.89590,82007
25.90403,89816
25.91215,84401
25.92027,87567
25.92840,88761
25.93652,82976
25.94463,89064
25.95277,86288
25.96088,90787
25.96902,90068
25.97713,94366
25.98525,95642
25.99338,95704
26.00150,89326
26.00963,104127
26.01775,142158
26.02587,218855
26.03400,309084
26.04212,357260
26.05025,385335
26.05837,400982
26.06648,417289
26.07462,423850
26.08273,434883
26.09085,434918
26.09898,457567
26.10710,453871
26.11523,446261
26.12335,461820
26.13147,445388
26.13960,440296
26.14772,438738
26.15585,443281
26.16397,451500
26.17208,446932
26.18022,464021
26.18833,453771
26.19647,436833
26.20458,433996
26.21270,430577
26.22083,424217
26.22895,439211
26.23707,430469
26.24520,428128
26.25332,420910
26.26145,414663
26.26957,393936
26.27768,396368
26.28582,383157
26.29393,397394
26.30207,401447
26.31018,391274
26.31830,387714
26.32643,382678
26.33455,376354
26.34268,382339
26.35080,377261
26.35892,383469
26.36705,429852
26.37517,498292
26.38328,629302
26.39142,817642
26.39953,1038580
26.40767,1238989
26.41578,1368960
26.42390,1358109
26.43203,1196239
26.44015,1024152
26.44828,841096
26.45640,693999
26.46452,567747
26.47265,492592
26.48077,460033
26.48888,418298
26.49702,403479
26.50513,386339
26.51327,369484
26.52138,361952
26.52950,344205
26.53763,328400
26.54575,326522
26.55388,317234
26.56200,307622
26.57012,313162
26.57825,303919
26.58637,305846
26.59450,309536
26.60262,302311
26.61073,299642
26.61887,300024
26.62698,295151
26.63510,305103
26.64323,292833
26.65135,286161
26.65948,290964
26.66760,294566
26.67572,287259
26.68385,285030
26.69197,280435
26.70010,273891
26.70822,278052
26.71633,285768
26.72447,267836
26.73258,276047
26.74070,259752
26.74883,271162
26.75695,268843
26.76508,266875
26.77320,258342
26.78132,264004
26.78945,273291
26.79757,266747
26.80570,274713
26.81382,283838
26.82193,290660
26.83007,291654
26.83818,273091
26.84632,266863
26.85443,266649
26.86255,259576
26.87068,255848
26.87880,243118
26.88692,257808
26.89505,242884
26.90317,244556
26.91130,247210
26.91942,233872
26.92753,234298
26.93567,230266
26.94378,234845
26.95192,227552
26.96003,226785
26.96815,239503
26.97628,245505
26.98440,267791
26.99253,291424
27.00065,341714
27.00877,424822
27.01690,551996
27.02502,687992
27.03313,834916
27.04127,947776
27.04938,943969
27.05752,837355
27.06563,713862
27.07375,595678
27.08188,504927
27.09000,430715
27.09813,385896
27.10625,351686
27.11437,346115
27.12250,329307
27.13062,333625
27.13873,325320
27.14687,323025
27.15498,318607
27.16312,319696
27.17123,337792
27.17935,356996
27.18748,425951
27.19560,478249
27.20373,507693
27.21185,512126
27.21997,492360
27.22810,444895
27.23622,387042
27.24435,347638
27.25247,311396
27.26058,281155
27.26872,250735
27.27683,234695
27.28495,225825
27.29308,212722
27.30120,207738
27.30933,212209
27.31745,205765
27.32557,200370
27.33370,208880
27.34182,216337
27.34995,219634
27.35807,222011
27.36618,212647
27.37432,215248
27.38243,218691
27.39057,217815
27.39868,225324
27.40680,210303
27.41493,200183
27.42305,192832
27.43117,190971
27.43930,187556
27.44742,187798
27.45555,190708
27.46367,190044
27.47178,178766
27.47992,175209
27.48803,171602
27.49617,164076
27.50428,163715
27.51240,167083
27.52053,163519
27.52865,168946
27.53677,167366
27.54490,165904
27.55302,172085
27.56115,160275
27.56927,167698
27.57738,176337
27.58552,208454
27.59363,237129
27.60177,296128
27.60988,339035
27.61800,359539
27.62613,352741
27.63425,328913
27.64238,280683
27.65050,244728
27.65862,207099
27.66675,196675
27.67487,172266
27.68298,173970
27.69112,176405
27.69923,182843
27.70737,182779
27.71548,196974
27.72360,189000
27.73173,178126
27.73985,159235
27.74798,149818
27.75610,145556
27.76422,133520
27.77235,137469
27.78047,142103
27.78858,146171
27.79672,158657
27.80483,163235
27.81297,173476
27.82108,161486
27.82920,153664
27.83733,145993
27.84545,140862
27.85358,131875
27.86170,125869
27.86982,127777
27.87795,126252
27.88607,119356
27.89420,117580
27.90232,124631
27.91043,122117
27.91857,126885
27.92668,125737
27.93480,123814
27.94293,132849
27.95105,119703
27.95918,124730
27.96730,119872
27.97542,112650
27.98355,119055
27.99167,110909
27.99980,118681
28.00792,120439
28.01603,130271
28.02417,148598
28.03228,163980
28.04042,186420
28.04853,231132
28.05665,267991
28.06478,303856
28.07290,334605
28.08102,317105
28.08915,260179
28.09727,217276
28.10540,176711
28.11352,150009
28.12163,135709
28.12977,116017
28.13788,121001
28.14602,112711
28.15413,110764
28.16225,106597
28.17038,109087
28.17850,111099
28.18662,109432
28.19475,118671
28.20287,147447
28.21100,183362
28.21912,232369
28.22723,295033
28.23537,331161
28.24348,353853
28.25162,349503
28.25973,304670
28.26785,263883
28.27598,199794
28.28410,163162
28.29223,134371
28.30035,127336
28.30847,129370
28.31660,161268
28.32472,192966
28.33283,232485
28.34097,256813
28.34908,264224
28.35722,249557
28.36533,233012
28.37345,214053
28.38158,207923
28.38970,202116
28.39783,210649
28.40595,222753
28.41407,212016
28.42220,223009
28.43032,217965
28.43845,198677
28.44657,191423
28.45468,173271
28.46282,165630
28.47093,157485
28.47905,146655
28.48718,145559
28.49530,150628
28.50343,160457
28.51155,171768
28.51967,178929
28.52780,181579
28.53592,171953
28.54405,159786
28.55217,146943
28.56028,128701
28.56842,121734
28.57653,113502
28.58465,111823
28.59278,109062
28.60090,105876
28.60903,107873
28.61715,106164
28.62527,111221
28.63340,126037
28.64152,131451
28.64965,140478
28.65777,148898
28.66588,144933
28.67402,144887
28.68213,144144
28.69027,128595
28.69838,116753
28.70650,119438
28.71463,103938
28.72275,102583
28.73087,104020
28.73900,94852
28.74712,93353
28.75525,92704
28.76337,96529
28.77148,98269
28.77962,99070
28.78773,109175
28.79587,118743
28.80398,137155
28.81210,154674
28.82023,170399
28.82835,185323
28.83648,177878
28.84460,164790
28.85272,156393
28.86085,145200
28.86897,141959
28.87708,144110
28.88522,142099
28.89333,162961
28.90147,207613
28.90958,236767
28.91770,261967
28.92583,261546
28.93395,233933
28.94208,203798
28.95020,165572
28.95832,138748
28.96645,127809
28.97457,114809
28.98268,110996
28.99082,104537
28.99893,102661
29.00707,96865
29.01518,94131
29.02330,96960
29.03143,100329
29.03955,94120
29.04768,97791
29.05580,97810
29.06392,95634
29.07205,99472
29.08017,94964
29.08830,104842
29.09642,110502
29.10453,120376
29.11267,120379
29.12078,121488
29.12890,111597
29.13703,104396
29.14515,92889
29.15328,88470
29.16140,83471
29.16952,86776
29.17765,87164
29.18577,97324
29.19390,114699
29.20202,150111
29.21013,203182
29.21827,296729
29.22638,377249
29.23450,454009
29.24263,467553
29.25075,412089
29.25888,347221
29.26700,289876
29.27512,242512
29.28325,225165
29.29137,178550
29.29950,151731
29.30762,121271
29.31573,110843
29.32387,96636
29.33198,87819
29.34012,89056
29.34823,88034
29.35635,82787
29.36448,83981
29.37260,83403
29.38072,84481
29.38885,81599
29.39697,78512
29.40510,89102
29.41322,87162
29.42133,94105
29.42947,95710
29.43758,101097
29.44572,99586
29.45383,95711
29.46195,101422
29.47008,93323
29.47820,86489
29.48633,88932
29.49445,84825
29.50257,85725
29.51070,86603
29.51882,88837
29.52693,99892
29.53507,99743
29.54318,97550
29.55132,95068
29.55943,93525
29.56755,98406
29.57568,86736
29.58380,88226
29.59193,87423
29.60005,87212
29.60817,80640
29.61630,79703
29.62442,79789
29.63253,79735
29.64067,82516
29.64878,80864
29.65692,81096
29.66503,77929
29.67315,86636
29.68128,93128
29.68940,97178
29.69753,113171
29.70565,124488
29.71377,144335
29.72190,150573
29.73002,133442
29.73815,123304
29.74627,107807
29.75438,92965
29.76252,88903
29.77063,88473
29.77875,86261
29.78688,86563
29.79500,79090
29.80313,75311
29.81125,73249
29.81937,76897
29.82750,76422
29.83562,75319
29.84375,73607
29.85187,68709
29.85998,76580
29.86812,78182
29.87623,85306
29.88437,103267
29.89248,125607
29.90060,178677
29.90873,229441
29.91685,269199
29.92497,290584
29.93310,262978
29.94122,208964
29.94935,156833
29.95747,122643
29.96558,106693
29.97372,107915
29.98183,96596
29.98997,97565
29.99808,108821
30.00620,114102
30.01433,112504
30.02245,118654
30.03057,123008
30.03870,139410
30.04682,135506
30.05495,140390
30.06307,133250
30.07118,140258
30.07932,131105
30.08743,129433
30.09557,133227
30.10368,131590
30.11180,121941
30.11993,123014
30.12805,126009
30.13618,120581
30.14430,119559
30.15242,110131
30.16055,105878
30.16867,110370
30.17678,106083
30.18492,105548
30.19303,112455
30.20117,110809
30.20928,118924
30.21740,127355
30.22553,133364
30.23365,130458
30.24178,116978
30.24990,109558
30.25802,105853
30.26615,95025
30.27427,89690
30.28238,86281
30.29052,84612
30.29863,88414
30.30677,84714
30.31488,85222
30.32300,79169
30.33113,81798
30.33925,85280
30.34738,81039
30.35550,90270
30.36362,89096
30.37175,88849
30.37987,93419
30.38800,86582
30.39612,86040
30.40423,82038
30.41237,79495
30.42048,78208
30.42860,72816
30.43673,77344
30.44485,79351
30.45298,81073
30.46110,76729
30.46922,74923
30.47735,78011
30.48547,78276
30.49360,77194
30.50172,83098
30.50983,78797
30.51797,90055
30.52608,91207
30.53422,83236
30.54233,83157
30.55045,84733
30.55858,83675
30.56670,81640
30.57482,85941
30.58295,88021
30.59107,86695
30.59920,95612
30.60732,89011
30.61543,86331
30.62357,96443
30.63168,88876
30.63982,85499
30.64793,86649
30.65605,85531
30.66418,86297
30.67230,84237
30.68042,71366
30.68855,68594
30.69667,74025
30.70480,69234
30.71292,72283
30.72103,68215
30.72917,76917
30.73728,77350
30.74542,75352
30.75353,80067
30.76165,76707
30.76978,85329
30.77790,83019
30.78603,90033
30.79415,114152
30.80227,175266
30.81040,250894
30.81852,343575
30.82663,397235
30.83477,426873
30.84288,406728
30.85102,311276
30.85913,220185
30.86725,165367
30.87538,137505
30.88350,107992
30.89163,105348
30.89975,101347
30.90787,90124
30.91600,93198
30.92412,95758
30.93225,87784
30.94037,76468
30.94848,87113
30.95662,88500
30.96473,88860
30.97285,89750
30.98098,88681
30.98910,94798
30.99723,96697
31.00535,89482
31.01347,86971
31.02160,83136
31.02972,78942
31.03785,80402
31.04597,85540
31.05408,78845
31.06222,79721
31.07033,82897
31.07845,77117
31.08658,87823
31.09470,93569
31.10283,103097
31.11095,120147
31.11907,136215
31.12720,155870
31.13532,155961
31.14345,146706
31.15157,142882
31.15968,134151
31.16782,128211
31.17593,134379
31.18407,132757
31.19218,133184
31.20030,141681
31.20843,145927
31.21655,172651
31.22467,209168
31.23280,241637
31.24092,261191
31.24905,257321
31.25717,242883
31.26528,192236
31.27342,158803
31.28153,129050
31.28967,99921
31.29778,98292
31.30590,85850
31.31403,91113
31.32215,93164
31.33027,106250
31.33840,116233
31.34652,131019
31.35465,136322
31.36277,133028
31.37088,132638
31.37902,123904
31.38713,109482
31.39527,92566
31.40338,89892
31.41150,84089
31.41963,77584
31.42775,78917
31.43588,77694
31.44400,81908
31.45212,82056
31.46025,75794
31.46837,79185
31.47648,76382
31.48462,77518
31.49273,84020
31.50087,90536
31.50898,92135
31.51710,96494
31.52523,116928
31.53335,118333
31.54148,120238
31.54960,122874
31.55772,132787
31.56585,115000
31.57397,110505
31.58210,111078
31.59022,101935
31.59833,95923
31.60647,91957
31.61458,83323
31.62270,76755
31.63083,81392
31.63895,82818
31.64708,81766
31.65520,84875
31.66332,94514
31.67145,108965
31.67957,124175
31.68770,138057
31.69582,153224
31.70393,150956
31.71207,138738
31.72018,124478
31.72832,108239
31.73643,96707
31.74455,88087
31.75268,84659
31.76080,76714
31.76892,79985
31.77705,81399
31.78517,78171
31.79330,74501
31.80142,79027
31.80953,76770
31.81767,76447
31.82578,76768
31.83392,79486
31.84203,78619
31.85015,77638
31.85828,73012
31.86640,82212
31.87452,82522
31.88265,84732
31.89077,86069
31.89890,86245
31.90702,78721
31.91513,73191
31.92327,75570
31.93138,80902
31.93952,85789
31.94763,85933
31.95575,89485
31.96388,92660
31.97200,102714
31.98013,111643
31.98825,118143
31.99637,117663
32.00450,134356
32.01262,148479
32.02073,160967
32.02887,168788
32.03698,168784
32.04512,161098
32.05323,154011
32.06135,131337
32.06948,117154
32.07760,105677
32.08573,107086
32.09385,102238
32.10197,96920
32.11010,101434
32.11822,97662
32.12633,94026
32.13447,93912
32.14258,90717
32.15072,90410
32.15883,84041
32.16695,77079
32.17508,84761
32.18320,80602
32.19133,84256
32.19945,81016
32.20757,81729
32.21570,80615
32.22382,80520
32.23195,86867
32.24007,80404
32.24818,78673
32.25632,75466
32.26443,76770
32.27255,77321
32.28068,80905
32.28880,83716
32.29693,89401
32.30505,82778
32.31317,87834
32.32130,80321
32.32942,81819
32.33755,81800
32.34567,78850
32.35378,82622
32.36192,80879
32.37003,88256
32.37817,84296
32.38628,80884
32.39440,87854
32.40253,76723
32.41065,82126
32.41877,76157
32.42690,76336
32.43502,76355
32.44315,76161
32.45127,75288
32.45938,75218
32.46752,77142
32.47563,80327
32.48377,75310
32.49188,74758
32.50000,74474
32.50813,87318
32.51625,80451
32.52437,79758
32.53250,84482
32.54062,83455
32.54875,86300
32.55687,82567
32.56498,81255
32.57312,81667
32.58123,78967
32.58937,77060
32.59748,74221
32.60560,78219
32.61373,82026
32.62185,81988
32.62998,77195
32.63810,76078
32.64622,71969
32.65435,76879
32.66247,71545
32.67058,82505
32.67872,79524
32.68683,83716
32.69497,92344
32.70308,91249
32.71120,95123
32.71933,94620
32.72745,94709
32.73558,91172
32.74370,88016
32.75182,85936
32.75995,85244
32.76807,81500
32.77620,80309
32.78432,81417
32.79243,76315
32.80057,79257
32.80868,73808
32.81680,80721
32.82493,77630
32.83305,78870
32.84118,81579
32.84930,77841
32.85742,80076
32.86555,80317
32.87367,80176
32.88180,88453
32.88992,83554
32.89803,93310
32.90617,98447
32.91428,110222
32.92240,109396
32.93053,120208
32.93865,107028
32.94678,106218
32.95490,94898
32.96302,90411
32.97115,85478
32.97927,87458
32.98740,111907
32.99552,144511
33.00363,196259
33.01177,252534
33.01988,309672
33.02802,328176
33.03613,301444
33.04425,257473
33.05238,198172
33.06050,178187
33.06862,168204
33.07675,169661
33.08487,196817
33.09300,216987
33.10112,259251
33.10923,297067
33.11737,326689
33.12548,336792
33.13362,330059
33.14173,306506
33.14985,261635
33.15798,227860
33.16610,196724
33.17422,173453
33.18235,164947
33.19047,140427
33.19860,126638
33.20672,108566
33.21483,107041
33.22297,101763
33.23108,107147
33.23922,100815
33.24733,106418
33.25545,103804
33.26358,100489
33.27170,93307
33.27983,90979
33.28795,89906
33.29607,93428
33.30420,92267
33.31232,92979
33.32043,101695
33.32857,95973
33.33668,93384
33.34482,96496
33.35293,103243
33.36105,116771
33.36918,117318
33.37730,138943
33.38543,144882
33.39355,140967
33.40167,134569
33.40980,110419
33.41792,102168
33.42605,92747
33.43417,85634
33.44228,88543
33.45042,83298
33.45853,83133
33.46665,80359
33.47478,85522
33.48290,77443
33.49103,81163
33.49915,80837
33.50727,89796
33.51540,92293
33.52352,94149
33.53165,105084
33.53977,109627
33.54788,115531
33.55602,132260
33.56413,145336
33.57225,164618
33.58038,169470
33.58850,163447
33.59663,135970
33.60475,126078
33.61287,104058
33.62100,96086
33.62912,89425
33.63725,82259
33.64537,90834
33.65348,90626
33.66162,104101
33.66973,104110
33.67787,112557
33.68598,104160
33.69410,109502
33.70223,101385
33.71035,100780
33.71847,88265
33.72660,82982
33.73472,85524
33.74285,81190
33.75097,81963
33.75908,81288
33.76722,82335
33.77533,79657
33.78347,79765
33.79158,78681
33.79970,76068
33.80783,81100
33.81595,77967
33.82408,81656
33.83220,77218
33.84032,76924
33.84845,80410
33.85657,81715
33.86468,83895
33.87282,86078
33.88093,92122
33.88907,84347
33.89718,92935
33.90530,93813
33.91343,91501
33.92155,89621
33.92968,87817
33.93780,90674
33.94592,88070
33.95405,79867
33.96217,83178
33.97028,83445
33.97842,75799
33.98653,77930
33.99467,76188
34.00278,80414
34.01090,80591
34.01903,83908
34.02715,74651
34.03528,75363
34.04340,80242
34.05152,76457
34.05965,77902
34.06777,80825
34.07590,77072
34.08402,80078
34.09213,80444
34.10027,80242
34.10838,79162
34.11650,81369
34.12463,80362
34.13275,85903
34.14088,81616
34.14900,81557
34.15712,79260
34.16525,83512
34.17337,84612
34.18150,81559
34.18962,82379
34.19773,80753
34.20587,84986
34.21398,80291
34.22212,78557
34.23023,81902
34.23835,78774
34.24648,80578
34.25460,81188
34.26272,78628
34.27085,70385
34.27897,74086
34.28710,74241
34.29522,77143
34.30333,75639
34.31147,77008
34.31958,78276
34.32772,79825
34.33583,78459
34.34395,75119
34.35208,83875
34.36020,78701
34.36832,79699
34.37645,78637
34.38457,86062
34.39270,77968
34.40082,78529
34.40893,77066
34.41707,83918
34.42518,84006
34.43332,83394
34.44143,80839
34.44955,84600
34.45768,81261
34.46580,83229
34.47393,83862
34.48205,82912
34.49017,82531
34.49830,82161
34.50642,83947
34.51453,80627
34.52267,82405
34.53078,82742
34.53892,84599
34.54703,89343
34.55515,94575
34.56328,102598
34.57140,110951
34.57953,119322
34.58765,121661
34.59577,132486
34.60390,119921
34.61202,125462
34.62013,113037
34.62827,105462
34.63638,101084
34.64452,98711
34.65263,93958
34.66075,102889
34.66888,91030
34.67700,93086
34.68513,97969
34.69325,93183
34.70137,90169
34.70950,87853
34.71762,85362
34.72575,88536
34.73387,82884
34.74198,85048
34.75012,84335
34.75823,89040
34.76635,84061
34.77448,90822
34.78260,93773
34.79073,98885
34.79885,104607
34.80697,104173
34.81510,99164
34.82322,98045
34.83135,96444
34.83947,91956
34.84758,89308
34.85572,91687
34.86383,94788
34.87197,93564
34.88008,90741
34.88820,92281
34.89633,92119
34.90445,83092
34.91257,92636
34.92070,82056
34.92882,87180
34.93695,83808
34.94507,87880
34.95318,95709
34.96132,97200
34.96943,98658
34.97757,109560
34.98568,109042
34.99380,112952
35.00193,112261
35.01005,112796
35.01817,97505
35.02630,101102
35.03442,88863
35.04255,90422
35.05067,90490
35.05878,88922
35.06692,87412
35.07503,89371
35.08317,88833
35.09128,86450
35.09940,94833
35.10753,87953
35.11565,84065
35.12378,91622
35.13190,84078
35.14002,84265
35.14815,90111
35.15627,91007
35.16438,88699
35.17252,92921
35.18063,92201
35.18877,99318
35.19688,99871
35.20500,94551
35.21313,92144
35.22125,89429
35.22938,93004
35.23750,87445
35.24562,85248
35.25375,83276
35.26187,82578
35.27000,90404
35.27812,86679
35.28623,96060
35.29437,92051
35.30248,90340
35.31060,89388
35.31873,91034
35.32685,95296
35.33498,91037
35.34310,87839
35.35122,85959
35.35935,83041
35.36747,82738
35.37560,86512
35.38372,88096
35.39183,88941
35.39997,85830
35.40808,89215
35.41620,94668
35.42433,101162
35.43245,112575
35.44058,125345
35.44870,127240
35.45682,133177
35.46495,122394
35.47307,116676
35.48120,112932
35.48932,113697
35.49743,105973
35.50557,104300
35.51368,108277
35.52182,105556
35.52993,98553
35.53805,96755
35.54618,95796
35.55430,96765
35.56242,89138
35.57055,89632
35.57867,91325
35.58680,91419
35.59492,89904
35.60303,83043
35.61117,89221
35.61928,93695
35.62742,91640
35.63553,93906
35.64365,91490
35.65178,92026
35.65990,95478
35.66802,91798
35.67615,89606
35.68427,94547
35.69240,89451
35.70052,86855
35.70863,98889
35.71677,93275
35.72488,95102
35.73302,103990
35.74113,98310
35.74925,106525
35.75738,114926
35.76550,145129
35.77363,157584
35.78175,185614
35.78987,205653
35.79800,198731
35.80612,175934
35.81423,159323
35.82237,132922
35.83048,120363
35.83862,101899
35.84673,96583
35.85485,93317
35.86298,95008
35.87110,98006
35.87923,93085
35.88735,96674
35.89547,93239
35.90360,92811
35.91172,99609
35.91985,94073
35.92797,90440
35.93608,95134
35.94422,94402
35.95233,90698
35.96045,85771
35.96858,85424
35.97670,92947
35.98483,89417
35.99295,91629
36.00107,92228
36.00920,94279
36.01732,97462
36.02545,96649
36.03357,98222
36.04168,98015
36.04982,101394
36.05793,94349
36.06607,101084
36.07418,96856
36.08230,99896
36.09043,95119
36.09855,92916
36.10667,91605
36.11480,92072
36.12292,94011
36.13105,100998
36.13917,106798
36.14728,122663
36.15542,126519
36.16353,135434
36.17167,139078
36.17978,129331
36.18790,120054
36.19603,120897
36.20415,110782
36.21227,101586
36.22040,95466
36.22852,95124
36.23665,96882
36.24477,95378
36.25288,97481
36.26102,93183
36.26913,98574
36.27727,96217
36.28538,99176
36.29350,95444
36.30163,104093
36.30975,106330
36.31788,100431
36.32600,111242
36.33412,110496
36.34225,113099
36.35037,117595
36.35848,120418
36.36662,114057
36.37473,114540
36.38287,107624
36.39098,109976
36.39910,110826
36.40723,110000
36.41535,110283
36.42348,112384
36.43160,117474
36.43972,112437
36.44785,114311
36.45597,115457
36.46408,119426
36.47222,113389
36.48033,104317
36.48847,101464
36.49658,97088
36.50470,94464
36.51283,96022
36.52095,94535
36.52908,98165
36.53720,96548
36.54532,92893
36.55345,104950
36.56157,101875
36.56970,98532
36.57782,99303
36.58593,102086
36.59407,98228
36.60218,102470
36.61030,102408
36.61843,98907
36.62655,100824
36.63468,99718
36.64280,107075
36.65092,99283
36.65905,99824
36.66717,102746
36.67530,101567
36.68342,104003
36.69153,103144
36.69967,100168
36.70778,99333
36.71590,104806
36.72403,102464
36.73215,105255
36.74028,110422
36.74840,112679
36.75652,108831
36.76465,107738
36.77277,106349
36.78090,109483
36.78902,103402
36.79713,101671
36.80527,106711
36.81338,110594
36.82152,102819
36.82963,100248
36.83775,98667
36.84588,102752
36.85400,94885
36.86212,100035
36.87025,98163
36.87837,93839
36.88650,90983
36.89462,89594
36.90273,92062
36.91087,97089
36.91898,88902
36.92712,89819
36.93523,97109
36.94335,108101
36.95148,118884
36.95960,154792
36.96773,197871
36.97585,244833
36.98397,308055
36.99210,327164
37.00022,333885
37.00833,297171
37.01647,233772
37.02458,181823
37.03272,147382
37.04083,137724
37.04895,115260
37.05708,111904
37.06520,113349
37.07333,113382
37.08145,111646
37.08957,121910
37.09770,124483
37.10582,128667
37.11395,136938
37.12207,127263
37.13018,135659
37.13832,130037
37.14643,124928
37.15455,117358
37.16268,114427
37.17080,111999
37.17893,111095
37.18705,108387
37.19517,110149
37.20330,108441
37.21142,103672
37.21955,105332
37.22767,104721
37.23578,109337
37.24392,108569
37.25203,111192
37.26015,106711
37.26828,110858
37.27640,107133
37.28453,108583
37.29265,102893
37.30077,102779
37.30890,105849
37.31702,107990
37.32515,107127
37.33327,105680
37.34138,109234
37.34952,112514
37.35763,110770
37.36577,113426
37.37388,117740
37.38200,116534
37.39013,115647
37.39825,118076
37.40637,121705
37.41450,125636
37.42262,126577
37.43075,124196
37.43887,130802
37.44698,128350
37.45512,138613
37.46323,129031
37.47137,131353
37.47948,129286
37.48760,127884
