C:\MassHunter\GCMS\1\data\JTB-E18\JTB-E18-030-08.D Wed Oct 02 13:18:28 2019
Start of data points
2.09532	134447
2.10343	133237
2.11157	134935
2.11968	132103
2.12780	136606
2.13593	127555
2.14405	127721
2.15218	128203
2.16030	121880
2.16842	119088
2.17655	116051
2.18467	113501
2.19278	119628
2.20092	111975
2.20903	115743
2.21717	109874
2.22528	115930
2.23340	105503
2.24153	104639
2.24965	107408
2.25778	106004
2.26590	124955
2.27402	370852
2.28215	1132669
2.29027	1134533
2.29838	578253
2.30652	366029
2.31463	305682
2.32277	263397
2.33088	248695
2.33900	223750
2.34713	215200
2.35525	201410
2.36338	188574
2.37150	179883
2.37962	193632
2.38775	273422
2.39587	250371
2.40400	187073
2.41212	177098
2.42023	166920
2.42837	176215
2.43648	173488
2.44460	162993
2.45273	172746
2.46085	159764
2.46898	157708
2.47710	147590
2.48522	142303
2.49335	150960
2.50147	167462
2.50960	152121
2.51772	145244
2.52583	152374
2.53397	136649
2.54208	137409
2.55020	148711
2.55833	163027
2.56645	187494
2.57458	163986
2.58270	151249
2.59082	144022
2.59895	145348
2.60707	206688
2.61520	480785
2.62332	592150
2.63143	391036
2.63957	267700
2.64768	224068
2.65582	188918
2.66393	182280
2.67205	179408
2.68018	230312
2.68830	237801
2.69642	183765
2.70455	155409
2.71267	148399
2.72080	140509
2.72892	136157
2.73703	135729
2.74517	141120
2.75328	135890
2.76142	130122
2.76953	131057
2.77765	133942
2.78578	170890
2.79390	202517
2.80203	188199
2.81015	187210
2.81827	209407
2.82640	377469
2.83452	793853
2.84263	900943
2.85077	545275
2.85888	340969
2.86702	318385
2.87513	278264
2.88325	217711
2.89138	182449
2.89950	165564
2.90763	164028
2.91575	149671
2.92387	143693
2.93200	133723
2.94012	131457
2.94823	127635
2.95637	125303
2.96448	132480
2.97262	134352
2.98073	133719
2.98885	134823
2.99698	141542
3.00510	152616
3.01323	167602
3.02135	194509
3.02947	450471
3.03760	978714
3.04572	1469560
3.05385	3529690
3.06197	9268695
3.07008	1.188761E+07
3.07822	7888760
3.08633	4121336
3.09445	3242538
3.10258	3159890
3.11070	3270772
3.11883	3204328
3.12695	2275473
3.13507	1495179
3.14320	1134693
3.15132	890545
3.15945	743303
3.16757	665046
3.17568	672324
3.18382	722009
3.19193	1115481
3.20007	1689331
3.20818	1535655
3.21630	1091124
3.22443	849719
3.23255	738381
3.24067	639301
3.24880	557117
3.25692	474295
3.26505	419417
3.27317	396954
3.28128	425849
3.28942	758555
3.29753	1933230
3.30567	3818535
3.31378	4785912
3.32190	4144905
3.33003	2919084
3.33815	2071236
3.34627	1593072
3.35440	1293500
3.36252	1100656
3.37065	1095289
3.37877	1336097
3.38688	1531422
3.39502	1373957
3.40313	1410943
3.41127	2633094
3.41938	4509906
3.42750	4487821
3.43563	2885822
3.44375	1639797
3.45188	1113080
3.46000	887649
3.46812	767139
3.47625	680635
3.48437	593236
3.49248	516520
3.50062	466169
3.50873	435276
3.51687	411371
3.52498	394262
3.53310	384652
3.54123	381432
3.54935	374473
3.55748	347752
3.56560	364475
3.57372	450732
3.58185	541559
3.58997	501475
3.59808	419015
3.60622	364766
3.61433	411311
3.62247	775781
3.63058	1817916
3.63870	2994881
3.64683	2921249
3.65495	1938299
3.66308	1352136
3.67120	2336249
3.67932	5196975
3.68745	6741017
3.69557	4992789
3.70370	2866990
3.71182	1906333
3.71993	1469762
3.72807	1225381
3.73618	1068444
3.74430	955008
3.75243	880595
3.76055	804983
3.76868	757433
3.77680	703893
3.78492	651569
3.79305	630832
3.80117	631569
3.80930	771139
3.81742	1073618
3.82553	1177029
3.83367	947316
3.84178	728256
3.84992	605105
3.85803	534843
3.86615	508164
3.87428	469049
3.88240	445184
3.89052	429520
3.89865	418323
3.90677	400671
3.91490	429074
3.92302	547133
3.93113	710848
3.93927	737992
3.94738	730490
3.95552	1224145
3.96363	2457145
3.97175	3328466
3.97988	2791895
3.98800	1719908
3.99613	1708843
4.00425	4242024
4.01237	9664988
4.02050	1.293696E+07
4.02862	1.026712E+07
4.03673	5668437
4.04487	2787592
4.05298	1641017
4.06112	1195406
4.06923	935225
4.07735	768927
4.08548	668048
4.09360	591616
4.10173	528544
4.10985	482724
4.11797	451577
4.12610	437580
4.13422	435235
4.14233	587950
4.15047	856009
4.15858	1010462
4.16672	891771
4.17483	662055
4.18295	519619
4.19108	442664
4.19920	393288
4.20733	441104
4.21545	1160337
4.22357	4033412
4.23170	9697565
4.23982	1.524462E+07
4.24795	1.70167E+07
4.25607	1.327864E+07
4.26418	8025018
4.27232	4938387
4.28043	3342955
4.28855	2456125
4.29668	1901475
4.30480	1575803
4.31293	1295481
4.32105	1118167
4.32917	1006485
4.33730	898844
4.34542	853396
4.35355	834666
4.36167	821275
4.36978	773955
4.37792	697824
4.38603	619460
4.39415	574779
4.40228	533751
4.41040	490389
4.41853	467711
4.42665	444643
4.43477	437523
4.44290	424177
4.45102	424385
4.45915	436191
4.46727	426078
4.47538	407431
4.48352	378802
4.49163	366220
4.49977	360842
4.50788	341274
4.51600	332302
4.52413	321661
4.53225	319940
4.54037	315429
4.54850	306603
4.55662	300253
4.56475	292723
4.57287	286522
4.58098	284010
4.58912	277966
4.59723	270748
4.60537	272326
4.61348	263701
4.62160	306438
4.62973	434696
4.63785	646547
4.64598	825086
4.65410	747809
4.66222	563738
4.67035	418234
4.67847	358340
4.68658	328378
4.69472	298256
4.70283	284915
4.71097	257995
4.71908	247367
4.72720	237062
4.73533	243080
4.74345	235929
4.75158	233858
4.75970	226424
4.76782	222146
4.77595	220904
4.78407	220505
4.79218	247044
4.80032	299044
4.80843	366257
4.81657	375612
4.82468	340194
4.83280	296836
4.84093	272252
4.84905	282888
4.85718	289024
4.86530	287090
4.87342	274195
4.88155	261460
4.88967	238143
4.89780	227221
4.90592	233960
4.91403	255295
4.92217	348246
4.93028	652643
4.93840	1248294
4.94653	1897968
4.95465	2219945
4.96278	2054705
4.97090	1605431
4.97902	1191459
4.98715	896706
4.99527	707954
5.00340	588719
5.01152	524100
5.01963	515574
5.02777	634145
5.03588	932444
5.04402	1258118
5.05213	1265436
5.06025	1058827
5.06838	794512
5.07650	655184
5.08462	575440
5.09275	523984
5.10087	530188
5.10900	569891
5.11712	599817
5.12523	606720
5.13337	566598
5.14148	500195
5.14962	443003
5.15773	450631
5.16585	505900
5.17398	553943
5.18210	610301
5.19022	624489
5.19835	605631
5.20647	567122
5.21460	523625
5.22272	466302
5.23083	412906
5.23897	383911
5.24708	369352
5.25522	345679
5.26333	311025
5.27145	284838
5.27958	286218
5.28770	280191
5.29583	285882
5.30395	279334
5.31207	263548
5.32020	251895
5.32832	252055
5.33643	266880
5.34457	266954
5.35268	265831
5.36082	251185
5.36893	232631
5.37705	227286
5.38518	219216
5.39330	232398
5.40143	232464
5.40955	221921
5.41767	226189
5.42580	208514
5.43392	207619
5.44203	207199
5.45017	205415
5.45828	220549
5.46642	210771
5.47453	202076
5.48265	195101
5.49078	198815
5.49890	195791
5.50703	193598
5.51515	201351
5.52327	194162
5.53140	194463
5.53952	198993
5.54765	194407
5.55577	200507
5.56388	219411
5.57202	244624
5.58013	261363
5.58825	242529
5.59638	228724
5.60450	208039
5.61263	190843
5.62075	194746
5.62887	199852
5.63700	210910
5.64512	211933
5.65325	204073
5.66137	204109
5.66948	188440
5.67762	197378
5.68573	211646
5.69387	220182
5.70198	237221
5.71010	248063
5.71823	253073
5.72635	272271
5.73447	280591
5.74260	270920
5.75072	259192
5.75885	265033
5.76697	268687
5.77508	286253
5.78322	278647
5.79133	270968
5.79947	274092
5.80758	363774
5.81570	646770
5.82383	1087591
5.83195	1551190
5.84007	1711231
5.84820	1505251
5.85632	1104226
5.86445	732589
5.87257	493675
5.88068	379186
5.88882	305220
5.89693	281976
5.90507	275841
5.91318	354018
5.92130	502302
5.92943	678225
5.93755	783563
5.94568	726077
5.95380	600805
5.96192	463253
5.97005	386944
5.97817	373995
5.98628	379557
5.99442	372341
6.00253	335577
6.01067	285297
6.01878	238625
6.02690	195147
6.03503	178669
6.04315	157462
6.05128	152414
6.05940	148450
6.06752	147446
6.07565	140369
6.08377	137556
6.09190	135527
6.10002	132026
6.10813	135341
6.11627	137034
6.12438	165885
6.13250	266416
6.14063	418226
6.14875	521755
6.15688	517522
6.16500	411122
6.17312	315481
6.18125	247529
6.18937	227071
6.19750	242067
6.20562	248224
6.21373	239317
6.22187	211141
6.22998	196837
6.23810	179386
6.24623	181051
6.25435	187330
6.26248	189173
6.27060	184219
6.27872	187721
6.28685	182433
6.29497	175050
6.30310	174028
6.31122	180781
6.31933	184304
6.32747	199336
6.33558	214674
6.34372	215886
6.35183	232030
6.35995	225638
6.36808	224277
6.37620	212246
6.38432	200425
6.39245	201063
6.40057	203401
6.40870	203988
6.41682	208153
6.42493	196807
6.43307	198600
6.44118	205504
6.44932	202962
6.45743	209567
6.46555	211543
6.47368	211565
6.48180	219039
6.48993	220411
6.49805	224494
6.50617	226572
6.51430	225111
6.52242	224329
6.53053	238144
6.53867	240345
6.54678	243159
6.55492	237194
6.56303	244370
6.57115	260039
6.57928	273393
6.58740	281293
6.59553	285419
6.60365	263984
6.61177	246997
6.61990	243672
6.62802	245748
6.63613	251972
6.64427	242440
6.65238	234303
6.66052	246179
6.66863	293289
6.67675	340452
6.68488	336394
6.69300	318080
6.70113	316988
6.70925	328614
6.71737	306266
6.72550	271645
6.73362	215497
6.74175	175636
6.74987	153730
6.75798	136444
6.76612	137910
6.77423	127145
6.78235	122695
6.79048	120257
6.79860	139445
6.80673	183406
6.81485	293579
6.82297	497886
6.83110	777290
6.83922	1022396
6.84735	1100510
6.85547	972243
6.86358	760630
6.87172	553394
6.87983	398901
6.88795	292484
6.89608	208638
6.90420	166163
6.91233	132713
6.92045	116308
6.92857	110616
6.93670	107069
6.94482	100991
6.95295	110392
6.96107	130719
6.96918	186654
6.97732	274913
6.98543	391102
6.99357	450253
7.00168	451462
7.00980	403721
7.01793	296176
7.02605	225348
7.03417	170006
7.04230	142706
7.05042	118398
7.05855	104967
7.06667	101556
7.07478	104012
7.08292	108265
7.09103	99254
7.09917	97288
7.10728	91435
7.11540	92535
7.12353	87980
7.13165	91727
7.13978	99297
7.14790	111170
7.15602	131225
7.16415	143593
7.17227	159823
7.18038	195183
7.18852	363629
7.19663	751180
7.20477	1295578
7.21288	1604361
7.22100	1450760
7.22913	1000526
7.23725	626690
7.24538	384901
7.25350	256884
7.26162	194929
7.26975	159627
7.27787	148259
7.28598	160758
7.29412	155590
7.30223	153931
7.31037	148112
7.31848	134839
7.32660	127595
7.33473	149008
7.34285	192804
7.35098	251984
7.35910	323518
7.36722	342770
7.37535	331298
7.38347	279206
7.39160	220511
7.39972	169622
7.40783	138419
7.41597	113709
7.42408	116123
7.43220	112980
7.44033	119492
7.44845	135507
7.45658	176378
7.46470	203576
7.47282	230183
7.48095	225044
7.48907	198618
7.49720	166392
7.50532	126872
7.51343	112599
7.52157	106734
7.52968	94796
7.53782	111456
7.54593	130705
7.55405	164747
7.56218	207379
7.57030	257783
7.57842	278368
7.58655	263099
7.59467	225570
7.60280	176844
7.61092	137797
7.61903	107687
7.62717	96018
7.63528	89815
7.64342	84903
7.65153	82724
7.65965	82527
7.66778	82985
7.67590	77903
7.68402	75634
7.69215	82596
7.70027	72812
7.70840	77851
7.71652	76903
7.72463	73812
7.73277	74895
7.74088	71438
7.74902	76144
7.75713	74582
7.76525	68536
7.77338	69475
7.78150	70316
7.78963	76992
7.79775	74782
7.80587	76860
7.81400	77291
7.82212	78623
7.83023	76658
7.83837	74848
7.84648	71082
7.85462	70773
7.86273	70080
7.87085	73131
7.87898	73546
7.88710	76438
7.89523	84188
7.90335	89544
7.91147	84456
7.91960	84047
7.92772	87328
7.93583	105083
7.94397	106718
7.95208	110444
7.96022	109794
7.96833	99691
7.97645	85997
7.98458	78929
7.99270	72235
8.00083	68529
8.00895	65703
8.01707	72791
8.02520	71168
8.03332	65620
8.04145	67701
8.04957	69644
8.05768	65001
8.06582	63271
8.07393	68072
8.08205	60826
8.09018	62868
8.09830	63029
8.10643	64238
8.11455	62312
8.12267	62838
8.13080	66624
8.13892	80072
8.14705	76209
8.15517	88469
8.16328	84024
8.17142	78175
8.17953	73719
8.18767	68354
8.19578	66137
8.20390	63747
8.21203	62277
8.22015	62325
8.22827	61715
8.23640	64759
8.24452	63731
8.25265	60125
8.26077	61994
8.26888	58770
8.27702	60607
8.28513	60013
8.29327	60786
8.30138	58580
8.30950	62269
8.31763	65169
8.32575	61480
8.33388	75198
8.34200	72349
8.35012	65660
8.35825	65328
8.36637	63419
8.37448	60251
8.38262	60502
8.39073	58771
8.39887	61256
8.40698	56022
8.41510	54340
8.42323	61547
8.43135	56664
8.43948	58070
8.44760	54446
8.45572	58272
8.46385	56512
8.47197	56318
8.48008	53869
8.48822	54349
8.49633	56105
8.50447	59196
8.51258	74572
8.52070	101913
8.52883	142054
8.53695	166206
8.54508	160178
8.55320	143522
8.56132	107697
8.56945	79661
8.57757	71747
8.58570	67845
8.59382	63792
8.60193	65113
8.61007	66805
8.61818	62173
8.62630	66596
8.63443	62492
8.64255	61555
8.65068	54819
8.65880	57717
8.66692	62561
8.67505	62118
8.68317	64475
8.69130	65192
8.69942	62595
8.70753	62376
8.71567	68212
8.72378	84563
8.73190	133167
8.74003	239375
8.74815	407445
8.75628	540376
8.76440	592866
8.77252	499017
8.78065	368120
8.78877	238583
8.79690	179796
8.80502	144596
8.81313	133848
8.82127	123128
8.82938	121351
8.83752	114477
8.84563	106280
8.85375	105317
8.86188	96950
8.87000	95473
8.87812	87969
8.88625	86950
8.89437	84279
8.90250	78107
8.91062	84034
8.91873	86949
8.92687	94402
8.93498	101109
8.94312	99221
8.95123	92376
8.95935	86273
8.96748	82567
8.97560	83684
8.98373	85850
8.99185	84003
8.99997	84003
9.00810	80045
9.01622	80110
9.02433	75174
9.03247	68604
9.04058	72621
9.04872	72434
9.05683	71448
9.06495	65867
9.07308	70675
9.08120	67627
9.08933	67888
9.09745	77252
9.10557	83065
9.11370	88084
9.12182	102401
9.12993	101770
9.13807	91854
9.14618	84671
9.15432	79455
9.16243	70257
9.17055	74013
9.17868	65802
9.18680	68291
9.19493	71353
9.20305	64232
9.21117	64297
9.21930	64217
9.22742	63646
9.23555	59800
9.24367	61021
9.25178	60943
9.25992	59949
9.26803	58717
9.27615	65472
9.28428	69678
9.29240	66877
9.30053	64190
9.30865	62141
9.31677	64902
9.32490	65186
9.33302	61859
9.34115	70124
9.34927	75483
9.35738	72117
9.36552	65280
9.37363	61841
9.38177	58590
9.38988	59453
9.39800	59987
9.40613	63355
9.41425	64644
9.42237	77291
9.43050	85369
9.43862	97164
9.44675	102176
9.45487	100240
9.46298	90968
9.47112	78457
9.47923	67506
9.48737	64339
9.49548	60051
9.50360	60194
9.51173	63449
9.51985	71248
9.52797	71683
9.53610	67313
9.54422	64107
9.55235	54227
9.56047	51564
9.56858	52186
9.57672	55044
9.58483	55384
9.59297	57695
9.60108	61964
9.60920	53887
9.61733	48638
9.62545	50544
9.63358	49431
9.64170	46844
9.64982	48738
9.65795	46375
9.66607	47886
9.67418	44517
9.68232	43272
9.69043	44325
9.69857	45756
9.70668	41008
9.71480	43573
9.72293	43587
9.73105	39745
9.73918	40429
9.74730	40031
9.75542	43271
9.76355	40081
9.77167	40798
9.77978	37931
9.78792	38481
9.79603	37694
9.80417	37514
9.81228	38049
9.82040	37216
9.82853	39538
9.83665	38919
9.84478	38719
9.85290	45153
9.86102	41824
9.86915	42420
9.87727	42333
9.88540	39315
9.89352	40816
9.90163	36253
9.90977	37812
9.91788	41290
9.92600	43585
9.93413	56663
9.94225	85168
9.95038	103814
9.95850	115210
9.96662	103045
9.97475	96967
9.98287	83449
9.99100	70990
9.99912	61046
10.00723	54598
10.01537	50053
10.02348	49185
10.03162	44898
10.03973	44152
10.04785	45588
10.05598	47149
10.06410	44942
10.07222	44165
10.08035	39695
10.08847	41603
10.09660	42890
10.10472	42446
10.11283	40447
10.12097	45669
10.12908	40799
10.13722	43833
10.14533	41668
10.15345	41597
10.16158	40839
10.16970	41927
10.17782	41587
10.18595	38859
10.19407	40434
10.20220	38875
10.21032	42510
10.21843	40226
10.22657	42115
10.23468	41960
10.24282	46912
10.25093	64440
10.25905	119976
10.26718	270767
10.27530	581611
10.28343	1033942
10.29155	1602894
10.29967	2276499
10.30780	3280613
10.31592	4779034
10.32403	6097347
10.33217	6451644
10.34028	5236658
10.34842	3480491
10.35653	1996256
10.36465	1242664
10.37278	897803
10.38090	724376
10.38903	568036
10.39715	424568
10.40527	324787
10.41340	239625
10.42152	197278
10.42965	176893
10.43777	156649
10.44588	148298
10.45402	134961
10.46213	124426
10.47025	118928
10.47838	110353
10.48650	98793
10.49463	101275
10.50275	101405
10.51087	97558
10.51900	96571
10.52712	90558
10.53525	94689
10.54337	88405
10.55148	85126
10.55962	84899
10.56773	89674
10.57585	87580
10.58398	78874
10.59210	78156
10.60023	69558
10.60835	71863
10.61647	70149
10.62460	71863
10.63272	67198
10.64085	66346
10.64897	63863
10.65708	61243
10.66522	65949
10.67333	62414
10.68147	58823
10.68958	64413
10.69770	67313
10.70583	69965
10.71395	69065
10.72207	67417
10.73020	69951
10.73832	66324
10.74645	63853
10.75457	57898
10.76268	63010
10.77082	59989
10.77893	56066
10.78707	54739
10.79518	54895
10.80330	53754
10.81143	57235
10.81955	57773
10.82767	54943
10.83580	53777
10.84392	49384
10.85205	47885
10.86017	45911
10.86828	43997
10.87642	44289
10.88453	47197
10.89267	45016
10.90078	43682
10.90890	46944
10.91703	44570
10.92515	47282
10.93328	44445
10.94140	43920
10.94952	41863
10.95765	46436
10.96577	46928
10.97388	49894
10.98202	47146
10.99013	47769
10.99827	49178
11.00638	45191
11.01450	46189
11.02263	44549
11.03075	43222
11.03888	46828
11.04700	45485
11.05512	42856
11.06325	47215
11.07137	41762
11.07950	47564
11.08762	48261
11.09573	49181
11.10387	48338
11.11198	48200
11.12010	48822
11.12823	48099
11.13635	49128
11.14448	44833
11.15260	46049
11.16072	47616
11.16885	45792
11.17697	46526
11.18510	47778
11.19322	50854
11.20133	44891
11.20947	48214
11.21758	45677
11.22570	41832
11.23383	43060
11.24195	38497
11.25008	38648
11.25820	47290
11.26632	57205
11.27445	66841
11.28257	89040
11.29070	117119
11.29882	137549
11.30693	165198
11.31507	199598
11.32318	254970
11.33132	350533
11.33943	433709
11.34755	512771
11.35568	502064
11.36380	419876
11.37192	334473
11.38005	249544
11.38817	190053
11.39630	150893
11.40442	124954
11.41253	105142
11.42067	93174
11.42878	81458
11.43692	72517
11.44503	67930
11.45315	63554
11.46128	59586
11.46940	61927
11.47753	67255
11.48565	78834
11.49377	85896
11.50190	86853
11.51002	87291
11.51813	79506
11.52627	81408
11.53438	83107
11.54252	87912
11.55063	82251
11.55875	77622
11.56688	73659
11.57500	72495
11.58313	65534
11.59125	76140
11.59937	95011
11.60750	101906
11.61562	107914
11.62373	108476
11.63187	96264
11.63998	76412
11.64812	66838
11.65623	57945
11.66435	53854
11.67248	54794
11.68060	58978
11.68873	57522
11.69685	64847
11.70497	67871
11.71310	78477
11.72122	75840
11.72935	76079
11.73747	76877
11.74558	72597
11.75372	68741
11.76183	62201
11.76995	60445
11.77808	59225
11.78620	58357
11.79433	59696
11.80245	55261
11.81057	57474
11.81870	50414
11.82682	52170
11.83495	49760
11.84307	50494
11.85118	47719
11.85932	44680
11.86743	44423
11.87557	44514
11.88368	39510
11.89180	41810
11.89993	41842
11.90805	46010
11.91617	50204
11.92430	58565
11.93242	58829
11.94055	66722
11.94867	66397
11.95678	67920
11.96492	60697
11.97303	56712
11.98117	52411
11.98928	54352
11.99740	61462
12.00553	61661
12.01365	63090
12.02177	61462
12.02990	63160
12.03802	48000
12.04615	50951
12.05427	46433
12.06238	45518
12.07052	44354
12.07863	46649
12.08677	44818
12.09488	44587
12.10300	45392
12.11113	43815
12.11925	43399
12.12738	45428
12.13550	44044
12.14362	44397
12.15175	48281
12.15987	43969
12.16798	41283
12.17612	40409
12.18423	40224
12.19237	37855
12.20048	38639
12.20860	37774
12.21673	39363
12.22485	39893
12.23298	43801
12.24110	38037
12.24922	39970
12.25735	35124
12.26547	37146
12.27358	36938
12.28172	37030
12.28983	35871
12.29797	33629
12.30608	37310
12.31420	40323
12.32233	36755
12.33045	35668
12.33858	38694
12.34670	37701
12.35482	34265
12.36295	36944
12.37107	37579
12.37920	37347
12.38732	39352
12.39543	49404
12.40357	61231
12.41168	74802
12.41980	91219
12.42793	90721
12.43605	82604
12.44418	69019
12.45230	61292
12.46042	54012
12.46855	48842
12.47667	44442
12.48480	45318
12.49292	41081
12.50103	38903
12.50917	42237
12.51728	42778
12.52542	44658
12.53353	50869
12.54165	62252
12.54978	78212
12.55790	90363
12.56602	92870
12.57415	93275
12.58227	74193
12.59040	61448
12.59852	52648
12.60663	48218
12.61477	44999
12.62288	39986
12.63102	42872
12.63913	39591
12.64725	43035
12.65538	38115
12.66350	35009
12.67162	39570
12.67975	42454
12.68787	40491
12.69600	35452
12.70412	36109
12.71223	36010
12.72037	41974
12.72848	41259
12.73662	44321
12.74473	43127
12.75285	44404
12.76098	43763
12.76910	39599
12.77723	39891
12.78535	44755
12.79347	45293
12.80160	44936
12.80972	45526
12.81783	43116
12.82597	41858
12.83408	47527
12.84222	42051
12.85033	40972
12.85845	37452
12.86658	40419
12.87470	39993
12.88283	36463
12.89095	37547
12.89907	35788
12.90720	34484
12.91532	34084
12.92345	36435
12.93157	38578
12.93968	48793
12.94782	58798
12.95593	78988
12.96405	100585
12.97218	122284
12.98030	131027
12.98843	121580
12.99655	110983
13.00467	100344
13.01280	90297
13.02092	82430
13.02905	81877
13.03717	79346
13.04528	75254
13.05342	63355
13.06153	55913
13.06965	50504
13.07778	49500
13.08590	47368
13.09403	47554
13.10215	46904
13.11027	40243
13.11840	42787
13.12652	42170
13.13465	43418
13.14277	39880
13.15088	38265
13.15902	39208
13.16713	37071
13.17527	38084
13.18338	37378
13.19150	39724
13.19963	38756
13.20775	37157
13.21587	37933
13.22400	40059
13.23212	40503
13.24025	42967
13.24837	41870
13.25648	47774
13.26462	53563
13.27273	53157
13.28087	59863
13.28898	52369
13.29710	50482
13.30523	53073
13.31335	50873
13.32147	59001
13.32960	59866
13.33772	61954
13.34585	57403
13.35397	53738
13.36208	46932
13.37022	54593
13.37833	47946
13.38647	45287
13.39458	46020
13.40270	39721
13.41083	42486
13.41895	41061
13.42708	33801
13.43520	39466
13.44332	36585
13.45145	40145
13.45957	39382
13.46768	34564
13.47582	38035
13.48393	39353
13.49207	39659
13.50018	38009
13.50830	35665
13.51643	37247
13.52455	36994
13.53268	40635
13.54080	39714
13.54892	41769
13.55705	47614
13.56517	46773
13.57330	52346
13.58142	53075
13.58953	58500
13.59767	72824
13.60578	95816
13.61390	116804
13.62203	142706
13.63015	136475
13.63828	117739
13.64640	101571
13.65452	85256
13.66265	72391
13.67077	67810
13.67890	58972
13.68702	58447
13.69513	54324
13.70327	56396
13.71138	52691
13.71950	52313
13.72763	50484
13.73575	44376
13.74388	49149
13.75200	59577
13.76012	73997
13.76825	89965
13.77637	101052
13.78450	121035
13.79262	122585
13.80073	131615
13.80887	140108
13.81698	171710
13.82512	196723
13.83323	221497
13.84135	225435
13.84948	198162
13.85760	163827
13.86572	130754
13.87385	105296
13.88197	82533
13.89010	82682
13.89822	74433
13.90633	69016
13.91447	68715
13.92258	62895
13.93072	66805
13.93883	62514
13.94695	60580
13.95508	57264
13.96320	57459
13.97133	56371
13.97945	59030
13.98757	55395
13.99570	54683
14.00382	53089
14.01193	51965
14.02007	58005
14.02818	53350
14.03632	51066
14.04443	52836
14.05255	48824
14.06068	50116
14.06880	47450
14.07693	46129
14.08505	46713
14.09317	45984
14.10130	45463
14.10942	44125
14.11753	49014
14.12567	52310
14.13378	66806
14.14192	99461
14.15003	142266
14.15815	180992
14.16628	197773
14.17440	196207
14.18253	160639
14.19065	132041
14.19877	109386
14.20690	94250
14.21502	90235
14.22315	79555
14.23127	78236
14.23938	76545
14.24752	74516
14.25563	74012
14.26375	68420
14.27188	73536
14.28000	62263
14.28813	57134
14.29625	54555
14.30437	50280
14.31250	52713
14.32062	44671
14.32875	39825
14.33687	38748
14.34498	38496
14.35312	39966
14.36123	39290
14.36935	40906
14.37748	45436
14.38560	49250
14.39373	68028
14.40185	94853
14.40997	143794
14.41810	174302
14.42622	195962
14.43435	180085
14.44247	144921
14.45058	104995
14.45872	80304
14.46683	68380
14.47497	58468
14.48308	58210
14.49120	56639
14.49933	52157
14.50745	50289
14.51557	47392
14.52370	49578
14.53182	45199
14.53995	46178
14.54807	42876
14.55618	44917
14.56432	40115
14.57243	40234
14.58057	42113
14.58868	39828
14.59680	37137
14.60493	38814
14.61305	35898
14.62118	38334
14.62930	37420
14.63742	34531
14.64555	38953
14.65367	34701
14.66178	35148
14.66992	34495
14.67803	33304
14.68617	36043
14.69428	36325
14.70240	33785
14.71053	30428
14.71865	36401
14.72678	36738
14.73490	34932
14.74302	37040
14.75115	35388
14.75927	35676
14.76740	36529
14.77552	39321
14.78363	52764
14.79177	98492
14.79988	238283
14.80800	507584
14.81613	935853
14.82425	1350470
14.83238	1532702
14.84050	1352926
14.84862	1009332
14.85675	665954
14.86487	404504
14.87300	266338
14.88112	197223
14.88923	147876
14.89737	129480
14.90548	115696
14.91360	102864
14.92173	94118
14.92985	89948
14.93798	82801
14.94610	79223
14.95422	73021
14.96235	73644
14.97047	68898
14.97860	65975
14.98672	64534
14.99483	64516
15.00297	59582
15.01108	58927
15.01922	56517
15.02733	57816
15.03545	52867
15.04358	51722
15.05170	53593
15.05982	53620
15.06795	47576
15.07607	48521
15.08420	52309
15.09232	45694
15.10043	47323
15.10857	47154
15.11668	46138
15.12482	47495
15.13293	50944
15.14105	53532
15.14918	53322
15.15730	51082
15.16542	48245
15.17355	45993
15.18167	44638
15.18980	42261
15.19792	39797
15.20603	38295
15.21417	38046
15.22228	33287
15.23042	36563
15.23853	38625
15.24665	37159
15.25478	36022
15.26290	35275
15.27103	36696
15.27915	36797
15.28727	33937
15.29540	33555
15.30352	35419
15.31163	33931
15.31977	31253
15.32788	34139
15.33602	30482
15.34413	34933
15.35225	36645
15.36038	34620
15.36850	36431
15.37663	32006
15.38475	34670
15.39287	37005
15.40100	34810
15.40912	31369
15.41725	33380
15.42537	36209
15.43348	34745
15.44162	30788
15.44973	31906
15.45785	38690
15.46598	40986
15.47410	53899
15.48223	67511
15.49035	86093
15.49847	102291
15.50660	106742
15.51472	107663
15.52285	94986
15.53097	81652
15.53908	71433
15.54722	59623
15.55533	53380
15.56345	48314
15.57158	43398
15.57970	44040
15.58783	36014
15.59595	37602
15.60407	41128
15.61220	36008
15.62032	37375
15.62845	32933
15.63657	34464
15.64468	36931
15.65282	36754
15.66093	36951
15.66907	35833
15.67718	33041
15.68530	35761
15.69343	32977
15.70155	32689
15.70967	33997
15.71780	31946
15.72592	29187
15.73405	32184
15.74217	31209
15.75028	41501
15.75842	55439
15.76653	75672
15.77467	104842
15.78278	131925
15.79090	136720
15.79903	126384
15.80715	101022
15.81528	82879
15.82340	63056
15.83152	56212
15.83965	48362
15.84777	46033
15.85588	43835
15.86402	44274
15.87213	40332
15.88027	44841
15.88838	38581
15.89650	40188
15.90463	39170
15.91275	39040
15.92088	39310
15.92900	36355
15.93712	37215
15.94525	37993
15.95337	40167
15.96148	39578
15.96962	41842
15.97773	39790
15.98587	37876
15.99398	42836
16.00210	43202
16.01023	44926
16.01835	49185
16.02648	49139
16.03460	48666
16.04272	47926
16.05085	43452
16.05897	45442
16.06710	40989
16.07522	40266
16.08333	36401
16.09147	35027
16.09958	35565
16.10770	38710
16.11583	41408
16.12395	37324
16.13208	36705
16.14020	39681
16.14832	40104
16.15645	42727
16.16457	41688
16.17270	35740
16.18082	35995
16.18893	34525
16.19707	35096
16.20518	37372
16.21330	36892
16.22143	34892
16.22955	33972
16.23768	34407
16.24580	33466
16.25392	36596
16.26205	34497
16.27017	37136
16.27830	35801
16.28642	36829
16.29453	38453
16.30267	40772
16.31078	42229
16.31892	42956
16.32703	41016
16.33515	36990
16.34328	35472
16.35140	33456
16.35952	37397
16.36765	39303
16.37577	36162
16.38390	38178
16.39202	36418
16.40013	36212
16.40827	37016
16.41638	37473
16.42452	34767
16.43263	38752
16.44075	42119
16.44888	56970
16.45700	82089
16.46513	120506
16.47325	159932
16.48137	186020
16.48950	182937
16.49762	152064
16.50573	113280
16.51387	89039
16.52198	66715
16.53012	56060
16.53823	55258
16.54635	51285
16.55448	45510
16.56260	50762
16.57073	42746
16.57885	45345
16.58697	41804
16.59510	39163
16.60322	41498
16.61133	41227
16.61947	38568
16.62758	42113
16.63572	37931
16.64383	36035
16.65195	37054
16.66008	41478
16.66820	38316
16.67633	37296
16.68445	35674
16.69257	41010
16.70070	39906
16.70882	36727
16.71695	32664
16.72507	35237
16.73318	35003
16.74132	36882
16.74943	41350
16.75755	36558
16.76568	39599
16.77380	34832
16.78193	39340
16.79005	34313
16.79817	36609
16.80630	32462
16.81442	35284
16.82255	32669
16.83067	32708
16.83878	32670
16.84692	35264
16.85503	36822
16.86317	33423
16.87128	32579
16.87940	32150
16.88753	32417
16.89565	31801
16.90377	32108
16.91190	31972
16.92002	32427
16.92815	32882
16.93627	33030
16.94438	32656
16.95252	32883
16.96063	31154
16.96877	33544
16.97688	33941
16.98500	33396
16.99313	34042
17.00125	32699
17.00937	31706
17.01750	34131
17.02562	32785
17.03375	36794
17.04187	37619
17.04998	39927
17.05812	39839
17.06623	40086
17.07437	35729
17.08248	35708
17.09060	36787
17.09873	36127
17.10685	33139
17.11498	34734
17.12310	34387
17.13122	34741
17.13935	36997
17.14747	34847
17.15558	36307
17.16372	37474
17.17183	40225
17.17997	34203
17.18808	32688
17.19620	32256
17.20433	32631
17.21245	29470
17.22058	32613
17.22870	31405
17.23682	34715
17.24495	30366
17.25307	33770
17.26120	29433
17.26932	34158
17.27743	33302
17.28557	34552
17.29368	30434
17.30180	31255
17.30993	32264
17.31805	35968
17.32618	36166
17.33430	35317
17.34242	38862
17.35055	39896
17.35867	40258
17.36680	41367
17.37492	41952
17.38303	42172
17.39117	43745
17.39928	41719
17.40740	42588
17.41553	44488
17.42365	41895
17.43178	42185
17.43990	40801
17.44802	39612
17.45615	38867
17.46427	38752
17.47240	35575
17.48052	37844
17.48863	36626
17.49677	36839
17.50488	37829
17.51302	40806
17.52113	41610
17.52925	48957
17.53738	51976
17.54550	60252
17.55362	65364
17.56175	77888
17.56987	98252
17.57800	127775
17.58612	165340
17.59423	193907
17.60237	217361
17.61048	220317
17.61862	193467
17.62673	151867
17.63485	118345
17.64298	98659
17.65110	82788
17.65922	71845
17.66735	65761
17.67547	67643
17.68360	61169
17.69172	58415
17.69983	55654
17.70797	57153
17.71608	50279
17.72422	52705
17.73233	50539
17.74045	48722
17.74858	42675
17.75670	46258
17.76483	43216
17.77295	46090
17.78107	42991
17.78920	46180
17.79732	51156
17.80543	58306
17.81357	70974
17.82168	83106
17.82982	95582
17.83793	92558
17.84605	89329
17.85418	81506
17.86230	75041
17.87043	69511
17.87855	65580
17.88667	57372
17.89480	53412
17.90292	49714
17.91105	45746
17.91917	46695
17.92728	46184
17.93542	42151
17.94353	42685
17.95165	38923
17.95978	42118
17.96790	41606
17.97603	39077
17.98415	39105
17.99227	41584
18.00040	42818
18.00852	46374
18.01665	53280
18.02477	57892
18.03288	69402
18.04102	69399
18.04913	87689
18.05725	150096
18.06538	285674
18.07350	554557
18.08163	948416
18.08975	1277195
18.09787	1439100
18.10600	1322713
18.11412	1103329
18.12225	836885
18.13037	661932
18.13848	576972
18.14662	504783
18.15473	476072
18.16287	440967
18.17098	435386
18.17910	400987
18.18723	393343
18.19535	381473
18.20347	362715
18.21160	354008
18.21972	352758
18.22785	330647
18.23597	326199
18.24408	314863
18.25222	293653
18.26033	289752
18.26847	276930
18.27658	270132
18.28470	249355
18.29283	251754
18.30095	239172
18.30908	227482
18.31720	229384
18.32532	217243
18.33345	216493
18.34157	202886
18.34968	202946
18.35782	201120
18.36593	197717
18.37407	190633
18.38218	194912
18.39030	190451
18.39843	189490
18.40655	182704
18.41468	173783
18.42280	182195
18.43092	183659
18.43905	188020
18.44717	192395
18.45528	203582
18.46342	209529
18.47153	232360
18.47967	229566
18.48778	215286
18.49590	203676
18.50403	186298
18.51215	166951
18.52028	155643
18.52840	146513
18.53652	150972
18.54465	140852
18.55277	137645
18.56090	138924
18.56902	133060
18.57713	127669
18.58527	132086
18.59338	124434
18.60150	131433
18.60963	131692
18.61775	130876
18.62588	133837
18.63400	134545
18.64212	120705
18.65025	119699
18.65837	109599
18.66650	107533
18.67462	109915
18.68273	106701
18.69087	99548
18.69898	99409
18.70710	95229
18.71523	94251
18.72335	91362
18.73148	88139
18.73960	92056
18.74772	86369
18.75585	88942
18.76397	86018
18.77210	84501
18.78022	84399
18.78833	82194
18.79647	84324
18.80458	81366
18.81272	77851
18.82083	79625
18.82895	76023
18.83708	74289
18.84520	77642
18.85332	73849
18.86145	72542
18.86957	74942
18.87770	70078
18.88582	77650
18.89393	79349
18.90207	79036
18.91018	79413
18.91832	73602
18.92643	76244
18.93455	74772
18.94268	76814
18.95080	73612
18.95893	74491
18.96705	68800
18.97517	67472
18.98330	70648
18.99142	67417
18.99953	63565
19.00767	66523
19.01578	69546
19.02392	69861
19.03203	66166
19.04015	60363
19.04828	60673
19.05640	66045
19.06453	60379
19.07265	62114
19.08077	69323
19.08890	72819
19.09702	82418
19.10515	79844
19.11327	77688
19.12138	79680
19.12952	75484
19.13763	81244
19.14575	79415
19.15388	85197
19.16200	81091
19.17013	80809
19.17825	78359
19.18637	72128
19.19450	69825
19.20262	65358
19.21075	68365
19.21887	61299
19.22698	57927
19.23512	59589
19.24323	59616
19.25135	58405
19.25948	57548
19.26760	53061
19.27573	54744
19.28385	62172
19.29197	58874
19.30010	57370
19.30822	57873
19.31635	60624
19.32447	54994
19.33258	54223
19.34072	55723
19.34883	64917
19.35697	66029
19.36508	70578
19.37320	77486
19.38133	73999
19.38945	72535
19.39757	71123
19.40570	63787
19.41382	57339
19.42195	54879
19.43007	62833
19.43818	80319
19.44632	114581
19.45443	135456
19.46257	142211
19.47068	138835
19.47880	114245
19.48693	98012
19.49505	78473
19.50317	67280
19.51130	61386
19.51942	59000
19.52755	59861
19.53567	62523
19.54378	59008
19.55192	61267
19.56003	59756
19.56817	54404
19.57628	51325
19.58440	50352
19.59253	46466
19.60065	44445
19.60878	44349
19.61690	49001
19.62502	56811
19.63315	62364
19.64127	76244
19.64938	85349
19.65752	86756
19.66563	104298
19.67377	101744
19.68188	104272
19.69000	89311
19.69813	86756
19.70625	80925
19.71438	72264
19.72250	71198
19.73062	63545
19.73875	61209
19.74687	54816
19.75498	59564
19.76312	60738
19.77123	63237
19.77937	65977
19.78748	76439
19.79560	77646
19.80373	74850
19.81185	72985
19.81998	65524
19.82810	61704
19.83622	60878
19.84435	60475
19.85247	83500
19.86060	126840
19.86872	222636
19.87683	416258
19.88497	662119
19.89308	934648
19.90120	1090736
19.90933	1062231
19.91745	850797
19.92558	620300
19.93370	418730
19.94182	289965
19.94995	233772
19.95807	192387
19.96620	175845
19.97432	160596
19.98243	142967
19.99057	136793
19.99868	137292
20.00682	135276
20.01493	122239
20.02305	115448
20.03118	106024
20.03930	104198
20.04742	97472
20.05555	94934
20.06367	90388
20.07180	92172
20.07992	98407
20.08803	94456
20.09617	89197
20.10428	80240
20.11242	74830
20.12053	65843
20.12865	62486
20.13678	62911
20.14490	62835
20.15303	69801
20.16115	72437
20.16927	87643
20.17740	99006
20.18552	110686
20.19363	109466
20.20177	100508
20.20988	93164
20.21802	86132
20.22613	83238
20.23425	87988
20.24238	96688
20.25050	99638
20.25863	112757
20.26675	123688
20.27487	109747
20.28300	100014
20.29112	92061
20.29923	82089
20.30737	73991
20.31548	62170
20.32362	55681
20.33173	53770
20.33985	52087
20.34798	48347
20.35610	47755
20.36423	46265
20.37235	46493
20.38047	46733
20.38860	43876
20.39672	48848
20.40485	52437
20.41297	53859
20.42108	52667
20.42922	52884
20.43733	52788
20.44545	56846
20.45358	56205
20.46170	53451
20.46983	47803
20.47795	45458
20.48607	45332
20.49420	44442
20.50232	46703
20.51045	45101
20.51857	41566
20.52668	43162
20.53482	41355
20.54293	42359
20.55105	43324
20.55918	46454
20.56730	44936
20.57543	39540
20.58355	41707
20.59167	36607
20.59980	43960
20.60792	41982
20.61605	38849
20.62417	44193
20.63228	39852
20.64042	44107
20.64853	43329
20.65667	42203
20.66478	43236
20.67290	41718
20.68103	44441
20.68915	41605
20.69727	41110
20.70540	38360
20.71352	42543
20.72165	41682
20.72977	39790
20.73788	39791
20.74602	42568
20.75413	45275
20.76227	53173
20.77038	47467
20.77850	59045
20.78663	79155
20.79475	108930
20.80288	147170
20.81100	170260
20.81912	184817
20.82725	160517
20.83537	132529
20.84348	105002
20.85162	77689
20.85973	62398
20.86787	55805
20.87598	54027
20.88410	52510
20.89223	52898
20.90035	48519
20.90848	47837
20.91660	47703
20.92472	50236
20.93285	48068
20.94097	49178
20.94908	51090
20.95722	46286
20.96533	44246
20.97347	44847
20.98158	44392
20.98970	39986
20.99783	43077
21.00595	41671
21.01408	44210
21.02220	46074
21.03032	47484
21.03845	44642
21.04657	45192
21.05470	46055
21.06282	46764
21.07093	47427
21.07907	43374
21.08718	41731
21.09530	42189
21.10343	40479
21.11155	41727
21.11968	43785
21.12780	46845
21.13592	51367
21.14405	62951
21.15217	71675
21.16030	78588
21.16842	70957
21.17653	79220
21.18467	74061
21.19278	64815
21.20092	61700
21.20903	63817
21.21715	60028
21.22528	59532
21.23340	57475
21.24152	57051
21.24965	58045
21.25777	57930
21.26590	60102
21.27402	55891
21.28213	53100
21.29027	58779
21.29838	55943
21.30652	53567
21.31463	51275
21.32275	56074
21.33088	53785
21.33900	51782
21.34712	50674
21.35525	50694
21.36337	52727
21.37150	49990
21.37962	56856
21.38773	56630
21.39587	60461
21.40398	67042
21.41212	69021
21.42023	64577
21.42835	60157
21.43648	62722
21.44460	55342
21.45273	53906
21.46085	58229
21.46897	53707
21.47710	56131
21.48522	54094
21.49333	53273
21.50147	52392
21.50958	47197
21.51772	52584
21.52583	48779
21.53395	50703
21.54208	46347
21.55020	45571
21.55833	40426
21.56645	45428
21.57457	53007
21.58270	57774
21.59082	62578
21.59893	63652
21.60707	64681
21.61518	65377
21.62332	62368
21.63143	59631
21.63955	59294
21.64768	57576
21.65580	54251
21.66393	60939
21.67205	58053
21.68017	55404
21.68830	57647
21.69642	52132
21.70455	51717
21.71267	52452
21.72078	49223
21.72892	48872
21.73703	48238
21.74515	46112
21.75328	46584
21.76140	47969
21.76953	46517
21.77765	48473
21.78577	53192
21.79390	53347
21.80202	57926
21.81015	51498
21.81827	52211
21.82638	46393
21.83452	45403
21.84263	46237
21.85077	48162
21.85888	42925
21.86700	47729
21.87513	61428
21.88325	77576
21.89137	92965
21.89950	108038
21.90762	110110
21.91575	120239
21.92387	119748
21.93198	124711
21.94012	128808
21.94823	125058
21.95637	124692
21.96448	129754
21.97260	136894
21.98073	128995
21.98885	128869
21.99697	122306
22.00510	119659
22.01322	125067
22.02135	118315
22.02947	117190
22.03758	114067
22.04572	109376
22.05383	116900
22.06197	105662
22.07008	109657
22.07820	102469
22.08633	105700
22.09445	104891
22.10258	96652
22.11070	100974
22.11882	97397
22.12695	95843
22.13507	92231
22.14318	88132
22.15132	84476
22.15943	81935
22.16757	84010
22.17568	83869
22.18380	82434
22.19193	78303
22.20005	78182
22.20818	80033
22.21630	74159
22.22442	73252
22.23255	70177
22.24067	68496
22.24880	66098
22.25692	69249
22.26503	68769
22.27317	67274
22.28128	71510
22.28940	73708
22.29753	71741
22.30565	64678
22.31378	70265
22.32190	65326
22.33002	68939
22.33815	65540
22.34627	59984
22.35440	59328
22.36252	60727
22.37063	52395
22.37877	59506
22.38688	66690
22.39500	76335
22.40313	86420
22.41125	89612
22.41938	90075
22.42750	87093
22.43562	85520
22.44375	74339
22.45187	72010
22.46000	64029
22.46812	62764
22.47623	63202
22.48437	66542
22.49248	75478
22.50062	70782
22.50873	74541
22.51685	71281
22.52498	63750
22.53310	65008
22.54122	61334
22.54935	57084
22.55747	51623
22.56560	49474
22.57372	47209
22.58183	53695
22.58997	47729
22.59808	45903
22.60622	44116
22.61433	45494
22.62245	40282
22.63058	47478
22.63870	46188
22.64683	45898
22.65495	46636
22.66307	43946
22.67120	40330
22.67932	44489
22.68743	47826
22.69557	49924
22.70368	55907
22.71182	50766
22.71993	51795
22.72805	51219
22.73618	45269
22.74430	47430
22.75243	41330
22.76055	46926
22.76867	50350
22.77680	51877
22.78492	53117
22.79303	56622
22.80117	57794
22.80928	58090
22.81742	59130
22.82553	53436
22.83365	58196
22.84178	52151
22.84990	51428
22.85803	55780
22.86615	54085
22.87427	59434
22.88240	70567
22.89052	75773
22.89865	81617
22.90677	95079
22.91488	106933
22.92302	126992
22.93113	130695
22.93925	117378
22.94738	99817
22.95550	90681
22.96363	77682
22.97175	68393
22.97987	60417
22.98800	59308
22.99612	59780
23.00425	49868
23.01237	51444
23.02048	49264
23.02862	48670
23.03673	44084
23.04485	49650
23.05298	46865
23.06110	41371
23.06923	45089
23.07735	45968
23.08547	44889
23.09360	52825
23.10172	43202
23.10985	44882
23.11797	38887
23.12608	42270
23.13422	38768
23.14233	38739
23.15047	39777
23.15858	41577
23.16670	38844
23.17483	37725
23.18295	37307
23.19107	38329
23.19920	39145
23.20732	37181
23.21545	39988
23.22357	38804
23.23168	38940
23.23982	40937
23.24793	40605
23.25607	42721
23.26418	44847
23.27230	43711
23.28043	46737
23.28855	43282
23.29668	42382
23.30480	41984
23.31292	41005
23.32105	42871
23.32917	47696
23.33728	54255
23.34542	68266
23.35353	82257
23.36167	104577
23.36978	124185
23.37790	140508
23.38603	154074
23.39415	166335
23.40228	164994
23.41040	159103
23.41852	161687
23.42665	161881
23.43477	153654
23.44288	150421
23.45102	144463
23.45913	133738
23.46727	124967
23.47538	121687
23.48350	112010
23.49163	108179
23.49975	98176
23.50788	93845
23.51600	84149
23.52412	84890
23.53225	84996
23.54037	78240
23.54850	80318
23.55662	76118
23.56473	84409
23.57287	87382
23.58098	100058
23.58910	109845
23.59723	115876
23.60535	117153
23.61348	108437
23.62160	102460
23.62972	105076
23.63785	119798
23.64597	139556
23.65410	151380
23.66222	170303
23.67033	171003
23.67847	173855
23.68658	175223
23.69472	171083
23.70283	178032
23.71095	181447
23.71908	174004
23.72720	176311
23.73532	198802
23.74345	281110
23.75157	460055
23.75970	785469
23.76782	1311119
23.77593	1864211
23.78407	2226409
23.79218	2284018
23.80032	2054397
23.80843	1661172
23.81655	1297047
23.82468	990928
23.83280	772211
23.84092	628612
23.84905	523479
23.85717	436641
23.86530	395979
23.87342	345523
23.88153	317091
23.88967	298058
23.89778	282319
23.90592	261824
23.91403	252749
23.92215	230280
23.93028	216018
23.93840	195082
23.94653	196311
23.95465	190060
23.96277	176134
23.97090	172913
23.97902	163637
23.98713	159053
23.99527	151811
24.00338	148569
24.01152	148701
24.01963	139796
24.02775	138568
24.03588	143868
24.04400	138541
24.05213	129019
24.06025	122048
24.06837	121045
24.07650	120559
24.08462	115851
24.09273	122632
24.10087	114028
24.10898	112057
24.11712	106518
24.12523	106350
24.13335	102324
24.14148	104213
24.14960	108402
24.15773	104534
24.16585	107654
24.17397	109566
24.18210	107880
24.19022	106831
24.19835	105859
24.20647	104936
24.21458	97732
24.22272	88662
24.23083	88566
24.23895	82363
24.24708	78682
24.25520	80011
24.26333	77698
24.27145	77413
24.27957	76796
24.28770	77834
24.29582	76755
24.30395	77063
24.31207	79303
24.32018	85632
24.32832	96411
24.33643	117921
24.34457	126682
24.35268	127064
24.36080	108598
24.36893	97847
24.37705	76853
24.38517	69865
24.39330	70006
24.40142	65527
24.40955	63637
24.41767	59804
24.42578	65945
24.43392	65863
24.44203	69956
24.45017	67252
24.45828	69229
24.46640	71611
24.47453	76259
24.48265	80994
24.49078	77199
24.49890	71139
24.50702	78477
24.51515	75822
24.52327	74812
24.53138	79660
24.53952	86922
24.54763	99270
24.55577	104393
24.56388	94977
24.57200	92095
24.58013	82170
24.58825	72025
24.59638	66682
24.60450	62660
24.61262	57627
24.62075	56685
24.62887	55641
24.63698	53365
24.64512	52774
24.65323	53866
24.66137	55493
24.66948	55727
24.67760	49713
24.68573	49749
24.69385	53557
24.70198	51787
24.71010	49595
24.71822	51482
24.72635	51746
24.73447	52879
24.74260	49042
24.75072	49771
24.75883	52011
24.76697	55076
24.77508	53767
24.78320	55529
24.79133	60264
24.79945	58447
24.80758	56449
24.81570	56494
24.82382	62015
24.83195	65730
24.84007	84083
24.84820	108740
24.85632	130032
24.86443	175171
24.87257	218081
24.88068	269739
24.88880	291394
24.89693	295248
24.90505	262697
24.91318	243451
24.92130	225225
24.92942	196150
24.93755	187050
24.94567	184067
24.95380	170442
24.96192	168639
24.97003	172516
24.97817	170448
24.98628	157499
24.99442	163436
25.00253	158380
25.01065	157400
25.01878	151179
25.02690	157050
25.03502	152262
25.04315	139423
25.05127	140710
25.05940	140109
25.06752	137997
25.07563	140456
25.08377	143590
25.09188	162115
25.10002	214151
25.10813	301607
25.11625	490912
25.12438	758658
25.13250	1069096
25.14062	1288046
25.14875	1309397
25.15687	1060311
25.16500	760658
25.17312	491054
25.18123	322923
25.18937	220648
25.19748	163294
25.20562	156807
25.21373	133447
25.22185	131193
25.22998	127266
25.23810	139358
25.24623	146095
25.25435	162799
25.26247	179068
25.27060	183202
25.27872	172723
25.28683	156941
25.29497	145921
25.30308	122444
25.31122	106250
25.31933	98269
25.32745	93037
25.33558	88234
25.34370	87032
25.35183	80316
25.35995	74772
25.36807	75498
25.37620	71287
25.38432	73970
25.39245	69937
25.40057	73857
25.40868	70757
25.41682	72314
25.42493	68100
25.43305	66098
25.44118	67293
25.44930	67603
25.45743	63289
25.46555	61830
25.47367	59764
25.48180	62847
25.48992	59831
25.49805	59449
25.50617	57553
25.51428	62763
25.52242	58366
25.53053	57685
25.53867	55723
25.54678	58034
25.55490	53626
25.56303	58850
25.57115	56941
25.57927	59654
25.58740	57989
25.59552	54803
25.60365	54368
25.61177	57869
25.61988	52168
25.62802	55366
25.63613	52645
25.64427	54315
25.65238	50389
25.66050	57875
25.66863	50814
25.67675	51203
25.68487	54365
25.69300	49946
25.70112	52098
25.70925	48132
25.71737	52920
25.72548	51445
25.73362	49168
25.74173	48282
25.74987	45299
25.75798	45015
25.76610	46318
25.77423	46440
25.78235	48367
25.79048	47338
25.79860	48670
25.80672	46558
25.81485	47964
25.82297	51005
25.83108	50989
25.83922	48772
25.84733	50892
25.85547	47967
25.86358	43427
25.87170	43146
25.87983	45610
25.88795	44348
25.89608	42311
25.90420	42278
25.91232	46525
25.92045	43783
25.92857	45514
25.93668	47942
25.94482	44625
25.95293	45317
25.96107	42513
25.96918	43887
25.97730	45455
25.98543	42371
25.99355	41770
26.00168	39454
26.00980	43390
26.01792	44633
26.02605	40755
26.03417	42381
26.04230	43661
26.05042	44081
26.05853	41001
26.06667	40252
26.07478	43079
26.08290	44051
26.09103	44334
26.09915	46370
26.10728	45323
26.11540	44344
26.12352	50164
26.13165	48504
26.13977	49031
26.14790	52267
26.15602	49958
26.16413	52404
26.17227	48982
26.18038	49695
26.18852	45872
26.19663	46606
26.20475	43089
26.21288	43418
26.22100	45760
26.22912	42763
26.23725	42563
26.24537	44295
26.25350	46922
26.26162	46523
26.26973	39884
26.27787	42961
26.28598	40404
26.29412	42984
26.30223	45208
26.31035	39838
26.31848	42659
26.32660	44703
26.33472	43781
26.34285	45493
26.35097	48864
26.35910	46435
26.36722	52237
26.37533	51612
26.38347	51323
26.39158	52462
26.39972	53680
26.40783	55166
26.41595	53430
26.42408	46636
26.43220	48378
26.44033	47591
26.44845	45298
26.45657	42337
26.46470	42831
26.47282	43634
26.48093	42401
26.48907	41282
26.49718	43714
26.50532	43223
26.51343	39765
26.52155	42680
26.52968	43693
26.53780	39126
26.54593	39953
26.55405	42135
26.56217	38537
26.57030	40260
26.57842	35373
26.58655	39292
26.59467	41131
26.60278	38096
26.61092	39695
26.61903	39618
26.62715	37535
26.63528	37174
26.64340	40238
26.65153	41495
26.65965	40965
26.66777	38327
26.67590	38376
26.68402	41309
26.69215	40386
26.70027	39442
26.70838	37740
26.71652	34406
26.72463	38568
26.73275	43558
26.74088	34830
26.74900	38782
26.75713	38249
26.76525	42579
26.77337	38146
26.78150	39536
26.78962	38309
26.79775	41071
26.80587	44911
26.81398	41276
26.82212	38735
26.83023	39883
26.83837	44762
26.84648	39869
26.85460	35546
26.86273	40701
26.87085	36287
26.87897	38166
26.88710	40171
26.89522	37417
26.90335	37412
26.91147	36362
26.91958	37711
26.92772	37534
26.93583	38169
26.94397	42180
26.95208	62965
26.96020	90503
26.96833	123291
26.97645	184560
26.98457	260940
26.99270	318662
27.00082	357989
27.00895	359358
27.01707	346863
27.02518	307838
27.03332	247671
27.04143	203153
27.04957	173766
27.05768	137380
27.06580	115462
27.07393	102432
27.08205	97426
27.09018	85451
27.09830	81522
27.10642	82951
27.11455	72611
27.12267	68907
27.13078	73250
27.13892	67796
27.14703	67323
27.15517	65440
27.16328	73386
27.17140	68197
27.17953	69678
27.18765	64970
27.19578	67134
27.20390	58577
27.21202	54435
27.22015	52731
27.22827	49707
27.23640	49299
27.24452	53806
27.25263	51528
27.26077	53946
27.26888	48214
27.27700	49235
27.28513	50410
27.29325	45444
27.30138	47927
27.30950	52892
27.31762	47995
27.32575	46710
27.33387	48288
27.34200	48173
27.35012	44304
27.35823	47700
27.36637	46065
27.37448	46928
27.38260	42566
27.39073	44858
27.39885	42956
27.40698	43088
27.41510	43150
27.42322	42966
27.43135	39373
27.43947	43548
27.44760	44460
27.45572	41031
27.46383	38715
27.47197	41277
27.48008	39980
27.48822	40632
27.49633	45553
27.50445	39968
27.51258	44182
27.52070	40168
27.52882	40885
27.53695	44358
27.54507	41333
27.55320	43127
27.56132	39789
27.56943	43473
27.57757	47840
27.58568	48348
27.59382	44861
27.60193	46661
27.61005	44453
27.61818	41950
27.62630	45341
27.63443	41131
27.64255	42706
27.65067	42730
27.65880	41810
27.66692	42265
27.67503	45067
27.68317	48938
27.69128	46774
27.69942	47521
27.70753	47633
27.71565	46615
27.72378	42484
27.73190	48685
27.74003	49609
27.74815	51697
27.75627	49367
27.76440	47674
27.77252	45012
27.78063	43093
27.78877	40091
27.79688	43743
27.80502	42061
27.81313	40402
27.82125	40682
27.82938	41071
27.83750	35580
27.84563	45471
27.85375	36526
27.86187	38032
27.87000	35045
27.87812	38626
27.88625	37101
27.89437	32389
27.90248	34861
27.91062	34538
27.91873	35663
27.92685	34375
27.93498	35723
27.94310	34098
27.95123	34639
27.95935	34815
27.96747	39676
27.97560	42074
27.98372	41330
27.99185	44705
27.99997	46702
28.00808	49135
28.01622	54904
28.02433	58695
28.03247	64143
28.04058	71483
28.04870	73566
28.05683	71052
28.06495	59271
28.07307	55744
28.08120	63148
28.08932	59771
28.09745	58754
28.10557	71403
28.11368	63404
28.12182	59981
28.12993	57225
28.13807	53841
28.14618	48998
28.15430	46285
28.16243	41173
28.17055	40028
28.17867	41178
28.18680	44073
28.19492	45729
28.20305	47672
28.21117	44955
28.21928	47521
28.22742	49131
28.23553	48437
28.24367	45060
28.25178	54315
28.25990	54581
28.26803	69441
28.27615	82023
28.28428	102888
28.29240	128425
28.30052	147086
28.30865	173841
28.31677	179450
28.32488	183700
28.33302	178641
28.34113	170942
28.34927	155969
28.35738	148146
28.36550	135258
28.37363	126928
28.38175	110813
28.38988	104563
28.39800	97539
28.40612	86470
28.41425	79758
28.42237	75439
28.43048	72039
28.43862	65142
28.44673	62558
28.45487	60801
28.46298	62296
28.47110	60648
28.47923	55035
28.48735	59318
28.49548	61768
28.50360	57638
28.51172	52737
28.51985	51397
28.52797	47577
28.53610	51573
28.54422	46938
28.55233	50619
28.56047	43212
28.56858	45958
28.57670	46375
28.58483	45481
28.59295	44906
28.60108	50308
28.60920	47420
28.61732	46665
28.62545	45264
28.63357	51631
28.64170	51535
28.64982	45248
28.65793	49774
28.66607	46572
28.67418	48901
28.68232	51849
28.69043	49450
28.69855	62726
28.70668	61890
28.71480	64235
28.72292	61746
28.73105	53504
28.73917	53520
28.74730	45813
28.75542	42149
28.76353	41362
28.77167	39446
28.77978	37980
28.78792	38116
28.79603	43627
28.80415	44624
28.81228	45024
28.82040	44760
28.82852	46285
28.83665	39376
28.84477	42320
28.85290	39816
28.86102	44023
28.86913	42039
28.87727	48348
28.88538	44387
28.89352	51451
28.90163	48107
28.90975	44187
28.91788	48193
28.92600	44775
28.93413	41296
28.94225	42270
28.95037	41019
28.95850	40869
28.96662	44565
28.97473	40484
28.98287	40438
28.99098	38928
28.99912	38012
29.00723	35904
29.01535	36378
29.02348	37753
29.03160	37243
29.03973	38852
29.04785	39377
29.05597	39378
29.06410	40354
29.07222	36123
29.08035	38171
29.08847	36712
29.09658	36964
29.10472	39190
29.11283	38392
29.12095	38031
29.12908	38276
29.13720	37345
29.14533	36532
29.15345	38404
29.16157	36757
29.16970	37694
29.17782	41824
29.18595	43869
29.19407	49391
29.20218	48191
29.21032	53369
29.21843	57749
29.22655	51323
29.23468	53426
29.24280	47382
29.25093	52997
29.25905	50247
29.26717	46037
29.27530	47038
29.28342	44802
29.29155	39612
29.29967	38311
29.30778	37766
29.31592	39883
29.32403	34741
29.33217	36266
29.34028	36296
29.34840	36003
29.35653	36337
29.36465	30608
29.37277	38182
29.38090	33722
29.38902	39638
29.39715	33547
29.40527	41004
29.41338	36155
29.42152	38732
29.42963	38532
29.43777	36544
29.44588	39738
29.45400	35085
29.46213	33250
29.47025	35571
29.47837	32474
29.48650	39095
29.49462	37482
29.50275	34526
29.51087	37568
29.51898	37092
29.52712	38466
29.53523	35551
29.54337	36683
29.55148	35778
29.55960	37374
29.56773	34540
29.57585	40521
29.58398	44582
29.59210	44597
29.60022	42692
29.60835	47640
29.61647	39925
29.62458	41515
29.63272	39470
29.64083	37784
29.64897	36505
29.65708	39533
29.66520	39906
29.67333	37321
29.68145	36373
29.68958	40272
29.69770	38333
29.70582	41958
29.71395	37732
29.72207	36697
29.73020	37714
29.73832	35011
29.74643	33649
29.75457	34020
29.76268	32795
29.77080	36186
29.77893	34436
29.78705	33995
29.79518	32591
29.80330	33720
29.81142	31854
29.81955	37136
29.82767	34442
29.83580	32519
29.84392	33745
29.85203	40614
29.86017	36331
29.86828	39325
29.87642	43627
29.88453	48929
29.89265	65250
29.90078	64800
29.90890	75455
29.91702	80996
29.92515	85652
29.93327	99702
29.94140	103460
29.94952	108394
29.95763	109645
29.96577	106047
29.97388	106753
29.98202	104954
29.99013	110269
29.99825	100010
30.00638	96687
30.01450	93358
30.02262	88837
30.03075	87537
30.03887	81475
30.04700	78523
30.05512	71484
30.06323	68519
30.07137	71378
30.07948	66202
30.08762	63286
30.09573	62889
30.10385	58716
30.11198	54669
30.12010	53828
30.12823	56431
30.13635	60574
30.14447	54003
30.15260	51755
30.16072	55573
30.16883	54744
30.17697	52795
30.18508	51184
30.19322	56366
30.20133	50768
30.20945	50749
30.21758	47334
30.22570	49504
30.23383	46602
30.24195	48158
30.25007	43527
30.25820	42257
30.26632	42740
30.27443	43430
30.28257	41891
30.29068	41934
30.29882	42449
30.30693	42091
30.31505	43338
30.32318	42523
30.33130	43079
30.33943	42803
30.34755	42579
30.35567	44595
30.36380	42553
30.37192	37719
30.38005	37143
30.38817	36486
30.39628	38729
30.40442	41187
30.41253	40911
30.42065	41800
30.42878	38165
30.43690	38756
30.44503	35683
30.45315	36756
30.46127	38378
30.46940	37858
30.47752	37477
30.48565	36837
30.49377	38292
30.50188	38005
30.51002	35570
30.51813	36314
30.52627	38301
30.53438	36934
30.54250	36697
30.55063	38046
30.55875	38365
30.56687	36394
30.57500	37441
30.58312	39018
30.59125	38892
30.59937	39770
30.60748	37916
30.61562	40031
30.62373	37434
30.63187	38790
30.63998	36856
30.64810	33986
30.65623	35276
30.66435	35409
30.67247	36120
30.68060	36436
30.68872	36029
30.69685	35428
30.70497	33524
30.71308	40111
30.72122	40047
30.72933	38496
30.73747	36929
30.74558	35285
30.75370	43903
30.76183	39368
30.76995	40039
30.77808	39437
30.78620	55898
30.79432	57585
30.80245	53127
30.81057	56444
30.81868	53293
30.82682	52707
30.83493	45897
30.84307	42700
30.85118	39607
30.85930	34910
30.86743	37635
30.87555	33621
30.88368	35712
30.89180	36391
30.89992	37834
30.90805	37061
30.91617	35801
30.92430	35009
30.93242	36225
30.94053	35121
30.94867	39462
30.95678	35755
30.96490	37285
30.97303	33527
30.98115	34961
30.98928	33486
30.99740	34293
31.00552	34859
31.01365	35702
31.02177	34985
31.02990	37214
31.03802	38932
31.04613	39671
31.05427	39262
31.06238	37505
31.07050	37633
31.07863	37628
31.08675	40344
31.09488	47548
31.10300	44986
31.11112	42355
31.11925	43327
31.12737	46527
31.13550	39874
31.14362	34899
31.15173	39969
31.15987	40531
31.16798	40812
31.17612	49076
31.18423	62558
31.19235	72680
31.20048	84488
31.20860	90650
31.21672	90809
31.22485	78432
31.23297	71299
31.24110	58464
31.24922	52389
31.25733	42821
31.26547	41433
31.27358	38392
31.28172	39322
31.28983	43100
31.29795	38952
31.30608	36751
31.31420	38200
31.32232	38173
31.33045	38161
31.33857	40484
31.34670	38552
31.35482	42552
31.36293	38547
31.37107	38578
31.37918	39032
31.38732	34027
31.39543	36560
31.40355	36102
31.41168	37911
31.41980	37497
31.42793	34222
31.43605	34919
31.44417	36274
31.45230	35999
31.46042	37121
31.46853	36499
31.47667	37237
31.48478	38370
31.49292	36854
31.50103	35263
31.50915	38196
31.51728	38768
31.52540	40012
31.53353	39400
31.54165	38416
31.54977	39871
31.55790	39056
31.56602	36952
31.57415	36522
31.58227	35330
31.59038	36216
31.59852	34153
31.60663	34541
31.61475	31981
31.62288	36829
31.63100	35188
31.63913	34489
31.64725	43921
31.65537	41457
31.66350	43911
31.67162	41273
31.67975	46372
31.68787	45079
31.69598	44618
31.70412	53047
31.71223	46074
31.72035	39312
31.72848	37899
31.73660	37219
31.74473	36257
31.75285	36169
31.76097	38163
31.76910	34308
31.77722	36222
31.78535	34207
31.79347	39123
31.80158	39147
31.80972	33441
31.81783	40956
31.82597	41600
31.83408	43707
31.84220	45794
31.85033	55462
31.85845	60057
31.86657	65266
31.87470	69089
31.88282	72885
31.89095	77587
31.89907	78099
31.90718	75927
31.91532	74594
31.92343	74772
31.93157	68771
31.93968	70084
31.94780	68018
31.95593	55945
31.96405	58765
31.97218	58865
31.98030	56265
31.98842	55921
31.99655	54601
32.00467	53900
32.01278	51018
32.02092	50881
32.02903	48541
32.03717	47095
32.04528	47051
32.05340	45872
32.06153	43739
32.06965	50958
32.07778	44937
32.08590	43209
32.09402	42028
32.10215	41058
32.11027	38347
32.11838	38776
32.12652	43422
32.13463	39911
32.14277	39115
32.15088	42179
32.15900	34333
32.16713	36068
32.17525	38242
32.18338	35090
32.19150	37489
32.19962	39658
32.20775	37368
32.21587	36050
32.22400	40954
32.23212	37882
32.24023	34679
32.24837	37654
32.25648	39666
32.26460	39702
32.27273	40687
32.28085	39052
32.28898	38800
32.29710	38318
32.30522	40516
32.31335	41167
32.32147	39838
32.32960	38444
32.33772	40407
32.34583	38222
32.35397	41624
32.36208	40047
32.37020	37720
32.37833	37906
32.38645	37277
32.39458	36919
32.40270	35345
32.41082	36313
32.41895	33381
32.42707	36152
32.43520	38704
32.44332	39650
32.45143	33620
32.45957	36880
32.46768	36591
32.47582	36226
32.48393	32980
32.49205	37604
32.50018	40217
32.50830	37588
32.51642	37208
32.52455	38047
32.53267	39522
32.54080	34882
32.54892	39660
32.55703	38518
32.56517	36845
32.57328	44466
32.58142	47082
32.58953	49734
32.59765	52440
32.60578	51766
32.61390	53262
32.62203	46920
32.63015	42130
32.63827	36277
32.64640	36880
32.65452	37794
32.66263	37296
32.67077	35018
32.67888	38487
32.68702	40842
32.69513	40138
32.70325	40949
32.71138	37886
32.71950	43074
32.72763	37172
32.73575	40332
32.74387	38028
32.75200	37521
32.76012	37258
32.76823	36986
32.77637	36619
32.78448	39528
32.79262	36873
32.80073	36742
32.80885	38693
32.81698	37851
32.82510	38534
32.83323	34774
32.84135	37151
32.84947	35625
32.85760	39591
32.86572	38097
32.87385	37706
32.88197	39331
32.89008	39693
32.89822	39896
32.90633	39701
32.91445	43031
32.92258	38854
32.93070	42650
32.93883	40049
32.94695	39096
32.95507	38183
32.96320	41422
32.97132	46265
32.97945	42483
32.98757	46901
32.99568	51284
33.00382	43308
33.01193	46975
33.02007	44054
33.02818	42382
33.03630	39523
33.04443	40006
33.05255	39256
33.06067	44125
33.06880	45825
33.07692	42258
33.08505	45852
33.09317	48143
33.10128	52341
33.10942	51486
33.11753	49212
33.12567	51249
33.13378	46816
33.14190	48623
33.15003	41177
33.15815	42061
33.16627	39953
33.17440	43608
33.18252	38320
33.19065	39008
33.19877	42708
33.20688	41892
33.21502	41560
33.22313	40142
33.23127	41846
33.23938	37175
33.24750	37749
33.25563	38962
33.26375	37636
33.27188	40141
33.28000	41115
33.28812	41576
33.29625	35732
33.30437	40265
33.31248	34329
33.32062	39273
33.32873	40387
33.33687	40922
33.34498	43262
33.35310	41483
33.36123	39913
33.36935	40127
33.37748	39662
33.38560	39951
33.39372	40819
33.40185	34016
33.40997	34458
33.41810	37093
33.42622	40527
33.43433	38277
33.44247	34239
33.45058	37679
33.45870	36486
33.46683	37253
33.47495	32512
33.48308	39045
33.49120	38516
33.49932	41871
33.50745	35520
33.51557	38462
33.52370	37343
33.53182	38256
33.53993	38304
33.54807	40632
33.55618	41779
33.56430	38370
33.57243	44043
33.58055	38385
33.58868	37634
33.59680	42798
33.60492	40441
33.61305	36809
33.62117	40985
33.62930	43155
33.63742	42991
33.64553	38409
33.65367	40771
33.66178	41485
33.66992	45693
33.67803	46296
33.68615	41567
33.69428	47980
33.70240	41469
33.71052	45657
33.71865	39386
33.72677	44188
33.73490	48576
33.74302	48106
33.75113	49546
33.75927	47344
33.76738	51409
33.77552	48082
33.78363	48128
33.79175	47703
33.79988	47242
33.80800	51865
33.81612	47165
33.82425	50127
33.83237	46942
33.84050	51888
33.84862	50907
33.85673	50422
33.86487	49280
33.87298	48438
33.88112	49173
33.88923	51011
33.89735	48413
33.90548	54069
33.91360	51994
33.92173	53289
33.92985	54108
33.93797	46574
33.94610	48560
33.95422	47451
33.96233	45841
33.97047	48934
33.97858	48405
33.98672	48026
33.99483	48461
34.00295	45109
34.01108	42819
34.01920	43909
34.02733	45243
34.03545	41921
34.04357	41770
34.05170	43194
34.05982	44850
34.06795	43849
34.07607	44637
34.08418	43985
34.09232	41049
34.10043	38806
34.10855	44031
34.11668	45655
34.12480	43163
34.13293	44653
34.14105	43054
34.14917	49017
34.15730	43486
34.16542	43921
34.17355	41735
34.18167	43057
34.18978	40603
34.19792	39079
34.20603	42379
34.21415	43973
34.22228	43813
34.23040	42237
34.23853	44914
34.24665	40424
34.25477	39052
34.26290	41311
34.27102	37162
34.27915	43376
34.28727	40294
34.29538	41532
34.30352	39748
34.31163	36739
34.31977	42470
34.32788	42472
34.33600	38974
34.34413	42378
34.35225	44988
34.36037	36929
34.36850	42417
34.37662	43064
34.38475	41208
34.39287	43396
34.40098	45581
34.40912	43104
34.41723	43258
34.42537	49263
34.43348	48978
34.44160	48658
34.44973	52466
34.45785	61115
34.46598	70679
34.47410	74674
34.48222	81294
34.49035	84666
34.49847	88457
34.50658	82427
34.51472	79102
34.52283	75958
34.53097	72306
34.53908	69819
34.54720	65476
34.55533	64655
34.56345	64739
34.57158	62671
34.57970	63202
34.58782	58111
34.59595	57718
34.60407	62664
34.61218	64822
34.62032	56619
34.62843	59446
34.63657	56561
34.64468	58314
34.65280	62452
34.66093	59702
34.66905	59593
34.67718	53523
34.68530	55586
34.69342	53446
34.70155	53100
34.70967	52627
34.71780	47530
34.72592	49684
34.73403	51784
34.74217	47572
34.75028	48176
34.75840	47020
34.76653	49171
34.77465	50679
34.78278	48761
34.79090	47428
34.79902	49497
34.80715	47234
34.81527	48301
34.82340	46779
34.83152	46080
34.83963	50386
34.84777	46947
34.85588	43052
34.86400	45495
34.87213	46102
34.88025	46070
34.88838	48431
34.89650	46308
34.90462	46523
34.91275	49053
34.92087	47132
34.92900	47402
34.93712	43347
34.94523	50039
34.95337	47454
34.96148	49998
34.96962	46487
34.97773	52960
34.98585	49100
34.99398	45364
35.00210	46957
35.01022	43839
35.01835	44865
35.02647	45890
35.03460	44361
35.04272	46892
35.05083	46610
35.05897	46307
35.06708	44991
35.07522	47724
35.08333	45898
35.09145	43097
35.09958	43807
35.10770	44476
35.11583	44301
35.12395	46547
35.13207	45015
35.14020	46805
35.14832	49034
35.15643	46828
35.16457	45123
35.17268	45637
35.18082	49447
35.18893	47522
35.19705	47522
35.20518	47197
35.21330	45859
35.22143	42482
35.22955	48270
35.23767	49091
35.24580	46649
35.25392	44322
35.26205	45304
35.27017	48475
35.27828	42984
35.28642	47834
35.29453	47839
35.30265	47232
35.31078	45413
35.31890	47921
35.32703	44623
35.33515	45345
35.34327	46446
35.35140	43716
35.35952	46097
35.36765	47487
35.37577	45042
35.38388	51576
35.39202	50672
35.40013	53872
35.40825	62297
35.41638	65460
35.42450	62588
35.43263	60244
35.44075	60776
35.44887	60089
35.45700	61456
35.46512	54815
35.47325	58455
35.48137	51906
35.48948	54377
35.49762	55764
35.50573	51184
35.51387	49077
35.52198	50501
35.53010	53779
35.53823	52034
35.54635	50854
35.55447	49727
35.56260	49535
35.57072	52801
35.57885	53947
35.58697	52354
35.59508	51044
35.60322	52045
35.61133	52985
35.61947	47718
35.62758	49744
35.63570	49718
35.64383	48971
35.65195	49571
35.66007	49586
35.66820	46565
35.67632	49055
35.68445	49655
35.69257	51335
35.70068	53687
35.70882	49091
35.71693	45973
35.72507	46294
35.73318	50559
35.74130	55286
35.74943	49084
35.75755	52910
35.76568	53219
35.77380	54934
35.78192	50451
35.79005	53587
35.79817	48427
35.80628	47530
35.81442	50126
35.82253	50216
35.83067	53353
35.83878	49109
35.84690	49107
35.85503	50600
35.86315	52074
35.87128	48620
35.87940	47933
35.88752	48894
35.89565	57415
35.90377	49071
35.91190	47531
35.92002	46542
35.92813	47255
35.93627	48085
35.94438	47392
35.95250	54505
35.96063	46048
35.96875	50082
35.97688	55126
35.98500	45920
35.99312	48751
36.00125	52551
36.00937	50079
36.01750	50748
36.02562	51311
36.03373	49568
36.04187	52059
36.04998	48946
36.05810	53026
36.06623	51227
36.07435	49522
36.08248	49214
36.09060	49575
36.09872	52434
36.10685	54632
36.11497	50292
36.12310	49654
36.13122	51757
36.13933	53195
36.14747	53482
36.15558	52971
36.16372	49929
36.17183	52017
36.17995	51064
36.18808	51973
36.19620	47739
36.20432	51283
36.21245	53407
36.22057	56758
36.22870	58666
36.23682	63734
36.24493	67363
36.25307	67587
36.26118	69027
36.26932	63362
36.27743	60043
36.28555	55268
36.29368	52374
36.30180	54736
36.30993	54669
36.31805	50777
36.32617	50878
36.33430	54483
36.34242	54716
36.35053	49956
36.35867	47229
36.36678	53895
36.37492	57976
36.38303	51305
36.39115	52692
36.39928	56276
36.40740	52850
36.41553	54501
36.42365	54366
36.43177	50875
36.43990	53849
36.44802	49647
36.45613	48439
36.46427	53203
36.47238	54637
36.48052	50562
36.48863	50347
36.49675	54062
36.50488	50909
36.51300	50508
36.52113	54677
36.52925	56728
36.53737	54585
36.54550	56110
36.55362	51244
36.56175	52319
36.56987	50263
36.57798	53230
36.58612	53950
36.59423	56999
36.60235	56307
36.61048	54921
36.61860	53174
36.62673	51703
36.63485	50355
36.64297	54443
36.65110	56760
36.65922	53086
36.66735	57733
36.67547	55959
36.68358	53316
36.69172	52666
36.69983	52778
36.70795	53054
36.71608	55341
36.72420	51793
36.73233	51655
36.74045	54923
36.74857	54702
36.75670	49685
36.76482	50371
36.77295	54900
36.78107	51598
36.78918	53639
36.79732	57015
36.80543	52801
36.81357	56322
36.82168	56196
36.82980	51946
36.83793	55992
36.84605	51507
36.85417	52678
36.86230	55072
36.87042	53337
36.87855	57418
36.88667	53421
36.89478	57689
36.90292	53760
36.91103	56291
36.91917	55715
36.92728	57270
36.93540	57525
36.94353	62149
36.95165	61198
36.95978	65522
36.96790	62417
36.97602	63365
36.98415	60450
36.99227	67136
37.00038	68024
37.00852	72635
37.01663	75289
37.02477	82999
37.03288	83453
37.04100	81832
37.04913	72638
37.05725	71173
37.06538	68219
37.07350	63914
37.08162	62187
37.08975	61961
37.09787	63484
37.10598	57675
37.11412	60723
37.12223	58161
37.13037	62311
37.13848	60137
37.14660	65867
37.15473	59192
37.16285	59242
37.17098	61686
37.17910	62704
37.18722	63541
37.19535	62404
37.20347	58380
37.21160	59083
37.21972	61013
37.22783	66473
37.23597	65388
37.24408	63261
37.25220	66434
37.26033	78534
37.26845	79275
37.27658	92924
37.28470	93772
37.29282	94351
37.30095	93745
37.30907	88570
37.31720	87879
37.32532	80301
37.33343	77386
37.34157	81335
37.34968	69598
37.35782	68429
37.36593	68768
37.37405	69655
37.38218	67941
37.39030	68537
37.39842	68936
37.40655	66791
37.41467	66943
37.42280	60382
37.43092	66430
37.43903	69466
37.44717	67704
37.45528	69914
37.46342	69136
37.47153	68420
37.47965	67854
37.48778	64791
