C:\MassHunter\GCMS\1\data\JTB-E18\JTB-E18-034-06.D Tue Oct 15 15:04:18 2019
Start of data points
2.09537	200796
2.10350	196690
2.11162	191034
2.11973	178747
2.12787	175660
2.13598	168321
2.14412	170476
2.15223	152870
2.16035	156365
2.16848	151439
2.17660	148490
2.18473	147244
2.19285	137009
2.20097	134608
2.20910	134204
2.21722	130228
2.22535	131982
2.23347	129971
2.24158	123331
2.24972	126896
2.25783	126759
2.26595	286324
2.27408	1751184
2.28220	2971836
2.29033	1570245
2.29845	683569
2.30657	442280
2.31470	366536
2.32282	309305
2.33095	319911
2.33907	401557
2.34718	317608
2.35532	253277
2.36343	235824
2.37155	211545
2.37968	244588
2.38780	279926
2.39593	243813
2.40405	211423
2.41217	191414
2.42030	186445
2.42842	193235
2.43655	176197
2.44467	183395
2.45278	178804
2.46092	163116
2.46903	155930
2.47717	154982
2.48528	145098
2.49340	159620
2.50153	173488
2.50965	145766
2.51777	146260
2.52590	144994
2.53402	139322
2.54215	143204
2.55027	147804
2.55838	186058
2.56652	198279
2.57463	164845
2.58277	153262
2.59088	145044
2.59900	138756
2.60713	189912
2.61525	296783
2.62338	290075
2.63150	224798
2.63962	189074
2.64775	170938
2.65587	158565
2.66398	153575
2.67212	163561
2.68023	195946
2.68837	176743
2.69648	148899
2.70460	135830
2.71273	132085
2.72085	135609
2.72898	130686
2.73710	126033
2.74522	124240
2.75335	120845
2.76147	112122
2.76958	116814
2.77772	141605
2.78583	218866
2.79397	262234
2.80208	209906
2.81020	185444
2.81833	257173
2.82645	474886
2.83458	828948
2.84270	714426
2.85082	421097
2.85895	315791
2.86707	286121
2.87520	247598
2.88332	207547
2.89143	176751
2.89957	170592
2.90768	150637
2.91580	156404
2.92393	138599
2.93205	136103
2.94018	133140
2.94830	130052
2.95642	121419
2.96455	125723
2.97267	125115
2.98080	128088
2.98892	134842
2.99703	148050
3.00517	155179
3.01328	158079
3.02142	196715
3.02953	444242
3.03765	779930
3.04578	1286671
3.05390	3998011
3.06202	8366637
3.07015	8102948
3.07827	4614116
3.08640	2601850
3.09452	1994441
3.10263	2155453
3.11077	2845500
3.11888	2699396
3.12702	1866807
3.13513	1362542
3.14325	1074404
3.15138	900819
3.15950	747670
3.16762	736356
3.17575	790158
3.18387	915472
3.19200	1478241
3.20012	1831268
3.20823	1444209
3.21637	1031007
3.22448	846619
3.23262	719945
3.24073	627023
3.24885	554647
3.25698	497685
3.26510	439251
3.27323	427471
3.28135	500924
3.28947	1090382
3.29760	2641001
3.30572	4574646
3.31383	5179716
3.32197	4184932
3.33008	3107338
3.33822	2382156
3.34633	1946584
3.35445	1636812
3.36258	1408639
3.37070	1388521
3.37883	1509460
3.38695	1515662
3.39507	1341228
3.40320	1636976
3.41132	2896749
3.41943	3968708
3.42757	3253088
3.43568	2042921
3.44382	1360943
3.45193	1034862
3.46005	884612
3.46818	774523
3.47630	726966
3.48443	652818
3.49255	606802
3.50067	539696
3.50880	504138
3.51692	490573
3.52505	494331
3.53317	478823
3.54128	472678
3.54942	455661
3.55753	424497
3.56565	410567
3.57378	393250
3.58190	373770
3.59003	366986
3.59815	370843
3.60627	356458
3.61440	446910
3.62252	860456
3.63065	1800418
3.63877	2525623
3.64688	2122317
3.65502	1426028
3.66313	1420728
3.67127	3321494
3.67938	6413298
3.68750	6822016
3.69563	4534841
3.70375	2718646
3.71187	1958351
3.72000	1544376
3.72812	1333758
3.73625	1180575
3.74437	1081960
3.75248	989776
3.76062	925220
3.76873	912937
3.77687	880807
3.78498	821341
3.79310	795415
3.80123	822195
3.80935	1136559
3.81747	1501827
3.82560	1466778
3.83372	1125446
3.84185	878578
3.84997	752118
3.85808	677698
3.86622	614937
3.87433	571245
3.88247	542792
3.89058	520770
3.89870	492418
3.90683	483616
3.91495	518456
3.92308	619001
3.93120	753333
3.93932	740225
3.94745	706670
3.95557	889916
3.96368	1257764
3.97182	1426760
3.97993	1144406
3.98807	820183
3.99618	883617
4.00430	1600650
4.01243	2727528
4.02055	2936365
4.02868	2175982
4.03680	1359518
4.04492	891336
4.05305	689676
4.06117	585838
4.06930	519630
4.07742	463116
4.08553	432822
4.09367	406535
4.10178	388147
4.10990	352996
4.11803	348569
4.12615	368033
4.13428	583233
4.14240	1463414
4.15052	2632115
4.15865	2930517
4.16677	2235986
4.17490	1505028
4.18302	1103726
4.19113	843200
4.19927	689762
4.20738	743165
4.21550	1774600
4.22363	5248694
4.23175	1.049193E+07
4.23988	1.388285E+07
4.24800	1.279897E+07
4.25612	8685831
4.26425	5248982
4.27237	3441059
4.28050	2417266
4.28862	1787163
4.29673	1390450
4.30487	1151842
4.31298	970265
4.32112	854876
4.32923	757189
4.33735	689824
4.34548	660250
4.35360	655103
4.36172	639596
4.36985	600117
4.37797	542076
4.38610	479881
4.39422	439884
4.40233	428348
4.41047	400870
4.41858	390160
4.42672	375463
4.43483	356673
4.44295	357567
4.45108	358805
4.45920	352448
4.46732	362228
4.47545	333188
4.48357	320087
4.49170	318853
4.49982	296313
4.50793	294473
4.51607	290499
4.52418	279137
4.53232	279476
4.54043	270360
4.54855	271229
4.55668	266220
4.56480	253087
4.57293	251251
4.58105	241872
4.58917	243439
4.59730	240178
4.60542	240844
4.61353	247832
4.62167	298082
4.62978	427593
4.63792	619125
4.64603	710996
4.65415	626518
4.66228	475951
4.67040	382228
4.67853	329726
4.68665	309819
4.69477	286412
4.70290	265001
4.71102	250613
4.71915	241273
4.72727	233827
4.73538	225359
4.74352	220472
4.75163	218338
4.75975	209414
4.76788	207419
4.77600	208909
4.78413	214171
4.79225	235074
4.80037	295939
4.80850	337253
4.81662	325700
4.82475	294902
4.83287	268083
4.84098	263494
4.84912	262756
4.85723	253729
4.86535	234792
4.87348	227075
4.88160	220244
4.88973	206368
4.89785	208499
4.90597	215883
4.91410	251822
4.92222	390745
4.93035	670139
4.93847	1029651
4.94658	1288514
4.95472	1280214
4.96283	1102111
4.97097	897483
4.97908	731194
4.98720	613768
4.99533	543236
5.00345	495134
5.01157	449787
5.01970	475178
5.02782	651766
5.03595	960812
5.04407	1187599
5.05218	1142167
5.06032	906154
5.06843	737183
5.07657	612280
5.08468	561430
5.09280	528877
5.10093	518572
5.10905	554566
5.11718	557321
5.12530	521272
5.13342	477124
5.14155	452217
5.14967	423500
5.15778	437111
5.16592	483045
5.17403	516816
5.18217	546050
5.19028	542310
5.19840	520653
5.20653	491519
5.21465	464552
5.22278	424157
5.23090	401921
5.23902	374959
5.24715	356543
5.25527	338622
5.26338	308192
5.27152	277920
5.27963	278750
5.28777	278343
5.29588	260743
5.30400	257353
5.31213	248744
5.32025	245670
5.32838	246712
5.33650	254165
5.34462	262123
5.35275	247801
5.36087	236783
5.36900	235820
5.37712	232294
5.38523	241046
5.39337	235164
5.40148	234382
5.40960	236868
5.41773	229405
5.42585	207908
5.43398	208763
5.44210	209213
5.45022	209672
5.45835	203278
5.46647	205951
5.47460	200894
5.48272	190079
5.49083	193366
5.49897	185964
5.50708	188680
5.51522	177428
5.52333	182700
5.53145	182697
5.53958	179419
5.54770	183114
5.55582	195713
5.56395	224199
5.57207	248744
5.58020	241486
5.58832	234601
5.59643	219728
5.60457	197006
5.61268	189330
5.62082	191141
5.62893	186594
5.63705	188989
5.64518	177379
5.65330	178147
5.66142	175585
5.66955	174412
5.67767	195578
5.68580	207801
5.69392	242038
5.70203	248988
5.71017	241219
5.71828	247431
5.72642	251421
5.73453	239651
5.74265	226507
5.75078	225232
5.75890	228599
5.76703	233447
5.77515	234912
5.78327	230602
5.79140	222510
5.79952	261912
5.80763	370432
5.81577	598178
5.82388	947453
5.83202	1212344
5.84013	1184554
5.84825	955033
5.85638	672497
5.86450	487065
5.87263	359702
5.88075	302095
5.88887	269406
5.89700	266494
5.90512	287466
5.91323	361907
5.92137	472229
5.92948	580948
5.93762	569151
5.94573	507336
5.95385	433302
5.96198	442225
5.97010	524817
5.97823	683131
5.98635	759172
5.99447	692438
6.00260	531577
6.01072	388520
6.01885	305656
6.02697	261482
6.03508	233840
6.04322	216240
6.05133	199055
6.05945	185861
6.06758	176889
6.07570	180456
6.08383	167529
6.09195	161212
6.10007	157641
6.10820	155446
6.11632	161891
6.12445	203149
6.13257	294740
6.14068	414474
6.14882	495685
6.15693	443758
6.16507	369316
6.17318	286618
6.18130	253389
6.18943	237443
6.19755	241569
6.20567	248442
6.21380	230190
6.22192	222676
6.23005	204276
6.23817	198333
6.24628	201643
6.25442	203720
6.26253	204019
6.27067	195803
6.27878	196502
6.28690	202773
6.29503	200746
6.30315	192264
6.31127	194837
6.31940	205483
6.32752	214135
6.33565	232930
6.34377	232455
6.35188	227923
6.36002	221104
6.36813	216159
6.37627	225790
6.38438	217109
6.39250	219815
6.40063	213642
6.40875	216387
6.41688	206134
6.42500	212988
6.43312	222850
6.44125	227244
6.44937	219853
6.45748	218616
6.46562	225758
6.47373	219017
6.48187	221624
6.48998	227398
6.49810	233654
6.50623	222656
6.51435	234832
6.52248	239503
6.53060	238298
6.53872	236081
6.54685	248304
6.55497	247033
6.56310	259500
6.57122	278261
6.57933	310496
6.58747	301616
6.59558	285272
6.60370	275493
6.61183	262428
6.61995	221403
6.62808	177693
6.63620	165867
6.64432	167436
6.65245	216657
6.66057	340961
6.66870	475578
6.67682	541348
6.68493	465162
6.69307	345047
6.70118	271490
6.70930	252266
6.71743	242461
6.72555	226810
6.73368	189731
6.74180	158199
6.74992	138864
6.75805	135253
6.76617	128065
6.77430	123621
6.78242	115410
6.79053	108001
6.79867	116049
6.80678	123206
6.81492	157078
6.82303	227700
6.83115	349163
6.83928	533995
6.84740	685585
6.85552	745079
6.86365	654037
6.87177	476143
6.87990	322693
6.88802	224153
6.89613	167464
6.90427	140124
6.91238	122703
6.92052	113721
6.92863	105530
6.93675	98652
6.94488	101420
6.95300	102055
6.96112	107569
6.96925	128001
6.97737	169134
6.98550	221984
6.99362	279245
7.00173	313029
7.00987	324920
7.01798	287784
7.02612	235895
7.03423	190426
7.04235	146973
7.05048	128284
7.05860	110688
7.06673	100692
7.07485	102880
7.08297	105943
7.09110	104314
7.09922	108510
7.10733	106381
7.11547	104189
7.12358	101328
7.13172	99263
7.13983	105314
7.14795	112701
7.15608	128012
7.16420	153038
7.17233	216539
7.18045	389759
7.18857	779080
7.19670	1154064
7.20482	1332050
7.21295	1084624
7.22107	704980
7.22918	431501
7.23732	286580
7.24543	220198
7.25355	189002
7.26168	172980
7.26980	162288
7.27793	146773
7.28605	139307
7.29417	135392
7.30230	141898
7.31042	135745
7.31855	127906
7.32667	122151
7.33478	127082
7.34292	131136
7.35103	152681
7.35915	186550
7.36728	227159
7.37540	245085
7.38353	235987
7.39165	214353
7.39977	173591
7.40790	149272
7.41602	128281
7.42415	115172
7.43227	107876
7.44038	101790
7.44852	113612
7.45663	121428
7.46477	139255
7.47288	165189
7.48100	168407
7.48913	174923
7.49725	155730
7.50537	140458
7.51350	115468
7.52162	104318
7.52975	108895
7.53787	109246
7.54598	129957
7.55412	160330
7.56223	205760
7.57037	265967
7.57848	314428
7.58660	317571
7.59473	288810
7.60285	237154
7.61098	185162
7.61910	149090
7.62722	124069
7.63535	108676
7.64347	102586
7.65158	103041
7.65972	99836
7.66783	93050
7.67597	92524
7.68408	86378
7.69220	84391
7.70033	85736
7.70845	86566
7.71658	86959
7.72470	88664
7.73282	92881
7.74095	80051
7.74907	79492
7.75718	83205
7.76532	79474
7.77343	75158
7.78157	74665
7.78968	78502
7.79780	77365
7.80593	79091
7.81405	82344
7.82218	85657
7.83030	77241
7.83842	77726
7.84655	73832
7.85467	70542
7.86280	78019
7.87092	77906
7.87903	83299
7.88717	87670
7.89528	91661
7.90340	91637
7.91153	85841
7.91965	87126
7.92778	89005
7.93590	99332
7.94402	111697
7.95215	110343
7.96027	102238
7.96840	90729
7.97652	84017
7.98463	78752
7.99277	70649
8.00088	70455
8.00900	69818
8.01713	71555
8.02525	66573
8.03338	67033
8.04150	64783
8.04962	66194
8.05775	62866
8.06587	61210
8.07400	65755
8.08212	62131
8.09023	64950
8.09837	68148
8.10648	61414
8.11462	62764
8.12273	62256
8.13085	64240
8.13898	68458
8.14710	68718
8.15522	77965
8.16335	79312
8.17147	73439
8.17960	68951
8.18772	64658
8.19583	61733
8.20397	62037
8.21208	64812
8.22022	60700
8.22833	59432
8.23645	61879
8.24458	62369
8.25270	59041
8.26083	59370
8.26895	59165
8.27707	55516
8.28520	60007
8.29332	60649
8.30143	55575
8.30957	53229
8.31768	55706
8.32582	59056
8.33393	57847
8.34205	58623
8.35018	56828
8.35830	56095
8.36643	57883
8.37455	53266
8.38267	54648
8.39080	54471
8.39892	53917
8.40705	55518
8.41517	55422
8.42328	52583
8.43142	50087
8.43953	50948
8.44765	50086
8.45578	50345
8.46390	49377
8.47203	51146
8.48015	54670
8.48827	51014
8.49640	57012
8.50452	69831
8.51265	104676
8.52077	163831
8.52888	215049
8.53702	225871
8.54513	198914
8.55325	142784
8.56138	103893
8.56950	83613
8.57763	74386
8.58575	69411
8.59387	65580
8.60200	63801
8.61012	63647
8.61825	63329
8.62637	62522
8.63448	61855
8.64262	60214
8.65073	55706
8.65887	57529
8.66698	57528
8.67510	54503
8.68323	55850
8.69135	57887
8.69947	59826
8.70760	57077
8.71572	69945
8.72385	89424
8.73197	134903
8.74008	191686
8.74822	238931
8.75633	243510
8.76447	209784
8.77258	165999
8.78070	137934
8.78883	118041
8.79695	111733
8.80507	107722
8.81320	103934
8.82132	95127
8.82945	94713
8.83757	90294
8.84568	89694
8.85382	83921
8.86193	82230
8.87007	84997
8.87818	76318
8.88630	77745
8.89443	72911
8.90255	69937
8.91068	63797
8.91880	71863
8.92692	77889
8.93505	76001
8.94317	80091
8.95128	74738
8.95942	66642
8.96753	66255
8.97567	71171
8.98378	69729
8.99190	72289
9.00003	71401
9.00815	63912
9.01628	61639
9.02440	61137
9.03252	60907
9.04065	63698
9.04877	58886
9.05690	59503
9.06502	54585
9.07313	62286
9.08127	58783
9.08938	56883
9.09750	62091
9.10563	66935
9.11375	73394
9.12188	77186
9.13000	76442
9.13812	69860
9.14625	66562
9.15437	63315
9.16250	64002
9.17062	52947
9.17873	54623
9.18687	51952
9.19498	52254
9.20310	54101
9.21123	49857
9.21935	50944
9.22748	54960
9.23560	55346
9.24372	53237
9.25185	52245
9.25997	49052
9.26810	49936
9.27622	51944
9.28433	46273
9.29247	50513
9.30058	47691
9.30872	46826
9.31683	50771
9.32495	49323
9.33308	55021
9.34120	52107
9.34932	53342
9.35745	54080
9.36557	53185
9.37370	45282
9.38182	47699
9.38993	46904
9.39807	43633
9.40618	47709
9.41432	50868
9.42243	62887
9.43055	69209
9.43868	82504
9.44680	84034
9.45493	80511
9.46305	71180
9.47117	66709
9.47930	60043
9.48742	57966
9.49553	54272
9.50367	56659
9.51178	57514
9.51992	58283
9.52803	57723
9.53615	54905
9.54428	55611
9.55240	47766
9.56053	48384
9.56865	45110
9.57677	38023
9.58490	43533
9.59302	38845
9.60113	40660
9.60927	39290
9.61738	39337
9.62552	39280
9.63363	39134
9.64175	35451
9.64988	34859
9.65800	37926
9.66613	36414
9.67425	39052
9.68237	36554
9.69050	38158
9.69862	38650
9.70675	35788
9.71487	35603
9.72298	34984
9.73112	34925
9.73923	34665
9.74735	33972
9.75548	35446
9.76360	32881
9.77173	34250
9.77985	36063
9.78797	34711
9.79610	32277
9.80422	32297
9.81235	34492
9.82047	32495
9.82858	36475
9.83672	35678
9.84483	38064
9.85295	40953
9.86108	40020
9.86920	37101
9.87733	37589
9.88545	36734
9.89357	34079
9.90170	33011
9.90982	39335
9.91795	31985
9.92607	37479
9.93418	41220
9.94232	47119
9.95043	49558
9.95857	51816
9.96668	52984
9.97480	55893
9.98293	53331
9.99105	50113
9.99917	46033
10.00730	45148
10.01542	41545
10.02355	38431
10.03167	39191
10.03978	43031
10.04792	43669
10.05603	36691
10.06417	39170
10.07228	39496
10.08040	38537
10.08853	37016
10.09665	41581
10.10478	36986
10.11290	36414
10.12102	35167
10.12915	36183
10.13727	35509
10.14538	32657
10.15352	35621
10.16163	33886
10.16977	31846
10.17788	36418
10.18600	32947
10.19413	30715
10.20225	30329
10.21038	33876
10.21850	33895
10.22662	39421
10.23475	37720
10.24287	50729
10.25098	64871
10.25912	115354
10.26723	240315
10.27537	474244
10.28348	848627
10.29160	1385654
10.29973	2164591
10.30785	3282231
10.31598	4700653
10.32410	5504475
10.33222	5109120
10.34035	3755469
10.34847	2390431
10.35660	1595282
10.36472	1187300
10.37283	1054017
10.38097	917047
10.38908	757989
10.39720	574697
10.40533	383913
10.41345	292216
10.42158	242595
10.42970	212454
10.43782	193564
10.44595	176292
10.45407	159430
10.46220	144785
10.47032	129431
10.47843	121269
10.48657	106745
10.49468	107582
10.50282	103467
10.51093	99116
10.51905	96388
10.52718	95097
10.53530	92432
10.54342	82086
10.55155	83135
10.55967	77961
10.56780	85950
10.57592	78172
10.58403	73251
10.59217	74434
10.60028	73920
10.60842	68517
10.61653	68269
10.62465	66888
10.63278	66221
10.64090	62412
10.64902	61389
10.65715	59151
10.66527	55921
10.67340	54530
10.68152	55913
10.68963	58840
10.69777	59088
10.70588	56090
10.71402	62168
10.72213	61064
10.73025	61566
10.73838	57047
10.74650	52549
10.75463	52115
10.76275	53931
10.77087	54549
10.77900	53432
10.78712	53242
10.79523	51517
10.80337	49571
10.81148	53567
10.81962	55252
10.82773	46850
10.83585	47555
10.84398	48561
10.85210	46915
10.86023	44627
10.86835	44709
10.87647	48917
10.88460	40714
10.89272	41673
10.90085	46516
10.90897	43484
10.91708	42052
10.92522	43665
10.93333	39983
10.94145	43906
10.94958	42721
10.95770	46802
10.96583	41896
10.97395	42413
10.98207	42945
10.99020	42389
10.99832	42125
11.00645	44318
11.01457	43404
11.02268	42927
11.03082	44437
11.03893	41871
11.04705	47925
11.05518	38695
11.06330	40646
11.07143	45083
11.07955	44237
11.08767	45450
11.09580	44799
11.10392	48297
11.11205	45459
11.12017	44642
11.12828	45719
11.13642	46535
11.14453	50765
11.15267	48339
11.16078	45254
11.16890	41772
11.17703	43582
11.18515	44205
11.19327	45844
11.20140	46870
11.20952	42961
11.21765	44328
11.22577	44786
11.23388	39791
11.24202	38810
11.25013	38626
11.25827	44024
11.26638	49600
11.27450	62830
11.28263	84793
11.29075	103315
11.29887	115839
11.30700	140321
11.31512	177368
11.32325	255450
11.33137	384553
11.33948	532112
11.34762	645274
11.35573	685847
11.36387	603389
11.37198	471859
11.38010	354389
11.38823	273410
11.39635	221981
11.40448	187007
11.41260	157368
11.42072	141227
11.42885	115875
11.43697	106707
11.44508	98939
11.45322	87747
11.46133	83821
11.46947	83239
11.47758	87758
11.48570	94273
11.49383	93701
11.50195	99062
11.51008	95768
11.51820	95464
11.52632	92883
11.53445	89879
11.54257	92161
11.55070	94738
11.55882	82654
11.56693	84320
11.57507	77038
11.58318	79100
11.59130	79106
11.59943	84408
11.60755	90816
11.61568	89256
11.62380	85872
11.63192	73118
11.64005	65438
11.64817	64607
11.65630	61280
11.66442	55401
11.67253	61372
11.68067	61358
11.68878	58242
11.69690	68678
11.70503	72647
11.71315	77197
11.72128	76702
11.72940	74201
11.73752	72390
11.74565	73028
11.75377	66814
11.76190	66074
11.77002	59769
11.77813	61019
11.78627	56142
11.79438	55925
11.80252	54051
11.81063	53653
11.81875	48243
11.82688	46548
11.83500	48552
11.84312	47099
11.85125	45978
11.85937	43262
11.86750	44454
11.87562	42329
11.88373	45309
11.89187	46076
11.89998	43253
11.90812	46545
11.91623	51471
11.92435	53762
11.93248	56387
11.94060	61658
11.94873	58646
11.95685	59695
11.96497	54184
11.97310	53531
11.98122	53792
11.98933	55644
11.99747	57828
12.00558	63374
12.01372	62784
12.02183	54996
12.02995	49788
12.03808	46780
12.04620	44053
12.05433	44803
12.06245	44051
12.07057	44576
12.07870	49450
12.08682	48057
12.09493	50865
12.10307	49749
12.11118	46408
12.11932	48773
12.12743	48099
12.13555	47006
12.14368	46918
12.15180	46926
12.15993	45392
12.16805	40670
12.17617	41614
12.18430	39543
12.19242	39647
12.20055	37982
12.20867	39302
12.21678	39874
12.22492	38693
12.23303	37758
12.24115	34279
12.24928	39420
12.25740	35299
12.26553	35570
12.27365	40914
12.28177	36325
12.28990	37159
12.29802	37136
12.30615	35669
12.31427	36940
12.32238	35032
12.33052	35899
12.33863	30397
12.34675	37174
12.35488	35863
12.36300	34188
12.37113	39164
12.37925	38198
12.38737	45978
12.39550	62149
12.40362	79540
12.41175	102060
12.41987	107315
12.42798	100836
12.43612	89812
12.44423	70246
12.45237	60623
12.46048	49055
12.46860	49923
12.47673	42235
12.48485	42926
12.49297	41088
12.50110	41737
12.50922	36648
12.51735	38644
12.52547	43394
12.53358	45120
12.54172	57259
12.54983	69082
12.55797	75322
12.56608	76116
12.57420	70214
12.58233	57817
12.59045	51133
12.59858	47542
12.60670	43938
12.61482	42295
12.62295	39176
12.63107	39874
12.63918	36339
12.64732	36300
12.65543	36631
12.66357	39016
12.67168	32300
12.67980	35061
12.68793	33622
12.69605	36109
12.70418	33486
12.71230	30987
12.72042	32609
12.72855	32831
12.73667	35742
12.74478	33991
12.75292	35886
12.76103	34613
12.76917	35030
12.77728	36867
12.78540	40591
12.79353	41907
12.80165	39622
12.80978	42123
12.81790	39386
12.82602	37182
12.83415	36786
12.84227	36201
12.85040	35870
12.85852	37910
12.86663	33750
12.87477	29116
12.88288	36437
12.89100	34219
12.89913	35568
12.90725	34008
12.91538	34001
12.92350	30154
12.93162	35882
12.93975	43927
12.94787	53616
12.95600	72353
12.96412	87937
12.97223	102433
12.98037	107826
12.98848	105981
12.99662	100139
13.00473	89066
13.01285	80442
13.02098	77216
13.02910	64044
13.03722	65561
13.04535	61269
13.05347	54146
13.06160	50845
13.06972	47844
13.07783	45771
13.08597	42370
13.09408	43358
13.10222	42318
13.11033	42112
13.11845	37208
13.12658	42872
13.13470	40861
13.14282	39498
13.15095	41896
13.15907	37918
13.16720	39812
13.17532	38595
13.18343	38341
13.19157	37200
13.19968	35779
13.20782	34717
13.21593	38027
13.22405	35668
13.23218	38955
13.24030	39351
13.24843	41989
13.25655	49866
13.26467	47223
13.27280	49086
13.28092	47426
13.28903	49165
13.29717	50245
13.30528	51168
13.31342	49747
13.32153	49563
13.32965	51282
13.33778	51752
13.34590	45334
13.35403	49103
13.36215	44055
13.37027	40931
13.37840	41652
13.38652	37767
13.39463	37899
13.40277	37847
13.41088	41437
13.41902	34346
13.42713	35189
13.43525	38055
13.44338	33572
13.45150	34248
13.45963	37234
13.46775	34042
13.47587	33476
13.48400	36651
13.49212	38979
13.50025	38869
13.50837	34139
13.51648	35526
13.52462	36727
13.53273	36080
13.54085	38197
13.54898	39756
13.55710	42285
13.56523	44082
13.57335	47090
13.58147	49259
13.58960	56327
13.59772	65299
13.60585	79933
13.61397	92809
13.62208	96107
13.63022	105510
13.63833	91344
13.64647	79570
13.65458	69376
13.66270	63361
13.67083	60883
13.67895	57826
13.68707	53445
13.69520	49106
13.70332	47623
13.71145	49902
13.71957	45164
13.72768	50560
13.73582	49092
13.74393	65679
13.75207	73995
13.76018	112384
13.76830	144455
13.77643	161711
13.78455	173464
13.79268	162285
13.80080	146389
13.80892	137827
13.81705	146453
13.82517	166563
13.83328	171318
13.84142	167490
13.84953	163901
13.85767	133026
13.86578	124264
13.87390	101883
13.88203	92593
13.89015	81810
13.89828	79724
13.90640	84718
13.91452	84646
13.92265	72402
13.93077	72827
13.93888	64967
13.94702	63654
13.95513	65776
13.96327	58534
13.97138	59486
13.97950	57090
13.98763	61824
13.99575	58881
14.00388	60116
14.01200	54897
14.02012	56685
14.02825	55124
14.03637	60704
14.04450	53938
14.05262	49075
14.06073	52033
14.06887	47961
14.07698	48410
14.08510	46927
14.09323	43955
14.10135	41399
14.10948	40459
14.11760	48232
14.12572	56338
14.13385	70761
14.14197	87103
14.15010	107776
14.15822	113572
14.16633	110410
14.17447	99463
14.18258	87386
14.19070	84859
14.19883	74264
14.20695	70125
14.21508	70312
14.22320	71955
14.23132	60826
14.23945	63233
14.24757	56556
14.25570	59244
14.26382	55260
14.27193	52976
14.28007	47933
14.28818	45524
14.29632	45339
14.30443	44579
14.31255	39427
14.32068	37021
14.32880	37931
14.33692	38034
14.34505	32536
14.35317	37967
14.36130	37291
14.36942	36541
14.37753	36193
14.38567	42971
14.39378	54674
14.40192	79943
14.41003	98876
14.41815	113301
14.42628	115844
14.43440	102193
14.44253	82055
14.45065	70924
14.45877	57920
14.46690	50145
14.47502	44641
14.48313	44695
14.49127	41327
14.49938	45230
14.50752	38664
14.51563	41241
14.52375	44023
14.53188	39892
14.54000	36321
14.54813	37506
14.55625	36720
14.56437	37357
14.57250	36090
14.58062	38853
14.58873	34455
14.59687	33950
14.60498	34495
14.61312	34752
14.62123	33080
14.62935	33979
14.63748	32520
14.64560	32129
14.65373	31947
14.66185	27630
14.66997	32005
14.67810	34267
14.68622	32967
14.69435	34592
14.70247	31409
14.71058	32419
14.71872	30600
14.72683	33190
14.73495	34285
14.74308	39637
14.75120	31087
14.75933	35109
14.76745	30736
14.77557	38736
14.78370	45780
14.79182	76139
14.79995	148994
14.80807	286550
14.81618	526420
14.82432	790718
14.83243	930237
14.84057	837990
14.84868	608652
14.85680	395301
14.86493	258373
14.87305	183030
14.88117	143644
14.88930	116404
14.89742	103003
14.90555	90592
14.91367	81627
14.92178	80108
14.92992	80023
14.93803	71810
14.94617	64376
14.95428	62787
14.96240	62081
14.97053	60195
14.97865	57197
14.98677	52946
14.99490	53555
15.00302	50697
15.01115	51881
15.01927	48570
15.02738	47314
15.03552	49384
15.04363	46863
15.05177	48044
15.05988	46909
15.06800	42647
15.07613	43852
15.08425	40094
15.09238	39137
15.10050	39246
15.10862	44212
15.11675	39398
15.12487	42622
15.13298	45058
15.14112	43482
15.14923	43284
15.15737	40496
15.16548	42214
15.17360	37241
15.18173	37034
15.18985	38382
15.19798	37693
15.20610	34490
15.21422	32544
15.22235	33818
15.23047	35297
15.23858	35912
15.24672	33511
15.25483	29892
15.26297	32606
15.27108	33201
15.27920	33774
15.28733	29627
15.29545	33390
15.30358	34606
15.31170	30544
15.31982	32151
15.32795	29733
15.33607	30099
15.34420	31751
15.35232	30643
15.36043	33516
15.36857	31657
15.37668	31383
15.38480	32095
15.39293	28649
15.40105	31766
15.40918	30979
15.41730	29376
15.42542	33583
15.43355	34546
15.44167	27743
15.44980	29219
15.45792	39469
15.46603	45818
15.47417	55011
15.48228	76245
15.49042	98077
15.49853	121282
15.50665	129427
15.51478	127108
15.52290	113837
15.53102	99861
15.53915	83413
15.54727	73020
15.55540	63760
15.56352	55921
15.57163	54434
15.57977	49444
15.58788	43232
15.59602	45599
15.60413	43159
15.61225	40302
15.62038	41999
15.62850	36579
15.63662	42324
15.64475	39990
15.65287	34848
15.66100	34124
15.66912	33692
15.67723	33726
15.68537	34546
15.69348	32137
15.70162	35649
15.70973	31901
15.71785	34178
15.72598	33173
15.73410	32120
15.74223	36835
15.75035	40651
15.75847	43940
15.76660	55384
15.77472	66478
15.78283	81520
15.79097	82007
15.79908	76806
15.80722	64812
15.81533	52930
15.82345	44869
15.83158	44307
15.83970	40098
15.84783	39208
15.85595	39546
15.86407	37424
15.87220	40595
15.88032	36078
15.88845	38777
15.89657	39777
15.90468	36011
15.91282	36607
15.92093	35338
15.92905	31082
15.93718	31442
15.94530	35757
15.95343	34778
15.96155	33240
15.96967	34991
15.97780	40628
15.98592	40487
15.99405	40013
16.00217	40583
16.01028	41672
16.01842	45115
16.02653	43389
16.03465	37973
16.04278	35958
16.05090	35737
16.05903	35056
16.06715	33943
16.07527	32584
16.08340	28552
16.09152	33318
16.09965	33018
16.10777	35147
16.11588	32892
16.12402	32926
16.13213	33066
16.14027	34109
16.14838	34232
16.15650	32146
16.16463	35392
16.17275	35711
16.18087	33060
16.18900	31508
16.19712	31302
16.20525	33262
16.21337	31376
16.22148	31883
16.22962	31951
16.23773	31794
16.24587	30850
16.25398	33784
16.26210	29663
16.27023	29579
16.27835	29977
16.28647	34597
16.29460	35686
16.30272	35431
16.31085	33513
16.31897	32918
16.32708	34300
16.33522	33634
16.34333	30945
16.35147	34376
16.35958	34448
16.36770	33031
16.37583	36420
16.38395	37885
16.39208	34799
16.40020	32041
16.40832	35809
16.41645	31692
16.42457	33864
16.43268	33097
16.44082	34661
16.44893	42840
16.45707	55807
16.46518	74803
16.47330	88205
16.48143	96622
16.48955	90970
16.49768	79708
16.50580	61558
16.51392	55294
16.52205	49358
16.53017	41983
16.53830	40092
16.54642	38204
16.55453	42446
16.56267	36563
16.57078	37341
16.57890	38850
16.58703	39381
16.59515	35766
16.60328	37390
16.61140	41009
16.61952	37666
16.62765	35120
16.63577	38509
16.64390	35207
16.65202	32393
16.66013	34066
16.66827	31451
16.67638	32116
16.68450	37420
16.69263	33362
16.70075	33517
16.70888	32681
16.71700	35313
16.72512	30744
16.73325	30698
16.74137	32728
16.74950	33057
16.75762	32079
16.76573	33124
16.77387	32308
16.78198	31293
16.79012	29268
16.79823	30309
16.80635	29661
16.81448	29274
16.82260	32265
16.83072	31470
16.83885	33301
16.84697	32160
16.85510	30862
16.86322	33249
16.87133	32150
16.87947	33010
16.88758	30015
16.89572	28857
16.90383	28093
16.91195	31065
16.92008	31725
16.92820	36036
16.93633	29772
16.94445	33126
16.95257	31316
16.96070	31458
16.96882	26324
16.97693	30607
16.98507	28383
16.99318	30592
17.00132	28079
17.00943	30439
17.01755	31059
17.02568	31675
17.03380	35327
17.04193	34230
17.05005	32308
17.05817	31039
17.06630	33389
17.07442	34742
17.08253	38213
17.09067	39409
17.09878	46103
17.10692	52547
17.11503	52023
17.12315	53523
17.13128	52628
17.13940	48397
17.14753	47434
17.15565	45894
17.16377	37609
17.17190	39095
17.18002	34377
17.18815	34153
17.19627	34792
17.20438	32733
17.21252	33982
17.22063	28509
17.22875	32313
17.23688	33038
17.24500	32019
17.25313	31977
17.26125	31912
17.26937	32497
17.27750	29353
17.28562	31419
17.29375	30279
17.30187	31542
17.30998	34247
17.31812	30818
17.32623	34730
17.33437	31437
17.34248	37495
17.35060	38550
17.35873	39516
17.36685	38254
17.37497	42994
17.38310	40484
17.39122	43137
17.39935	39577
17.40747	39860
17.41558	43445
17.42372	39030
17.43183	43602
17.43997	43018
17.44808	37801
17.45620	37791
17.46433	39683
17.47245	35016
17.48057	33305
17.48870	32765
17.49682	36940
17.50495	37302
17.51307	38255
17.52118	40640
17.52932	45957
17.53743	49132
17.54557	50617
17.55368	51723
17.56180	62589
17.56993	68563
17.57805	79182
17.58618	98355
17.59430	109623
17.60242	113569
17.61055	115884
17.61867	104052
17.62678	87689
17.63492	69755
17.64303	62299
17.65117	58746
17.65928	52456
17.66740	56263
17.67553	51663
17.68365	53141
17.69178	51251
17.69990	52245
17.70802	48198
17.71615	47346
17.72427	49003
17.73238	45014
17.74052	45206
17.74863	45341
17.75677	43583
17.76488	39012
17.77300	46918
17.78113	41441
17.78925	41268
17.79738	40611
17.80550	34368
17.81362	34251
17.82175	37132
17.82987	40115
17.83800	46938
17.84612	44535
17.85423	47693
17.86237	47518
17.87048	50174
17.87860	45348
17.88673	41112
17.89485	41604
17.90298	35341
17.91110	36383
17.91922	34471
17.92735	35590
17.93547	32643
17.94360	33982
17.95172	32865
17.95983	36347
17.96797	31808
17.97608	33081
17.98422	32766
17.99233	34155
18.00045	34755
18.00858	38499
18.01670	46351
18.02482	49662
18.03295	50576
18.04107	55576
18.04920	55653
18.05732	65700
18.06543	85306
18.07357	140365
18.08168	216890
18.08982	291455
18.09793	347749
18.10605	359759
18.11418	295127
18.12230	209883
18.13042	156653
18.13855	121263
18.14667	101731
18.15480	94008
18.16292	83645
18.17103	75781
18.17917	72754
18.18728	68318
18.19542	65467
18.20353	66913
18.21165	76094
18.21978	100900
18.22790	123039
18.23603	142242
18.24415	145674
18.25227	154613
18.26040	153814
18.26852	162829
18.27663	163453
18.28477	162682
18.29288	163440
18.30102	164852
18.30913	164347
18.31725	163920
18.32538	162078
18.33350	157829
18.34163	160177
18.34975	155939
18.35787	153372
18.36600	147587
18.37412	151982
18.38225	149126
18.39037	150693
18.39848	153417
18.40662	146798
18.41473	152739
18.42285	149855
18.43098	157013
18.43910	155364
18.44723	156082
18.45535	155936
18.46347	169245
18.47160	171024
18.47972	163334
18.48785	157060
18.49597	147279
18.50408	142468
18.51222	138016
18.52033	122073
18.52845	121645
18.53658	117864
18.54470	113894
18.55283	110957
18.56095	112246
18.56907	109058
18.57720	112389
18.58532	111609
18.59345	111919
18.60157	108745
18.60968	115970
18.61782	112509
18.62593	106831
18.63407	108253
18.64218	99551
18.65030	101265
18.65843	96174
18.66655	92801
18.67467	92146
18.68280	92077
18.69092	88440
18.69905	89308
18.70717	85830
18.71528	84674
18.72342	81427
18.73153	78357
18.73967	77558
18.74778	80261
18.75590	79309
18.76403	78953
18.77215	72575
18.78027	75806
18.78840	78750
18.79652	76441
18.80465	70972
18.81277	72287
18.82088	68286
18.82902	67222
18.83713	69366
18.84527	66819
18.85338	68314
18.86150	73501
18.86963	67087
18.87775	71972
18.88588	65585
18.89400	68262
18.90212	68915
18.91025	65176
18.91837	64669
18.92648	70478
18.93462	67467
18.94273	66772
18.95087	67435
18.95898	66411
18.96710	64314
18.97523	64397
18.98335	61247
18.99148	59913
18.99960	58994
19.00772	61215
19.01585	57772
19.02397	56638
19.03210	55895
19.04022	52332
19.04833	51725
19.05647	55572
19.06458	53684
19.07270	53846
19.08083	63081
19.08895	64696
19.09708	70928
19.10520	67121
19.11332	62042
19.12145	63958
19.12957	70202
19.13770	62854
19.14582	68696
19.15393	67624
19.16207	67708
19.17018	63318
19.17830	62162
19.18643	60328
19.19455	60653
19.20268	53228
19.21080	52977
19.21892	52295
19.22705	45056
19.23517	45632
19.24330	49439
19.25142	46576
19.25953	49291
19.26767	49098
19.27578	47363
19.28392	53131
19.29203	50129
19.30015	51337
19.30828	47994
19.31640	47069
19.32452	50610
19.33265	50366
19.34077	50001
19.34890	44883
19.35702	46839
19.36513	51296
19.37327	54865
19.38138	53936
19.38952	53404
19.39763	50793
19.40575	53701
19.41388	57616
19.42200	60360
19.43013	71661
19.43825	81907
19.44637	86639
19.45450	86642
19.46262	83080
19.47073	70875
19.47887	61213
19.48698	52550
19.49512	52888
19.50323	48373
19.51135	54077
19.51948	52643
19.52760	50532
19.53573	49481
19.54385	49960
19.55197	49971
19.56010	48025
19.56822	45486
19.57633	50156
19.58447	41978
19.59258	39933
19.60072	46491
19.60883	47819
19.61695	53226
19.62508	76447
19.63320	107513
19.64133	154862
19.64945	207196
19.65757	243840
19.66570	257061
19.67382	234092
19.68195	206234
19.69007	164679
19.69818	123948
19.70632	107510
19.71443	91188
19.72255	77744
19.73068	71392
19.73880	65618
19.74693	63712
19.75505	60923
19.76317	59881
19.77130	58212
19.77942	60318
19.78755	61921
19.79567	70792
19.80378	65369
19.81192	57848
19.82003	55605
19.82815	57171
19.83628	56377
19.84440	60563
19.85253	68833
19.86065	102234
19.86877	201349
19.87690	334280
19.88502	569802
19.89315	825033
19.90127	1057579
19.90938	1087007
19.91752	860326
19.92563	615037
19.93377	408276
19.94188	284207
19.95000	216408
19.95813	167882
19.96625	142337
19.97437	131007
19.98250	121313
19.99062	119164
19.99875	113957
20.00687	101423
20.01498	100426
20.02312	99128
20.03123	94686
20.03937	89723
20.04748	80803
20.05560	87465
20.06373	83974
20.07185	85359
20.07998	87544
20.08810	86959
20.09622	83239
20.10435	78269
20.11247	67298
20.12058	67073
20.12872	67246
20.13683	70156
20.14497	80028
20.15308	99210
20.16120	128621
20.16933	165927
20.17745	209474
20.18558	230510
20.19370	246343
20.20182	247686
20.20995	219753
20.21807	209472
20.22620	215058
20.23432	235975
20.24243	278046
20.25057	322688
20.25868	358544
20.26680	369675
20.27493	330546
20.28305	289668
20.29118	226114
20.29930	192916
20.30742	154465
20.31555	130445
20.32367	102203
20.33180	90611
20.33992	83189
20.34803	76190
20.35617	69588
20.36428	67865
20.37240	65739
20.38053	68129
20.38865	65965
20.39678	70689
20.40490	84156
20.41302	86045
20.42115	86408
20.42927	84802
20.43740	77543
20.44552	74590
20.45363	69556
20.46177	63024
20.46988	59003
20.47802	53979
20.48613	56101
20.49425	53224
20.50238	53324
20.51050	49332
20.51862	50969
20.52675	48289
20.53487	47736
20.54300	50272
20.55112	48342
20.55923	44300
20.56737	46426
20.57548	47714
20.58362	44224
20.59173	46059
20.59985	42340
20.60798	43209
20.61610	44569
20.62422	41452
20.63235	41290
20.64047	47968
20.64860	49457
20.65672	45739
20.66483	43511
20.67297	47995
20.68108	39942
20.68922	41972
20.69733	40403
20.70545	40239
20.71358	40436
20.72170	43268
20.72983	41699
20.73795	41090
20.74607	45317
20.75420	44670
20.76232	44696
20.77043	46576
20.77857	52092
20.78668	67897
20.79482	72402
20.80293	94354
20.81105	102383
20.81918	109148
20.82730	102905
20.83543	94040
20.84355	77381
20.85167	63229
20.85980	58454
20.86792	53230
20.87605	50711
20.88417	51417
20.89228	50221
20.90042	51723
20.90853	49614
20.91665	51225
20.92478	49332
20.93290	51089
20.94103	50114
20.94915	47571
20.95727	45070
20.96540	43762
20.97352	42688
20.98165	44642
20.98977	40545
20.99788	40018
21.00602	43172
21.01413	42353
21.02225	39368
21.03038	42680
21.03850	39977
21.04663	39937
21.05475	42548
21.06287	39416
21.07100	39541
21.07912	38874
21.08725	37050
21.09537	40969
21.10348	40019
21.11162	41326
21.11973	41917
21.12787	45359
21.13598	53612
21.14410	56139
21.15223	62466
21.16035	64696
21.16847	60491
21.17660	63584
21.18472	52219
21.19285	48364
21.20097	43445
21.20908	43489
21.21722	40839
21.22533	41626
21.23347	40206
21.24158	45488
21.24970	46722
21.25783	43968
21.26595	48695
21.27408	47075
21.28220	50323
21.29032	50119
21.29845	49527
21.30657	49421
21.31468	51592
21.32282	50052
21.33093	51078
21.33907	49302
21.34718	52721
21.35530	49548
21.36343	52762
21.37155	49357
21.37968	50011
21.38780	50381
21.39592	52918
21.40405	57042
21.41217	61778
21.42028	58286
21.42842	54045
21.43653	54306
21.44467	52927
21.45278	52793
21.46090	49535
21.46903	49844
21.47715	50074
21.48528	51877
21.49340	48174
21.50152	45923
21.50965	47887
21.51777	44056
21.52590	46089
21.53402	46792
21.54213	49426
21.55027	51399
21.55838	57226
21.56650	66589
21.57463	80452
21.58275	94264
21.59088	107257
21.59900	114929
21.60712	107307
21.61525	102432
21.62337	85235
21.63150	76955
21.63962	62630
21.64773	56223
21.65587	54145
21.66398	53213
21.67210	52971
21.68023	53158
21.68835	50226
21.69648	48604
21.70460	44208
21.71272	43992
21.72085	44187
21.72897	37363
21.73710	42043
21.74522	48584
21.75333	51126
21.76147	56611
21.76958	68420
21.77772	76132
21.78583	88064
21.79395	93669
21.80208	85638
21.81020	78252
21.81832	62163
21.82645	59126
21.83457	53861
21.84270	48195
21.85082	42283
21.85893	44262
21.86707	45492
21.87518	42888
21.88332	41558
21.89143	39791
21.89955	38870
21.90768	39684
21.91580	39132
21.92393	43529
21.93205	40092
21.94017	34725
21.94830	40628
21.95642	37150
21.96453	41668
21.97267	51410
21.98078	63728
21.98892	78718
21.99703	80420
22.00515	84896
22.01328	86079
22.02140	88127
22.02953	87521
22.03765	95496
22.04577	86680
22.05390	95767
22.06202	90903
22.07013	91381
22.07827	95995
22.08638	95082
22.09452	91651
22.10263	92012
22.11075	88341
22.11888	86105
22.12700	86454
22.13513	85734
22.14325	84602
22.15137	82872
22.15950	80451
22.16762	83039
22.17575	89554
22.18387	84811
22.19198	80561
22.20012	80302
22.20823	77124
22.21635	70562
22.22448	70327
22.23260	65985
22.24073	64119
22.24885	64718
22.25697	60923
22.26510	62289
22.27322	65189
22.28135	64208
22.28947	62935
22.29758	66442
22.30572	65652
22.31383	63994
22.32197	68733
22.33008	65502
22.33820	62476
22.34633	58151
22.35445	59852
22.36257	53995
22.37070	52118
22.37882	51385
22.38695	55142
22.39507	61560
22.40318	59779
22.41132	65620
22.41943	66359
22.42757	63019
22.43568	60307
22.44380	54014
22.45193	54819
22.46005	49475
22.46817	51097
22.47630	49847
22.48442	52619
22.49255	57065
22.50067	58457
22.50878	58509
22.51692	57784
22.52503	54821
22.53317	53486
22.54128	52900
22.54940	49335
22.55753	51687
22.56565	45904
22.57378	46105
22.58190	47425
22.59002	40555
22.59815	42166
22.60627	44214
22.61438	37911
22.62252	41556
22.63063	40836
22.63877	44331
22.64688	38896
22.65500	38311
22.66313	39191
22.67125	41519
22.67938	43385
22.68750	50066
22.69562	52820
22.70375	62907
22.71187	62764
22.72000	64717
22.72812	60234
22.73623	56917
22.74437	49425
22.75248	48210
22.76060	51712
22.76873	47298
22.77685	49404
22.78498	50705
22.79310	57005
22.80122	57066
22.80935	61844
22.81747	57027
22.82560	56127
22.83372	52143
22.84183	48821
22.84997	49769
22.85808	49333
22.86620	52291
22.87433	54194
22.88245	59674
22.89058	67407
22.89870	78661
22.90682	93107
22.91495	114817
22.92307	140077
22.93120	145180
22.93932	154257
22.94743	137782
22.95557	123594
22.96368	113914
22.97182	108100
22.97993	98581
22.98805	87409
22.99618	87138
23.00430	76306
23.01242	69669
23.02055	68018
23.02867	61188
23.03680	58506
23.04492	56262
23.05303	50410
23.06117	52226
23.06928	53489
23.07742	47747
23.08553	47206
23.09365	45956
23.10178	47909
23.10990	48837
23.11802	47397
23.12615	45999
23.13427	42503
23.14240	44457
23.15052	45434
23.15863	41082
23.16677	43997
23.17488	40874
23.18302	39629
23.19113	42512
23.19925	37699
23.20738	41367
23.21550	38636
23.22363	38801
23.23175	39542
23.23987	36755
23.24800	42023
23.25612	38482
23.26423	43356
23.27237	38685
23.28048	40508
23.28862	39041
23.29673	40835
23.30485	36868
23.31298	41439
23.32110	39823
23.32923	40218
23.33735	42491
23.34547	49562
23.35360	48845
23.36172	52808
23.36985	47558
23.37797	46257
23.38608	44522
23.39422	46285
23.40233	38027
23.41045	35556
23.41858	36435
23.42670	37324
23.43483	36153
23.44295	35562
23.45107	38922
23.45920	34569
23.46732	35440
23.47545	38999
23.48357	39486
23.49168	38464
23.49982	35515
23.50793	36921
23.51605	37253
23.52418	34683
23.53230	35383
23.54043	33598
23.54855	40821
23.55667	39398
23.56480	42077
23.57292	46651
23.58105	62963
23.58917	71093
23.59728	73626
23.60542	74167
23.61353	72963
23.62167	62863
23.62978	53738
23.63790	54627
23.64603	50652
23.65415	52750
23.66227	52223
23.67040	51993
23.67852	49870
23.68665	52721
23.69477	47579
23.70288	50559
23.71102	49469
23.71913	51105
23.72727	61271
23.73538	104368
23.74350	210972
23.75163	494202
23.75975	1100967
23.76788	2101334
23.77600	3304461
23.78412	3973534
23.79225	3987932
23.80037	3439839
23.80848	2721517
23.81662	2017906
23.82473	1481187
23.83287	1093515
23.84098	859151
23.84910	704311
23.85723	568949
23.86535	502300
23.87348	436318
23.88160	383947
23.88972	347137
23.89785	316497
23.90597	295109
23.91408	279094
23.92222	259340
23.93033	244950
23.93847	224191
23.94658	215832
23.95470	196785
23.96283	195493
23.97095	180091
23.97908	177286
23.98720	171038
23.99532	166973
24.00345	165873
24.01157	152178
24.01970	151914
24.02782	154472
24.03593	158160
24.04407	155917
24.05218	151049
24.06030	153826
24.06843	156295
24.07655	150956
24.08468	145307
24.09280	131829
24.10092	124177
24.10905	126368
24.11717	118875
24.12530	123574
24.13342	131467
24.14153	135257
24.14967	143658
24.15778	137196
24.16590	134492
24.17403	126630
24.18215	119681
24.19028	110539
24.19840	102426
24.20652	99422
24.21465	94547
24.22277	89374
24.23090	88219
24.23902	87327
24.24713	85101
24.25527	80220
24.26338	76871
24.27152	74246
24.27963	77392
24.28775	76649
24.29588	81851
24.30400	81622
24.31212	87805
24.32025	99224
24.32837	105034
24.33650	96982
24.34462	103169
24.35273	86050
24.36087	77851
24.36898	72176
24.37712	68542
24.38523	64571
24.39335	63236
24.40148	65960
24.40960	69623
24.41773	77278
24.42585	86001
24.43397	97755
24.44210	108943
24.45022	109623
24.45833	103589
24.46647	99990
24.47458	92635
24.48272	79141
24.49083	76538
24.49895	72108
24.50708	70390
24.51520	67743
24.52333	66528
24.53145	72205
24.53957	80400
24.54770	77983
24.55582	78868
24.56395	78594
24.57207	73398
24.58018	71199
24.58832	67356
24.59643	62131
24.60455	66159
24.61268	57453
24.62080	56953
24.62893	55130
24.63705	53146
24.64517	58293
24.65330	53789
24.66142	61001
24.66955	55455
24.67767	56797
24.68578	56066
24.69392	49687
24.70203	50667
24.71015	51300
24.71828	48029
24.72640	49194
24.73453	50737
24.74265	48539
24.75077	50670
24.75890	49211
24.76702	51091
24.77515	49643
24.78327	50323
24.79138	50907
24.79952	50029
24.80763	50359
24.81577	49993
24.82388	54059
24.83200	57298
24.84013	58814
24.84825	67749
24.85637	70110
24.86450	86251
24.87262	99200
24.88075	106280
24.88887	104906
24.89698	105481
24.90512	88925
24.91323	79448
24.92137	68385
24.92948	60662
24.93760	56933
24.94573	51771
24.95385	49837
24.96197	50078
24.97010	54410
24.97822	59601
24.98635	68953
24.99447	79946
25.00258	90314
25.01072	98030
25.01883	100333
25.02697	102430
25.03508	107944
25.04320	102993
25.05133	104216
25.05945	101959
25.06758	102322
25.07570	102633
25.08382	109764
25.09195	115990
25.10007	135141
25.10818	162973
25.11632	217879
25.12443	312961
25.13257	423311
25.14068	523102
25.14880	546180
25.15693	499053
25.16505	420006
25.17318	310104
25.18130	229905
25.18942	176907
25.19755	151552
25.20567	131069
25.21378	126715
25.22192	114004
25.23003	113547
25.23817	121508
25.24628	133832
25.25440	143725
25.26253	152236
25.27065	165302
25.27878	158289
25.28690	143769
25.29502	121891
25.30315	107636
25.31127	97697
25.31940	89087
25.32752	81298
25.33563	75078
25.34377	72267
25.35188	71779
25.36000	70670
25.36813	68623
25.37625	67122
25.38438	70004
25.39250	62420
25.40062	65614
25.40875	67504
25.41687	64335
25.42500	65352
25.43312	61544
25.44123	58817
25.44937	59490
25.45748	61878
25.46562	59461
25.47373	58700
25.48185	57016
25.48998	55771
25.49810	55259
25.50622	52380
25.51435	55332
25.52247	52918
25.53060	52743
25.53872	55017
25.54683	48844
25.55497	51875
25.56308	46733
25.57122	48797
25.57933	45538
25.58745	45202
25.59558	50428
25.60370	49974
25.61183	48466
25.61995	47009
25.62807	51503
25.63620	48981
25.64432	48772
25.65243	48234
25.66057	47263
25.66868	50964
25.67682	45928
25.68493	51060
25.69305	47375
25.70118	45495
25.70930	43203
25.71743	46159
25.72555	45193
25.73367	43097
25.74180	42978
25.74992	46106
25.75803	42607
25.76617	41462
25.77428	43780
25.78242	41729
25.79053	42172
25.79865	42070
25.80678	41623
25.81490	43398
25.82303	43257
25.83115	42404
25.83927	43313
25.84740	46765
25.85552	43824
25.86365	46724
25.87177	41620
25.87988	43164
25.88802	41594
25.89613	40824
25.90425	39744
25.91238	41666
25.92050	38742
25.92863	37187
25.93675	38277
25.94487	38194
25.95300	38563
25.96112	37830
25.96925	37084
25.97737	38024
25.98548	39025
25.99362	38239
26.00173	35503
26.00985	36787
26.01798	37363
26.02610	36616
26.03423	36991
26.04235	38691
26.05047	43180
26.05860	42123
26.06672	42974
26.07485	40237
26.08297	40216
26.09108	36527
26.09922	39949
26.10733	38622
26.11547	38484
26.12358	41905
26.13170	43623
26.13983	43402
26.14795	44759
26.15607	45552
26.16420	47835
26.17232	48377
26.18045	45262
26.18857	45233
26.19668	42328
26.20482	40925
26.21293	37268
26.22107	40341
26.22918	35822
26.23730	39893
26.24543	33206
26.25355	35182
26.26168	38693
26.26980	36733
26.27792	36216
26.28605	37472
26.29417	35765
26.30228	38405
26.31042	34832
26.31853	37037
26.32667	39216
26.33478	35375
26.34290	37695
26.35103	41260
26.35915	45508
26.36728	54106
26.37540	60021
26.38352	76885
26.39165	79602
26.39977	78279
26.40788	70466
26.41602	61437
26.42413	55827
26.43227	47885
26.44038	43899
26.44850	42753
26.45663	42040
26.46475	41127
26.47288	42497
26.48100	39179
26.48912	35738
26.49725	37604
26.50537	40665
26.51350	38029
26.52162	40480
26.52973	39346
26.53787	37648
26.54598	36776
26.55410	35170
26.56223	35118
26.57035	35027
26.57848	38530
26.58660	35775
26.59472	36869
26.60285	37196
26.61097	42707
26.61910	37165
26.62722	40757
26.63533	40722
26.64347	39019
26.65158	38609
26.65972	40671
26.66783	42629
26.67595	40611
26.68408	38329
26.69220	38015
26.70032	37061
26.70845	39035
26.71657	37728
26.72470	35723
26.73282	38532
26.74093	37954
26.74907	36397
26.75718	38143
26.76532	39489
26.77343	35760
26.78155	38976
26.78968	41727
26.79780	40059
26.80592	43567
26.81405	41920
26.82217	35749
26.83030	37496
26.83842	36689
26.84653	34251
26.85467	37387
26.86278	34270
26.87092	37176
26.87903	37908
26.88715	36471
26.89528	39172
26.90340	36171
26.91153	39923
26.91965	39142
26.92777	42981
26.93590	53908
26.94402	69496
26.95213	115827
26.96027	197792
26.96838	347210
26.97652	592487
26.98463	911321
26.99275	1234328
27.00088	1499367
27.00900	1537277
27.01713	1408702
27.02525	1170314
27.03337	893492
27.04150	663484
27.04962	497740
27.05773	381517
27.06587	303138
27.07398	236261
27.08212	202146
27.09023	168153
27.09835	151565
27.10648	135749
27.11460	121773
27.12273	119630
27.13085	105404
27.13897	102967
27.14710	99331
27.15522	97485
27.16335	101248
27.17147	96663
27.17958	97692
27.18772	92257
27.19583	87035
27.20395	79787
27.21208	73293
27.22020	74081
27.22833	74692
27.23645	64065
27.24457	63232
27.25270	67121
27.26082	62547
27.26895	60083
27.27707	58727
27.28518	61871
27.29332	54345
27.30143	55450
27.30957	54683
27.31768	52892
27.32580	51343
27.33393	54205
27.34205	56261
27.35017	52067
27.35830	59176
27.36642	52968
27.37455	52432
27.38267	52881
27.39078	47658
27.39892	47664
27.40703	48536
27.41517	49501
27.42328	53480
27.43140	49859
27.43953	52505
27.44765	57116
27.45577	58145
27.46390	57076
27.47202	51588
27.48015	45658
27.48827	47723
27.49638	46994
27.50452	43992
27.51263	45701
27.52077	47900
27.52888	49526
27.53700	46584
27.54513	46274
27.55325	49326
27.56138	44612
27.56950	45733
27.57762	46375
27.58575	49350
27.59387	45201
27.60198	46111
27.61012	46920
27.61823	44542
27.62637	41985
27.63448	45899
27.64260	46109
27.65073	43351
27.65885	42279
27.66698	43707
27.67510	43321
27.68322	44794
27.69135	43934
27.69947	42602
27.70760	44961
27.71572	42258
27.72383	45352
27.73197	44737
27.74008	43550
27.74820	43729
27.75633	46656
27.76445	45457
27.77258	47315
27.78070	43823
27.78882	43400
27.79695	42734
27.80507	39230
27.81320	41806
27.82132	40615
27.82943	43117
27.83757	37414
27.84568	39502
27.85380	38069
27.86193	35144
27.87005	36684
27.87818	44312
27.88630	32953
27.89442	37759
27.90255	34860
27.91067	32655
27.91880	35819
27.92692	35261
27.93503	38199
27.94317	34477
27.95128	36459
27.95942	36182
27.96753	37424
27.97565	37485
27.98378	37827
27.99190	43290
28.00002	38617
28.00815	49791
28.01627	48939
28.02440	49398
28.03252	52955
28.04063	60209
28.04877	56895
28.05688	55194
28.06502	51237
28.07313	45465
28.08125	44246
28.08938	42927
28.09750	46645
28.10563	51463
28.11375	56954
28.12187	58652
28.13000	60331
28.13812	56562
28.14623	53954
28.15437	46908
28.16248	39589
28.17062	40544
28.17873	43372
28.18685	41408
28.19498	34625
28.20310	42257
28.21123	41632
28.21935	42449
28.22747	43394
28.23560	43569
28.24372	48324
28.25183	51559
28.25997	62979
28.26808	82702
28.27622	108038
28.28433	135812
28.29245	164880
28.30058	190321
28.30870	211441
28.31683	231085
28.32495	226587
28.33307	220683
28.34120	211231
28.34932	187398
28.35745	163310
28.36557	157700
28.37368	137748
28.38182	123744
28.38993	108490
28.39805	99047
28.40618	92448
28.41430	86953
28.42243	76135
28.43055	72055
28.43867	70092
28.44680	63108
28.45492	59805
28.46305	60387
28.47117	60973
28.47928	55810
28.48742	54817
28.49553	54592
28.50365	51040
28.51178	52813
28.51990	51685
28.52803	46751
28.53615	50331
28.54427	48351
28.55240	46148
28.56052	44614
28.56865	44887
28.57677	45246
28.58488	42733
28.59302	42362
28.60113	44231
28.60927	43924
28.61738	43463
28.62550	45308
28.63363	45359
28.64175	46628
28.64987	51320
28.65800	52922
28.66612	51901
28.67425	57201
28.68237	58895
28.69048	58502
28.69862	57143
28.70673	59399
28.71487	52117
28.72298	46110
28.73110	45685
28.73923	41529
28.74735	40571
28.75548	45866
28.76360	39885
28.77172	39613
28.77985	42024
28.78797	37577
28.79608	35888
28.80422	41464
28.81233	40924
28.82047	39676
28.82858	38165
28.83670	34772
28.84483	36998
28.85295	35477
28.86108	36167
28.86920	38483
28.87732	38909
28.88545	40336
28.89357	34544
28.90168	36990
28.90982	42730
28.91793	41546
28.92607	37241
28.93418	39334
28.94230	38819
28.95043	39687
28.95855	42450
28.96668	41229
28.97480	38111
28.98292	35890
28.99105	37237
28.99917	34206
29.00730	36377
29.01542	34597
29.02353	34359
29.03167	33408
29.03978	37486
29.04790	40058
29.05603	35584
29.06415	37683
29.07228	35195
29.08040	37465
29.08852	34704
29.09665	35918
29.10477	35404
29.11290	35187
29.12102	32443
29.12913	35472
29.13727	33530
29.14538	33825
29.15352	32093
29.16163	36911
29.16975	38404
29.17788	40276
29.18600	40473
29.19412	41323
29.20225	40426
29.21037	40447
29.21850	43110
29.22662	42609
29.23473	44730
29.24287	45541
29.25098	46150
29.25912	44968
29.26723	41037
29.27535	43952
29.28348	37315
29.29160	36881
29.29972	36989
29.30785	35674
29.31597	32711
29.32410	34647
29.33222	34105
29.34033	34354
29.34847	30729
29.35658	31926
29.36472	33050
29.37283	33727
29.38095	33615
29.38908	31644
29.39720	39887
29.40533	36418
29.41345	37424
29.42157	35728
29.42970	35314
29.43782	35861
29.44593	33170
29.45407	33871
29.46218	31776
29.47032	33016
29.47843	34029
29.48655	36540
29.49468	38387
29.50280	39712
29.51093	36880
29.51905	35970
29.52717	35877
29.53530	38121
29.54342	33146
29.55153	35627
29.55967	33371
29.56778	34215
29.57592	35736
29.58403	34815
29.59215	37041
29.60028	34615
29.60840	33075
29.61653	37046
29.62465	34691
29.63277	33190
29.64090	32560
29.64902	38280
29.65715	32598
29.66527	32497
29.67338	36120
29.68152	34016
29.68963	32548
29.69775	33151
29.70588	34274
29.71400	33691
29.72213	34311
29.73025	33475
29.73837	32995
29.74650	32810
29.75462	32624
29.76275	31716
29.77087	29926
29.77898	30623
29.78712	30509
29.79523	32150
29.80337	31235
29.81148	28857
29.81960	28374
29.82773	27759
29.83585	31659
29.84397	32100
29.85210	33880
29.86022	35586
29.86835	36187
29.87647	45197
29.88458	52537
29.89272	61360
29.90083	72413
29.90897	77462
29.91708	78016
29.92520	86664
29.93333	94337
29.94145	92328
29.94957	95475
29.95770	94487
29.96582	90144
29.97395	93107
29.98207	87336
29.99018	89480
29.99832	76532
30.00643	77398
30.01457	69561
30.02268	70762
30.03080	66364
30.03893	68690
30.04705	61241
30.05518	66028
30.06330	67072
30.07142	66557
30.07955	63535
30.08767	65335
30.09578	63298
30.10392	59845
30.11203	56607
30.12017	54875
30.12828	51050
30.13640	52820
30.14453	54642
30.15265	48562
30.16078	46247
30.16890	48394
30.17702	46795
30.18515	48059
30.19327	49382
30.20140	40773
30.20952	43523
30.21763	44452
30.22577	40478
30.23388	41975
30.24200	43129
30.25013	40090
30.25825	41748
30.26638	41352
30.27450	38683
30.28262	40073
30.29075	40624
30.29887	41008
30.30700	41185
30.31512	34105
30.32323	40788
30.33137	39067
30.33948	35828
30.34760	37013
30.35573	37352
30.36385	35467
30.37198	35094
30.38010	36799
30.38822	36424
30.39635	34413
30.40447	33765
30.41260	31472
30.42072	36511
30.42883	38329
30.43697	30463
30.44508	33649
30.45322	38504
30.46133	30022
30.46945	35496
30.47758	36170
30.48570	38258
30.49382	33334
30.50195	35415
30.51007	33277
30.51820	30582
30.52632	33945
30.53443	31029
30.54257	35239
30.55068	33457
30.55882	34914
30.56693	32253
30.57505	33373
30.58318	32275
30.59130	32216
30.59942	31339
30.60755	32226
30.61567	36463
30.62380	31385
30.63192	34427
30.64003	35684
30.64817	31966
30.65628	31194
30.66442	33558
30.67253	34877
30.68065	30457
30.68878	34981
30.69690	30923
30.70503	31730
30.71315	31941
30.72127	29626
30.72940	32327
30.73752	33459
30.74563	32461
30.75377	31709
30.76188	34466
30.77002	37772
30.77813	35444
30.78625	37656
30.79438	40142
30.80250	44951
30.81063	42878
30.81875	40291
30.82687	39490
30.83500	34434
30.84312	36119
30.85125	34366
30.85937	37761
30.86748	33407
30.87562	35400
30.88373	33303
30.89185	35769
30.89998	32691
30.90810	32982
30.91623	33024
30.92435	33340
30.93247	30553
30.94060	30965
30.94872	33976
30.95685	37687
30.96497	31993
30.97308	30773
30.98122	28992
30.98933	31814
30.99747	32996
31.00558	32023
31.01370	31194
31.02183	29530
31.02995	33807
31.03807	29725
31.04620	32600
31.05432	34793
31.06245	35778
31.07057	42018
31.07868	48830
31.08682	59533
31.09493	63928
31.10307	63070
31.11118	59659
31.11930	54033
31.12743	45407
31.13555	46937
31.14367	37478
31.15180	38863
31.15992	38725
31.16805	37796
31.17617	38480
31.18428	38800
31.19242	37324
31.20053	38936
31.20867	34206
31.21678	35066
31.22490	35959
31.23303	38383
31.24115	33844
31.24928	35525
31.25740	36374
31.26552	34351
31.27365	31355
31.28177	37610
31.28988	30763
31.29802	34306
31.30613	32623
31.31427	36255
31.32238	39568
31.33050	37483
31.33863	39506
31.34675	34273
31.35488	36112
31.36300	33647
31.37112	31673
31.37925	32117
31.38737	33936
31.39548	32159
31.40362	31559
31.41173	33700
31.41987	34003
31.42798	33572
31.43610	29834
31.44423	32311
31.45235	33700
31.46048	29968
31.46860	34794
31.47672	34674
31.48485	29789
31.49297	32398
31.50110	31753
31.50922	31749
31.51733	33596
31.52547	33326
31.53358	32468
31.54170	37360
31.54983	36708
31.55795	32727
31.56608	31246
31.57420	36711
31.58232	33960
31.59045	31242
31.59857	31066
31.60670	35226
31.61482	28907
31.62293	30907
31.63107	30564
31.63918	33070
31.64732	32255
31.65543	33522
31.66355	34200
31.67168	34009
31.67980	37324
31.68792	36948
31.69605	37529
31.70417	33594
31.71230	33661
31.72042	34115
31.72853	31355
31.73667	30560
31.74478	32488
31.75292	31366
31.76103	30293
31.76915	29931
31.77728	34792
31.78540	30430
31.79352	33562
31.80165	34971
31.80977	38488
31.81790	37985
31.82602	43086
31.83413	49576
31.84227	48412
31.85038	55153
31.85852	61421
31.86663	60426
31.87475	68341
31.88288	67888
31.89100	66447
31.89913	67230
31.90725	68353
31.91537	61957
31.92350	62475
31.93162	54915
31.93973	59000
31.94787	50072
31.95598	50105
31.96412	50795
31.97223	57668
31.98035	53180
31.98848	55687
31.99660	53014
32.00473	52580
32.01285	48827
32.02097	43056
32.02910	42213
32.03722	40185
32.04535	35932
32.05347	36838
32.06158	38161
32.06972	36002
32.07783	35874
32.08595	36312
32.09408	36771
32.10220	33395
32.11033	35648
32.11845	38552
32.12657	34993
32.13470	34358
32.14282	33137
32.15095	37436
32.15907	34097
32.16718	30842
32.17532	34370
32.18343	33184
32.19155	29931
32.19968	30823
32.20780	32435
32.21593	38567
32.22405	33461
32.23217	31363
32.24030	31396
32.24842	33994
32.25655	33991
32.26467	32143
32.27278	32052
32.28092	32496
32.28903	33179
32.29717	33433
32.30528	31729
32.31340	33896
32.32153	33941
32.32965	33805
32.33777	31749
32.34590	36127
32.35402	34850
32.36215	37176
32.37027	31326
32.37838	34794
32.38652	33689
32.39463	30527
32.40277	30499
32.41088	31742
32.41900	32583
32.42713	35810
32.43525	32004
32.44337	31614
32.45150	32199
32.45962	36581
32.46775	34952
32.47587	33239
32.48398	31096
32.49212	34847
32.50023	32404
32.50837	29897
32.51648	35359
32.52460	31918
32.53273	35641
32.54085	34017
32.54898	33171
32.55710	35068
32.56522	37396
32.57335	38888
32.58147	41241
32.58958	40220
32.59772	41909
32.60583	37798
32.61397	36089
32.62208	34359
32.63020	36049
32.63833	33150
32.64645	32885
32.65458	33125
32.66270	40264
32.67082	34493
32.67895	37070
32.68707	34555
32.69520	37176
32.70332	35543
32.71143	38683
32.71957	38496
32.72768	41708
32.73580	34408
32.74393	35041
32.75205	34089
32.76018	29919
32.76830	30968
32.77642	27967
32.78455	31610
32.79267	31275
32.80080	30112
32.80892	31128
32.81703	32082
32.82517	32171
32.83328	30649
32.84140	32033
32.84953	32234
32.85765	32943
32.86578	33882
32.87390	32859
32.88202	41327
32.89015	41766
32.89827	39826
32.90640	37556
32.91452	35040
32.92263	35208
32.93077	32359
32.93888	39398
32.94702	33672
32.95513	34684
32.96325	34089
32.97138	36154
32.97950	40677
32.98762	41728
32.99575	41074
33.00387	43018
33.01200	40410
33.02012	38189
33.02823	32005
33.03637	35840
33.04448	37973
33.05262	33702
33.06073	32230
33.06885	36167
33.07698	41683
33.08510	40892
33.09323	41929
33.10135	44357
33.10947	46651
33.11760	44933
33.12572	46208
33.13383	44875
33.14197	39914
33.15008	38955
33.15822	35503
33.16633	33604
33.17445	31808
33.18258	34663
33.19070	35596
33.19883	35191
33.20695	32246
33.21507	32640
33.22320	32326
33.23132	30895
33.23943	30951
33.24757	30545
33.25568	34767
33.26382	31030
33.27193	34047
33.28005	32087
33.28818	35488
33.29630	34841
33.30443	33858
33.31255	31906
33.32067	33357
33.32880	30989
33.33692	32610
33.34505	33242
33.35317	36619
33.36128	32240
33.36942	33090
33.37753	33397
33.38565	31183
33.39378	34193
33.40190	33783
33.41003	36663
33.41815	31998
33.42627	34162
33.43440	35562
33.44252	32710
33.45065	34363
33.45877	32536
33.46688	33463
33.47502	31345
33.48313	31572
33.49127	34735
33.49938	35471
33.50750	32698
33.51563	33765
33.52375	33350
33.53187	33402
33.54000	36453
33.54812	36261
33.55625	34572
33.56437	33518
33.57248	35582
33.58062	34165
33.58873	33572
33.59687	31544
33.60498	32642
33.61310	32616
33.62123	31219
33.62935	31523
33.63747	32283
33.64560	35232
33.65372	36959
33.66185	36378
33.66997	33788
33.67808	33965
33.68622	34618
33.69433	34551
33.70247	31743
33.71058	32526
33.71870	32235
33.72683	37721
33.73495	32964
33.74308	34950
33.75120	34886
33.75932	35524
33.76745	36333
33.77557	34515
33.78368	34200
33.79182	33135
33.79993	33853
33.80807	37534
33.81618	36568
33.82430	37055
33.83243	35808
33.84055	37684
33.84868	36348
33.85680	37394
33.86492	41262
33.87305	37868
33.88117	38050
33.88928	35572
33.89742	38901
33.90553	36131
33.91367	37979
33.92178	34704
33.92990	36410
33.93803	35668
33.94615	33654
33.95428	33614
33.96240	33719
33.97052	33603
33.97865	34777
33.98677	35135
33.99490	35976
34.00302	33462
34.01113	31723
34.01927	31696
34.02738	34420
34.03550	33005
34.04363	34601
34.05175	29261
34.05988	34516
34.06800	32966
34.07612	33002
34.08425	32556
34.09237	35179
34.10050	34010
34.10862	31956
34.11673	35957
34.12487	31541
34.13298	33438
34.14112	34258
34.14923	29900
34.15735	31828
34.16548	33820
34.17360	35032
34.18172	31498
34.18985	34262
34.19797	34527
34.20610	32639
34.21422	34143
34.22233	33905
34.23047	36061
34.23858	31661
34.24672	36470
34.25483	34009
34.26295	31972
34.27108	32038
34.27920	30956
34.28732	34831
34.29545	33821
34.30357	31760
34.31170	36303
34.31982	36056
34.32793	33658
34.33607	35511
34.34418	32107
34.35232	33126
34.36043	34578
34.36855	35278
34.37668	36691
34.38480	35217
34.39293	30836
34.40105	30199
34.40917	35077
34.41730	33506
34.42542	40037
34.43353	39459
34.44167	42699
34.44978	50006
34.45792	53352
34.46603	58688
34.47415	63997
34.48228	61722
34.49040	62215
34.49853	61339
34.50665	56227
34.51477	54012
34.52290	54213
34.53102	51640
34.53915	49305
34.54727	47906
34.55538	45422
34.56352	47062
34.57163	45745
34.57975	42316
34.58788	39077
34.59600	43408
34.60413	39235
34.61225	41229
34.62037	39166
34.62850	41781
34.63662	41979
34.64475	37018
34.65287	38437
34.66098	42039
34.66912	38300
34.67723	34700
34.68535	37067
34.69348	40405
34.70160	35748
34.70973	35393
34.71785	38940
34.72597	38452
34.73410	40559
34.74222	41300
34.75035	39232
34.75847	38845
34.76658	35624
34.77472	35547
34.78283	34595
34.79097	39462
34.79908	34956
34.80720	34590
34.81533	36268
34.82345	39796
34.83157	38107
34.83970	33476
34.84782	33097
34.85595	38969
34.86407	35330
34.87218	37456
34.88032	39029
34.88843	38823
34.89657	38516
34.90468	37826
34.91280	39552
34.92093	37478
34.92905	39108
34.93717	36240
34.94530	38898
34.95342	37817
34.96155	40880
34.96967	39063
34.97778	35605
34.98592	37714
34.99403	37026
35.00217	35439
35.01028	36401
35.01840	38512
35.02653	34395
35.03465	36660
35.04278	38732
35.05090	40670
35.05902	41334
35.06715	38751
35.07527	43604
35.08338	42129
35.09152	39837
35.09963	36850
35.10777	37467
35.11588	38382
35.12400	41264
35.13213	38967
35.14025	39625
35.14838	39876
35.15650	40560
35.16462	41037
35.17275	37558
35.18087	38662
35.18900	35747
35.19712	39926
35.20523	39791
35.21337	35339
35.22148	41222
35.22960	39601
35.23773	37458
35.24585	36548
35.25398	35237
35.26210	36644
35.27022	35264
35.27835	36538
35.28647	39322
35.29460	39523
35.30272	38955
35.31083	37746
35.31897	40270
35.32708	37682
35.33522	36695
35.34333	38959
35.35145	36506
35.35958	35263
35.36770	38322
35.37582	36793
35.38395	38742
35.39207	39981
35.40020	43406
35.40832	44680
35.41643	45896
35.42457	46174
35.43268	46919
35.44082	46514
35.44893	44281
35.45705	40287
35.46518	41483
35.47330	39601
35.48142	41805
35.48955	39705
35.49767	41653
35.50580	41445
35.51392	42088
35.52203	38405
35.53017	41611
35.53828	44897
35.54642	40683
35.55453	44585
35.56265	45345
35.57078	46972
35.57890	44241
35.58703	47878
35.59515	49322
35.60327	45132
35.61140	48645
35.61952	44662
35.62763	46747
35.63577	40640
35.64388	42421
35.65202	40993
35.66013	40316
35.66825	44062
35.67638	44009
35.68450	40420
35.69263	39836
35.70075	39976
35.70887	41700
35.71700	41886
35.72512	41789
35.73323	41408
35.74137	39541
35.74948	44370
35.75762	37273
35.76573	41982
35.77385	38276
35.78198	42156
35.79010	39336
35.79823	44615
35.80635	42628
35.81447	43766
35.82260	42655
35.83072	38236
35.83885	39385
35.84697	42267
35.85508	41218
35.86322	41340
35.87133	43419
35.87945	42575
35.88758	39870
35.89570	39619
35.90383	40447
35.91195	42206
35.92007	39485
35.92820	40892
35.93632	44090
35.94445	39574
35.95257	41528
35.96068	39044
35.96882	41666
35.97693	43353
35.98507	40417
35.99318	42647
36.00130	40870
36.00943	43374
36.01755	42057
36.02567	43013
36.03380	42219
36.04192	43151
36.05005	37429
36.05817	43140
36.06628	41935
36.07442	39820
36.08253	41321
36.09067	40752
36.09878	40522
36.10690	43299
36.11503	43466
36.12315	43418
36.13127	39654
36.13940	39969
36.14752	44712
36.15565	43065
36.16377	43456
36.17188	40993
36.18002	44983
36.18813	40227
36.19627	42523
36.20438	39806
36.21250	50251
36.22063	50571
36.22875	53222
36.23688	52489
36.24500	52009
36.25312	47818
36.26125	41053
36.26937	44136
36.27748	45140
36.28562	40632
36.29373	39646
36.30187	42663
36.30998	42549
36.31810	42918
36.32623	42705
36.33435	44288
36.34248	43609
36.35060	39582
36.35872	40521
36.36685	43662
36.37497	46439
36.38310	45413
36.39122	46167
36.39933	40253
36.40747	44438
36.41558	43776
36.42370	44359
36.43183	41930
36.43995	42787
36.44808	44481
36.45620	45397
36.46432	39583
36.47245	41533
36.48057	42335
36.48870	38950
36.49682	43757
36.50493	43394
36.51307	38448
36.52118	41990
36.52930	40350
36.53743	46032
36.54555	42420
36.55368	43790
36.56180	46882
36.56992	44728
36.57805	47289
36.58617	48916
36.59430	46669
36.60242	44283
36.61053	42257
36.61867	39845
36.62678	43525
36.63492	44837
36.64303	41953
36.65115	43022
36.65928	42001
36.66740	44438
36.67552	43027
36.68365	43956
36.69177	44136
36.69990	39892
36.70802	43078
36.71613	46171
36.72427	38863
36.73238	44506
36.74052	41814
36.74863	43284
36.75675	44077
36.76488	44701
36.77300	44384
36.78112	44329
36.78925	45547
36.79737	44192
36.80550	43879
36.81362	45204
36.82173	43962
36.82987	46694
36.83798	45322
36.84612	48491
36.85423	42290
36.86235	42545
36.87048	43639
36.87860	49024
36.88673	47860
36.89485	41136
36.90297	42869
36.91110	45196
36.91922	49040
36.92733	47075
36.93547	46713
36.94358	50070
36.95172	47444
36.95983	51078
36.96795	52167
36.97608	47473
36.98420	49827
36.99233	46768
37.00045	48283
37.00857	51295
37.01670	54216
37.02482	49795
37.03295	53447
37.04107	48559
37.04918	54143
37.05732	50100
37.06543	48161
37.07355	48210
37.08168	47534
37.08980	46504
37.09793	46981
37.10605	49197
37.11417	49146
37.12230	52833
37.13042	50291
37.13855	45124
37.14667	50875
37.15478	49300
37.16292	48077
37.17103	48084
37.17915	48045
37.18728	49299
37.19540	48070
37.20353	54364
37.21165	50307
37.21977	49923
37.22790	50379
37.23602	57096
37.24415	61305
37.25227	63208
37.26038	68457
37.26852	73492
37.27663	69896
37.28477	74964
37.29288	70782
37.30100	63682
37.30913	64208
37.31725	63346
37.32537	58747
37.33350	56476
37.34162	55683
37.34975	67225
37.35787	53527
37.36598	55357
37.37412	54194
37.38223	56066
37.39037	54414
37.39848	54437
37.40660	48208
37.41473	52570
37.42285	53787
37.43098	50209
37.43910	56119
37.44722	55273
37.45535	55555
37.46347	50318
37.47158	49367
37.47972	47803
37.48783	50602
