C:\MassHunter\GCMS\1\data\JTB-E02\BACandBLUE\JTB-E18-012-10.D Wed Jun 19 10:38:10 2019
Start of data points
2.09522,80526
2.10333,82673
2.11147,84504
2.11958,81835
2.12772,90221
2.13583,80694
2.14395,81235
2.15208,80749
2.16020,74478
2.16833,69166
2.17645,73665
2.18457,71521
2.19270,76982
2.20082,70643
2.20893,65704
2.21707,69740
2.22518,69222
2.23332,67886
2.24143,64260
2.24955,66854
2.25768,66574
2.26580,168700
2.27393,1214670
2.28205,2275884
2.29017,1217563
2.29830,445198
2.30642,279268
2.31453,220406
2.32267,197567
2.33078,178084
2.33892,164365
2.34703,155670
2.35515,148665
2.36328,142355
2.37140,139529
2.37953,130957
2.38765,129528
2.39577,127354
2.40390,116231
2.41202,112571
2.42015,116468
2.42827,111137
2.43638,108742
2.44452,108929
2.45263,110012
2.46075,107744
2.46888,107388
2.47700,105548
2.48513,110402
2.49325,104820
2.50137,98761
2.50950,103873
2.51762,104662
2.52575,101466
2.53387,102875
2.54198,97902
2.55012,97015
2.55823,96736
2.56637,103561
2.57448,105867
2.58260,102759
2.59073,104304
2.59885,105823
2.60697,102148
2.61510,119799
2.62322,135474
2.63135,125574
2.63947,115808
2.64758,117439
2.65572,113307
2.66383,107039
2.67197,101949
2.68008,99637
2.68820,98212
2.69633,100151
2.70445,96628
2.71257,97854
2.72070,98363
2.72882,95229
2.73695,97472
2.74507,92229
2.75318,99332
2.76132,92321
2.76943,91110
2.77757,93332
2.78568,98503
2.79380,106944
2.80193,106282
2.81005,107707
2.81818,108274
2.82630,107423
2.83442,100650
2.84255,98724
2.85067,104431
2.85878,99340
2.86692,96280
2.87503,98316
2.88317,96086
2.89128,94935
2.89940,96706
2.90753,96290
2.91565,89575
2.92378,90937
2.93190,91365
2.94002,92541
2.94815,94615
2.95627,88866
2.96438,91949
2.97252,93545
2.98063,94978
2.98877,89532
2.99688,92755
3.00500,93357
3.01313,92064
3.02125,92246
3.02938,87769
3.03750,87658
3.04562,85936
3.05375,89936
3.06187,89071
3.07000,88368
3.07812,90925
3.08623,90236
3.09437,114316
3.10248,159113
3.11060,252767
3.11873,390792
3.12685,422801
3.13498,389122
3.14310,366011
3.15122,335302
3.15935,300348
3.16747,278797
3.17560,267313
3.18372,253412
3.19183,245691
3.19997,266903
3.20808,289327
3.21622,277772
3.22433,268899
3.23245,247330
3.24058,231579
3.24870,217492
3.25682,204365
3.26495,192867
3.27307,196852
3.28120,183100
3.28932,194817
3.29743,223264
3.30557,359399
3.31368,591699
3.32182,772432
3.32993,827574
3.33805,783518
3.34618,707453
3.35430,629353
3.36242,563276
3.37055,522892
3.37867,480818
3.38680,455076
3.39492,423488
3.40303,403650
3.41117,388656
3.41928,373476
3.42742,348403
3.43553,339590
3.44365,321840
3.45178,315501
3.45990,303590
3.46803,307960
3.47615,296318
3.48427,288100
3.49240,288451
3.50052,274246
3.50863,276051
3.51677,271430
3.52488,258341
3.53302,259940
3.54113,262409
3.54925,245258
3.55738,257165
3.56550,243445
3.57363,243294
3.58175,239661
3.58987,250847
3.59800,242463
3.60612,237610
3.61425,233417
3.62237,231841
3.63048,232001
3.63862,235789
3.64673,218047
3.65485,219119
3.66298,224823
3.67110,247692
3.67923,367509
3.68735,641653
3.69547,886859
3.70360,940410
3.71172,904255
3.71985,838098
3.72797,796600
3.73608,747973
3.74422,713384
3.75233,658973
3.76045,634252
3.76858,603704
3.77670,582339
3.78483,546500
3.79295,525204
3.80107,524578
3.80920,497200
3.81732,518407
3.82545,536728
3.83357,567015
3.84168,554590
3.84982,540480
3.85793,510672
3.86607,499027
3.87418,468209
3.88230,464594
3.89043,442891
3.89855,434333
3.90667,425717
3.91480,392821
3.92292,393809
3.93105,383146
3.93917,369195
3.94728,372965
3.95542,371558
3.96353,391689
3.97167,480915
3.97978,549135
3.98790,586757
3.99603,568739
4.00415,572748
4.01227,698267
4.02040,1004374
4.02852,1273421
4.03665,1401290
4.04477,1302662
4.05288,1179089
4.06102,1051982
4.06913,945536
4.07727,879011
4.08538,807006
4.09350,734857
4.10163,686116
4.10975,641919
4.11788,598025
4.12600,565876
4.13412,542592
4.14225,516948
4.15037,496112
4.15848,481515
4.16662,460938
4.17473,447415
4.18287,433842
4.19098,431977
4.19910,395783
4.20723,398013
4.21535,393575
4.22348,412849
4.23160,537787
4.23972,736971
4.24785,853855
4.25597,855269
4.26410,766871
4.27222,709068
4.28033,654922
4.28847,587329
4.29658,554068
4.30470,520056
4.31283,479450
4.32095,458268
4.32908,431659
4.33720,421133
4.34532,411841
4.35345,384460
4.36157,378088
4.36970,359834
4.37782,357021
4.38593,346134
4.39407,336296
4.40218,321334
4.41032,324510
4.41843,306464
4.42655,306265
4.43468,304109
4.44280,296899
4.45092,293296
4.45905,289063
4.46717,280010
4.47530,274270
4.48342,267326
4.49153,264943
4.49967,259857
4.50778,259884
4.51592,257232
4.52403,255384
4.53215,245263
4.54028,235208
4.54840,236969
4.55652,232345
4.56465,235605
4.57277,235253
4.58090,233860
4.58902,230016
4.59713,225433
4.60527,228045
4.61338,233684
4.62152,223228
4.62963,227112
4.63775,230159
4.64588,232488
4.65400,227886
4.66213,225012
4.67025,223491
4.67837,227083
4.68650,225399
4.69462,217802
4.70273,221867
4.71087,215216
4.71898,206038
4.72712,215965
4.73523,208010
4.74335,202430
4.75148,208995
4.75960,200451
4.76773,211200
4.77585,203621
4.78397,207973
4.79210,201496
4.80022,206378
4.80833,224480
4.81647,253666
4.82458,272677
4.83272,284355
4.84083,280991
4.84895,281979
4.85708,273378
4.86520,267390
4.87333,262152
4.88145,256777
4.88957,247859
4.89770,241892
4.90582,236163
4.91395,231493
4.92207,236365
4.93018,224756
4.93832,234926
4.94643,242487
4.95455,286833
4.96268,380640
4.97080,494028
4.97893,608043
4.98705,657603
4.99517,631444
5.00330,589996
5.01142,532782
5.01955,485523
5.02767,443822
5.03578,409286
5.04392,419156
5.05203,414482
5.06017,409478
5.06828,395908
5.07640,377933
5.08453,372299
5.09265,361487
5.10077,355094
5.10890,346233
5.11702,326929
5.12515,325274
5.13327,322650
5.14138,310612
5.14952,316387
5.15763,303533
5.16577,294683
5.17388,302093
5.18200,303917
5.19013,295891
5.19825,289319
5.20637,289011
5.21450,291825
5.22262,285002
5.23075,286339
5.23887,284849
5.24698,274559
5.25512,283315
5.26323,271288
5.27137,260851
5.27948,258023
5.28760,246364
5.29573,252579
5.30385,246009
5.31198,244380
5.32010,246269
5.32822,234930
5.33635,237209
5.34447,247211
5.35258,243843
5.36072,237461
5.36883,239284
5.37697,238858
5.38508,231786
5.39320,235710
5.40133,237746
5.40945,233489
5.41758,227800
5.42570,230298
5.43382,231210
5.44195,238075
5.45007,222828
5.45820,228370
5.46632,224840
5.47443,220837
5.48257,223819
5.49068,222647
5.49880,214895
5.50693,230475
5.51505,222405
5.52318,216091
5.53130,218441
5.53942,216790
5.54755,216612
5.55567,211254
5.56380,218264
5.57192,220040
5.58003,212979
5.58817,227131
5.59628,221481
5.60440,217568
5.61253,224370
5.62065,226419
5.62878,218500
5.63690,218170
5.64502,215149
5.65315,225408
5.66127,220047
5.66940,211785
5.67752,213245
5.68563,212118
5.69377,212943
5.70188,220899
5.71002,219019
5.71813,217041
5.72625,213695
5.73438,213165
5.74250,205895
5.75062,208479
5.75875,206401
5.76687,210357
5.77500,200996
5.78312,206465
5.79123,210211
5.79937,208804
5.80748,212447
5.81562,205236
5.82373,209695
5.83185,203936
5.83998,210106
5.84810,204453
5.85622,201407
5.86435,200694
5.87247,200907
5.88060,204793
5.88872,203367
5.89683,203265
5.90497,195209
5.91308,186434
5.92122,168176
5.92933,155288
5.93745,148646
5.94558,147935
5.95370,151065
5.96183,150260
5.96995,149279
5.97807,154912
5.98620,151062
5.99432,154651
6.00243,154766
6.01057,162252
6.01868,154525
6.02682,154645
6.03493,156992
6.04305,152495
6.05118,151198
6.05930,147565
6.06743,151816
6.07555,151095
6.08367,142753
6.09180,150412
6.09992,139059
6.10805,146217
6.11617,142336
6.12428,142285
6.13242,151293
6.14053,146135
6.14865,162517
6.15678,168323
6.16490,170717
6.17303,180530
6.18115,182294
6.18927,181421
6.19740,184859
6.20552,172945
6.21365,179232
6.22177,171963
6.22988,172920
6.23802,175679
6.24613,163992
6.25425,176919
6.26238,171007
6.27050,172472
6.27863,173893
6.28675,180233
6.29487,176731
6.30300,178436
6.31112,178875
6.31925,175500
6.32737,178629
6.33548,179104
6.34362,194707
6.35173,184874
6.35987,194987
6.36798,180161
6.37610,174153
6.38423,165304
6.39235,156262
6.40047,156089
6.40860,159040
6.41672,148975
6.42485,147346
6.43297,150406
6.44108,150700
6.44922,142598
6.45733,140973
6.46547,135945
6.47358,139024
6.48170,137947
6.48983,137474
6.49795,138114
6.50608,131953
6.51420,129624
6.52232,135504
6.53045,132008
6.53857,132012
6.54668,127902
6.55482,130000
6.56293,128673
6.57107,127900
6.57918,128361
6.58730,118617
6.59543,123240
6.60355,122603
6.61168,127248
6.61980,125202
6.62792,122513
6.63605,130983
6.64417,120193
6.65228,125484
6.66042,118631
6.66853,123177
6.67667,120105
6.68478,123081
6.69290,123087
6.70103,132646
6.70915,139169
6.71728,150540
6.72540,155670
6.73352,147062
6.74165,140914
6.74977,140503
6.75790,134006
6.76602,128350
6.77413,125412
6.78227,129621
6.79038,132300
6.79850,138774
6.80663,126922
6.81475,130514
6.82288,128477
6.83100,123150
6.83912,123252
6.84725,126496
6.85537,117309
6.86350,110585
6.87162,89601
6.87973,84806
6.88787,80211
6.89598,80320
6.90410,82347
6.91223,81797
6.92035,78940
6.92848,79571
6.93660,73623
6.94472,78685
6.95285,77577
6.96097,82185
6.96910,79726
6.97722,80040
6.98533,78347
6.99347,77500
7.00158,77631
7.00972,78586
7.01783,73056
7.02595,75547
7.03408,73272
7.04220,72017
7.05032,75447
7.05845,69827
7.06657,69569
7.07470,70402
7.08282,70051
7.09093,76603
7.09907,70245
7.10718,74151
7.11532,73654
7.12343,76128
7.13155,82025
7.13968,97623
7.14780,104553
7.15593,115895
7.16405,112668
7.17217,112969
7.18030,107762
7.18842,107290
7.19653,109167
7.20467,98493
7.21278,103475
7.22092,96347
7.22903,92792
7.23715,92227
7.24528,87782
7.25340,87412
7.26153,85038
7.26965,86315
7.27777,86468
7.28590,82390
7.29402,86334
7.30213,83842
7.31027,84962
7.31838,82388
7.32652,78071
7.33463,81584
7.34275,77765
7.35088,76865
7.35900,79242
7.36713,75355
7.37525,73379
7.38337,81039
7.39150,77256
7.39962,74056
7.40775,78116
7.41587,77870
7.42398,76277
7.43212,74321
7.44023,73635
7.44835,70213
7.45648,72763
7.46460,67989
7.47273,73336
7.48085,72087
7.48897,76389
7.49710,73735
7.50522,69067
7.51335,71155
7.52147,69085
7.52958,73093
7.53772,70339
7.54583,71320
7.55397,67642
7.56208,68416
7.57020,68936
7.57833,70696
7.58645,69119
7.59457,70992
7.60270,72840
7.61082,69339
7.61895,71102
7.62707,75620
7.63518,78724
7.64332,81416
7.65143,86254
7.65957,85579
7.66768,84694
7.67580,91959
7.68393,95982
7.69205,92951
7.70017,90636
7.70830,82273
7.71642,81553
7.72455,73796
7.73267,74753
7.74078,82051
7.74892,75155
7.75703,70065
7.76517,70787
7.77328,75165
7.78140,69994
7.78953,70627
7.79765,68516
7.80578,65084
7.81390,65272
7.82202,63108
7.83015,62514
7.83827,68670
7.84638,67231
7.85452,61825
7.86263,63767
7.87077,63330
7.87888,59289
7.88700,61115
7.89513,64314
7.90325,64783
7.91138,61357
7.91950,61494
7.92762,62889
7.93575,61285
7.94387,59561
7.95200,59336
7.96012,61445
7.96823,60555
7.97637,62898
7.98448,63584
7.99260,60705
8.00073,62001
8.00885,62899
8.01698,61837
8.02510,61895
8.03322,57265
8.04135,61411
8.04947,57007
8.05760,56755
8.06572,56368
8.07383,57086
8.08197,57268
8.09008,56779
8.09820,60366
8.10633,55200
8.11445,57475
8.12258,56682
8.13070,59210
8.13882,60710
8.14695,56915
8.15507,55582
8.16320,55729
8.17132,59604
8.17943,58554
8.18757,61819
8.19568,55166
8.20382,57811
8.21193,58921
8.22005,55286
8.22818,58883
8.23630,57447
8.24442,54472
8.25255,56417
8.26067,56345
8.26880,58126
8.27692,54456
8.28503,54126
8.29317,55334
8.30128,51801
8.30942,56696
8.31753,54308
8.32565,53044
8.33378,55970
8.34190,53310
8.35002,53479
8.35815,52993
8.36627,51332
8.37440,52962
8.38252,53845
8.39063,56909
8.39877,53908
8.40688,54418
8.41502,53015
8.42313,55377
8.43125,51246
8.43938,54382
8.44750,57069
8.45563,55313
8.46375,51290
8.47187,49947
8.48000,53004
8.48812,56942
8.49623,61817
8.50437,67346
8.51248,80030
8.52062,86332
8.52873,80142
8.53685,79792
8.54498,71076
8.55310,77224
8.56123,72080
8.56935,64924
8.57747,68797
8.58560,67310
8.59372,64823
8.60185,65813
8.60997,62701
8.61808,60745
8.62622,67367
8.63433,67048
8.64245,65352
8.65058,67517
8.65870,63699
8.66683,61878
8.67495,63074
8.68307,63454
8.69120,63558
8.69932,64351
8.70745,61788
8.71557,64336
8.72368,59340
8.73182,63873
8.73993,65931
8.74805,69851
8.75618,65210
8.76430,65624
8.77243,67721
8.78055,66084
8.78867,86769
8.79680,120240
8.80492,164863
8.81305,225054
8.82117,259903
8.82928,271376
8.83742,264298
8.84553,247629
8.85367,204025
8.86178,190752
8.86990,173671
8.87803,166507
8.88615,155544
8.89427,150407
8.90240,148251
8.91052,139431
8.91865,141582
8.92677,137004
8.93488,132420
8.94302,133856
8.95113,134971
8.95927,127112
8.96738,127313
8.97550,122487
8.98363,122273
8.99175,117770
8.99988,117331
9.00800,121596
9.01612,115236
9.02425,120247
9.03237,120524
9.04048,114023
9.04862,107286
9.05673,116352
9.06487,112045
9.07298,113758
9.08110,107734
9.08923,105122
9.09735,107966
9.10548,109758
9.11360,104001
9.12172,100913
9.12985,102966
9.13797,103420
9.14608,100741
9.15422,101301
9.16233,100537
9.17047,104209
9.17858,100620
9.18670,97744
9.19483,99321
9.20295,98502
9.21108,102331
9.21920,100232
9.22732,103502
9.23545,100034
9.24357,102682
9.25170,101965
9.25982,99476
9.26793,99951
9.27607,96180
9.28418,95120
9.29230,93924
9.30043,91820
9.30855,96118
9.31668,88564
9.32480,91498
9.33292,86208
9.34105,87522
9.34917,87263
9.35730,90559
9.36542,85171
9.37353,86321
9.38167,89003
9.38978,85964
9.39790,87258
9.40603,88344
9.41415,83883
9.42228,80143
9.43040,84122
9.43852,82197
9.44665,83768
9.45477,80120
9.46290,81305
9.47102,84935
9.47913,85236
9.48727,86898
9.49538,80130
9.50352,84983
9.51163,85696
9.51975,88512
9.52788,85112
9.53600,82901
9.54412,87111
9.55225,83977
9.56037,74748
9.56850,67845
9.57662,63078
9.58473,58691
9.59287,63020
9.60098,57258
9.60912,53498
9.61723,56428
9.62535,60475
9.63348,56967
9.64160,55731
9.64973,55027
9.65785,59607
9.66597,54756
9.67410,56307
9.68222,57104
9.69033,52749
9.69847,54647
9.70658,54338
9.71472,54355
9.72283,55202
9.73095,53864
9.73908,58168
9.74720,54853
9.75533,53377
9.76345,55201
9.77157,57964
9.77970,57886
9.78782,59035
9.79595,61354
9.80407,58850
9.81218,60014
9.82032,58829
9.82843,58869
9.83655,64316
9.84468,63730
9.85280,60459
9.86093,61715
9.86905,66616
9.87717,61356
9.88530,64846
9.89342,67622
9.90155,67808
9.90967,67415
9.91778,63674
9.92592,69280
9.93403,67331
9.94215,73226
9.95028,68011
9.95840,80229
9.96653,81572
9.97465,83779
9.98277,82113
9.99090,81373
9.99902,81038
10.00715,82976
10.01527,81349
10.02338,82939
10.03152,83100
10.03963,84913
10.04777,81330
10.05588,85767
10.06400,83538
10.07213,84555
10.08025,82603
10.08837,79937
10.09650,81388
10.10462,82888
10.11275,76484
10.12087,74723
10.12898,79170
10.13712,80467
10.14523,73467
10.15337,71308
10.16148,73320
10.16960,65881
10.17773,62950
10.18585,69824
10.19397,65817
10.20210,66325
10.21022,67138
10.21835,63810
10.22647,62684
10.23458,63586
10.24272,64451
10.25083,65320
10.25897,73700
10.26708,73497
10.27520,91818
10.28333,105760
10.29145,134163
10.29958,177518
10.30770,229244
10.31582,307552
10.32395,372019
10.33207,429649
10.34018,435235
10.34832,416410
10.35643,410740
10.36457,406477
10.37268,422488
10.38080,402228
10.38893,363472
10.39705,339384
10.40518,310566
10.41330,290593
10.42142,269943
10.42955,255564
10.43767,238226
10.44580,230814
10.45392,218613
10.46203,203387
10.47017,184315
10.47828,181948
10.48640,166458
10.49453,159438
10.50265,150708
10.51078,148902
10.51890,139094
10.52702,136807
10.53515,130268
10.54327,122131
10.55140,122413
10.55952,117122
10.56763,119899
10.57577,110935
10.58388,111171
10.59200,108734
10.60013,113902
10.60825,105161
10.61638,107425
10.62450,105138
10.63262,101957
10.64075,98196
10.64887,98720
10.65700,94029
10.66512,93222
10.67323,89805
10.68137,88238
10.68948,89156
10.69762,84341
10.70573,83035
10.71385,87037
10.72198,83496
10.73010,80541
10.73822,78826
10.74635,77275
10.75447,77181
10.76260,74717
10.77072,75206
10.77883,80453
10.78697,76592
10.79508,72479
10.80322,73288
10.81133,71935
10.81945,70630
10.82758,68491
10.83570,65678
10.84383,67436
10.85195,73090
10.86007,73034
10.86820,70020
10.87632,65504
10.88443,66243
10.89257,66337
10.90068,71436
10.90882,69631
10.91693,61114
10.92505,60455
10.93318,60342
10.94130,58117
10.94943,61644
10.95755,61634
10.96567,61416
10.97380,58309
10.98192,58445
10.99003,60268
10.99817,60055
11.00628,55419
11.01442,58082
11.02253,58074
11.03065,54709
11.03878,56846
11.04690,59621
11.05503,53782
11.06315,53191
11.07127,52889
11.07940,54832
11.08752,52184
11.09565,54961
11.10377,50139
11.11188,52642
11.12002,54963
11.12813,55390
11.13625,53644
11.14438,54099
11.15250,51819
11.16063,50519
11.16875,44812
11.17687,47781
11.18500,47447
11.19312,48010
11.20125,49750
11.20937,48121
11.21748,50167
11.22562,46646
11.23373,49247
11.24185,46103
11.24998,47682
11.25810,44121
11.26623,45539
11.27435,43863
11.28247,42511
11.29060,40058
11.29872,38377
11.30685,39507
11.31497,38326
11.32308,42088
11.33122,42400
11.33933,41021
11.34747,40193
11.35558,42557
11.36370,48740
11.37183,53022
11.37995,64750
11.38807,62970
11.39620,65283
11.40432,65344
11.41245,65654
11.42057,58836
11.42868,55508
11.43682,57132
11.44493,51060
11.45307,52573
11.46118,48837
11.46930,48579
11.47743,45524
11.48555,50138
11.49368,45228
11.50180,46857
11.50992,51059
11.51805,47693
11.52617,45313
11.53428,46408
11.54242,48394
11.55053,45707
11.55867,44277
11.56678,43754
11.57490,44708
11.58303,43559
11.59115,43156
11.59928,45279
11.60740,45258
11.61552,45963
11.62365,46243
11.63177,46462
11.63988,46742
11.64802,41532
11.65613,43731
11.66427,43226
11.67238,43915
11.68050,42497
11.68863,44336
11.69675,37483
11.70488,38983
11.71300,39585
11.72112,43231
11.72925,41579
11.73737,40160
11.74550,43872
11.75362,39795
11.76173,44676
11.76987,40153
11.77798,41213
11.78610,41462
11.79423,44530
11.80235,42934
11.81048,41664
11.81860,36706
11.82672,40559
11.83485,37603
11.84297,37529
11.85110,39959
11.85922,39926
11.86733,38497
11.87547,42272
11.88358,36360
11.89172,37843
11.89983,38115
11.90795,38201
11.91608,35589
11.92420,35982
11.93232,37433
11.94045,37806
11.94857,39192
11.95670,35486
11.96482,36195
11.97293,37426
11.98107,43047
11.98918,44303
11.99732,54906
12.00543,71364
12.01355,91119
12.02168,100818
12.02980,105697
12.03792,106985
12.04605,104382
12.05417,95878
12.06230,90101
12.07042,87353
12.07853,79242
12.08667,75804
12.09478,70802
12.10292,71567
12.11103,69632
12.11915,75015
12.12728,66082
12.13540,62827
12.14353,63554
12.15165,62920
12.15977,63037
12.16790,61492
12.17602,60704
12.18413,58964
12.19227,62548
12.20038,61505
12.20852,65912
12.21663,59811
12.22475,56354
12.23288,53388
12.24100,57226
12.24913,56963
12.25725,53977
12.26537,55842
12.27350,54662
12.28162,55728
12.28975,53428
12.29787,51454
12.30598,48446
12.31412,46680
12.32223,52619
12.33035,49301
12.33848,47873
12.34660,49533
12.35473,53468
12.36285,48024
12.37097,49843
12.37910,44927
12.38722,47890
12.39535,45148
12.40347,47830
12.41158,48466
12.41972,49896
12.42783,47779
12.43595,55384
12.44408,49120
12.45220,48775
12.46033,49131
12.46845,44983
12.47657,47185
12.48470,45255
12.49282,44672
12.50095,47792
12.50907,40453
12.51718,44524
12.52532,48291
12.53343,51145
12.54157,60554
12.54968,73010
12.55780,89961
12.56593,98918
12.57405,95798
12.58217,98959
12.59030,90205
12.59842,79851
12.60655,74026
12.61467,70485
12.62278,62399
12.63092,59007
12.63903,55849
12.64717,56786
12.65528,55977
12.66340,51068
12.67153,49337
12.67965,47862
12.68777,47191
12.69590,48537
12.70402,42916
12.71215,40888
12.72027,39772
12.72838,40725
12.73652,41276
12.74463,41470
12.75277,40487
12.76088,41355
12.76900,43861
12.77713,42013
12.78525,36401
12.79338,41348
12.80150,38911
12.80962,41737
12.81775,35557
12.82587,36479
12.83398,36223
12.84212,34766
12.85023,37516
12.85837,40997
12.86648,36963
12.87460,36641
12.88273,41624
12.89085,36350
12.89898,33462
12.90710,37001
12.91522,35410
12.92335,33159
12.93147,33214
12.93960,34052
12.94772,38240
12.95583,42530
12.96397,48941
12.97208,59030
12.98020,69561
12.98833,73410
12.99645,72239
13.00458,64297
13.01270,63338
13.02082,53901
13.02895,48755
13.03707,49198
13.04520,44334
13.05332,42083
13.06143,41297
13.06957,42083
13.07768,39277
13.08580,36653
13.09393,39951
13.10205,37268
13.11018,37676
13.11830,39568
13.12642,38364
13.13455,35560
13.14267,36662
13.15080,38953
13.15892,37462
13.16703,35895
13.17517,34792
13.18328,36962
13.19142,33573
13.19953,36201
13.20765,35955
13.21578,37387
13.22390,36046
13.23202,34013
13.24015,37898
13.24827,35321
13.25640,36136
13.26452,35190
13.27263,35164
13.28077,35982
13.28888,36205
13.29702,32638
13.30513,35195
13.31325,35196
13.32138,38194
13.32950,33548
13.33763,32615
13.34575,32571
13.35387,32218
13.36200,34351
13.37012,32797
13.37823,32727
13.38637,31991
13.39448,29273
13.40262,34201
13.41073,29190
13.41885,31782
13.42698,34421
13.43510,31418
13.44323,30785
13.45135,34417
13.45947,33710
13.46760,32091
13.47572,29566
13.48383,30182
13.49197,30929
13.50008,32861
13.50822,33504
13.51633,32641
13.52445,31368
13.53258,29066
13.54070,34670
13.54883,29647
13.55695,29408
13.56507,30546
13.57320,31627
13.58132,32230
13.58945,33148
13.59757,35377
13.60568,32824
13.61382,30115
13.62193,31952
13.63005,33385
13.63818,31800
13.64630,30882
13.65443,32350
13.66255,33101
13.67067,30676
13.67880,32993
13.68692,30971
13.69505,32528
13.70317,30694
13.71128,29259
13.71942,31460
13.72753,30994
13.73565,30507
13.74378,33525
13.75190,41907
13.76003,53389
13.76815,89038
13.77627,118561
13.78440,171179
13.79252,194719
13.80065,213739
13.80877,214797
13.81688,197297
13.82502,193815
13.83313,175417
13.84127,173041
13.84938,161631
13.85750,154906
13.86563,155463
13.87375,149572
13.88187,141060
13.89000,139342
13.89812,132150
13.90625,114460
13.91437,110890
13.92248,106301
13.93062,108224
13.93873,108258
13.94687,104247
13.95498,100616
13.96310,94841
13.97123,96448
13.97935,100171
13.98748,99576
13.99560,100870
14.00372,98299
14.01185,101720
14.01997,96823
14.02808,90470
14.03622,94818
14.04433,88176
14.05247,82518
14.06058,92141
14.06870,84800
14.07683,78217
14.08495,83889
14.09308,81390
14.10120,79732
14.10932,75416
14.11745,77591
14.12557,77397
14.13370,78982
14.14182,74523
14.14993,76043
14.15807,72770
14.16618,73704
14.17430,77310
14.18243,76204
14.19055,90330
14.19868,98162
14.20680,122994
14.21492,145780
14.22305,167917
14.23117,169179
14.23930,169543
14.24742,158769
14.25553,144955
14.26367,128915
14.27178,118491
14.27990,115774
14.28803,113367
14.29615,99023
14.30428,92890
14.31240,87174
14.32052,90080
14.32865,81454
14.33677,86645
14.34490,76869
14.35302,77857
14.36113,67365
14.36927,63828
14.37738,57299
14.38552,51826
14.39363,50143
14.40175,48909
14.40988,47465
14.41800,48428
14.42612,45205
14.43425,46539
14.44237,48247
14.45050,46132
14.45862,46736
14.46673,42887
14.47487,44069
14.48298,42145
14.49112,40888
14.49923,44707
14.50735,41352
14.51548,40861
14.52360,38456
14.53172,47678
14.53985,40293
14.54797,40191
14.55610,38315
14.56422,44752
14.57233,41611
14.58047,41732
14.58858,41222
14.59672,35184
14.60483,35976
14.61295,36031
14.62108,38517
14.62920,36276
14.63733,36756
14.64545,37886
14.65357,35606
14.66170,34654
14.66982,36704
14.67793,38875
14.68607,39295
14.69418,37046
14.70232,36394
14.71043,37822
14.71855,35329
14.72668,37112
14.73480,37108
14.74293,34042
14.75105,33208
14.75917,36429
14.76730,36521
14.77542,36489
14.78355,32940
14.79167,36663
14.79978,41836
14.80792,47168
14.81603,64809
14.82415,89446
14.83228,132636
14.84040,183954
14.84853,216777
14.85665,234044
14.86477,226084
14.87290,203383
14.88102,183624
14.88915,162765
14.89727,143989
14.90538,128129
14.91352,125041
14.92163,115615
14.92975,107987
14.93788,100776
14.94600,93409
14.95413,92749
14.96225,87910
14.97037,91177
14.97850,84963
14.98662,79694
14.99475,81638
15.00287,76027
15.01098,68350
15.01912,70896
15.02723,69687
15.03537,67928
15.04348,72798
15.05160,65050
15.05973,59905
15.06785,62167
15.07597,57941
15.08410,57078
15.09222,60188
15.10035,57228
15.10847,52991
15.11658,56772
15.12472,51947
15.13283,52300
15.14097,50419
15.14908,48300
15.15720,46634
15.16533,45572
15.17345,44706
15.18158,41825
15.18970,40250
15.19782,39627
15.20595,38057
15.21407,39615
15.22218,38264
15.23032,38873
15.23843,37345
15.24657,34722
15.25468,37739
15.26280,33775
15.27093,35198
15.27905,37283
15.28718,34234
15.29530,36676
15.30342,35035
15.31155,33892
15.31967,36198
15.32778,33149
15.33592,33258
15.34403,31837
15.35217,33226
15.36028,34490
15.36840,34765
15.37653,32326
15.38465,34352
15.39278,33339
15.40090,33723
15.40902,33451
15.41715,31886
15.42527,30815
15.43340,30909
15.44152,31932
15.44963,30547
15.45777,31907
15.46588,37214
15.47400,36505
15.48213,29771
15.49025,31594
15.49838,34467
15.50650,35676
15.51462,37387
15.52275,36971
15.53087,41671
15.53900,42413
15.54712,44475
15.55523,40100
15.56337,37833
15.57148,36073
15.57960,35100
15.58773,36043
15.59585,34631
15.60398,32134
15.61210,34001
15.62022,36512
15.62835,34813
15.63647,30578
15.64460,32512
15.65272,33523
15.66083,32419
15.66897,30211
15.67708,33110
15.68522,31691
15.69333,30797
15.70145,31855
15.70958,30246
15.71770,30294
15.72582,31865
15.73395,29555
15.74207,32228
15.75020,31832
15.75832,33000
15.76643,31203
15.77457,34699
15.78268,36740
15.79082,38187
15.79893,43611
15.80705,45916
15.81518,46791
15.82330,47238
15.83143,49952
15.83955,42067
15.84767,40816
15.85580,40970
15.86392,38269
15.87203,33343
15.88017,37790
15.88828,37515
15.89642,34913
15.90453,37358
15.91265,34823
15.92078,36267
15.92890,32593
15.93703,34690
15.94515,36343
15.95327,39390
15.96140,34563
15.96952,35464
15.97763,39417
15.98577,41302
15.99388,39363
16.00202,43904
16.01013,48651
16.01825,45606
16.02638,42369
16.03450,43493
16.04263,41043
16.05075,39450
16.05887,39791
16.06700,39329
16.07512,38481
16.08325,40958
16.09137,37632
16.09948,37422
16.10762,35114
16.11573,36576
16.12385,39172
16.13198,33126
16.14010,35403
16.14823,34156
16.15635,33230
16.16447,33670
16.17260,35531
16.18072,33955
16.18885,33882
16.19697,36075
16.20508,31910
16.21322,32633
16.22133,35080
16.22947,34100
16.23758,34836
16.24570,32983
16.25383,37852
16.26195,32299
16.27007,35428
16.27820,31988
16.28632,32218
16.29445,34228
16.30257,32860
16.31068,29938
16.31882,29713
16.32693,32836
16.33507,32059
16.34318,36406
16.35130,32444
16.35943,35193
16.36755,36663
16.37567,40072
16.38380,47546
16.39192,45551
16.40005,46793
16.40817,42084
16.41628,42894
16.42442,41549
16.43253,41086
16.44067,38836
16.44878,38133
16.45690,36720
16.46503,40256
16.47315,49493
16.48128,57015
16.48940,64535
16.49752,75817
16.50565,78535
16.51377,78605
16.52188,71644
16.53002,69471
16.53813,60767
16.54627,52627
16.55438,50929
16.56250,56383
16.57063,46580
16.57875,49166
16.58688,45165
16.59500,43874
16.60312,41303
16.61125,42242
16.61937,48216
16.62750,48003
16.63562,42990
16.64373,44501
16.65187,43159
16.65998,43299
16.66810,43956
16.67623,41074
16.68435,41623
16.69248,39312
16.70060,34163
16.70872,36568
16.71685,38910
16.72497,36829
16.73310,37316
16.74122,34351
16.74933,35819
16.75747,31872
16.76558,35067
16.77370,34037
16.78183,33693
16.78995,34768
16.79808,36348
16.80620,32915
16.81432,34028
16.82245,33080
16.83057,29279
16.83870,29623
16.84682,33042
16.85493,30586
16.86307,32243
16.87118,30446
16.87932,32655
16.88743,31158
16.89555,29085
16.90368,33227
16.91180,30426
16.91992,31770
16.92805,35308
16.93617,32591
16.94430,32360
16.95242,34028
16.96053,31219
16.96867,29275
16.97678,30925
16.98492,32984
16.99303,34859
17.00115,32112
17.00928,30307
17.01740,32460
17.02552,31383
17.03365,33409
17.04177,31741
17.04990,31168
17.05802,33067
17.06613,32186
17.07427,32213
17.08238,32558
17.09052,32414
17.09863,37410
17.10675,33032
17.11488,34013
17.12300,36473
17.13113,37011
17.13925,37703
17.14737,38693
17.15550,46708
17.16362,39873
17.17173,39698
17.17987,34777
17.18798,34391
17.19612,35530
17.20423,36669
17.21235,30965
17.22048,27898
17.22860,34775
17.23673,32541
17.24485,30536
17.25297,31789
17.26110,29958
17.26922,31396
17.27735,31258
17.28547,30060
17.29358,36364
17.30172,36141
17.30983,30536
17.31795,31743
17.32608,32128
17.33420,32111
17.34233,36118
17.35045,34689
17.35857,36617
17.36670,37013
17.37482,40242
17.38295,38437
17.39107,43099
17.39918,36782
17.40732,38495
17.41543,39832
17.42355,46671
17.43168,41168
17.43980,38255
17.44793,36196
17.45605,37640
17.46417,38885
17.47230,36733
17.48042,37081
17.48855,39088
17.49667,36532
17.50478,34094
17.51292,34879
17.52103,36663
17.52917,36346
17.53728,36716
17.54540,35577
17.55353,34413
17.56165,36685
17.56977,37183
17.57790,38011
17.58602,43604
17.59415,46259
17.60227,54115
17.61038,61800
17.61852,66617
17.62663,68296
17.63477,70890
17.64288,63671
17.65100,62782
17.65913,63279
17.66725,60984
17.67538,54286
17.68350,56779
17.69162,59414
17.69975,56209
17.70787,52858
17.71598,51388
17.72412,52277
17.73223,47040
17.74037,48188
17.74848,51919
17.75660,40630
17.76473,41760
17.77285,45241
17.78098,40266
17.78910,41422
17.79722,41515
17.80535,41456
17.81347,44312
17.82158,47686
17.82972,51072
17.83783,58625
17.84597,68369
17.85408,67382
17.86220,66413
17.87033,61226
17.87845,56371
17.88658,56982
17.89470,52429
17.90282,48699
17.91095,44528
17.91907,40563
17.92720,41229
17.93532,42195
17.94343,40051
17.95157,39698
17.95968,35683
17.96780,41015
17.97593,36822
17.98405,42678
17.99218,39272
18.00030,38911
18.00842,33723
18.01655,35471
18.02467,37329
18.03280,37821
18.04092,35915
18.04903,39508
18.05717,39439
18.06528,42848
18.07340,55100
18.08153,83071
18.08965,127572
18.09778,198213
18.10590,262404
18.11402,310352
18.12215,323340
18.13027,304681
18.13840,286677
18.14652,240838
18.15463,212465
18.16277,192635
18.17088,177538
18.17902,159430
18.18713,149468
18.19525,137053
18.20338,129975
18.21150,121802
18.21962,110562
18.22775,108392
18.23587,102298
18.24400,102090
18.25212,93596
18.26023,89887
18.26837,87226
18.27648,76993
18.28462,70282
18.29273,61806
18.30085,55931
18.30898,48671
18.31710,41084
18.32523,43197
18.33335,42034
18.34147,43573
18.34960,40180
18.35772,36723
18.36583,38219
18.37397,39192
18.38208,38020
18.39022,43748
18.39833,38626
18.40645,41671
18.41458,41986
18.42270,43264
18.43083,48101
18.43895,54592
18.44707,48220
18.45520,50575
18.46332,49065
18.47143,50840
18.47957,50018
18.48768,51164
18.49582,55501
18.50393,54263
18.51205,48736
18.52018,52191
18.52830,44525
18.53643,43841
18.54455,42949
18.55267,40761
18.56080,42125
18.56892,37396
18.57705,39642
18.58517,39205
18.59328,36945
18.60142,36641
18.60953,36312
18.61765,38888
18.62578,37593
18.63390,36289
18.64203,39642
18.65015,38584
18.65827,36728
18.66640,38387
18.67452,34760
18.68265,36968
18.69077,35753
18.69888,35152
18.70702,33254
18.71513,33308
18.72327,32448
18.73138,35014
18.73950,33571
18.74763,36592
18.75575,35831
18.76387,32341
18.77200,31971
18.78012,34220
18.78825,28361
18.79637,34067
18.80448,31563
18.81262,35755
18.82073,31044
18.82887,32481
18.83698,29328
18.84510,33621
18.85323,33115
18.86135,30244
18.86947,30598
18.87760,29924
18.88572,32088
18.89385,31511
18.90197,32392
18.91008,28928
18.91822,31332
18.92633,33337
18.93447,30033
18.94258,31833
18.95070,30426
18.95883,35718
18.96695,35632
18.97508,33409
18.98320,35269
18.99132,34054
18.99945,33593
19.00757,32761
19.01568,32933
19.02382,33609
19.03193,40473
19.04007,34879
19.04818,34017
19.05630,43901
19.06443,52667
19.07255,61589
19.08068,69835
19.08880,77141
19.09692,81898
19.10505,91310
19.11317,94986
19.12128,103106
19.12942,100178
19.13753,106773
19.14567,103807
19.15378,104559
19.16190,100403
19.17003,98954
19.17815,104345
19.18628,95734
19.19440,100342
19.20252,101471
19.21065,101027
19.21877,93626
19.22690,93079
19.23502,94060
19.24313,96029
19.25127,90614
19.25938,94324
19.26750,92681
19.27563,94710
19.28375,89890
19.29188,90637
19.30000,88715
19.30812,94664
19.31625,86612
19.32437,92060
19.33250,89018
19.34062,91300
19.34873,94807
19.35687,91459
19.36498,95040
19.37312,95919
19.38123,97032
19.38935,97088
19.39748,97126
19.40560,94835
19.41372,96166
19.42185,97344
19.42997,95288
19.43810,92358
19.44622,90942
19.45433,88908
19.46247,83013
19.47058,89076
19.47872,87414
19.48683,89792
19.49495,105214
19.50308,119879
19.51120,143988
19.51933,154485
19.52745,162944
19.53557,156420
19.54370,140332
19.55182,113924
19.55993,99814
19.56807,91777
19.57618,85728
19.58432,84235
19.59243,79465
19.60055,77345
19.60868,76275
19.61680,77253
19.62493,75471
19.63305,73183
19.64117,80553
19.64930,79785
19.65742,92384
19.66553,109788
19.67367,134179
19.68178,146103
19.68992,159614
19.69803,151805
19.70615,144929
19.71428,131442
19.72240,124291
19.73053,115093
19.73865,108354
19.74677,100314
19.75490,95577
19.76302,85756
19.77115,85733
19.77927,80237
19.78738,80641
19.79552,77859
19.80363,72657
19.81175,80628
19.81988,80736
19.82800,78030
19.83613,73595
19.84425,78996
19.85237,79146
19.86050,80030
19.86862,80806
19.87675,90604
19.88487,124107
19.89298,184924
19.90112,281859
19.90923,406068
19.91735,503011
19.92548,581100
19.93360,611642
19.94173,581299
19.94985,547325
19.95797,478898
19.96610,435171
19.97422,404861
19.98235,364179
19.99047,349715
19.99858,326570
20.00672,306422
20.01483,292192
20.02297,276208
20.03108,255424
20.03920,241974
20.04733,224151
20.05545,199667
20.06357,175461
20.07170,147025
20.07982,126127
20.08795,110052
20.09607,97031
20.10418,97333
20.11232,97522
20.12043,90948
20.12857,93058
20.13668,83324
20.14480,88144
20.15293,82669
20.16105,81990
20.16918,84918
20.17730,84400
20.18542,84210
20.19355,88912
20.20167,90689
20.20978,90119
20.21792,95816
20.22603,95285
20.23417,90147
20.24228,89171
20.25040,84381
20.25853,89460
20.26665,94927
20.27478,110140
20.28290,126549
20.29102,144687
20.29915,161245
20.30727,166802
20.31538,163975
20.32352,147739
20.33163,132212
20.33977,107988
20.34788,100362
20.35600,97771
20.36413,78723
20.37225,67209
20.38038,62896
20.38850,63624
20.39662,58875
20.40475,59811
20.41287,57926
20.42100,61468
20.42912,62458
20.43723,60952
20.44537,68782
20.45348,72670
20.46160,73538
20.46973,72833
20.47785,72541
20.48598,67686
20.49410,62972
20.50222,64743
20.51035,60047
20.51847,53996
20.52660,56412
20.53472,54344
20.54283,53404
20.55097,51992
20.55908,52618
20.56722,49701
20.57533,51747
20.58345,49494
20.59158,49678
20.59970,47195
20.60782,48212
20.61595,48699
20.62407,46431
20.63220,44545
20.64032,44568
20.64843,45350
20.65657,43535
20.66468,42240
20.67282,46787
20.68093,45993
20.68905,45233
20.69718,42134
20.70530,43765
20.71342,45209
20.72155,45296
20.72967,46145
20.73780,43756
20.74592,39398
20.75403,40482
20.76217,42945
20.77028,43153
20.77842,44569
20.78653,45661
20.79465,46142
20.80278,48472
20.81090,49984
20.81903,47684
20.82715,57314
20.83527,63198
20.84340,60455
20.85152,57837
20.85963,52695
20.86777,53383
20.87588,44378
20.88402,43655
20.89213,45486
20.90025,43375
20.90838,37795
20.91650,43257
20.92463,48057
20.93275,42690
20.94087,42612
20.94900,42896
20.95712,45337
20.96523,42496
20.97337,40203
20.98148,41628
20.98962,40394
20.99773,42033
21.00585,37825
21.01398,41399
21.02210,36543
21.03023,41870
21.03835,39565
21.04647,38652
21.05460,41030
21.06272,38221
21.07085,41570
21.07897,41349
21.08708,42718
21.09522,41363
21.10333,41439
21.11145,42306
21.11958,40745
21.12770,40295
21.13583,37667
21.14395,41491
21.15207,41217
21.16020,37986
21.16832,43936
21.17645,48569
21.18457,48932
21.19268,44921
21.20082,46046
21.20893,44931
21.21707,43508
21.22518,43399
21.23330,41037
21.24143,44166
21.24955,42426
21.25767,42808
21.26580,40135
21.27392,39090
21.28205,43545
21.29017,41062
21.29828,44559
21.30642,45339
21.31453,40037
21.32267,39356
21.33078,38831
21.33890,37159
21.34703,43045
21.35515,38291
21.36327,43368
21.37140,37023
21.37952,35139
21.38765,35729
21.39577,38708
21.40388,40918
21.41202,41524
21.42013,43326
21.42827,45648
21.43638,45156
21.44450,41716
21.45263,47685
21.46075,46332
21.46888,42788
21.47700,43133
21.48512,42614
21.49325,39838
21.50137,41879
21.50948,42306
21.51762,39517
21.52573,41664
21.53387,39761
21.54198,42302
21.55010,45795
21.55823,41734
21.56635,43369
21.57448,39712
21.58260,45327
21.59072,39023
21.59885,41945
21.60697,42547
21.61510,41346
21.62322,47204
21.63133,50695
21.63947,54269
21.64758,56432
21.65570,59049
21.66383,64029
21.67195,62093
21.68008,56955
21.68820,52306
21.69632,48473
21.70445,48121
21.71257,45347
21.72070,44950
21.72882,42012
21.73693,40534
21.74507,39971
21.75318,42764
21.76130,38968
21.76943,40933
21.77755,41741
21.78568,45365
21.79380,44199
21.80192,43229
21.81005,44067
21.81817,46377
21.82630,48723
21.83442,50503
21.84253,55946
21.85067,58351
21.85878,58564
21.86692,56029
21.87503,50437
21.88315,52420
21.89128,46987
21.89940,47563
21.90752,43512
21.91565,42016
21.92377,40285
21.93190,42565
21.94002,40058
21.94813,37893
21.95627,36339
21.96438,43244
21.97252,38074
21.98063,44628
21.98875,40286
21.99688,40162
22.00500,42348
22.01313,37792
22.02125,37748
22.02937,36344
22.03750,36373
22.04562,40773
22.05373,41992
22.06187,34753
22.06998,33146
22.07812,40210
22.08623,40121
22.09435,37088
22.10248,35877
22.11060,39212
22.11873,38172
22.12685,38482
22.13497,36368
22.14310,37949
22.15122,40335
22.15933,39178
22.16747,39274
22.17558,36781
22.18372,40300
22.19183,38798
22.19995,36452
22.20808,45188
22.21620,35830
22.22433,40900
22.23245,39442
22.24057,40698
22.24870,42132
22.25682,47411
22.26495,38518
22.27307,38151
22.28118,39859
22.28932,42427
22.29743,39117
22.30555,39494
22.31368,39519
22.32180,41659
22.32993,39868
22.33805,38270
22.34617,39784
22.35430,36678
22.36242,41877
22.37055,40465
22.37867,37666
22.38678,39280
22.39492,37441
22.40303,41759
22.41115,43805
22.41928,48171
22.42740,45323
22.43553,48663
22.44365,51612
22.45177,47669
22.45990,47795
22.46802,46539
22.47615,42710
22.48427,42094
22.49238,42963
22.50052,42029
22.50863,41348
22.51677,40797
22.52488,38588
22.53300,46179
22.54113,42144
22.54925,39741
22.55737,42882
22.56550,44694
22.57362,41057
22.58175,42638
22.58987,35849
22.59798,38132
22.60612,33786
22.61423,39850
22.62237,42655
22.63048,36154
22.63860,36177
22.64673,37234
22.65485,36936
22.66298,38931
22.67110,38252
22.67922,38123
22.68735,37335
22.69547,38362
22.70358,36838
22.71172,36116
22.71983,40846
22.72797,41235
22.73608,37042
22.74420,38666
22.75233,38972
22.76045,40247
22.76858,41293
22.77670,38138
22.78482,39925
22.79295,43640
22.80107,37261
22.80918,44065
22.81732,41078
22.82543,39894
22.83357,41927
22.84168,39876
22.84980,41046
22.85793,42740
22.86605,44053
22.87418,43359
22.88230,44143
22.89042,44505
22.89855,47717
22.90667,50800
22.91480,57213
22.92292,62659
22.93103,73419
22.93917,83119
22.94728,85399
22.95540,90262
22.96353,85811
22.97165,82032
22.97978,74547
22.98790,67815
22.99602,68617
23.00415,63703
23.01227,56174
23.02040,52258
23.02852,50605
23.03663,45876
23.04477,42760
23.05288,44597
23.06102,40079
23.06913,39381
23.07725,43887
23.08538,42475
23.09350,40526
23.10162,40985
23.10975,39060
23.11787,38412
23.12600,38460
23.13412,38079
23.14223,37041
23.15037,37042
23.15848,35635
23.16662,36256
23.17473,38672
23.18285,38857
23.19098,41009
23.19910,39255
23.20722,36760
23.21535,38009
23.22347,34579
23.23160,33643
23.23972,36453
23.24783,33311
23.25597,34881
23.26408,33685
23.27222,35872
23.28033,36924
23.28845,37037
23.29658,40412
23.30470,37336
23.31283,36417
23.32095,38331
23.32907,32839
23.33720,33234
23.34532,39493
23.35343,46172
23.36157,46903
23.36968,52041
23.37782,57647
23.38593,64268
23.39405,70222
23.40218,76251
23.41030,87906
23.41843,86314
23.42655,95126
23.43467,93705
23.44280,98430
23.45092,97521
23.45903,101320
23.46717,95682
23.47528,95622
23.48342,88665
23.49153,81810
23.49965,81069
23.50778,83505
23.51590,74985
23.52403,75834
23.53215,71585
23.54027,68464
23.54840,70657
23.55652,64530
23.56465,63862
23.57277,61703
23.58088,59252
23.58902,64665
23.59713,63576
23.60525,68548
23.61338,68064
23.62150,72137
23.62963,68632
23.63775,66465
23.64587,65981
23.65400,63088
23.66212,65290
23.67025,65748
23.67837,64480
23.68648,72803
23.69462,62803
23.70273,66232
23.71087,67351
23.71898,59872
23.72710,54958
23.73523,49537
23.74335,52777
23.75147,46751
23.75960,55629
23.76772,61663
23.77585,84017
23.78397,104812
23.79208,142701
23.80022,173222
23.80833,186919
23.81647,192349
23.82458,187006
23.83270,169031
23.84083,149459
23.84895,123595
23.85707,112818
23.86520,99548
23.87332,91340
23.88145,87984
23.88957,81828
23.89768,69078
23.90582,73190
23.91393,66340
23.92207,67094
23.93018,70221
23.93830,64791
23.94643,61223
23.95455,60479
23.96268,56693
23.97080,57329
23.97892,55878
23.98705,48786
23.99517,57484
24.00328,53665
24.01142,59296
24.01953,74106
24.02767,94801
24.03578,121894
24.04390,146053
24.05203,156669
24.06015,142705
24.06828,123705
24.07640,105373
24.08452,84965
24.09265,68266
24.10077,59616
24.10890,58007
24.11702,53043
24.12513,51953
24.13327,50827
24.14138,52841
24.14950,52102
24.15763,52538
24.16575,48888
24.17388,53644
24.18200,52124
24.19012,50084
24.19825,44422
24.20637,50107
24.21450,48956
24.22262,52116
24.23073,57442
24.23887,47083
24.24698,47377
24.25510,45824
24.26323,44844
24.27135,50527
24.27948,43257
24.28760,38567
24.29572,40715
24.30385,37818
24.31197,39731
24.32010,41851
24.32822,35645
24.33633,39566
24.34447,42185
24.35258,40101
24.36072,38837
24.36883,39872
24.37695,44374
24.38508,49248
24.39320,61529
24.40132,74363
24.40945,84565
24.41757,78209
24.42570,75396
24.43382,59922
24.44193,51044
24.45007,49225
24.45818,48683
24.46632,40472
24.47443,39927
24.48255,41828
24.49068,46483
24.49880,51773
24.50692,54796
24.51505,53898
24.52317,52379
24.53130,57366
24.53942,51551
24.54753,51302
24.55567,47993
24.56378,46131
24.57192,44422
24.58003,47275
24.58815,45916
24.59628,44694
24.60440,44166
24.61253,43113
24.62065,40812
24.62877,41123
24.63690,42000
24.64502,42915
24.65313,37257
24.66127,39940
24.66938,41047
24.67752,43429
24.68563,37667
24.69375,38717
24.70188,41164
24.71000,36901
24.71813,40492
24.72625,36677
24.73437,32924
24.74250,35132
24.75062,35016
24.75875,36717
24.76687,33817
24.77498,34012
24.78312,39657
24.79123,40167
24.79935,38047
24.80748,36560
24.81560,35382
24.82373,38552
24.83185,34992
24.83997,39572
24.84810,40279
24.85622,43378
24.86435,49928
24.87247,56235
24.88058,70111
24.88872,74815
24.89683,82719
24.90497,84463
24.91308,86205
24.92120,78726
24.92933,69677
24.93745,61984
24.94557,53870
24.95370,49700
24.96182,43914
24.96995,45145
24.97807,38948
24.98618,39600
24.99432,45010
25.00243,39990
25.01057,40100
25.01868,42577
25.02680,42854
25.03493,44912
25.04305,40570
25.05117,43056
25.05930,44291
25.06742,43438
25.07555,45370
25.08367,41260
25.09178,46214
25.09992,46317
25.10803,52382
25.11617,65865
25.12428,98344
25.13240,144354
25.14053,218843
25.14865,305901
25.15678,353320
25.16490,377697
25.17302,351757
25.18115,291857
25.18927,224931
25.19738,152507
25.20552,112578
25.21363,91683
25.22177,70406
25.22988,68868
25.23800,64181
25.24613,62032
25.25425,68377
25.26238,67878
25.27050,68065
25.27862,63624
25.28675,68280
25.29487,65238
25.30298,61274
25.31112,58833
25.31923,59353
25.32737,57596
25.33548,60833
25.34360,55807
25.35173,52542
25.35985,50992
25.36798,47206
25.37610,45895
25.38422,46544
25.39235,41939
25.40047,43202
25.40860,45129
25.41672,39116
25.42483,43698
25.43297,38029
25.44108,42027
25.44920,40537
25.45733,43275
25.46545,41976
25.47358,44266
25.48170,40901
25.48982,39871
25.49795,41467
25.50607,44682
25.51420,41196
25.52232,41963
25.53043,41483
25.53857,38255
25.54668,38337
25.55482,42271
25.56293,39623
25.57105,39805
25.57918,39850
25.58730,39379
25.59542,41819
25.60355,38425
25.61167,40128
25.61980,41946
25.62792,42173
25.63603,40736
25.64417,37662
25.65228,39217
25.66042,36615
25.66853,38040
25.67665,36141
25.68478,35760
25.69290,38748
25.70102,36600
25.70915,34075
25.71727,35410
25.72540,36446
25.73352,37697
25.74163,34783
25.74977,32746
25.75788,38454
25.76602,32608
25.77413,35399
25.78225,33861
25.79038,33125
25.79850,32160
25.80663,32296
25.81475,35419
25.82287,38689
25.83100,38939
25.83912,42543
25.84723,42785
25.85537,41964
25.86348,42624
25.87162,44670
25.87973,38865
25.88785,34535
25.89598,38126
25.90410,37836
25.91223,38477
25.92035,34076
25.92847,31818
25.93660,30855
25.94472,32033
25.95285,31518
25.96097,30835
25.96908,33142
25.97722,32729
25.98533,33284
25.99345,31050
26.00158,29590
26.00970,33847
26.01783,31961
26.02595,31349
26.03407,30717
26.04220,30894
26.05032,29872
26.05845,29567
26.06657,34464
26.07468,36041
26.08282,40112
26.09093,36925
26.09905,38021
26.10718,40647
26.11530,42370
26.12343,42959
26.13155,44640
26.13967,46627
26.14780,50584
26.15592,52483
26.16405,49012
26.17217,47180
26.18028,49058
26.18842,55791
26.19653,52823
26.20467,48870
26.21278,44321
26.22090,46342
26.22903,44182
26.23715,46485
26.24527,42686
26.25340,43925
26.26152,45244
26.26965,42502
26.27777,40500
26.28588,42884
26.29402,41828
26.30213,41088
26.31027,40820
26.31838,37522
26.32650,37350
26.33463,38720
26.34275,39704
26.35087,40330
26.35900,37129
26.36712,42934
26.37525,39608
26.38337,40134
26.39148,45929
26.39962,49620
26.40773,47415
26.41587,47067
26.42398,51792
26.43210,46223
26.44023,50123
26.44835,42358
26.45648,40001
26.46460,44070
26.47272,40845
26.48085,41715
26.48897,39137
26.49708,40706
26.50522,38761
26.51333,37615
26.52147,38964
26.52958,39614
26.53770,34968
26.54583,34156
26.55395,32255
26.56208,32731
26.57020,34800
26.57832,31456
26.58645,35351
26.59457,34873
26.60270,34169
26.61082,34802
26.61893,36454
26.62707,33421
26.63518,34304
26.64330,33048
26.65143,34531
26.65955,34616
26.66768,37915
26.67580,36710
26.68392,36343
26.69205,35486
26.70017,34742
26.70830,34567
26.71642,30486
26.72453,31361
26.73267,32385
26.74078,33152
26.74890,30970
26.75703,33989
26.76515,33431
26.77328,32154
26.78140,33241
26.78952,31007
26.79765,38274
26.80577,33764
26.81390,34352
26.82202,30908
26.83013,34384
26.83827,33801
26.84638,30843
26.85452,31845
26.86263,31574
26.87075,32073
26.87888,30430
26.88700,33263
26.89512,30599
26.90325,29739
26.91137,30330
26.91950,30332
26.92762,28836
26.93573,30306
26.94387,29622
26.95198,30427
26.96012,29318
26.96823,32196
26.97635,28887
26.98448,33769
26.99260,36787
27.00073,41089
27.00885,49189
27.01697,63994
27.02510,71053
27.03322,85218
27.04133,79470
27.04947,78703
27.05758,70303
27.06572,70008
27.07383,65180
27.08195,59424
27.09008,53969
27.09820,55702
27.10633,51964
27.11445,48758
27.12257,46030
27.13070,48537
27.13882,46615
27.14693,44799
27.15507,42796
27.16318,45757
27.17132,43777
27.17943,49912
27.18755,42066
27.19568,50163
27.20380,51105
27.21193,47485
27.22005,45599
27.22817,44299
27.23630,42526
27.24442,48743
27.25255,41594
27.26067,41625
27.26878,40652
27.27692,37759
27.28503,46029
27.29315,35564
27.30128,34856
27.30940,38741
27.31753,35628
27.32565,35210
27.33377,38216
27.34190,36481
27.35002,38353
27.35815,32441
27.36627,33743
27.37438,34887
27.38252,34228
27.39063,38042
27.39877,36849
27.40688,33204
27.41500,34491
27.42313,32975
27.43125,30918
27.43937,31191
27.44750,34391
27.45562,34369
27.46375,33768
27.47187,36294
27.47998,34055
27.48812,33036
27.49623,33640
27.50437,34729
27.51248,35773
27.52060,34352
27.52873,33563
27.53685,33532
27.54497,33333
27.55310,37150
27.56122,34905
27.56935,29272
27.57747,34975
27.58558,35755
27.59372,39294
27.60183,40116
27.60997,36996
27.61808,37032
27.62620,37336
27.63433,36891
27.64245,35772
27.65058,32651
27.65870,31252
27.66682,32616
27.67495,32717
27.68307,34794
27.69118,30675
27.69932,33502
27.70743,33682
27.71557,36128
27.72368,35939
27.73180,31770
27.73993,31336
27.74805,31628
27.75618,29504
27.76430,31313
27.77242,31017
27.78055,30435
27.78867,33118
27.79678,33570
27.80492,34071
27.81303,34406
27.82117,33258
27.82928,31802
27.83740,29849
27.84553,32822
27.85365,32332
27.86178,35525
27.86990,35251
27.87802,34033
27.88615,31287
27.89427,33044
27.90240,32202
27.91052,34458
27.91863,33966
27.92677,31775
27.93488,33772
27.94300,34215
27.95113,31524
27.95925,30908
27.96738,30908
27.97550,33040
27.98362,33431
27.99175,31846
27.99987,29959
28.00800,33505
28.01612,33674
28.02423,30463
28.03237,33180
28.04048,35172
28.04862,37293
28.05673,33798
28.06485,36186
28.07298,33799
28.08110,35553
28.08922,35507
28.09735,36205
28.10547,30956
28.11360,32108
28.12172,31962
28.12983,33624
28.13797,33333
28.14608,31412
28.15422,32567
28.16233,31590
28.17045,33580
28.17858,33025
28.18670,34647
28.19482,34440
28.20295,35824
28.21107,39895
28.21920,42515
28.22732,40217
28.23543,37889
28.24357,37469
28.25168,37027
28.25982,34807
28.26793,34957
28.27605,36671
28.28418,31691
28.29230,32017
28.30043,31500
28.30855,33165
28.31667,42291
28.32480,38209
28.33292,40092
28.34103,38754
28.34917,41291
28.35728,45636
28.36542,47471
28.37353,49992
28.38165,52913
28.38978,52127
28.39790,52228
28.40603,54750
28.41415,57361
28.42227,54217
28.43040,51035
28.43852,51515
28.44665,49173
28.45477,50153
28.46288,49564
28.47102,43836
28.47913,44335
28.48725,41642
28.49538,40426
28.50350,40846
28.51163,42662
28.51975,43033
28.52787,42019
28.53600,45129
28.54412,41307
28.55225,38405
28.56037,40102
28.56848,36815
28.57662,38352
28.58473,40021
28.59285,38647
28.60098,37910
28.60910,40694
28.61723,39633
28.62535,39637
28.63347,36343
28.64160,38364
28.64972,42844
28.65785,45797
28.66597,45178
28.67408,43062
28.68222,46827
28.69033,44485
28.69847,39432
28.70658,42277
28.71470,46830
28.72283,36768
28.73095,35367
28.73907,38297
28.74720,38433
28.75532,43944
28.76345,48159
28.77157,52540
28.77968,55947
28.78782,57690
28.79593,53489
28.80407,45345
28.81218,47493
28.82030,39798
28.82843,38448
28.83655,43058
28.84467,38394
28.85280,36581
28.86092,38407
28.86905,40189
28.87717,36838
28.88528,38499
28.89342,44121
28.90153,38106
28.90967,38279
28.91778,40265
28.92590,42942
28.93403,36945
28.94215,39326
28.95028,34288
28.95840,41088
28.96652,38217
28.97465,39578
28.98277,43452
28.99088,39190
28.99902,35832
29.00713,41494
29.01527,39315
29.02338,37250
29.03150,33860
29.03963,35008
29.04775,34305
29.05588,33734
29.06400,39066
29.07212,39369
29.08025,34906
29.08837,36098
29.09650,37719
29.10462,34598
29.11273,35086
29.12087,36652
29.12898,35589
29.13710,36391
29.14523,34359
29.15335,34827
29.16148,39169
29.16960,37913
29.17772,34146
29.18585,37188
29.19397,38899
29.20210,38007
29.21022,39331
29.21833,45653
29.22647,47881
29.23458,43896
29.24272,43859
29.25083,47605
29.25895,52573
29.26708,51890
29.27520,59641
29.28332,60157
29.29145,52973
29.29957,55720
29.30770,48448
29.31582,43835
29.32393,41994
29.33207,41451
29.34018,43893
29.34832,35513
29.35643,35316
29.36455,35153
29.37268,30346
29.38080,35494
29.38892,35683
29.39705,34640
29.40517,32767
29.41330,31061
29.42142,34449
29.42953,31601
29.43767,36261
29.44578,33362
29.45392,32583
29.46203,34292
29.47015,35146
29.47828,38260
29.48640,35032
29.49453,39916
29.50265,37178
29.51077,41819
29.51890,39135
29.52702,40657
29.53513,37741
29.54327,36034
29.55138,42527
29.55952,32324
29.56763,34457
29.57575,32525
29.58388,30641
29.59200,31760
29.60013,32363
29.60825,30766
29.61637,32400
29.62450,33411
29.63262,35333
29.64073,32723
29.64887,37868
29.65698,34266
29.66512,32636
29.67323,36577
29.68135,31991
29.68948,33404
29.69760,32162
29.70573,32930
29.71385,32140
29.72197,31738
29.73010,31583
29.73822,30655
29.74635,31459
29.75447,32603
29.76258,30127
29.77072,31860
29.77883,31225
29.78695,29422
29.79508,35451
29.80320,29158
29.81133,30108
29.81945,29780
29.82757,27793
29.83570,34112
29.84382,32241
29.85195,30020
29.86007,32409
29.86818,29552
29.87632,30963
29.88443,33349
29.89257,34760
29.90068,41865
29.90880,40289
29.91693,40621
29.92505,42343
29.93317,37822
29.94130,34804
29.94942,35298
29.95755,38341
29.96567,38324
29.97378,37709
29.98192,38116
29.99003,40561
29.99817,42988
30.00628,47619
30.01440,47029
30.02253,47016
30.03065,49941
30.03877,52094
30.04690,49134
30.05502,50711
30.06315,53175
30.07127,53519
30.07938,51119
30.08752,50532
30.09563,53145
30.10377,49377
30.11188,52386
30.12000,50634
30.12813,50169
30.13625,47901
30.14438,51288
30.15250,44468
30.16062,48268
30.16875,45119
30.17687,41935
30.18498,43613
30.19312,44388
30.20123,43136
30.20937,41711
30.21748,44001
30.22560,44445
30.23373,40914
30.24185,42041
30.24998,41721
30.25810,41432
30.26622,36425
30.27435,39725
30.28247,38346
30.29060,37022
30.29872,37888
30.30683,37610
30.31497,36385
30.32308,36670
30.33120,34736
30.33933,36263
30.34745,37660
30.35558,36696
30.36370,35904
30.37182,40197
30.37995,35354
30.38807,37350
30.39620,34421
30.40432,35884
30.41243,36030
30.42057,32351
30.42868,33801
30.43680,32969
30.44493,33379
30.45305,38447
30.46118,33502
30.46930,35277
30.47742,33515
30.48555,33378
30.49367,36072
30.50180,33117
30.50992,32829
30.51803,34420
30.52617,35477
30.53428,33045
30.54242,32155
30.55053,39043
30.55865,31772
30.56678,29716
30.57490,32086
30.58302,33597
30.59115,32732
30.59927,34395
30.60740,33547
30.61552,34692
30.62363,31857
30.63177,34641
30.63988,32815
30.64802,37795
30.65613,33206
30.66425,36806
30.67238,33619
30.68050,33951
30.68862,31446
30.69675,29758
30.70487,36839
30.71300,37140
30.72112,32884
30.72923,29658
30.73737,33319
30.74548,30028
30.75362,32660
30.76173,33748
30.76985,34884
30.77798,35209
30.78610,33733
30.79423,39521
30.80235,39290
30.81047,45170
30.81860,46329
30.82672,45353
30.83483,43199
30.84297,38837
30.85108,39708
30.85922,39637
30.86733,34642
30.87545,35574
30.88358,33421
30.89170,34621
30.89983,32496
30.90795,32614
30.91607,32086
30.92420,35719
30.93232,37162
30.94045,32273
30.94857,32838
30.95668,31468
30.96482,34519
30.97293,33359
30.98105,32317
30.98918,31855
30.99730,33502
31.00543,41387
31.01355,34915
31.02167,39839
31.02980,38785
31.03792,38097
31.04605,39733
31.05417,38634
31.06228,40796
31.07042,42303
31.07853,41652
31.08665,45550
31.09478,48021
31.10290,47639
31.11103,53876
31.11915,54572
31.12727,52896
31.13540,44548
31.14352,45951
31.15165,45550
31.15977,42511
31.16788,44827
31.17602,48247
31.18413,55364
31.19227,65300
31.20038,86624
31.20850,103415
31.21663,135746
31.22475,156081
31.23287,169586
31.24100,159623
31.24912,133746
31.25725,110469
31.26537,82636
31.27348,67860
31.28162,54798
31.28973,47727
31.29787,44655
31.30598,47463
31.31410,45985
31.32223,42158
31.33035,39808
31.33848,40849
31.34660,41816
31.35472,44193
31.36285,43363
31.37097,41486
31.37908,38576
31.38722,41634
31.39533,41098
31.40347,39648
31.41158,39566
31.41970,45338
31.42783,42374
31.43595,39727
31.44408,40280
31.45220,40260
31.46032,39195
31.46845,35817
31.47657,34093
31.48468,35854
31.49282,35831
31.50093,39862
31.50907,36963
31.51718,35605
31.52530,38462
31.53343,38492
31.54155,37236
31.54968,39876
31.55780,35675
31.56592,35838
31.57405,36551
31.58217,40196
31.59030,36169
31.59842,38913
31.60653,38512
31.61467,33984
31.62278,34874
31.63090,36092
31.63903,39640
31.64715,35456
31.65528,39064
31.66340,36856
31.67152,39978
31.67965,36263
31.68777,36720
31.69590,43994
31.70402,37610
31.71213,42435
31.72027,33350
31.72838,35636
31.73650,38538
31.74463,37993
31.75275,35739
31.76088,34033
31.76900,35413
31.77712,34676
31.78525,36806
31.79337,37452
31.80150,37663
31.80962,37068
31.81773,41321
31.82587,38357
31.83398,41851
31.84212,36973
31.85023,42657
31.85835,43801
31.86648,44919
31.87460,46391
31.88272,47272
31.89085,50293
31.89897,45532
31.90710,43477
31.91522,46272
31.92333,44134
31.93147,46990
31.93958,49490
31.94772,47550
31.95583,50679
31.96395,52195
31.97208,52438
31.98020,57223
31.98833,55942
31.99645,56043
32.00457,57327
32.01270,58541
32.02082,56174
32.02893,52900
32.03707,57298
32.04518,52367
32.05332,54494
32.06143,55088
32.06955,58329
32.07768,55219
32.08580,56408
32.09393,51399
32.10205,50056
32.11017,52812
32.11830,42270
32.12642,49662
32.13453,46185
32.14267,42522
32.15078,43638
32.15892,45869
32.16703,44015
32.17515,41652
32.18328,39881
32.19140,41291
32.19953,39760
32.20765,39099
32.21577,40379
32.22390,36799
32.23202,38599
32.24015,35426
32.24827,39214
32.25638,38494
32.26452,43410
32.27263,39562
32.28075,44185
32.28888,39694
32.29700,42832
32.30513,42049
32.31325,37742
32.32137,37939
32.32950,40997
32.33762,39355
32.34575,41932
32.35387,43280
32.36198,41287
32.37012,38244
32.37823,39254
32.38637,37667
32.39448,38633
32.40260,40530
32.41073,39306
32.41885,35694
32.42697,35484
32.43510,38152
32.44322,34578
32.45135,40662
32.45947,37483
32.46758,36126
32.47572,37131
32.48383,37761
32.49197,38708
32.50008,39514
32.50820,40179
32.51633,37901
32.52445,37708
32.53257,35810
32.54070,38561
32.54882,40363
32.55695,40230
32.56507,36473
32.57318,36071
32.58132,38171
32.58943,37972
32.59757,37377
32.60568,36910
32.61380,37948
32.62193,40378
32.63005,36512
32.63818,34964
32.64630,42117
32.65442,46426
32.66255,44179
32.67067,50982
32.67878,55252
32.68692,53052
32.69503,45128
32.70317,46357
32.71128,47379
32.71940,47505
32.72753,44220
32.73565,37771
32.74378,38666
32.75190,40101
32.76002,39030
32.76815,41567
32.77627,40027
32.78440,38153
32.79252,34838
32.80063,37483
32.80877,37965
32.81688,34592
32.82500,38059
32.83313,36114
32.84125,32005
32.84938,33919
32.85750,35711
32.86562,35208
32.87375,36988
32.88187,36642
32.89000,34664
32.89812,40229
32.90623,35957
32.91437,38592
32.92248,39212
32.93060,39164
32.93873,41459
32.94685,39345
32.95498,38994
32.96310,39162
32.97122,38393
32.97935,39208
32.98747,41700
32.99560,39477
33.00372,43669
33.01183,47694
33.01997,45544
33.02808,43897
33.03622,41745
33.04433,42344
33.05245,39369
33.06058,41690
33.06870,38123
33.07682,43782
33.08495,42890
33.09307,44618
33.10120,43493
33.10932,47350
33.11743,48572
33.12557,50397
33.13368,52843
33.14182,49791
33.14993,44951
33.15805,43622
33.16618,39106
33.17430,42430
33.18242,39018
33.19055,44496
33.19867,41326
33.20680,41367
33.21492,40518
33.22303,42488
33.23117,41357
33.23928,39314
33.24742,43553
33.25553,37102
33.26365,41000
33.27178,40772
33.27990,35539
33.28803,37912
33.29615,35304
33.30427,37971
33.31240,38799
33.32052,38671
33.32863,38204
33.33677,37891
33.34488,36482
33.35302,37905
33.36113,40199
33.36925,36035
33.37738,39286
33.38550,38995
33.39363,40081
33.40175,43958
33.40987,41352
33.41800,40233
33.42612,37525
33.43425,38951
33.44237,34786
33.45048,35692
33.45862,38778
33.46673,38408
33.47485,39893
33.48298,37396
33.49110,37266
33.49923,39778
33.50735,37009
33.51547,37176
33.52360,37565
33.53172,42873
33.53985,40136
33.54797,40679
33.55608,38295
33.56422,40795
33.57233,40917
33.58045,37909
33.58858,37691
33.59670,38652
33.60483,38742
33.61295,36031
33.62107,39315
33.62920,38381
33.63732,34129
33.64545,37950
33.65357,39374
33.66168,40190
33.66982,38640
33.67793,41407
33.68607,38338
33.69418,36268
33.70230,36682
33.71043,38347
33.71855,37388
33.72667,35867
33.73480,38677
33.74292,35526
33.75105,36918
33.75917,33301
33.76728,35492
33.77542,36282
33.78353,41030
33.79167,40107
33.79978,37816
33.80790,39277
33.81603,34766
33.82415,37360
33.83228,39689
33.84040,40003
33.84852,38930
33.85665,42102
33.86477,39826
33.87288,44503
33.88102,39831
33.88913,37384
33.89727,35454
33.90538,39928
33.91350,39258
33.92163,36582
33.92975,39976
33.93788,38680
33.94600,38489
33.95412,36807
33.96225,40120
33.97037,43288
33.97848,37251
33.98662,40126
33.99473,39912
34.00287,37476
34.01098,36623
34.01910,38376
34.02723,38820
34.03535,36430
34.04348,42999
34.05160,39268
34.05972,39655
34.06785,37154
34.07597,39508
34.08410,40991
34.09222,37363
34.10033,41220
34.10847,41550
34.11658,38145
34.12470,37113
34.13283,41519
34.14095,41680
34.14908,40527
34.15720,40550
34.16532,41310
34.17345,39163
34.18157,36520
34.18970,43551
34.19782,38931
34.20593,39359
34.21407,42191
34.22218,38646
34.23030,37866
34.23843,36835
34.24655,46611
34.25468,37576
34.26280,35329
34.27092,38112
34.27905,38354
34.28717,37986
34.29530,40333
34.30342,38156
34.31153,45849
34.31967,41660
34.32778,38191
34.33592,39932
34.34403,40860
34.35215,42325
34.36028,37500
34.36840,38420
34.37652,41069
34.38465,38673
34.39277,40886
34.40090,34196
34.40902,43463
34.41713,44305
34.42527,37503
34.43338,39928
34.44152,41898
34.44963,37677
34.45775,37113
34.46588,40002
34.47400,39702
34.48213,38697
34.49025,39827
34.49837,40798
34.50650,44231
34.51462,44726
34.52273,49922
34.53087,51402
34.53898,55215
34.54712,59399
34.55523,69102
34.56335,67973
34.57148,67117
34.57960,66156
34.58773,62103
34.59585,64450
34.60397,60728
34.61210,58830
34.62022,58148
34.62835,56750
34.63647,54631
34.64458,53754
34.65272,52011
34.66083,52300
34.66895,47487
34.67708,52127
34.68520,47055
34.69333,50284
34.70145,47531
34.70957,46997
34.71770,44612
34.72582,46530
34.73395,46068
34.74207,45261
34.75018,44083
34.75832,45067
34.76643,46109
34.77455,48236
34.78268,47045
34.79080,48250
34.79893,47648
34.80705,48822
34.81517,44150
34.82330,43205
34.83142,42005
34.83955,48570
34.84767,44845
34.85578,42268
34.86392,46125
34.87203,47380
34.88017,46305
34.88828,44165
34.89640,44822
34.90453,46587
34.91265,47445
34.92077,46512
34.92890,49445
34.93702,48245
34.94515,44675
34.95327,50648
34.96138,48500
34.96952,50593
34.97763,48872
34.98577,50355
34.99388,50668
35.00200,51486
35.01013,51274
35.01825,48611
35.02637,49480
35.03450,48135
35.04262,45333
35.05075,41631
35.05887,46288
35.06698,50226
35.07512,46603
35.08323,46703
35.09137,47522
35.09948,45794
35.10760,45372
35.11573,44331
35.12385,45830
35.13198,45518
35.14010,46072
35.14822,45016
35.15635,47296
35.16447,45507
35.17258,48866
35.18072,47986
35.18883,44169
35.19697,47633
35.20508,43122
35.21320,46315
35.22133,42921
35.22945,41409
35.23758,41956
35.24570,43948
35.25382,44291
35.26195,46515
35.27007,50626
35.27820,46806
35.28632,46213
35.29443,44858
35.30257,46150
35.31068,45504
35.31880,44771
35.32693,43561
35.33505,44627
35.34318,43340
35.35130,46885
35.35942,43819
35.36755,40355
35.37567,43557
35.38380,45606
35.39192,44179
35.40003,39558
35.40817,41981
35.41628,46845
35.42440,42386
35.43253,44377
35.44065,44516
35.44878,45909
35.45690,47197
35.46502,47751
35.47315,46797
35.48127,48586
35.48940,47479
35.49752,47584
35.50563,50169
35.51377,47747
35.52188,46397
35.53002,45685
35.53813,46528
35.54625,42474
35.55438,41894
35.56250,43943
35.57062,45355
35.57875,50860
35.58687,42588
35.59500,48025
35.60312,46488
35.61123,42607
35.61937,43927
35.62748,42384
35.63562,43052
35.64373,44348
35.65185,48716
35.65998,43470
35.66810,46801
35.67623,44295
35.68435,47151
35.69247,50543
35.70060,50843
35.70872,50159
35.71683,47297
35.72497,48435
35.73308,50068
35.74122,47730
35.74933,49730
35.75745,48314
35.76558,50929
35.77370,53210
35.78183,54553
35.78995,49968
35.79807,51665
35.80620,44157
35.81432,49320
35.82243,44402
35.83057,45144
35.83868,45355
35.84682,45610
35.85493,48117
35.86305,45298
35.87118,46830
35.87930,49270
35.88743,46912
35.89555,43666
35.90367,45318
35.91180,46966
35.91992,46160
35.92805,45634
35.93617,44960
35.94428,45339
35.95242,41890
35.96053,46908
35.96865,46807
35.97678,46676
35.98490,43220
35.99303,48227
36.00115,47631
36.00927,49573
36.01740,47816
36.02552,48170
36.03365,51115
36.04177,51766
36.04988,48004
36.05802,49910
36.06613,49970
36.07425,45346
36.08238,52949
36.09050,48146
36.09863,46627
36.10675,50947
36.11487,44574
36.12300,46018
36.13112,45891
36.13925,44512
36.14737,46288
36.15548,51767
36.16362,46965
36.17173,45500
36.17987,45221
36.18798,47385
36.19610,48907
36.20423,43849
36.21235,48846
36.22047,50420
36.22860,43104
36.23672,45941
36.24485,48545
36.25297,46695
36.26108,46396
36.26922,49274
36.27733,50147
36.28547,47361
36.29358,49559
36.30170,55984
36.30983,57661
36.31795,63508
36.32608,57732
36.33420,67395
36.34232,56603
36.35045,49768
36.35857,51397
36.36668,48667
36.37482,53163
36.38293,51596
36.39107,50280
36.39918,54243
36.40730,53676
36.41543,53030
36.42355,52055
36.43168,56383
36.43980,60804
36.44792,49193
36.45605,48693
36.46417,51264
36.47228,49808
36.48042,49540
36.48853,52900
36.49667,50857
36.50478,54823
36.51290,52203
36.52103,52093
36.52915,48379
36.53728,50908
36.54540,50525
36.55352,51989
36.56165,50659
36.56977,50890
36.57790,51536
36.58602,49608
36.59413,49214
36.60227,51870
36.61038,52042
36.61850,50102
36.62663,52051
36.63475,53538
36.64288,52590
36.65100,55950
36.65912,56995
36.66725,59727
36.67537,55628
36.68350,51806
36.69162,50659
36.69973,52482
36.70787,52797
36.71598,52412
36.72412,50547
36.73223,47280
36.74035,52058
36.74848,49236
36.75660,56116
36.76472,52966
36.77285,53629
36.78097,53276
36.78910,53959
36.79722,53296
36.80533,52059
36.81347,53134
36.82158,52127
36.82972,51009
36.83783,53116
36.84595,51621
36.85408,52135
36.86220,51542
36.87032,49447
36.87845,52435
36.88657,53553
36.89470,53867
36.90282,52274
36.91093,52006
36.91907,52423
36.92718,52442
36.93532,54917
36.94343,52834
36.95155,53115
36.95968,54421
36.96780,59278
36.97593,54148
36.98405,54553
36.99217,53882
37.00030,54062
37.00842,52269
37.01653,53754
37.02467,56859
37.03278,55024
37.04092,52975
37.04903,51242
37.05715,55803
37.06528,57251
37.07340,51142
37.08153,52198
37.08965,52418
37.09777,51770
37.10590,55952
37.11402,55720
37.12215,54696
37.13027,57383
37.13838,53515
37.14652,57461
37.15463,53999
37.16275,58160
37.17088,60363
37.17900,57783
37.18713,54305
37.19525,55541
37.20337,56049
37.21150,57128
37.21962,57195
37.22775,55793
37.23587,53948
37.24398,53962
37.25212,56508
37.26023,53495
37.26835,48826
37.27648,54939
37.28460,56397
37.29273,57421
37.30085,53556
37.30897,54672
37.31710,59904
37.32522,61160
37.33335,69158
37.34147,70131
37.34958,72668
37.35772,72134
37.36583,81146
37.37397,83754
37.38208,81261
37.39020,78337
37.39833,73809
37.40645,71224
37.41457,69334
37.42270,67374
37.43082,67950
37.43895,68179
37.44707,65154
37.45518,68148
37.46332,64891
37.47143,65298
37.47957,68479
37.48768,71834
