C:\MassHunter\GCMS\1\data\JTB-E18\JTB-E18-023-09.D Tue Sep 10 16:17:02 2019
Start of data points
2.09537,210548
2.10348,211405
2.11162,209936
2.11973,212813
2.12785,208261
2.13598,211377
2.14410,203207
2.15222,199192
2.16035,203192
2.16847,198497
2.17660,199914
2.18472,183858
2.19283,185974
2.20097,176196
2.20908,183544
2.21722,172050
2.22533,168531
2.23345,167356
2.24158,169270
2.24970,166292
2.25782,170278
2.26595,182507
2.27407,629015
2.28220,1927523
2.29032,1466284
2.29843,676997
2.30657,459709
2.31468,398711
2.32282,358537
2.33093,325064
2.33905,312316
2.34718,301909
2.35530,271954
2.36343,251727
2.37155,253564
2.37967,254666
2.38780,362871
2.39592,292984
2.40403,237736
2.41217,230783
2.42028,240131
2.42842,261941
2.43653,236268
2.44465,222156
2.45278,224108
2.46090,218276
2.46903,205443
2.47715,205780
2.48527,210111
2.49340,257728
2.50152,269001
2.50965,236616
2.51777,216713
2.52588,211457
2.53402,203998
2.54213,200858
2.55025,205330
2.55838,224939
2.56650,263510
2.57463,236921
2.58275,221800
2.59087,212160
2.59900,208813
2.60712,302721
2.61525,646931
2.62337,665920
2.63148,416244
2.63962,308197
2.64773,274025
2.65585,248849
2.66398,237258
2.67210,237293
2.68023,252002
2.68835,256593
2.69647,214905
2.70460,201750
2.71272,199009
2.72085,201035
2.72897,195125
2.73708,194359
2.74522,196428
2.75333,192232
2.76147,197497
2.76958,191168
2.77770,214758
2.78583,377999
2.79395,483738
2.80207,348646
2.81020,283336
2.81832,313648
2.82645,446423
2.83457,749241
2.84268,723678
2.85082,445834
2.85893,323056
2.86707,317057
2.87518,284501
2.88330,241535
2.89143,224366
2.89955,207524
2.90767,197134
2.91580,200847
2.92392,193618
2.93205,189207
2.94017,189126
2.94828,183018
2.95642,189344
2.96453,198524
2.97267,191720
2.98078,188207
2.98890,191471
2.99703,199004
3.00515,200237
3.01328,210942
3.02140,238384
3.02952,372441
3.03765,605573
3.04577,835660
3.05388,2163479
3.06202,5455981
3.07013,6247629
3.07827,3692454
3.08638,2034425
3.09450,1970407
3.10263,2301777
3.11075,3239681
3.11888,3443837
3.12700,2258110
3.13512,1446703
3.14325,1116534
3.15137,876337
3.15950,766533
3.16762,709347
3.17573,753698
3.18387,820621
3.19198,1381371
3.20010,2010166
3.20823,1662103
3.21635,1137929
3.22448,908894
3.23260,793629
3.24072,683669
3.24885,600318
3.25697,533552
3.26510,479998
3.27322,451264
3.28133,536882
3.28947,1394471
3.29758,4470442
3.30570,9026486
3.31383,1.084551E+07
3.32195,8601532
3.33008,5517564
3.33820,3570888
3.34632,2540565
3.35445,1931297
3.36257,1566378
3.37070,1394890
3.37882,1440825
3.38693,1403884
3.39507,1246952
3.40318,1336133
3.41132,2378997
3.41943,3616414
3.42755,3228562
3.43568,2032036
3.44380,1253833
3.45192,918315
3.46005,786910
3.46817,703778
3.47630,647628
3.48442,588666
3.49253,537214
3.50067,498342
3.50878,475962
3.51692,449274
3.52503,449135
3.53315,442994
3.54128,447194
3.54940,433436
3.55753,422852
3.56565,416486
3.57377,452156
3.58190,495484
3.59002,456008
3.59813,396611
3.60627,389213
3.61438,425317
3.62252,699327
3.63063,1371935
3.63875,1909568
3.64688,1715030
3.65500,1148891
3.66313,1098170
3.67125,2876184
3.67937,6941855
3.68750,8473117
3.69562,5806413
3.70373,3160778
3.71187,2116838
3.71998,1703647
3.72812,1416892
3.73623,1232150
3.74435,1112306
3.75248,1038731
3.76060,986934
3.76873,906990
3.77685,826617
3.78497,770017
3.79310,734507
3.80122,797356
3.80935,1318064
3.81747,2198994
3.82558,2399188
3.83372,1733509
3.84183,1203157
3.84995,969307
3.85808,836283
3.86620,772789
3.87433,703346
3.88245,655064
3.89057,630714
3.89870,606194
3.90682,583713
3.91495,606491
3.92307,741830
3.93118,930454
3.93932,898785
3.94743,833826
3.95557,1229884
3.96368,2136742
3.97180,2691215
3.97993,2149790
3.98805,1403432
3.99617,1966770
4.00430,5993133
4.01242,1.347524E+07
4.02055,1.726246E+07
4.02867,1.327626E+07
4.03678,6723393
4.04492,3174021
4.05303,1905813
4.06117,1368330
4.06928,1099771
4.07740,918126
4.08553,803371
4.09365,731042
4.10177,657466
4.10990,603267
4.11802,567981
4.12615,538834
4.13427,651759
4.14238,1190976
4.15052,2292225
4.15863,2806167
4.16677,2278309
4.17488,1584200
4.18300,1134172
4.19113,894749
4.19925,765691
4.20738,715245
4.21550,1220693
4.22362,3631603
4.23175,8626784
4.23987,1.317917E+07
4.24798,1.346369E+07
4.25612,9423424
4.26423,5484626
4.27237,3520128
4.28048,2483198
4.28860,1899699
4.29673,1496862
4.30485,1243657
4.31298,1073690
4.32110,936431
4.32922,874148
4.33735,793887
4.34547,772837
4.35358,777322
4.36172,777740
4.36983,762427
4.37797,679943
4.38608,620008
4.39420,568474
4.40233,539704
4.41045,501500
4.41858,483035
4.42670,471604
4.43482,466035
4.44295,448953
4.45107,449961
4.45920,444049
4.46732,439826
4.47543,433378
4.48357,406662
4.49168,393188
4.49980,383949
4.50793,385843
4.51605,369758
4.52418,373463
4.53230,364159
4.54042,359040
4.54855,362446
4.55667,362194
4.56480,352223
4.57292,345699
4.58103,333247
4.58917,320982
4.59728,328232
4.60542,315722
4.61353,343268
4.62165,382189
4.62978,563341
4.63790,850695
4.64602,1019990
4.65415,868294
4.66227,647123
4.67040,490018
4.67852,431530
4.68663,404929
4.69477,373213
4.70288,342640
4.71102,326027
4.71913,315805
4.72725,313339
4.73538,309178
4.74350,305229
4.75162,289209
4.75975,287799
4.76787,294909
4.77600,285506
4.78412,287944
4.79223,308629
4.80037,346965
4.80848,400365
4.81662,410847
4.82473,370000
4.83285,347882
4.84098,349316
4.84910,365265
4.85723,356863
4.86535,343777
4.87347,336115
4.88160,314492
4.88972,301681
4.89783,287890
4.90597,284279
4.91408,304565
4.92222,434093
4.93033,871384
4.93845,1872016
4.94658,3261545
4.95470,4313413
4.96283,4210094
4.97095,3366599
4.97907,2426433
4.98720,1706826
4.99532,1267243
5.00345,1002070
5.01157,838475
5.01968,751515
5.02782,833360
5.03593,1111969
5.04405,1375861
5.05218,1325889
5.06030,1076747
5.06843,863783
5.07655,716060
5.08467,657169
5.09280,611680
5.10092,621911
5.10905,643229
5.11717,656071
5.12528,635890
5.13342,592783
5.14153,542894
5.14965,517804
5.15778,569122
5.16590,626661
5.17403,681369
5.18215,693487
5.19027,693675
5.19840,688409
5.20652,673640
5.21465,646526
5.22277,586929
5.23088,520744
5.23902,504182
5.24713,467595
5.25527,434001
5.26338,391915
5.27150,374080
5.27963,358070
5.28775,345542
5.29587,348705
5.30400,330183
5.31212,333106
5.32025,325382
5.32837,342212
5.33648,368086
5.34462,379749
5.35273,367635
5.36087,339194
5.36898,308825
5.37710,303822
5.38523,321785
5.39335,359352
5.40147,357192
5.40960,344590
5.41772,327919
5.42585,304090
5.43397,289503
5.44208,296409
5.45022,310249
5.45833,306837
5.46647,306712
5.47458,293269
5.48270,280039
5.49083,269517
5.49895,277863
5.50708,274066
5.51520,277841
5.52332,279568
5.53145,281823
5.53957,271158
5.54768,280475
5.55582,305218
5.56393,362832
5.57207,442263
5.58018,453926
5.58830,415342
5.59643,349933
5.60455,308489
5.61268,289773
5.62080,269582
5.62892,274622
5.63705,274869
5.64517,270581
5.65330,275975
5.66142,267556
5.66953,267237
5.67767,276609
5.68578,313312
5.69390,346527
5.70203,371179
5.71015,364825
5.71828,353965
5.72640,347350
5.73452,339365
5.74265,329525
5.75077,316998
5.75890,318481
5.76702,333125
5.77513,333850
5.78327,325489
5.79138,316200
5.79952,313668
5.80763,420900
5.81575,649060
5.82388,1014496
5.83200,1342060
5.84012,1404453
5.84825,1233521
5.85637,881708
5.86450,607774
5.87262,448892
5.88073,355537
5.88887,322428
5.89698,299578
5.90512,321756
5.91323,370781
5.92135,499314
5.92948,637445
5.93760,704604
5.94572,652482
5.95385,530833
5.96197,406494
5.97010,348482
5.97822,338999
5.98633,344402
5.99447,344832
6.00258,312139
6.01072,271364
6.01883,237254
6.02695,212070
6.03508,199025
6.04320,192348
6.05133,182533
6.05945,176588
6.06757,183485
6.07570,179338
6.08382,172477
6.09193,175307
6.10007,167245
6.10818,173860
6.11632,175910
6.12443,211566
6.13255,303988
6.14068,458811
6.14880,574909
6.15693,554809
6.16505,457326
6.17317,350449
6.18130,285431
6.18942,265382
6.19753,260272
6.20567,274404
6.21378,269114
6.22192,243958
6.23003,234855
6.23815,221269
6.24628,221679
6.25440,233744
6.26253,243427
6.27065,251324
6.27877,239743
6.28690,224908
6.29502,225627
6.30315,213685
6.31127,223618
6.31938,221891
6.32752,221773
6.33563,229339
6.34375,237133
6.35188,237602
6.36000,244559
6.36813,254986
6.37625,247599
6.38437,244470
6.39250,249165
6.40062,249521
6.40875,249871
6.41687,247206
6.42498,253684
6.43312,251813
6.44123,258163
6.44937,269206
6.45748,265235
6.46560,264258
6.47373,264075
6.48185,262113
6.48997,266075
6.49810,264600
6.50622,277350
6.51435,280568
6.52247,284809
6.53058,291643
6.53872,299740
6.54683,294971
6.55497,308243
6.56308,324019
6.57120,379863
6.57933,434314
6.58745,464352
6.59557,428438
6.60370,385142
6.61182,342526
6.61995,328280
6.62807,334128
6.63618,325557
6.64432,350241
6.65243,494790
6.66057,842394
6.66868,1340856
6.67680,1578570
6.68493,1376660
6.69305,992766
6.70118,722007
6.70930,565076
6.71742,457691
6.72555,382312
6.73367,301093
6.74178,273565
6.74992,242393
6.75803,224402
6.76617,223896
6.77428,218776
6.78240,216549
6.79053,225204
6.79865,263524
6.80678,367709
6.81490,566071
6.82302,817699
6.83115,1069369
6.83927,1132131
6.84740,1006551
6.85552,760568
6.86363,545171
6.87177,364443
6.87988,295645
6.88800,231563
6.89613,188251
6.90425,160987
6.91238,139355
6.92050,140166
6.92862,133401
6.93675,134647
6.94487,146069
6.95300,177479
6.96112,245549
6.96923,362842
6.97737,494817
6.98548,578557
6.99360,567688
7.00173,473190
7.00985,363208
7.01798,281181
7.02610,202772
7.03422,172362
7.04235,152235
7.05047,143082
7.05860,147783
7.06672,151677
7.07483,161049
7.08297,158517
7.09108,158649
7.09922,145603
7.10733,132005
7.11545,122398
7.12358,117474
7.13170,122491
7.13982,132578
7.14795,166144
7.15607,205489
7.16420,230725
7.17232,237829
7.18043,225813
7.18857,266061
7.19668,450704
7.20482,817930
7.21293,1228931
7.22105,1307249
7.22918,1069785
7.23730,711950
7.24542,447843
7.25355,288625
7.26167,229214
7.26980,198430
7.27792,202038
7.28603,207240
7.29417,199416
7.30228,183361
7.31042,172094
7.31853,171114
7.32665,184908
7.33478,233152
7.34290,292981
7.35103,348834
7.35915,383911
7.36727,365961
7.37540,302284
7.38352,236348
7.39163,190317
7.39977,156224
7.40788,137173
7.41602,141197
7.42413,130276
7.43225,144030
7.44038,166613
7.44850,204711
7.45663,247154
7.46475,269902
7.47287,261175
7.48100,233196
7.48912,196528
7.49725,162252
7.50537,137751
7.51348,133592
7.52162,142011
7.52973,178113
7.53785,263808
7.54598,432684
7.55410,664077
7.56223,923355
7.57035,1060025
7.57847,1060655
7.58660,887843
7.59472,654654
7.60285,429102
7.61097,282896
7.61908,202879
7.62722,160465
7.63533,143717
7.64345,131181
7.65158,122405
7.65970,119275
7.66783,108507
7.67595,111545
7.68407,114539
7.69220,107656
7.70032,106552
7.70845,110018
7.71657,112364
7.72468,115478
7.73282,113920
7.74093,113540
7.74907,108706
7.75718,115373
7.76530,112999
7.77343,118334
7.78155,115211
7.78967,115608
7.79780,116216
7.80592,119826
7.81405,127627
7.82217,130057
7.83028,120080
7.83842,117221
7.84653,115259
7.85467,116834
7.86278,127406
7.87090,135469
7.87903,144781
7.88715,149834
7.89528,159265
7.90340,157631
7.91152,147362
7.91965,137262
7.92777,150572
7.93588,165714
7.94402,185770
7.95213,197324
7.96027,180840
7.96838,151880
7.97650,128616
7.98463,113887
7.99275,105348
8.00088,101867
8.00900,98818
8.01712,105596
8.02525,97937
8.03337,97362
8.04148,99538
8.04962,101887
8.05773,93613
8.06587,98599
8.07398,97654
8.08210,99671
8.09023,93448
8.09835,94044
8.10648,92327
8.11460,96712
8.12272,94346
8.13085,97824
8.13897,107198
8.14710,105460
8.15522,122431
8.16333,119267
8.17147,112103
8.17958,107605
8.18770,96549
8.19583,96759
8.20395,95610
8.21208,88595
8.22020,93044
8.22832,93760
8.23645,92224
8.24457,92275
8.25270,88190
8.26082,90122
8.26893,92446
8.27707,92595
8.28518,85556
8.29332,91203
8.30143,89935
8.30955,89963
8.31768,95229
8.32580,95690
8.33392,98727
8.34205,94471
8.35017,97213
8.35830,92840
8.36642,92786
8.37453,96891
8.38267,90186
8.39078,93311
8.39892,93031
8.40703,84894
8.41515,88218
8.42328,85779
8.43140,85713
8.43952,85428
8.44765,81046
8.45577,84169
8.46390,81186
8.47202,83182
8.48013,88249
8.48827,92966
8.49638,86140
8.50452,87888
8.51263,104032
8.52075,135155
8.52888,197940
8.53700,260281
8.54513,262329
8.55325,229651
8.56137,178468
8.56950,131894
8.57762,112627
8.58573,99932
8.59387,96374
8.60198,103226
8.61012,99680
8.61823,104152
8.62635,103713
8.63448,102592
8.64260,100475
8.65073,95648
8.65885,95105
8.66697,92807
8.67510,94239
8.68322,95523
8.69133,96046
8.69947,99629
8.70758,99663
8.71572,95513
8.72383,106751
8.73195,145557
8.74008,288912
8.74820,596947
8.75633,1069423
8.76445,1508391
8.77257,1648370
8.78070,1391226
8.78882,956193
8.79695,598077
8.80507,386264
8.81318,294046
8.82132,245402
8.82943,234776
8.83755,223513
8.84568,207581
8.85380,191592
8.86193,182691
8.87005,175563
8.87817,165713
8.88630,164629
8.89442,159766
8.90255,151100
8.91067,154865
8.91878,158975
8.92692,160763
8.93503,155830
8.94317,159013
8.95128,161629
8.95940,148483
8.96753,149182
8.97565,149853
8.98377,150370
8.99190,153978
9.00002,158832
9.00815,142534
9.01627,140590
9.02438,134542
9.03252,127814
9.04063,123525
9.04877,128160
9.05688,129850
9.06500,127320
9.07313,124600
9.08125,119508
9.08937,124763
9.09750,135275
9.10562,163942
9.11375,178794
9.12187,186844
9.12998,182554
9.13812,168493
9.14623,154179
9.15437,135084
9.16248,124599
9.17060,117507
9.17873,124313
9.18685,120602
9.19498,115663
9.20310,112946
9.21122,112540
9.21935,108363
9.22747,115038
9.23558,108515
9.24372,107762
9.25183,106324
9.25997,107881
9.26808,104095
9.27620,108425
9.28433,107196
9.29245,103115
9.30058,104576
9.30870,102068
9.31682,97299
9.32495,101164
9.33307,106899
9.34120,102305
9.34932,103708
9.35743,102975
9.36557,95829
9.37368,97456
9.38180,100218
9.38993,102044
9.39805,109522
9.40618,112259
9.41430,123852
9.42242,147723
9.43055,169751
9.43867,200169
9.44680,206379
9.45492,198983
9.46303,162942
9.47117,134690
9.47928,118486
9.48740,105971
9.49553,101611
9.50365,110841
9.51178,118658
9.51990,128944
9.52802,123752
9.53615,113017
9.54427,98096
9.55240,92357
9.56052,82620
9.56863,75348
9.57677,69687
9.58488,72110
9.59302,77416
9.60113,75595
9.60925,76582
9.61738,73569
9.62550,68818
9.63362,66647
9.64175,68910
9.64987,63347
9.65800,65414
9.66612,60532
9.67423,62970
9.68237,62843
9.69048,61134
9.69862,63173
9.70673,59157
9.71485,61157
9.72298,64617
9.73110,61208
9.73922,60830
9.74735,57636
9.75547,60271
9.76360,58352
9.77172,60169
9.77983,57929
9.78797,60238
9.79608,61117
9.80422,57529
9.81233,55529
9.82045,59622
9.82858,60413
9.83670,58992
9.84483,64397
9.85295,67687
9.86107,64834
9.86920,66233
9.87732,61934
9.88543,69435
9.89357,62459
9.90168,62007
9.90982,63219
9.91793,58044
9.92605,64673
9.93418,70963
9.94230,82497
9.95043,94729
9.95855,98876
9.96667,98865
9.97480,97167
9.98292,96464
9.99105,88464
9.99917,85347
10.00728,77794
10.01542,72411
10.02353,67664
10.03165,64413
10.03978,63055
10.04790,63485
10.05603,62728
10.06415,65298
10.07227,62648
10.08040,63057
10.08852,63520
10.09665,67089
10.10477,63293
10.11288,64861
10.12102,63270
10.12913,63139
10.13725,58643
10.14538,63671
10.15350,62697
10.16163,63956
10.16975,55531
10.17787,64785
10.18600,63825
10.19412,61547
10.20225,57601
10.21037,58036
10.21848,61177
10.22662,61170
10.23473,66587
10.24287,74285
10.25098,85712
10.25910,137573
10.26723,246176
10.27535,472748
10.28347,829872
10.29160,1230973
10.29972,1697510
10.30785,2388250
10.31597,3418532
10.32408,4436003
10.33222,4869735
10.34033,4353585
10.34847,3299463
10.35658,2477203
10.36470,2120598
10.37283,2004227
10.38095,1772637
10.38908,1357162
10.39720,912339
10.40532,572465
10.41345,383539
10.42157,272189
10.42968,237538
10.43782,212525
10.44593,201406
10.45407,183878
10.46218,170409
10.47030,154187
10.47843,140094
10.48655,124075
10.49468,134282
10.50280,122798
10.51092,122353
10.51905,119190
10.52717,115931
10.53528,114707
10.54342,104846
10.55153,105311
10.55967,104385
10.56778,99082
10.57590,102492
10.58403,97654
10.59215,97875
10.60028,94950
10.60840,94226
10.61652,85337
10.62465,89232
10.63277,88243
10.64090,88192
10.64902,82705
10.65713,84643
10.66527,77056
10.67338,79601
10.68150,81235
10.68963,82068
10.69775,91263
10.70588,94932
10.71400,92385
10.72212,93290
10.73025,90206
10.73837,87619
10.74650,81093
10.75462,80527
10.76273,74394
10.77087,78326
10.77898,75914
10.78710,75564
10.79523,80685
10.80335,87959
10.81148,87552
10.81960,88819
10.82772,78496
10.83585,80842
10.84397,75147
10.85210,72733
10.86022,68328
10.86833,66607
10.87647,64441
10.88458,66547
10.89272,63278
10.90083,65458
10.90895,65692
10.91708,62419
10.92520,67425
10.93332,67710
10.94145,64180
10.94957,63576
10.95770,64689
10.96582,63086
10.97393,66663
10.98207,71228
10.99018,66983
10.99832,73753
11.00643,75954
11.01455,75311
11.02268,73341
11.03080,69097
11.03893,67907
11.04705,62987
11.05517,61305
11.06330,67448
11.07142,70390
11.07953,74551
11.08767,75735
11.09578,77939
11.10392,85063
11.11203,85282
11.12015,85911
11.12828,82764
11.13640,79294
11.14453,75631
11.15265,74857
11.16077,72250
11.16890,76190
11.17702,73651
11.18515,78903
11.19327,79976
11.20138,82477
11.20952,79404
11.21763,76800
11.22575,67845
11.23388,74946
11.24200,65381
11.25013,65888
11.25825,70825
11.26637,81606
11.27450,112614
11.28262,167756
11.29075,227708
11.29887,295331
11.30698,424550
11.31512,581961
11.32323,888861
11.33135,1299526
11.33948,1660208
11.34760,1792855
11.35573,1659719
11.36385,1284824
11.37197,916937
11.38010,632985
11.38822,435589
11.39635,319002
11.40447,262423
11.41258,206103
11.42072,170573
11.42883,145532
11.43697,129370
11.44508,114986
11.45320,100018
11.46133,99520
11.46945,94782
11.47757,102764
11.48570,110651
11.49382,127310
11.50195,134249
11.51007,130982
11.51818,129812
11.52632,124605
11.53443,130091
11.54257,138303
11.55068,134507
11.55880,132840
11.56693,124540
11.57505,116898
11.58317,107519
11.59130,104026
11.59942,118851
11.60755,120093
11.61567,132627
11.62378,130111
11.63192,112380
11.64003,102981
11.64817,87844
11.65628,82326
11.66440,80522
11.67253,78647
11.68065,82316
11.68878,82517
11.69690,92493
11.70502,101666
11.71315,108707
11.72127,111109
11.72938,116504
11.73752,120917
11.74563,118860
11.75377,116140
11.76188,104309
11.77000,99874
11.77813,89311
11.78625,86908
11.79438,83655
11.80250,82283
11.81062,78230
11.81875,75786
11.82687,75396
11.83500,80322
11.84312,75102
11.85123,83979
11.85937,72673
11.86748,75291
11.87560,79232
11.88373,70116
11.89185,68511
11.89998,62766
11.90810,65612
11.91622,75294
11.92435,84462
11.93247,99028
11.94060,117018
11.94872,115936
11.95683,114631
11.96497,103860
11.97308,91463
11.98120,91883
11.98933,102617
11.99745,115027
12.00558,121612
12.01370,134435
12.02182,125443
12.02995,107572
12.03807,89367
12.04620,81791
12.05432,77824
12.06243,67929
12.07057,74263
12.07868,80752
12.08682,83472
12.09493,92522
12.10305,86803
12.11118,83723
12.11930,95334
12.12742,95772
12.13555,103775
12.14367,102241
12.15180,95930
12.15992,84393
12.16803,76324
12.17617,67279
12.18428,62307
12.19242,65307
12.20053,65770
12.20865,60459
12.21678,60838
12.22490,58119
12.23303,61192
12.24115,60256
12.24927,58694
12.25740,58636
12.26552,62138
12.27363,60171
12.28177,62206
12.28988,56187
12.29802,59783
12.30613,56943
12.31425,55852
12.32238,56225
12.33050,56088
12.33863,60944
12.34675,55943
12.35487,57665
12.36300,59211
12.37112,55858
12.37923,59257
12.38737,63634
12.39548,79707
12.40362,96151
12.41173,122236
12.41985,144026
12.42798,146330
12.43610,151267
12.44423,116779
12.45235,99331
12.46047,84755
12.46860,82543
12.47672,74413
12.48485,72259
12.49297,67915
12.50108,66951
12.50922,65052
12.51733,64917
12.52545,66403
12.53358,66797
12.54170,79923
12.54983,91144
12.55795,112601
12.56607,118179
12.57420,119843
12.58232,100416
12.59045,91281
12.59857,81586
12.60668,73867
12.61482,69141
12.62293,63572
12.63105,63471
12.63918,62899
12.64730,58791
12.65543,58320
12.66355,58328
12.67167,55224
12.67980,55043
12.68792,58689
12.69605,51640
12.70417,52523
12.71228,53815
12.72042,64931
12.72853,57150
12.73667,63667
12.74478,57673
12.75290,59859
12.76103,60461
12.76915,62371
12.77727,56723
12.78540,66253
12.79352,74309
12.80165,74735
12.80977,78945
12.81788,78524
12.82602,71216
12.83413,67835
12.84227,62427
12.85038,64284
12.85850,68497
12.86663,62074
12.87475,59726
12.88288,60436
12.89100,60032
12.89912,58550
12.90725,55801
12.91537,49340
12.92348,54558
12.93162,64380
12.93973,75975
12.94787,105717
12.95598,138085
12.96410,190744
12.97223,227725
12.98035,248182
12.98848,232799
12.99660,203320
13.00472,178255
13.01285,165594
13.02097,158742
13.02908,152243
13.03722,140112
13.04533,126315
13.05347,114729
13.06158,95473
13.06970,86846
13.07783,77850
13.08595,76646
13.09408,70247
13.10220,67672
13.11032,61981
13.11845,60126
13.12657,61353
13.13470,55154
13.14282,58860
13.15093,59207
13.15907,55287
13.16718,67140
13.17530,61965
13.18343,59391
13.19155,60974
13.19968,60656
13.20780,61880
13.21592,65359
13.22405,59591
13.23217,63401
13.24030,74055
13.24842,77674
13.25653,83072
13.26467,94058
13.27278,99747
13.28092,105764
13.28903,97039
13.29715,95828
13.30528,91946
13.31340,101221
13.32152,107243
13.32965,118906
13.33777,113979
13.34590,101030
13.35402,93441
13.36213,84791
13.37027,86199
13.37838,79889
13.38652,78310
13.39463,75171
13.40275,74064
13.41088,66230
13.41900,60878
13.42712,64973
13.43525,62579
13.44337,61242
13.45150,66363
13.45962,65597
13.46773,59289
13.47587,62306
13.48398,59140
13.49212,57200
13.50023,58813
13.50835,56729
13.51648,58679
13.52460,61880
13.53273,60892
13.54085,69787
13.54897,78159
13.55710,82922
13.56522,89571
13.57333,99267
13.58147,98624
13.58958,105483
13.59772,114814
13.60583,137051
13.61395,162153
13.62208,181647
13.63020,194215
13.63833,177631
13.64645,150978
13.65457,132793
13.66270,117452
13.67082,103238
13.67895,101078
13.68707,95421
13.69518,88583
13.70332,82564
13.71143,79745
13.71955,76736
13.72768,77422
13.73580,92825
13.74393,137613
13.75205,227924
13.76017,378117
13.76830,591815
13.77642,731004
13.78455,734277
13.79267,630348
13.80078,510447
13.80892,414157
13.81703,376914
13.82515,394111
13.83328,407719
13.84140,407006
13.84953,340380
13.85765,279364
13.86577,231015
13.87390,187365
13.88202,160459
13.89015,156811
13.89827,146956
13.90638,143915
13.91452,148143
13.92263,141785
13.93077,136873
13.93888,137340
13.94700,141892
13.95513,131790
13.96325,131404
13.97137,131344
13.97950,133132
13.98762,134316
13.99575,121654
14.00387,126942
14.01198,122158
14.02012,122302
14.02823,116873
14.03637,120572
14.04448,114505
14.05260,113084
14.06073,109419
14.06885,102399
14.07697,105076
14.08510,102526
14.09322,101627
14.10135,93199
14.10947,91373
14.11758,90965
14.12572,96273
14.13383,102931
14.14197,142307
14.15008,223339
14.15820,364203
14.16633,535670
14.17445,663080
14.18258,700771
14.19070,607831
14.19882,466817
14.20695,333096
14.21507,261419
14.22318,217342
14.23132,198979
14.23943,180818
14.24757,182122
14.25568,164926
14.26380,156137
14.27193,145838
14.28005,131575
14.28818,126901
14.29630,121110
14.30442,114583
14.31255,107178
14.32067,99295
14.32880,91152
14.33692,83481
14.34503,73665
14.35317,66585
14.36128,66231
14.36940,64518
14.37753,63161
14.38565,68853
14.39378,89678
14.40190,117361
14.41002,163005
14.41815,196245
14.42627,213140
14.43440,202858
14.44252,165216
14.45063,120904
14.45877,102400
14.46688,92738
14.47500,87665
14.48313,84132
14.49125,80772
14.49938,81235
14.50750,73245
14.51562,77525
14.52375,71988
14.53187,70181
14.54000,65091
14.54812,56483
14.55623,62854
14.56437,62121
14.57248,60773
14.58062,61208
14.58873,56755
14.59685,57387
14.60498,55423
14.61310,56889
14.62122,56326
14.62935,56924
14.63747,59035
14.64560,57187
14.65372,54665
14.66183,52349
14.66997,53106
14.67808,58198
14.68622,61160
14.69433,53998
14.70245,53047
14.71058,52515
14.71870,55657
14.72683,55516
14.73495,56771
14.74307,57210
14.75120,57783
14.75932,59608
14.76743,60529
14.77557,60174
14.78368,73288
14.79182,114593
14.79993,219076
14.80805,426944
14.81618,758770
14.82430,1071684
14.83243,1218291
14.84055,1144213
14.84867,878708
14.85680,603851
14.86492,363223
14.87303,235737
14.88117,174342
14.88928,137913
14.89742,121444
14.90553,111722
14.91365,110080
14.92178,102324
14.92990,96125
14.93803,98855
14.94615,97352
14.95427,85995
14.96240,85325
14.97052,79731
14.97865,81150
14.98677,77984
14.99488,77065
15.00302,74055
15.01113,77506
15.01925,74326
15.02738,84434
15.03550,75587
15.04363,79824
15.05175,77304
15.05987,69697
15.06800,64774
15.07612,65193
15.08425,59867
15.09237,62783
15.10048,66382
15.10862,56641
15.11673,60596
15.12485,65552
15.13298,67757
15.14110,64988
15.14923,65611
15.15735,67474
15.16547,65737
15.17360,57828
15.18172,59573
15.18985,59778
15.19797,56173
15.20608,57948
15.21422,55955
15.22233,51390
15.23047,54907
15.23858,55065
15.24670,52523
15.25483,52256
15.26295,50351
15.27107,50976
15.27920,49158
15.28732,51271
15.29545,50497
15.30357,55391
15.31168,45990
15.31982,46473
15.32793,51564
15.33607,52545
15.34418,48283
15.35230,50417
15.36043,49318
15.36855,51365
15.37668,51163
15.38480,49924
15.39292,54085
15.40105,51901
15.40917,49813
15.41728,48082
15.42542,50923
15.43353,52275
15.44167,51188
15.44978,55780
15.45790,68418
15.46603,90793
15.47415,131115
15.48228,198486
15.49040,266548
15.49852,326976
15.50665,342842
15.51477,319503
15.52288,278931
15.53102,241621
15.53913,206142
15.54727,180000
15.55538,152029
15.56350,122681
15.57163,93619
15.57975,77962
15.58788,70486
15.59600,67215
15.60412,59440
15.61225,61383
15.62037,57009
15.62850,57027
15.63662,54385
15.64473,55674
15.65287,55294
15.66098,55406
15.66910,52730
15.67723,51626
15.68535,51625
15.69348,54119
15.70160,53772
15.70972,50283
15.71785,51555
15.72597,55374
15.73410,56095
15.74222,55734
15.75033,61417
15.75847,73743
15.76658,101792
15.77472,129895
15.78283,156991
15.79095,161473
15.79908,148737
15.80720,126608
15.81532,99965
15.82345,79941
15.83157,76115
15.83970,66055
15.84782,62882
15.85593,64727
15.86407,60922
15.87218,64614
15.88032,63023
15.88843,61393
15.89655,57973
15.90468,56248
15.91280,58746
15.92092,56048
15.92905,57485
15.93717,57123
15.94530,57109
15.95342,65116
15.96153,66707
15.96967,74667
15.97778,80808
15.98592,88024
15.99403,80235
16.00215,80489
16.01028,81328
16.01840,79516
16.02653,78969
16.03465,78694
16.04277,77547
16.05090,72158
16.05902,64349
16.06713,63500
16.07527,63643
16.08338,59059
16.09152,57287
16.09963,57285
16.10775,56314
16.11588,59915
16.12400,62758
16.13213,65482
16.14025,70704
16.14837,66686
16.15650,65266
16.16462,63423
16.17273,60883
16.18087,60607
16.18898,58863
16.19712,59129
16.20523,63614
16.21335,59880
16.22148,60290
16.22960,55282
16.23773,53784
16.24585,53993
16.25397,56863
16.26210,60087
16.27022,57923
16.27835,55946
16.28647,67528
16.29458,67150
16.30272,69537
16.31083,66739
16.31895,64570
16.32708,65766
16.33520,63443
16.34333,59270
16.35145,64374
16.35957,68335
16.36770,64622
16.37582,71181
16.38395,70995
16.39207,64123
16.40018,65196
16.40832,61019
16.41643,64376
16.42457,57915
16.43268,60725
16.44080,62460
16.44893,76083
16.45705,96795
16.46517,139220
16.47330,179556
16.48142,198518
16.48955,200675
16.49767,173579
16.50578,128996
16.51392,101555
16.52203,83508
16.53017,70881
16.53828,66217
16.54640,67450
16.55453,64265
16.56265,63649
16.57078,64429
16.57890,62172
16.58702,70262
16.59515,72004
16.60327,76424
16.61138,80928
16.61952,82593
16.62763,73835
16.63577,69831
16.64388,66889
16.65200,65396
16.66013,66229
16.66825,60079
16.67638,56116
16.68450,54319
16.69262,63431
16.70075,56444
16.70887,57387
16.71698,58160
16.72512,52426
16.73323,52349
16.74137,55158
16.74948,52064
16.75760,54561
16.76573,56002
16.77385,54921
16.78198,52486
16.79010,55439
16.79822,55014
16.80635,51056
16.81447,53261
16.82260,53609
16.83072,53765
16.83883,54957
16.84697,54089
16.85508,50921
16.86320,56222
16.87133,56252
16.87945,54220
16.88758,53847
16.89570,61403
16.90382,53390
16.91195,54584
16.92007,51366
16.92820,53624
16.93632,55870
16.94443,52348
16.95257,53440
16.96068,52195
16.96880,53782
16.97693,54246
16.98505,55735
16.99318,57099
17.00130,57848
17.00942,54942
17.01755,53303
17.02567,56011
17.03380,59701
17.04192,58327
17.05003,62310
17.05817,59438
17.06628,61231
17.07442,58006
17.08253,59936
17.09065,52570
17.09878,56068
17.10690,55431
17.11502,58239
17.12315,59650
17.13127,57338
17.13940,60795
17.14752,61794
17.15563,61294
17.16377,61343
17.17188,65583
17.18002,58984
17.18813,57443
17.19625,57857
17.20438,53099
17.21250,51416
17.22063,50889
17.22875,55680
17.23687,53670
17.24500,50472
17.25312,48907
17.26123,52429
17.26937,53135
17.27748,49720
17.28562,50656
17.29373,52331
17.30185,51671
17.30998,57018
17.31810,59740
17.32623,64920
17.33435,69153
17.34247,76617
17.35060,80027
17.35872,83238
17.36683,81839
17.37497,75997
17.38308,75466
17.39122,79175
17.39933,78182
17.40745,81745
17.41558,81395
17.42370,82789
17.43183,83758
17.43995,81989
17.44807,80601
17.45620,71911
17.46432,69168
17.47245,71702
17.48057,64692
17.48868,62542
17.49682,66706
17.50493,63401
17.51305,74209
17.52118,77476
17.52930,83011
17.53743,95581
17.54555,115782
17.55367,127953
17.56180,151681
17.56992,175237
17.57805,202690
17.58617,252293
17.59428,305008
17.60242,325162
17.61053,302040
17.61867,267554
17.62678,214284
17.63490,169284
17.64303,130910
17.65115,108173
17.65927,97288
17.66740,98725
17.67552,97579
17.68365,91191
17.69177,92638
17.69988,88367
17.70802,86987
17.71613,84527
17.72427,83198
17.73238,87514
17.74050,79802
17.74863,82165
17.75675,78657
17.76487,76068
17.77300,74060
17.78112,72971
17.78925,67269
17.79737,67031
17.80548,76846
17.81362,76473
17.82173,83972
17.82987,88470
17.83798,97468
17.84610,102003
17.85423,104110
17.86235,101747
17.87048,103593
17.87860,86963
17.88672,84265
17.89485,81872
17.90297,71268
17.91108,72014
17.91922,68974
17.92733,67754
17.93547,63971
17.94358,59653
17.95170,60671
17.95983,59962
17.96795,61251
17.97608,68289
17.98420,57885
17.99232,64016
18.00045,62202
18.00857,68332
18.01668,82746
18.02482,90421
18.03293,90109
18.04107,97114
18.04918,108767
18.05730,134639
18.06543,223163
18.07355,382836
18.08168,629575
18.08980,861335
18.09792,939975
18.10605,914848
18.11417,741063
18.12230,579219
18.13042,455945
18.13853,394418
18.14667,349970
18.15478,310593
18.16290,294752
18.17103,278988
18.17915,268469
18.18728,247604
18.19540,243252
18.20352,232878
18.21165,226779
18.21977,216711
18.22790,206403
18.23602,202967
18.24413,202353
18.25227,191157
18.26038,184704
18.26852,179441
18.27663,161653
18.28475,152891
18.29288,152975
18.30100,145945
18.30912,138262
18.31725,134679
18.32537,128046
18.33350,124504
18.34162,123694
18.34973,124910
18.35787,120316
18.36598,120959
18.37412,123727
18.38223,116742
18.39035,120640
18.39848,122356
18.40660,120950
18.41472,130399
18.42285,134455
18.43097,141231
18.43910,149134
18.44722,155491
18.45533,162102
18.46347,165071
18.47158,173069
18.47972,177664
18.48783,173331
18.49595,152271
18.50408,139077
18.51220,122864
18.52033,107780
18.52845,103601
18.53657,96843
18.54470,95782
18.55282,90270
18.56093,90160
18.56907,84457
18.57718,86415
18.58532,97573
18.59343,97305
18.60155,107342
18.60968,112340
18.61780,114949
18.62593,120525
18.63405,118512
18.64217,114510
18.65030,108924
18.65842,96492
18.66655,86605
18.67467,83448
18.68278,76352
18.69092,78619
18.69903,80549
18.70715,80538
18.71528,80649
18.72340,81961
18.73153,73293
18.73965,78370
18.74777,74341
18.75590,73525
18.76402,71947
18.77215,69895
18.78027,70204
18.78838,73272
18.79652,69888
18.80463,67677
18.81275,65066
18.82088,65143
18.82900,67316
18.83713,65568
18.84525,74435
18.85337,70179
18.86150,67563
18.86962,74401
18.87775,77384
18.88587,85872
18.89398,80991
18.90212,78510
18.91023,81442
18.91837,78522
18.92648,79794
18.93460,80128
18.94273,80049
18.95085,80601
18.95897,77173
18.96710,76030
18.97522,76854
18.98335,71697
18.99147,70063
18.99958,73274
19.00772,73199
19.01583,73178
19.02397,77162
19.03208,77654
19.04020,73154
19.04833,74413
19.05645,77832
19.06458,81645
19.07270,105973
19.08082,142819
19.08895,186894
19.09707,224866
19.10518,242663
19.11332,223512
19.12143,193695
19.12957,168080
19.13768,137725
19.14580,134056
19.15393,142999
19.16205,135101
19.17018,135432
19.17830,130761
19.18642,122354
19.19455,103498
19.20267,93980
19.21078,93877
19.21892,80553
19.22703,74381
19.23517,70377
19.24328,66259
19.25140,63702
19.25953,69655
19.26765,71023
19.27578,70524
19.28390,73290
19.29202,76265
19.30015,74767
19.30827,77829
19.31640,70913
19.32452,75529
19.33263,74779
19.34077,70885
19.34888,77199
19.35700,79789
19.36513,90319
19.37325,97746
19.38138,97775
19.38950,94407
19.39762,88904
19.40575,83943
19.41387,81072
19.42200,78828
19.43012,91549
19.43823,110402
19.44637,136401
19.45448,194802
19.46260,288550
19.47073,374754
19.47885,421805
19.48698,405006
19.49510,335634
19.50322,243321
19.51135,167265
19.51947,127059
19.52760,110481
19.53572,105926
19.54383,101007
19.55197,104591
19.56008,95623
19.56822,89216
19.57633,86956
19.58445,76977
19.59258,74019
19.60070,69084
19.60882,70946
19.61695,73564
19.62507,78541
19.63320,97058
19.64132,125319
19.64943,159487
19.65757,194152
19.66568,220751
19.67382,224129
19.68193,208706
19.69005,186568
19.69818,165660
19.70630,146319
19.71443,132228
19.72255,117094
19.73067,105598
19.73880,99105
19.74692,92534
19.75503,90202
19.76317,91131
19.77128,99542
19.77942,113566
19.78753,126529
19.79565,129819
19.80378,134616
19.81190,127094
19.82003,111716
19.82815,111735
19.83627,100199
19.84440,120289
19.85252,227469
19.86063,543660
19.86877,1259012
19.87688,2594719
19.88502,4582393
19.89313,6627778
19.90125,7802523
19.90938,7683079
19.91750,6390445
19.92563,4542759
19.93375,2973656
19.94187,1899736
19.95000,1256130
19.95812,963036
19.96625,788571
19.97437,684524
19.98248,628389
19.99062,577584
19.99873,548509
20.00685,495507
20.01498,482429
20.02310,438754
20.03123,413157
20.03935,373305
20.04747,343138
20.05560,289636
20.06372,274886
20.07185,265184
20.07997,258867
20.08808,244753
20.09622,222498
20.10433,195034
20.11247,170570
20.12058,151138
20.12870,146572
20.13683,154327
20.14495,173748
20.15307,240971
20.16120,330981
20.16932,456045
20.17745,591313
20.18557,678995
20.19368,702309
20.20182,647254
20.20993,557427
20.21807,448829
20.22618,353989
20.23430,320567
20.24243,344123
20.25055,409912
20.25867,491491
20.26680,545341
20.27492,555766
20.28305,517342
20.29117,431751
20.29928,334604
20.30742,261459
20.31553,199806
20.32367,158602
20.33178,133695
20.33990,119145
20.34803,106956
20.35615,99175
20.36428,93654
20.37240,89328
20.38052,85602
20.38865,87335
20.39677,91971
20.40488,101958
20.41302,99274
20.42113,105230
20.42927,108228
20.43738,107602
20.44550,108817
20.45363,103099
20.46175,105044
20.46988,97272
20.47800,90138
20.48612,94389
20.49425,90013
20.50237,83442
20.51048,89206
20.51862,78811
20.52673,80498
20.53487,77277
20.54298,81673
20.55110,85091
20.55923,76688
20.56735,79170
20.57548,75644
20.58360,77459
20.59172,72321
20.59985,79489
20.60797,76560
20.61610,81822
20.62422,75229
20.63233,76053
20.64047,85341
20.64858,78279
20.65670,86028
20.66483,79711
20.67295,76477
20.68108,83732
20.68920,75483
20.69732,78688
20.70545,74393
20.71357,76524
20.72170,76028
20.72982,77726
20.73793,74491
20.74607,83614
20.75418,75707
20.76232,81536
20.77043,90077
20.77855,102516
20.78668,135151
20.79480,169706
20.80292,224419
20.81105,268551
20.81917,273385
20.82730,268009
20.83542,221351
20.84353,165634
20.85167,124290
20.85978,107891
20.86792,95633
20.87603,90546
20.88415,87573
20.89228,95802
20.90040,96251
20.90852,100318
20.91665,113170
20.92477,109845
20.93290,110409
20.94102,115861
20.94913,117166
20.95727,113299
20.96538,97785
20.97352,99379
20.98163,100720
20.98975,90333
20.99788,97046
21.00600,101778
21.01413,101579
21.02225,95432
21.03037,101263
21.03850,104183
21.04662,104985
21.05473,100180
21.06287,102194
21.07098,90160
21.07912,94940
21.08723,93155
21.09535,90611
21.10348,87886
21.11160,87041
21.11973,93375
21.12785,99468
21.13597,111174
21.14410,119776
21.15222,134482
21.16035,129792
21.16847,133775
21.17658,127147
21.18472,113440
21.19283,109024
21.20095,97469
21.20908,93486
21.21720,88165
21.22533,91417
21.23345,91027
21.24157,90953
21.24970,93426
21.25782,90466
21.26595,91788
21.27407,90272
21.28218,91743
21.29032,86477
21.29843,89180
21.30655,84860
21.31468,84218
21.32280,93347
21.33093,81713
21.33905,85473
21.34717,87062
21.35530,79698
21.36342,84248
21.37155,85677
21.37967,83478
21.38778,90135
21.39592,99279
21.40403,103691
21.41217,110963
21.42028,112774
21.42840,107602
21.43653,104785
21.44465,95568
21.45277,91744
21.46090,89574
21.46902,88645
21.47715,86438
21.48527,83882
21.49338,83994
21.50152,85305
21.50963,80210
21.51777,83504
21.52588,81112
21.53400,82608
21.54213,78501
21.55025,80903
21.55837,82643
21.56650,77937
21.57462,89165
21.58275,100858
21.59087,104188
21.59898,116794
21.60712,129355
21.61523,135267
21.62337,127448
21.63148,119941
21.63960,116500
21.64773,112633
21.65585,108395
21.66398,100549
21.67210,103758
21.68022,95337
21.68835,93880
21.69647,90161
21.70458,85003
21.71272,85528
21.72083,77166
21.72897,77799
21.73708,81190
21.74520,79703
21.75333,88919
21.76145,97989
21.76958,114991
21.77770,128133
21.78582,141148
21.79395,159388
21.80207,163150
21.81020,176837
21.81832,176209
21.82643,169086
21.83457,169044
21.84268,153147
21.85080,140132
21.85893,131342
21.86705,128675
21.87518,125298
21.88330,119183
21.89142,112263
21.89955,111012
21.90767,110385
21.91580,108222
21.92392,100434
21.93203,100870
21.94017,92836
21.94828,89194
21.95642,90132
21.96453,86173
21.97265,87747
21.98078,86733
21.98890,80709
21.99702,79111
22.00515,81478
22.01327,81155
22.02140,77142
22.02952,76976
22.03763,80161
22.04577,75469
22.05388,79277
22.06202,73843
22.07013,77592
22.07825,74910
22.08638,73045
22.09450,71793
22.10262,73846
22.11075,77052
22.11887,75391
22.12700,70106
22.13512,74062
22.14323,72046
22.15137,70690
22.15948,70030
22.16762,68527
22.17573,70019
22.18385,73842
22.19198,72353
22.20010,76829
22.20823,74158
22.21635,74096
22.22447,72667
22.23260,71209
22.24072,69536
22.24883,68504
22.25697,74348
22.26508,74102
22.27322,72885
22.28133,76930
22.28945,77249
22.29758,80460
22.30570,79075
22.31383,80954
22.32195,79650
22.33007,80335
22.33820,75790
22.34632,77757
22.35443,76775
22.36257,71883
22.37068,77998
22.37882,74928
22.38693,79551
22.39505,91121
22.40318,99634
22.41130,111627
22.41943,117823
22.42755,105823
22.43567,103079
22.44380,95989
22.45192,79948
22.46005,75764
22.46817,81157
22.47628,81327
22.48442,98994
22.49253,100428
22.50065,109949
22.50878,110405
22.51690,106481
22.52503,106978
22.53315,98778
22.54127,89415
22.54940,89259
22.55752,78739
22.56565,79025
22.57377,71543
22.58188,69786
22.59002,64141
22.59813,68180
22.60627,62292
22.61438,60229
22.62250,69777
22.63063,65327
22.63875,67226
22.64687,66985
22.65500,66634
22.66312,68053
22.67125,65782
22.67937,70068
22.68748,71264
22.69562,71989
22.70373,85838
22.71187,85745
22.71998,92942
22.72810,82689
22.73623,77440
22.74435,78469
22.75247,73632
22.76060,72289
22.76872,73664
22.77685,76303
22.78497,84707
22.79308,86414
22.80122,88180
22.80933,92924
22.81747,93784
22.82558,92238
22.83370,87966
22.84183,77995
22.84995,84434
22.85808,86180
22.86620,96092
22.87432,103828
22.88245,115365
22.89057,126558
22.89868,129764
22.90682,133975
22.91493,141337
22.92307,150416
22.93118,155916
22.93930,152437
22.94743,132456
22.95555,129421
22.96368,109308
22.97180,102325
22.97992,98038
22.98805,89467
22.99617,85238
23.00430,83766
23.01242,82429
23.02053,83209
23.02867,77129
23.03678,72259
23.04490,72969
23.05303,76025
23.06115,71086
23.06928,69996
23.07740,72985
23.08552,72004
23.09365,69837
23.10177,69818
23.10990,68308
23.11802,68472
23.12613,66825
23.13427,64175
23.14238,62479
23.15050,67744
23.15863,65374
23.16675,68103
23.17488,60845
23.18300,61956
23.19112,63924
23.19925,64743
23.20737,60686
23.21550,61311
23.22362,58019
23.23173,64838
23.23987,64410
23.24798,67259
23.25612,66763
23.26423,71534
23.27235,71588
23.28048,68288
23.28860,72808
23.29672,72869
23.30485,70897
23.31297,75155
23.32110,73117
23.32922,77280
23.33733,82298
23.34547,93251
23.35358,99106
23.36172,104936
23.36983,106262
23.37795,115477
23.38608,104942
23.39420,101512
23.40232,100327
23.41045,95474
23.41857,87743
23.42670,80191
23.43482,81105
23.44293,76461
23.45107,77772
23.45918,70040
23.46732,72888
23.47543,69234
23.48355,71715
23.49168,73322
23.49980,74493
23.50793,71802
23.51605,78201
23.52417,87587
23.53230,100860
23.54042,120002
23.54853,131896
23.55667,140485
23.56478,164463
23.57292,179316
23.58103,210826
23.58915,238795
23.59728,263628
23.60540,267274
23.61353,255263
23.62165,222303
23.62977,200437
23.63790,173548
23.64602,165838
23.65415,173693
23.66227,170211
23.67038,167426
23.67852,161056
23.68663,148436
23.69475,139471
23.70288,126856
23.71100,125432
23.71913,128380
23.72725,135118
23.73537,167248
23.74350,253208
23.75162,491835
23.75975,963912
23.76787,1741158
23.77598,2719991
23.78412,3526369
23.79223,3628233
23.80035,3263314
23.80848,2644303
23.81660,1991512
23.82473,1452233
23.83285,1062031
23.84097,799027
23.84910,650671
23.85722,526706
23.86535,434619
23.87347,374963
23.88158,343624
23.88972,310376
23.89783,286092
23.90597,268750
23.91408,253807
23.92220,230936
23.93033,215103
23.93845,203481
23.94657,206064
23.95470,190951
23.96282,187979
23.97095,181920
23.97907,167847
23.98718,165913
23.99532,160094
24.00343,155165
24.01157,158379
24.01968,153659
24.02780,151308
24.03593,156112
24.04405,150777
24.05218,143753
24.06030,137990
24.06842,128754
24.07655,129523
24.08467,134382
24.09278,131443
24.10092,135909
24.10903,134160
24.11717,126073
24.12528,129617
24.13340,127578
24.14153,126973
24.14965,130210
24.15778,128988
24.16590,133372
24.17402,135364
24.18215,147665
24.19027,146748
24.19838,144989
24.20652,136633
24.21463,126392
24.22277,116579
24.23088,111672
24.23900,101346
24.24713,102975
24.25525,101644
24.26338,96223
24.27150,96488
24.27962,96245
24.28775,96565
24.29587,99455
24.30400,92331
24.31212,98604
24.32023,94385
24.32837,107731
24.33648,134571
24.34460,167801
24.35273,220521
24.36085,274258
24.36898,294522
24.37710,274885
24.38522,219176
24.39335,164990
24.40147,132558
24.40960,126166
24.41772,127270
24.42583,128810
24.43397,132441
24.44208,129398
24.45020,125154
24.45833,128807
24.46645,135591
24.47458,141096
24.48270,140332
24.49082,141635
24.49895,133671
24.50707,125029
24.51520,126167
24.52332,127844
24.53143,139655
24.53957,161967
24.54768,171549
24.55582,186507
24.56393,174376
24.57205,165207
24.58018,144561
24.58830,117556
24.59642,111563
24.60455,94028
24.61267,91548
24.62080,86631
24.62892,89052
24.63703,87544
24.64517,85633
24.65328,87163
24.66142,84673
24.66953,82928
24.67765,82451
24.68578,85988
24.69390,81779
24.70203,81447
24.71015,76539
24.71827,81435
24.72640,83041
24.73452,81770
24.74263,94396
24.75077,111433
24.75888,127022
24.76702,139751
24.77513,156314
24.78325,171366
24.79138,171310
24.79950,176450
24.80763,178104
24.81575,182508
24.82387,171095
24.83200,176370
24.84012,180744
24.84823,193479
24.85637,214374
24.86448,248520
24.87262,276155
24.88073,305545
24.88885,299246
24.89698,285806
24.90510,250612
24.91323,204484
24.92135,170456
24.92947,136683
24.93760,123879
24.94572,106791
24.95385,109315
24.96197,99780
24.97008,99573
24.97822,98743
24.98633,92493
24.99445,91544
25.00258,89411
25.01070,86896
25.01883,91868
25.02695,84030
25.03507,90826
25.04320,86325
25.05132,81255
25.05945,83363
25.06757,88288
25.07568,84384
25.08382,87944
25.09193,103901
25.10007,138706
25.10818,222442
25.11630,361516
25.12443,585217
25.13255,821874
25.14067,1007037
25.14880,1054087
25.15692,870551
25.16505,660138
25.17317,445961
25.18128,290232
25.18942,196007
25.19753,140409
25.20567,114236
25.21378,101397
25.22190,98033
25.23003,102497
25.23815,110337
25.24627,130627
25.25440,146663
25.26252,156999
25.27065,161651
25.27877,161229
25.28688,140417
25.29502,135493
25.30313,123130
25.31127,116993
25.31938,112097
25.32750,105081
25.33563,98253
25.34375,95655
25.35188,88657
25.36000,89274
25.36812,79993
25.37625,78004
25.38437,72219
25.39248,77378
25.40062,76414
25.40873,73262
25.41687,74143
25.42498,74280
25.43310,76095
25.44123,73648
25.44935,80824
25.45748,75982
25.46560,74743
25.47372,69284
25.48185,66892
25.48997,74889
25.49810,66132
25.50622,72930
25.51433,67313
25.52247,68232
25.53058,67975
25.53870,65146
25.54683,67411
25.55495,66087
25.56308,69715
25.57120,64568
25.57932,67945
25.58745,65738
25.59557,71101
25.60370,64345
25.61182,64385
25.61993,65421
25.62807,62562
25.63618,62659
25.64430,66130
25.65243,64289
25.66055,75721
25.66868,70005
25.67680,67587
25.68492,73298
25.69305,65871
25.70117,71383
25.70930,69997
25.71742,67427
25.72553,64989
25.73367,64716
25.74178,63846
25.74992,62368
25.75803,65799
25.76615,65626
25.77428,62033
25.78240,62348
25.79052,66366
25.79865,60850
25.80677,65928
25.81490,66461
25.82302,63842
25.83113,68524
25.83927,64223
25.84738,66640
25.85552,63964
25.86363,63433
25.87175,63191
25.87988,64343
25.88800,62810
25.89612,62929
25.90425,63377
25.91237,61223
25.92050,62433
25.92862,60893
25.93673,58083
25.94487,61588
25.95298,63669
25.96112,61889
25.96923,60703
25.97735,62246
25.98548,58739
25.99360,58943
26.00173,55617
26.00985,60644
26.01797,60232
26.02610,59457
26.03422,59640
26.04233,57266
26.05047,59681
26.05858,60665
26.06672,61695
26.07483,60527
26.08295,62473
26.09108,65255
26.09920,61666
26.10733,70707
26.11545,63184
26.12357,74339
26.13170,77179
26.13982,80979
26.14795,82188
26.15607,86263
26.16418,78449
26.17232,76204
26.18043,74286
26.18855,70599
26.19668,70555
26.20480,67151
26.21293,72408
26.22105,68590
26.22917,62056
26.23730,61757
26.24542,63656
26.25355,61670
26.26167,63261
26.26978,59880
26.27792,58029
26.28603,62466
26.29415,55661
26.30228,56764
26.31040,57967
26.31853,59673
26.32665,60784
26.33477,62930
26.34290,69755
26.35102,85731
26.35915,100094
26.36727,138389
26.37538,173266
26.38352,209639
26.39163,235957
26.39977,243542
26.40788,217312
26.41600,190548
26.42413,145627
26.43225,120274
26.44037,92499
26.44850,78769
26.45662,75612
26.46475,67885
26.47287,68503
26.48098,67071
26.48912,67966
26.49723,60509
26.50537,63818
26.51348,61675
26.52160,62069
26.52973,61499
26.53785,61791
26.54598,57771
26.55410,61114
26.56222,60887
26.57035,60166
26.57847,60195
26.58658,57731
26.59472,58812
26.60283,58402
26.61097,57787
26.61908,55583
26.62720,60895
26.63533,58861
26.64345,59039
26.65158,61820
26.65970,62135
26.66782,63159
26.67595,61435
26.68407,59564
26.69218,58440
26.70032,63824
26.70843,62138
26.71657,66489
26.72468,66497
26.73280,67899
26.74093,67771
26.74905,66818
26.75718,63280
26.76530,62773
26.77342,63215
26.78155,65690
26.78967,68529
26.79780,69354
26.80592,69302
26.81403,73971
26.82217,73769
26.83028,75308
26.83840,67412
26.84653,66397
26.85465,64138
26.86278,65584
26.87090,61951
26.87902,70108
26.88715,65380
26.89527,67370
26.90340,70441
26.91152,70624
26.91963,67762
26.92777,67220
26.93588,73998
26.94400,82519
26.95213,109049
26.96025,167335
26.96838,295575
26.97650,512638
26.98462,824365
26.99275,1248025
27.00087,1724573
27.00900,1832841
27.01712,1778026
27.02523,1564396
27.03337,1261546
27.04148,943301
27.04962,695227
27.05773,523606
27.06585,400827
27.07398,334542
27.08210,284077
27.09022,241648
27.09835,213275
27.10647,197330
27.11460,177028
27.12272,172368
27.13083,163848
27.13897,160930
27.14708,159154
27.15522,154812
27.16333,158399
27.17145,159469
27.17958,148889
27.18770,150676
27.19583,138178
27.20395,128496
27.21207,121957
27.22020,120377
27.22832,113275
27.23643,112125
27.24457,100505
27.25268,103097
27.26082,99123
27.26893,95125
27.27705,95195
27.28518,94633
27.29330,93631
27.30143,88199
27.30955,87808
27.31767,87640
27.32580,89292
27.33392,93255
27.34205,92416
27.35017,89950
27.35828,86867
27.36642,89099
27.37453,86999
27.38265,86288
27.39078,85237
27.39890,84205
27.40703,82752
27.41515,81752
27.42327,79867
27.43140,79979
27.43952,75590
27.44765,74525
27.45577,73616
27.46388,73393
27.47202,77853
27.48013,75632
27.48825,79535
27.49638,80512
27.50450,78342
27.51263,76307
27.52075,75292
27.52887,81264
27.53700,74927
27.54512,75625
27.55325,78285
27.56137,77017
27.56948,78233
27.57762,81448
27.58573,91542
27.59387,84706
27.60198,83106
27.61010,82942
27.61823,79450
27.62635,82764
27.63447,80417
27.64260,80081
27.65072,79072
27.65885,74820
27.66697,89184
27.67508,94445
27.68322,94754
27.69133,97762
27.69947,95978
27.70758,85305
27.71570,84398
27.72383,81243
27.73195,77187
27.74007,80434
27.74820,80618
27.75632,78781
27.76445,82186
27.77257,76362
27.78068,69296
27.78882,73397
27.79693,72270
27.80507,71494
27.81318,68578
27.82130,69281
27.82943,70068
27.83755,69619
27.84568,73918
27.85380,71774
27.86192,68009
27.87005,71676
27.87817,67437
27.88628,65170
27.89442,67419
27.90253,63660
27.91067,64773
27.91878,65111
27.92690,64019
27.93503,64589
27.94315,63094
27.95128,67794
27.95940,63781
27.96752,71500
27.97565,76801
27.98377,74768
27.99190,79736
28.00002,83259
28.00813,90294
28.01627,107829
28.02438,126860
28.03250,144867
28.04063,159332
28.04875,165915
28.05688,156171
28.06500,140192
28.07312,120299
28.08125,108065
28.08937,97241
28.09750,103460
28.10562,100156
28.11373,96885
28.12187,94037
28.12998,90073
28.13810,83285
28.14623,83567
28.15435,83759
28.16248,82127
28.17060,82861
28.17872,78752
28.18685,77414
28.19497,77370
28.20310,81824
28.21122,76208
28.21933,82777
28.22747,79908
28.23558,75102
28.24372,79944
28.25183,80478
28.25995,90054
28.26808,111159
28.27620,145849
28.28432,204715
28.29245,276970
28.30057,352781
28.30870,448794
28.31682,511094
28.32493,562816
28.33307,578796
28.34118,569213
28.34932,545654
28.35743,497038
28.36555,445940
28.37368,382009
28.38180,335136
28.38993,296588
28.39805,268862
28.40617,224261
28.41430,210880
28.42242,182052
28.43053,167243
28.43867,156666
28.44678,151368
28.45492,138677
28.46303,137969
28.47115,131115
28.47928,136393
28.48740,125907
28.49553,123721
28.50365,120738
28.51177,117529
28.51990,111939
28.52802,105200
28.53613,107787
28.54427,104445
28.55238,104094
28.56052,90022
28.56863,91143
28.57675,90107
28.58488,91855
28.59300,86745
28.60113,95919
28.60925,90754
28.61737,93832
28.62550,96195
28.63362,107079
28.64175,98739
28.64987,107482
28.65798,106862
28.66612,101770
28.67423,101418
28.68235,99487
28.69048,97043
28.69860,104789
28.70673,101604
28.71485,123474
28.72297,141309
28.73110,163997
28.73922,168064
28.74735,154900
28.75547,134158
28.76358,112990
28.77172,97607
28.77983,87521
28.78795,85883
28.79608,89145
28.80420,86726
28.81233,82903
28.82045,81817
28.82857,76415
28.83670,76009
28.84482,80378
28.85295,79177
28.86107,76453
28.86918,80155
28.87732,80500
28.88543,85995
28.89357,87314
28.90168,81002
28.90980,85516
28.91793,80543
28.92605,81555
28.93417,82056
28.94230,81333
28.95042,86116
28.95855,83486
28.96667,85582
28.97478,82425
28.98292,81306
28.99103,81294
28.99917,78291
29.00728,76049
29.01540,74950
29.02353,70912
29.03165,66979
29.03978,77970
29.04790,68356
29.05602,74610
29.06415,77023
29.07227,70572
29.08038,73438
29.08852,71145
29.09663,76403
29.10477,70056
29.11288,71910
29.12100,77845
29.12913,69276
29.13725,73074
29.14538,77982
29.15350,75321
29.16162,72016
29.16975,72731
29.17787,73061
29.18598,79192
29.19412,86320
29.20223,85585
29.21037,93003
29.21848,88278
29.22660,92150
29.23473,94427
29.24285,104912
29.25098,100419
29.25910,105839
29.26722,116506
29.27535,103121
29.28347,97152
29.29160,93829
29.29972,79086
29.30783,76532
29.31597,79153
29.32408,73569
29.33220,77896
29.34033,71830
29.34845,75369
29.35658,73900
29.36470,72636
29.37282,69824
29.38095,71673
29.38907,72210
29.39720,75211
29.40532,73598
29.41343,76282
29.42157,75746
29.42968,76724
29.43782,78569
29.44593,73255
29.45405,78251
29.46218,75590
29.47030,70969
29.47842,71374
29.48655,78643
29.49467,77437
29.50280,76070
29.51092,84061
29.51903,80422
29.52717,74072
29.53528,74213
29.54342,76018
29.55153,77388
29.55965,81131
29.56778,82378
29.57590,86605
29.58402,93220
29.59215,104992
29.60027,99306
29.60840,101345
29.61652,98926
29.62463,88645
29.63277,81668
29.64088,76383
29.64902,78055
29.65713,79995
29.66525,72566
29.67338,78206
29.68150,79641
29.68963,81561
29.69775,84758
29.70587,89456
29.71400,82985
29.72212,85334
29.73023,84895
29.73837,83541
29.74648,75219
29.75462,81355
29.76273,84569
29.77085,78914
29.77898,80457
29.78710,71275
29.79523,70744
29.80335,76270
29.81147,69241
29.81960,70061
29.82772,71826
29.83585,74381
29.84397,72721
29.85208,73067
29.86022,73581
29.86833,75941
29.87645,85773
29.88458,98841
29.89270,107516
29.90083,122260
29.90895,141087
29.91707,170181
29.92520,184892
29.93332,199451
29.94145,221974
29.94957,254187
29.95768,269742
29.96582,280001
29.97393,287490
29.98205,276067
29.99018,275405
29.99830,255898
30.00643,262883
30.01455,232612
30.02267,215600
30.03080,200951
30.03892,187381
30.04705,169782
30.05517,156654
30.06328,148363
30.07142,138828
30.07953,134053
30.08767,134018
30.09578,126104
30.10390,126438
30.11203,118274
30.12015,112841
30.12827,109008
30.13640,112158
30.14452,102952
30.15265,109788
30.16077,100480
30.16888,102575
30.17702,99277
30.18513,108620
30.19327,105041
30.20138,99759
30.20950,102230
30.21763,97722
30.22575,93213
30.23387,89424
30.24200,83686
30.25012,89815
30.25825,80274
30.26637,84721
30.27448,84499
30.28262,92005
30.29073,83011
30.29887,87741
30.30698,83016
30.31510,80938
30.32323,83205
30.33135,82743
30.33948,83589
30.34760,81311
30.35572,80221
30.36385,83666
30.37197,79461
30.38008,78901
30.38822,79377
30.39633,80000
30.40447,80032
30.41258,82525
30.42070,77500
30.42883,76787
30.43695,77599
30.44508,78543
30.45320,78244
30.46132,78998
30.46945,75738
30.47757,79159
30.48570,78016
30.49382,73250
30.50193,82324
30.51007,76982
30.51818,75934
30.52630,76776
30.53443,73622
30.54255,72964
30.55068,76932
30.55880,73826
30.56692,79641
30.57505,79155
30.58317,77362
30.59130,76925
30.59942,78956
30.60753,77214
30.61567,74349
30.62378,74944
30.63190,75467
30.64003,74307
30.64815,71552
30.65628,75353
30.66440,76917
30.67252,68696
30.68065,67839
30.68877,71109
30.69690,76336
30.70502,76610
30.71313,73849
30.72127,73167
30.72938,77225
30.73752,76340
30.74563,77351
30.75375,76047
30.76188,76319
30.77000,81276
30.77812,87131
30.78625,90311
30.79437,90607
30.80250,99665
30.81062,100649
30.81873,99677
30.82687,93871
30.83498,87707
30.84312,81786
30.85123,81220
30.85935,86120
30.86748,77485
30.87560,78886
30.88373,80091
30.89185,82299
30.89997,82841
30.90810,84283
30.91622,78715
30.92433,77335
30.93247,71983
30.94058,69759
30.94872,72632
30.95683,71081
30.96495,71375
30.97308,74987
30.98120,71988
30.98933,73740
30.99745,74026
31.00557,69878
31.01370,77592
31.02182,75055
31.02993,74852
31.03807,74868
31.04618,75321
31.05432,85321
31.06243,79906
31.07055,78382
31.07868,88527
31.08680,90966
31.09493,98981
31.10305,101169
31.11117,102902
31.11930,103225
31.12742,92937
31.13555,89722
31.14367,83687
31.15178,83451
31.15992,93979
31.16803,107608
31.17615,130277
31.18428,176222
31.19240,233913
31.20053,297084
31.20865,349937
31.21677,365826
31.22490,343333
31.23302,294510
31.24115,215551
31.24927,166575
31.25738,124412
31.26552,102370
31.27363,93599
31.28175,84468
31.28988,80964
31.29800,86346
31.30613,83327
31.31425,78692
31.32237,82299
31.33050,82448
31.33862,79333
31.34675,78772
31.35487,80857
31.36298,85992
31.37112,81783
31.37923,79430
31.38737,81441
31.39548,80512
31.40360,79522
31.41173,83753
31.41985,82293
31.42797,77482
31.43610,77437
31.44422,75196
31.45235,79962
31.46047,81233
31.46858,75752
31.47672,81272
31.48483,79504
31.49297,80194
31.50108,81200
31.50920,85356
31.51733,84456
31.52545,87269
31.53358,90308
31.54170,84361
31.54982,82949
31.55795,81107
31.56607,83065
31.57418,77965
31.58232,83190
31.59043,83409
31.59857,82202
31.60668,79204
31.61480,78410
31.62293,80443
31.63105,81895
31.63918,79715
31.64730,86120
31.65542,87300
31.66355,90682
31.67167,95483
31.67980,99430
31.68792,110453
31.69603,103291
31.70417,106747
31.71228,102776
31.72040,99370
31.72853,96030
31.73665,91014
31.74478,83553
31.75290,82874
31.76102,80471
31.76915,81039
31.77727,79090
31.78540,80101
31.79352,80534
31.80163,86138
31.80977,85781
31.81788,86113
31.82600,84863
31.83413,85799
31.84225,90606
31.85038,102095
31.85850,111942
31.86662,123349
31.87475,148955
31.88287,162950
31.89100,171771
31.89912,186948
31.90723,196703
31.91537,202445
31.92348,195962
31.93162,189841
31.93973,187917
31.94785,169768
31.95598,170263
31.96410,158938
31.97222,155214
31.98035,145227
31.98847,139575
31.99660,141494
32.00472,134427
32.01283,120250
32.02097,123542
32.02908,119956
32.03722,120397
32.04533,113707
32.05345,108627
32.06158,109594
32.06970,101085
32.07782,100035
32.08595,101356
32.09407,102052
32.10220,101392
32.11032,92382
32.11843,91740
32.12657,91769
32.13468,93627
32.14282,93288
32.15093,96609
32.15905,94298
32.16718,92926
32.17530,96382
32.18343,92245
32.19155,90613
32.19967,95537
32.20780,93510
32.21592,97939
32.22403,88150
32.23217,89155
32.24028,91793
32.24842,94265
32.25653,91802
32.26465,91092
32.27278,92519
32.28090,90583
32.28903,94176
32.29715,92935
32.30527,96095
32.31340,92862
32.32152,89372
32.32965,94436
32.33777,94519
32.34588,97520
32.35402,96698
32.36213,96622
32.37025,95990
32.37838,91480
32.38650,94179
32.39463,91220
32.40275,90013
32.41087,90230
32.41900,94786
32.42712,88869
32.43525,93087
32.44337,86275
32.45148,86312
32.45962,84981
32.46773,90589
32.47585,88618
32.48398,87022
32.49210,88582
32.50023,80079
32.50835,85733
32.51647,87872
32.52460,87707
32.53272,88496
32.54085,88085
32.54897,94803
32.55708,93484
32.56522,88811
32.57333,91178
32.58147,92615
32.58958,88204
32.59770,96274
32.60583,110574
32.61395,127287
32.62207,139577
32.63020,142664
32.63832,138313
32.64645,126526
32.65457,109695
32.66268,101736
32.67082,93041
32.67893,93278
32.68707,92529
32.69518,92707
32.70330,93296
32.71143,98555
32.71955,96050
32.72768,92566
32.73580,93816
32.74392,94488
32.75205,93437
32.76017,92024
32.76828,92650
32.77642,92726
32.78453,83728
32.79267,81809
32.80078,90657
32.80890,81747
32.81703,82241
32.82515,85316
32.83328,86895
32.84140,87465
32.84952,90013
32.85765,90740
32.86577,91000
32.87388,100654
32.88202,103103
32.89013,110072
32.89827,112570
32.90638,118939
32.91450,109386
32.92263,109759
32.93075,101076
32.93888,98602
32.94700,98845
32.95512,89797
32.96325,101786
32.97137,96722
32.97950,98298
32.98762,94066
32.99573,96784
33.00387,105897
33.01198,99849
33.02010,96218
33.02823,96223
33.03635,96593
33.04448,95627
33.05260,89438
33.06072,97381
33.06885,100399
33.07697,103942
33.08510,105079
33.09322,117302
33.10133,113997
33.10947,116050
33.11758,116486
33.12570,127078
33.13383,116163
33.14195,112267
33.15008,102282
33.15820,108658
33.16632,95294
33.17445,96513
33.18257,95614
33.19070,99469
33.19882,94607
33.20693,94612
33.21507,97870
33.22318,91542
33.23132,95513
33.23943,90803
33.24755,92331
33.25568,94289
33.26380,88378
33.27192,95532
33.28005,98134
33.28817,97359
33.29630,97683
33.30442,94916
33.31253,96566
33.32067,91634
33.32878,96656
33.33692,99129
33.34503,98544
33.35315,100907
33.36128,99338
33.36940,101942
33.37753,99243
33.38565,96402
33.39377,94952
33.40190,91372
33.41002,92591
33.41813,88992
33.42627,92914
33.43438,94885
33.44252,93537
33.45063,96759
33.45875,99664
33.46688,96065
33.47500,99565
33.48313,98204
33.49125,90667
33.49937,100898
33.50750,101830
33.51562,103166
33.52373,97972
33.53187,100018
33.53998,97518
33.54812,97511
33.55623,97947
33.56435,99427
33.57248,105553
33.58060,100794
33.58873,98313
33.59685,101366
33.60497,100767
33.61310,96824
33.62122,100217
33.62935,100728
33.63747,100799
33.64558,104089
33.65372,107507
33.66183,105285
33.66995,105785
33.67808,96608
33.68620,97952
33.69433,106073
33.70245,104058
33.71057,100274
33.71870,104744
33.72682,107596
33.73495,110611
33.74307,104295
33.75118,100362
33.75932,106394
33.76743,113466
33.77557,107427
33.78368,107143
33.79180,110372
33.79993,116314
33.80805,118686
33.81617,115161
33.82430,115489
33.83242,116152
33.84055,113300
33.84867,120060
33.85678,120040
33.86492,125522
33.87303,132043
33.88117,135865
33.88928,136328
33.89740,143149
33.90553,153027
33.91365,146080
33.92177,152139
33.92990,151769
33.93802,150217
33.94615,153400
33.95427,152303
33.96238,157655
33.97052,160179
33.97863,156991
33.98677,159278
33.99488,158748
34.00300,157225
34.01113,157332
34.01925,159797
34.02738,162031
34.03550,153259
34.04362,150831
34.05175,146546
34.05987,149169
34.06798,147037
34.07612,143748
34.08423,146938
34.09237,145164
34.10048,144309
34.10860,142168
34.11673,142908
34.12485,137300
34.13298,139758
34.14110,136457
34.14922,140223
34.15735,142252
34.16547,144192
34.17358,138773
34.18172,146520
34.18983,136293
34.19797,137663
34.20608,134863
34.21420,139099
34.22233,142959
34.23045,137973
34.23858,146890
34.24670,142053
34.25482,147004
34.26295,151176
34.27107,146726
34.27920,144329
34.28732,142937
34.29543,153818
34.30357,141848
34.31168,155615
34.31980,148188
34.32793,149668
34.33605,146270
34.34418,152363
34.35230,154539
34.36042,155515
34.36855,152483
34.37667,149868
34.38480,156259
34.39292,157788
34.40103,155120
34.40917,154145
34.41728,153950
34.42542,165832
34.43353,158491
34.44165,164425
34.44978,162600
34.45790,169644
34.46602,187078
34.47415,202649
34.48227,222570
34.49040,244574
34.49852,261889
34.50663,270142
34.51477,268945
34.52288,267915
34.53102,250373
34.53913,247151
34.54725,241453
34.55538,227713
34.56350,209946
34.57162,204112
34.57975,198896
34.58787,198288
34.59600,197882
34.60412,188253
34.61223,189162
34.62037,194351
34.62848,188316
34.63662,190419
34.64473,196845
34.65285,198017
34.66098,192607
34.66910,182795
34.67723,190241
34.68535,203197
34.69347,196020
34.70160,200388
34.70972,187644
34.71783,193776
34.72597,190401
34.73408,199955
34.74222,196609
34.75033,199608
34.75845,204806
34.76658,201186
34.77470,194450
34.78283,197294
34.79095,192411
34.79907,193777
34.80720,196633
34.81532,184746
34.82345,184805
34.83157,194258
34.83968,179313
34.84782,181877
34.85593,182320
34.86405,184328
34.87218,180010
34.88030,176693
34.88843,169310
34.89655,167125
34.90467,177626
34.91280,180254
34.92092,180613
34.92905,174778
34.93717,182716
34.94528,174107
34.95342,176061
34.96153,179025
34.96965,181283
34.97778,177408
34.98590,170631
34.99403,172223
35.00215,174094
35.01027,168979
35.01840,166814
35.02652,162853
35.03465,161648
35.04277,164815
35.05088,167353
35.05902,162116
35.06713,167015
35.07527,169653
35.08338,173157
35.09150,166417
35.09963,166929
35.10775,177761
35.11587,174840
35.12400,179423
35.13212,179571
35.14025,179717
35.14837,183168
35.15648,177713
35.16462,183949
35.17273,178754
35.18087,185317
35.18898,178649
35.19710,181272
35.20523,181622
35.21335,179648
35.22148,181598
35.22960,176506
35.23772,175817
35.24585,179609
35.25397,179689
35.26208,180763
35.27022,182940
35.27833,178808
35.28647,179483
35.29458,176010
35.30270,176458
35.31083,181522
35.31895,173108
35.32708,174298
35.33520,169056
35.34332,182075
35.35145,172943
35.35957,171479
35.36768,181686
35.37582,190668
35.38393,200682
35.39207,201541
35.40018,210543
35.40830,236157
35.41643,237367
35.42455,245503
35.43268,239091
35.44080,227975
35.44892,215949
35.45705,207808
35.46517,215870
35.47330,207258
35.48142,192536
35.48953,197920
35.49767,194161
35.50578,197404
35.51390,192221
35.52203,180644
35.53015,188146
35.53828,194794
35.54640,191818
35.55452,196973
35.56265,187386
35.57077,178745
35.57890,180261
35.58702,189990
35.59513,182944
35.60327,182746
35.61138,187844
35.61950,190196
35.62763,189537
35.63575,190303
35.64388,179287
35.65200,187469
35.66012,176390
35.66825,179277
35.67637,180319
35.68450,176026
35.69262,174760
35.70073,176154
35.70887,172118
35.71698,177794
35.72512,180243
35.73323,182105
35.74135,178752
35.74948,178525
35.75760,182301
35.76572,191125
35.77385,180842
35.78197,177237
35.79010,181245
35.79822,175273
35.80633,182425
35.81447,176634
35.82258,182242
35.83072,181019
35.83883,181495
35.84695,182768
35.85508,183517
35.86320,182293
35.87133,181389
35.87945,179464
35.88757,180433
35.89570,181566
35.90382,181109
35.91193,184340
35.92007,183477
35.92818,188053
35.93632,189121
35.94443,183607
35.95255,194350
35.96068,198591
35.96880,195460
35.97693,199968
35.98505,201859
35.99317,199973
36.00130,204952
36.00942,206747
36.01753,215859
36.02567,216479
36.03378,206869
36.04192,209684
36.05003,213881
36.05815,222972
36.06628,209497
36.07440,214716
36.08253,206185
36.09065,206589
36.09877,202795
36.10690,205388
36.11502,203945
36.12315,207009
36.13127,208340
36.13938,209004
36.14752,213338
36.15563,215179
36.16375,211517
36.17188,211641
36.18000,210523
36.18813,206888
36.19625,207536
36.20437,208266
36.21250,206649
36.22062,215075
36.22875,211041
36.23687,218680
36.24498,249558
36.25312,267407
36.26123,277208
36.26937,302653
36.27748,301324
36.28560,299093
36.29373,266172
36.30185,247647
36.30997,227727
36.31810,228656
36.32622,215520
36.33435,211805
36.34247,208541
36.35058,206314
36.35872,209438
36.36683,204836
36.37497,210716
36.38308,207604
36.39120,214931
36.39933,214639
36.40745,206781
36.41557,211420
36.42370,207049
36.43182,211008
36.43995,206148
36.44807,206970
36.45618,202374
36.46432,207450
36.47243,197224
36.48057,199650
36.48868,202801
36.49680,206878
36.50493,207462
36.51305,205764
36.52118,205337
36.52930,208314
36.53742,208898
36.54555,208472
36.55367,210174
36.56178,214917
36.56992,215576
36.57803,214232
36.58617,219641
36.59428,219841
36.60240,224969
36.61053,221907
36.61865,227065
36.62678,226256
36.63490,226671
36.64302,231388
36.65115,222133
36.65927,222185
36.66738,215928
36.67552,228834
36.68363,218967
36.69177,223812
36.69988,214716
36.70800,214157
36.71613,213835
36.72425,212647
36.73238,221595
36.74050,228162
36.74862,225451
36.75675,232857
36.76487,215685
36.77300,227274
36.78112,231955
36.78923,231131
36.79737,214364
36.80548,229097
36.81360,224550
36.82173,233304
36.82985,225565
36.83798,233733
36.84610,224634
36.85422,226986
36.86235,226524
36.87047,236389
36.87860,231901
36.88672,227034
36.89483,228086
36.90297,227083
36.91108,228007
36.91922,231727
36.92733,225441
36.93545,228966
36.94358,237809
36.95170,233457
36.95982,243737
36.96795,242933
36.97607,238857
36.98420,238075
36.99232,240317
37.00043,261421
37.00857,276430
37.01668,285748
37.02482,310752
37.03293,301646
37.04105,293038
37.04918,279044
37.05730,273076
37.06543,235006
37.07355,234167
37.08167,222017
37.08980,219927
37.09792,216653
37.10603,222767
37.11417,213835
37.12228,223658
37.13042,220848
37.13853,222498
37.14665,223807
37.15478,224091
37.16290,217965
37.17103,225381
37.17915,220828
37.18727,224186
37.19540,227731
37.20352,218978
37.21163,224586
37.21977,225362
37.22788,226989
37.23602,229858
37.24413,235286
37.25225,231676
37.26038,239508
37.26850,255033
37.27663,257385
37.28475,274188
37.29287,294558
37.30100,320423
37.30912,331460
37.31725,323712
37.32537,321673
37.33348,310942
37.34162,287224
37.34973,281922
37.35785,273209
37.36598,268952
37.37410,266743
37.38223,264563
37.39035,253970
37.39847,256622
37.40660,264027
37.41472,263783
37.42285,265258
37.43097,258350
37.43908,260578
37.44722,254367
37.45533,257563
37.46345,251773
37.47158,249985
37.47970,246717
37.48783,248502
