Z:\data\JTB-E02\BACandBLUE\JTB-E02-201-08.D Fri Mar 01 09:59:35 2019
Start of data points
2.09518,69058
2.10330,68426
2.11143,66360
2.11955,69009
2.12767,69066
2.13580,73222
2.14392,63898
2.15203,67671
2.16017,62141
2.16828,62745
2.17642,63553
2.18453,59351
2.19265,58496
2.20078,64157
2.20890,55613
2.21703,58034
2.22515,57961
2.23327,56489
2.24140,55278
2.24952,53688
2.25765,52682
2.26577,97089
2.27388,723328
2.28202,2145549
2.29013,1918137
2.29825,879006
2.30638,469530
2.31450,355645
2.32263,285272
2.33075,244583
2.33887,225908
2.34700,210079
2.35512,191836
2.36325,171562
2.37137,165858
2.37948,151269
2.38762,151852
2.39573,140173
2.40385,133958
2.41198,134870
2.42010,120293
2.42823,134455
2.43635,125706
2.44447,113982
2.45260,109351
2.46072,109530
2.46885,111656
2.47697,100729
2.48508,102021
2.49322,95595
2.50133,95732
2.50947,97739
2.51758,95782
2.52570,103083
2.53383,99381
2.54195,99326
2.55007,91728
2.55820,98584
2.56632,106819
2.57445,94516
2.58257,94070
2.59068,89172
2.59882,89133
2.60693,89730
2.61507,91100
2.62318,100368
2.63130,91481
2.63943,93884
2.64755,87800
2.65568,89869
2.66380,83586
2.67192,86631
2.68005,85308
2.68817,86509
2.69628,81920
2.70442,83379
2.71253,84081
2.72067,80805
2.72878,81687
2.73690,77113
2.74503,80933
2.75315,81110
2.76128,76059
2.76940,84064
2.77752,80129
2.78565,80427
2.79377,85286
2.80188,78750
2.81002,78891
2.81813,84283
2.82627,79709
2.83438,74119
2.84250,76381
2.85063,77050
2.85875,75466
2.86688,75775
2.87500,79756
2.88312,76938
2.89125,72422
2.89937,75873
2.90750,77323
2.91562,78682
2.92373,72050
2.93187,75741
2.93998,71644
2.94810,72798
2.95623,76106
2.96435,72286
2.97248,75815
2.98060,73903
2.98872,75938
2.99685,71836
3.00497,72333
3.01310,76784
3.02122,70893
3.02933,72991
3.03747,66055
3.04558,70364
3.05372,73464
3.06183,70349
3.06995,65792
3.07808,70541
3.08620,66108
3.09432,70067
3.10245,70215
3.11057,73474
3.11870,74603
3.12682,73174
3.13493,70377
3.14307,74244
3.15118,73361
3.15932,72051
3.16743,71621
3.17555,69985
3.18368,70968
3.19180,69092
3.19992,66059
3.20805,67272
3.21617,65474
3.22430,68535
3.23242,65634
3.24053,69183
3.24867,66875
3.25678,67674
3.26492,66168
3.27303,67440
3.28115,69817
3.28928,74135
3.29740,97007
3.30553,235026
3.31365,633739
3.32177,1170855
3.32990,1466738
3.33802,1399843
3.34613,1180959
3.35427,970645
3.36238,825680
3.37052,716124
3.37863,609972
3.38675,539212
3.39488,489659
3.40300,447760
3.41113,386380
3.41925,356446
3.42737,329844
3.43550,301555
3.44362,291070
3.45173,274132
3.45987,250319
3.46798,256239
3.47612,241775
3.48423,240481
3.49235,238032
3.50048,233274
3.50860,238519
3.51673,218160
3.52485,233304
3.53297,217536
3.54110,210281
3.54922,211116
3.55735,207559
3.56547,196514
3.57358,186151
3.58172,177538
3.58983,187391
3.59795,179325
3.60608,178988
3.61420,173537
3.62233,170912
3.63045,158670
3.63857,161946
3.64670,157753
3.65482,161005
3.66295,161991
3.67107,163321
3.67918,153049
3.68732,154285
3.69543,148722
3.70357,150525
3.71168,159106
3.71980,144495
3.72793,149651
3.73605,148379
3.74417,148486
3.75230,147042
3.76042,144508
3.76855,142668
3.77667,138974
3.78478,140385
3.79292,137083
3.80103,141307
3.80917,136232
3.81728,140465
3.82540,140233
3.83353,129331
3.84165,132958
3.84978,130714
3.85790,140461
3.86602,128731
3.87415,129198
3.88227,128086
3.89038,129560
3.89852,126915
3.90663,129742
3.91477,125456
3.92288,124876
3.93100,125307
3.93913,128137
3.94725,119170
3.95538,123947
3.96350,129736
3.97162,123278
3.97975,125344
3.98787,121628
3.99598,129460
4.00412,120725
4.01223,122952
4.02037,124468
4.02848,120870
4.03660,115225
4.04473,120944
4.05285,118706
4.06098,117531
4.06910,114401
4.07722,112153
4.08535,111602
4.09347,117433
4.10160,111796
4.10972,114360
4.11783,118249
4.12597,113835
4.13408,121050
4.14220,117489
4.15033,119780
4.15845,123973
4.16658,132966
4.17470,132012
4.18282,120270
4.19095,117603
4.19907,113947
4.20720,115697
4.21532,113136
4.22343,117821
4.23157,111895
4.23968,117745
4.24780,115078
4.25593,117935
4.26405,115968
4.27218,117181
4.28030,113017
4.28842,109996
4.29655,116325
4.30467,106939
4.31280,110490
4.32092,110604
4.32903,108521
4.33717,115108
4.34528,117273
4.35342,106881
4.36153,108661
4.36965,105692
4.37778,111367
4.38590,107423
4.39402,113315
4.40215,111712
4.41027,102820
4.41840,104779
4.42652,108924
4.43463,110674
4.44277,102737
4.45088,98833
4.45902,104636
4.46713,106253
4.47525,98802
4.48338,104228
4.49150,105733
4.49963,102746
4.50775,111329
4.51587,104693
4.52400,104299
4.53212,102280
4.54023,95659
4.54837,107622
4.55648,102626
4.56462,103164
4.57273,110814
4.58085,108308
4.58898,101101
4.59710,104346
4.60523,103256
4.61335,102010
4.62147,106450
4.62960,101520
4.63772,95399
4.64583,106899
4.65397,103581
4.66208,101936
4.67022,100971
4.67833,99032
4.68645,99932
4.69458,102582
4.70270,100646
4.71083,102018
4.71895,96580
4.72707,100983
4.73520,101995
4.74332,98971
4.75145,97007
4.75957,98268
4.76768,99741
4.77582,98401
4.78393,98813
4.79205,98635
4.80018,101370
4.80830,101114
4.81643,98040
4.82455,98864
4.83267,96384
4.84080,97900
4.84892,95187
4.85705,94299
4.86517,96165
4.87328,98385
4.88142,96809
4.88953,97273
4.89767,93356
4.90578,97275
4.91390,94806
4.92203,99184
4.93015,95389
4.93827,97148
4.94640,101064
4.95452,116102
4.96265,185263
4.97077,333472
4.97888,519145
4.98702,688480
4.99513,735626
5.00327,642065
5.01138,550963
5.01950,453632
5.02763,376779
5.03575,327614
5.04387,293149
5.05200,260862
5.06012,237349
5.06825,228324
5.07637,217908
5.08448,221104
5.09262,226420
5.10073,210009
5.10887,210362
5.11698,206621
5.12510,202455
5.13323,192625
5.14135,186699
5.14948,183829
5.15760,180200
5.16572,176494
5.17385,176138
5.18197,165769
5.19008,166811
5.19822,168799
5.20633,172450
5.21447,167758
5.22258,171425
5.23070,168913
5.23883,165550
5.24695,171674
5.25508,173817
5.26320,176844
5.27132,166944
5.27945,158103
5.28757,150185
5.29568,147857
5.30382,141322
5.31193,148925
5.32007,148050
5.32818,135627
5.33630,133558
5.34443,134728
5.35255,145366
5.36068,137593
5.36880,135604
5.37692,122388
5.38505,133402
5.39317,135436
5.40130,134334
5.40942,130974
5.41753,135847
5.42567,131888
5.43378,132277
5.44190,132217
5.45003,132374
5.45815,127803
5.46628,124171
5.47440,133457
5.48252,129494
5.49065,131034
5.49877,135585
5.50690,122984
5.51502,121098
5.52313,119757
5.53127,120590
5.53938,126395
5.54752,128450
5.55563,124365
5.56375,121982
5.57188,122471
5.58000,125592
5.58812,122070
5.59625,122507
5.60437,122492
5.61250,132505
5.62062,115415
5.62873,121502
5.63687,115550
5.64498,120734
5.65312,122439
5.66123,126138
5.66935,119850
5.67748,119614
5.68560,116841
5.69372,124969
5.70185,121262
5.70997,124951
5.71810,128160
5.72622,121427
5.73433,119269
5.74247,115391
5.75058,124928
5.75872,117604
5.76683,112917
5.77495,120730
5.78308,113855
5.79120,118231
5.79933,118509
5.80745,121050
5.81557,109599
5.82370,112518
5.83182,109067
5.83993,111980
5.84807,113096
5.85618,112674
5.86432,106666
5.87243,110068
5.88055,107700
5.88868,113741
5.89680,110360
5.90493,115795
5.91305,109247
5.92117,94135
5.92930,81177
5.93742,89065
5.94555,79740
5.95367,83353
5.96178,81464
5.96992,83634
5.97803,90265
5.98615,84679
5.99428,88459
6.00240,87442
6.01053,84061
6.01865,88675
6.02677,82842
6.03490,82391
6.04302,84830
6.05115,86510
6.05927,82803
6.06738,84623
6.07552,85415
6.08363,86617
6.09175,81959
6.09988,82896
6.10800,85828
6.11613,80234
6.12425,81545
6.13237,84406
6.14050,85700
6.14862,90563
6.15675,86555
6.16487,92699
6.17298,93183
6.18112,95766
6.18923,95438
6.19737,100291
6.20548,102226
6.21360,106504
6.22173,108668
6.22985,114877
6.23797,111801
6.24610,107698
6.25422,113199
6.26235,117945
6.27047,118769
6.27858,119469
6.28672,121652
6.29483,129482
6.30297,124476
6.31108,135292
6.31920,134459
6.32733,138705
6.33545,132856
6.34357,131143
6.35170,135120
6.35982,137881
6.36795,144631
6.37607,145503
6.38418,144412
6.39232,153996
6.40043,150146
6.40857,152320
6.41668,148688
6.42480,161180
6.43293,158113
6.44105,151894
6.44918,158372
6.45730,161996
6.46542,164342
6.47355,168701
6.48167,171352
6.48978,172975
6.49792,170966
6.50603,169284
6.51417,162514
6.52228,131390
6.53040,128357
6.53853,123157
6.54665,118294
6.55478,110975
6.56290,106030
6.57102,110571
6.57915,106376
6.58727,100190
6.59540,105091
6.60352,101766
6.61163,98696
6.61977,101995
6.62788,99991
6.63600,94851
6.64413,98734
6.65225,94399
6.66038,101650
6.66850,94321
6.67662,94500
6.68475,92000
6.69287,92981
6.70100,86969
6.70912,92910
6.71723,92447
6.72537,90046
6.73348,87733
6.74160,94312
6.74973,87414
6.75785,88193
6.76598,89571
6.77410,92357
6.78222,90497
6.79035,88874
6.79847,90873
6.80660,84835
6.81472,82960
6.82283,83591
6.83097,85255
6.83908,83934
6.84722,86825
6.85533,79443
6.86345,79825
6.87158,75903
6.87970,64645
6.88782,59044
6.89595,57050
6.90407,58411
6.91220,59148
6.92032,61293
6.92843,57064
6.93657,56522
6.94468,53873
6.95282,57514
6.96093,58606
6.96905,58461
6.97718,59641
6.98530,59586
6.99343,52896
7.00155,53070
7.00967,54812
7.01780,58145
7.02592,58880
7.03403,55560
7.04217,55303
7.05028,55478
7.05842,52928
7.06653,52276
7.07465,60364
7.08278,54091
7.09090,57502
7.09903,55113
7.10715,58502
7.11527,60889
7.12340,52627
7.13152,51799
7.13963,56664
7.14777,55990
7.15588,52643
7.16402,52893
7.17213,52388
7.18025,59252
7.18838,53510
7.19650,53591
7.20463,52502
7.21275,52106
7.22087,55057
7.22900,53978
7.23712,54117
7.24525,51665
7.25337,50659
7.26148,52919
7.26962,50386
7.27773,51669
7.28585,49927
7.29398,51170
7.30210,50848
7.31023,54465
7.31835,54637
7.32647,51526
7.33460,49145
7.34272,51026
7.35085,53320
7.35897,50289
7.36708,49983
7.37522,49842
7.38333,57162
7.39147,52099
7.39958,49989
7.40770,51952
7.41583,52124
7.42395,53710
7.43207,51437
7.44020,51754
7.44832,53588
7.45645,58710
7.46457,54378
7.47268,52587
7.48082,55563
7.48893,52794
7.49707,51087
7.50518,53337
7.51330,53678
7.52143,51131
7.52955,50852
7.53767,50365
7.54580,55140
7.55392,55600
7.56205,49269
7.57017,55171
7.57828,55563
7.58642,46606
7.59453,51409
7.60267,56137
7.61078,47813
7.61890,50742
7.62703,52014
7.63515,47539
7.64328,54421
7.65140,52628
7.65952,52298
7.66765,52457
7.67577,45944
7.68388,49335
7.69202,48382
7.70013,50266
7.70827,46480
7.71638,50053
7.72450,47523
7.73263,48682
7.74075,47440
7.74888,48599
7.75700,53705
7.76512,48872
7.77325,56335
7.78137,49940
7.78948,49086
7.79762,47809
7.80573,46546
7.81387,45220
7.82198,47943
7.83010,51416
7.83823,47947
7.84635,45718
7.85448,47828
7.86260,48393
7.87072,49252
7.87885,47221
7.88697,41976
7.89510,47510
7.90322,48671
7.91133,50529
7.91947,50464
7.92758,48900
7.93570,46325
7.94383,45034
7.95195,45180
7.96008,42468
7.96820,45464
7.97632,44699
7.98445,44022
7.99257,42427
8.00070,48938
8.00882,48115
8.01693,44656
8.02507,46087
8.03318,44561
8.04132,45840
8.04943,40901
8.05755,48481
8.06568,49162
8.07380,40496
8.08192,46462
8.09005,43273
8.09817,45360
8.10630,43322
8.11442,41285
8.12253,41220
8.13067,46669
8.13878,44945
8.14692,48002
8.15503,46007
8.16315,45813
8.17128,46463
8.17940,48832
8.18752,44807
8.19565,47090
8.20377,45034
8.21190,42953
8.22002,42912
8.22813,52006
8.23627,44683
8.24438,41832
8.25252,45625
8.26063,45792
8.26875,42657
8.27688,47620
8.28500,44903
8.29313,53218
8.30125,45944
8.30937,41563
8.31750,43398
8.32562,46170
8.33373,44984
8.34187,43081
8.34998,45854
8.35812,46888
8.36623,51115
8.37435,46825
8.38248,47172
8.39060,49679
8.39873,45690
8.40685,43229
8.41497,49166
8.42310,39612
8.43122,45811
8.43935,53907
8.44747,49591
8.45558,48078
8.46372,56707
8.47183,49165
8.47995,49803
8.48808,48601
8.49620,50141
8.50433,51198
8.51245,52127
8.52057,51876
8.52870,52545
8.53682,50532
8.54495,51769
8.55307,53603
8.56118,52666
8.56932,50391
8.57743,50883
8.58555,52086
8.59368,49631
8.60180,46973
8.60993,52148
8.61805,49791
8.62617,47750
8.63430,44158
8.64242,46645
8.65055,48123
8.65867,47556
8.66678,49815
8.67492,50128
8.68303,54629
8.69117,47220
8.69928,50099
8.70740,51497
8.71553,47951
8.72365,47467
8.73177,48762
8.73990,44129
8.74802,44532
8.75615,42060
8.76427,46115
8.77238,44483
8.78052,41871
8.78863,53660
8.79677,66547
8.80488,98039
8.81300,143913
8.82113,186540
8.82925,215537
8.83737,212016
8.84550,184460
8.85362,166375
8.86175,154367
8.86987,140367
8.87798,124572
8.88612,124577
8.89423,121618
8.90237,111219
8.91048,106292
8.91860,104619
8.92673,98450
8.93485,101507
8.94298,94938
8.95110,90079
8.95922,92171
8.96735,91272
8.97547,92669
8.98358,83639
8.99172,86279
8.99983,83507
9.00797,86729
9.01608,82701
9.02420,85283
9.03233,82158
9.04045,82517
9.04858,78713
9.05670,86211
9.06482,76830
9.07295,77734
9.08107,79224
9.08920,77831
9.09732,68771
9.10543,73111
9.11357,75440
9.12168,72670
9.12980,74503
9.13793,77069
9.14605,73162
9.15418,71744
9.16230,66361
9.17042,65371
9.17855,66801
9.18667,70266
9.19480,71272
9.20292,70332
9.21103,70107
9.21917,73865
9.22728,74066
9.23542,67217
9.24353,62598
9.25165,66224
9.25978,65552
9.26790,66417
9.27602,64217
9.28415,63785
9.29227,63835
9.30040,64603
9.30852,61001
9.31663,59942
9.32477,61192
9.33288,68068
9.34102,61918
9.34913,62525
9.35725,60256
9.36538,57541
9.37350,65579
9.38162,59822
9.38975,60358
9.39787,57939
9.40600,65874
9.41412,58726
9.42223,60557
9.43037,57366
9.43848,54449
9.44662,55375
9.45473,55208
9.46285,57625
9.47098,62588
9.47910,62061
9.48723,56033
9.49535,53265
9.50347,56769
9.51160,51281
9.51972,58921
9.52783,58428
9.53597,51489
9.54408,57349
9.55222,55722
9.56033,57439
9.56845,47125
9.57658,46485
9.58470,40687
9.59283,42983
9.60095,33725
9.60907,39137
9.61720,36023
9.62532,37416
9.63343,38374
9.64157,38683
9.64968,36381
9.65782,40630
9.66593,39591
9.67405,36507
9.68218,36521
9.69030,36098
9.69843,41927
9.70655,42667
9.71467,35487
9.72280,36693
9.73092,34024
9.73905,34293
9.74717,34832
9.75528,34088
9.76342,37382
9.77153,34530
9.77965,39214
9.78778,37309
9.79590,40006
9.80403,36810
9.81215,34169
9.82027,38787
9.82840,35213
9.83652,34056
9.84465,36262
9.85277,43257
9.86088,46551
9.86902,40828
9.87713,39280
9.88527,36546
9.89338,39980
9.90150,35312
9.90963,40792
9.91775,35529
9.92587,33739
9.93400,38258
9.94212,33613
9.95025,36209
9.95837,33466
9.96648,42327
9.97462,33232
9.98273,33716
9.99087,35462
9.99898,39792
10.00710,33681
10.01523,37246
10.02335,36124
10.03147,36844
10.03960,36302
10.04772,40158
10.05585,37981
10.06397,38159
10.07208,40120
10.08022,41186
10.08833,40058
10.09647,35993
10.10458,37265
10.11270,36103
10.12083,39580
10.12895,41196
10.13708,35955
10.14520,39487
10.15332,41561
10.16145,41670
10.16957,39948
10.17768,37708
10.18582,37166
10.19393,36705
10.20207,34801
10.21018,32960
10.21830,33914
10.22643,31761
10.23455,35688
10.24268,35581
10.25080,35011
10.25892,33992
10.26705,35734
10.27517,37255
10.28330,37733
10.29142,40559
10.29953,36150
10.30767,41695
10.31578,35682
10.32390,36859
10.33203,37274
10.34015,37046
10.34828,39115
10.35640,45027
10.36452,38057
10.37265,37295
10.38077,34672
10.38890,33462
10.39702,37250
10.40513,32691
10.41327,34793
10.42138,38570
10.42950,36497
10.43763,41136
10.44575,33640
10.45388,39312
10.46200,43667
10.47012,35806
10.47825,35478
10.48637,36355
10.49450,37058
10.50262,36336
10.51073,43625
10.51887,35748
10.52698,36178
10.53512,36096
10.54323,36019
10.55135,36297
10.55948,37276
10.56760,37291
10.57572,37096
10.58385,34954
10.59197,43081
10.60010,40144
10.60822,42550
10.61633,35770
10.62447,35761
10.63258,32598
10.64072,37173
10.64883,36743
10.65695,35749
10.66508,33627
10.67320,35535
10.68132,33971
10.68945,36543
10.69757,36120
10.70570,33819
10.71382,33275
10.72193,34943
10.73007,33241
10.73818,32768
10.74632,32196
10.75443,36649
10.76255,32075
10.77068,32396
10.77880,35446
10.78693,32829
10.79505,31850
10.80317,32188
10.81130,33390
10.81942,35094
10.82753,33460
10.83567,35846
10.84378,36389
10.85192,35152
10.86003,36197
10.86815,33082
10.87628,35022
10.88440,33752
10.89253,33442
10.90065,34031
10.90877,33155
10.91690,33327
10.92502,30911
10.93315,33981
10.94127,30001
10.94938,33453
10.95752,33410
10.96563,29567
10.97375,31094
10.98188,31908
10.99000,30359
10.99813,30896
11.00625,32143
11.01437,32764
11.02250,30319
11.03062,28937
11.03875,31887
11.04687,30317
11.05498,29967
11.06312,33030
11.07123,34592
11.07935,32866
11.08748,32385
11.09560,35607
11.10373,30652
11.11185,32114
11.11997,29797
11.12810,32092
11.13622,29663
11.14435,32446
11.15247,29414
11.16058,36014
11.16872,29322
11.17683,31093
11.18497,29261
11.19308,29371
11.20120,28560
11.20933,34000
11.21745,32226
11.22557,33038
11.23370,38111
11.24182,33979
11.24995,41353
11.25807,32051
11.26618,31110
11.27432,28605
11.28243,31758
11.29057,29949
11.29868,34220
11.30680,33651
11.31493,31701
11.32305,31146
11.33118,31958
11.33930,29516
11.34742,32850
11.35555,27825
11.36367,28846
11.37178,28994
11.37992,26415
11.38803,26182
11.39617,31811
11.40428,31757
11.41240,31116
11.42053,27754
11.42865,30759
11.43678,37766
11.44490,29488
11.45302,28967
11.46115,27978
11.46927,28417
11.47738,33932
11.48552,32274
11.49363,27271
11.50177,29374
11.50988,29452
11.51800,30481
11.52613,31943
11.53425,29298
11.54238,28668
11.55050,28638
11.55862,28590
11.56675,27266
11.57487,25077
11.58300,26431
11.59112,23715
11.59923,28741
11.60737,28390
11.61548,30169
11.62360,30115
11.63173,31254
11.63985,27078
11.64798,24693
11.65610,28303
11.66422,28430
11.67235,29335
11.68047,29543
11.68860,30387
11.69672,29804
11.70483,27326
11.71297,28772
11.72108,30161
11.72920,27127
11.73733,25822
11.74545,30010
11.75358,31528
11.76170,33212
11.76982,26637
11.77795,29960
11.78607,33292
11.79420,28136
11.80232,33426
11.81043,30562
11.81857,27309
11.82668,27981
11.83482,30933
11.84293,30766
11.85105,28282
11.85918,31358
11.86730,27953
11.87542,30206
11.88355,28297
11.89167,29281
11.89980,27957
11.90792,25237
11.91603,27357
11.92417,27878
11.93228,28244
11.94042,32408
11.94853,31658
11.95665,29400
11.96478,28731
11.97290,30802
11.98103,29460
11.98915,28038
11.99727,28385
12.00540,28299
12.01352,29063
12.02163,31462
12.02977,28707
12.03788,27483
12.04602,28471
12.05413,28126
12.06225,28359
12.07038,28137
12.07850,26809
12.08663,27434
12.09475,28575
12.10287,28464
12.11100,28397
12.11912,28439
12.12723,23654
12.13537,28871
12.14348,29842
12.15162,30058
12.15973,28754
12.16785,27641
12.17598,31886
12.18410,29591
12.19223,29089
12.20035,31997
12.20847,27910
12.21660,30526
12.22472,31101
12.23285,29189
12.24097,30899
12.24908,30796
12.25722,32310
12.26533,30690
12.27345,30982
12.28158,31040
12.28970,30345
12.29783,31224
12.30595,31148
12.31407,30957
12.32220,25901
12.33032,29626
12.33845,28760
12.34657,33508
12.35468,30275
12.36282,36322
12.37093,34408
12.37907,29969
12.38718,29668
12.39530,31513
12.40343,29571
12.41155,31214
12.41967,31064
12.42780,30886
12.43592,27356
12.44405,31621
12.45217,29364
12.46028,32702
12.46842,29154
12.47653,30404
12.48467,32422
12.49278,28346
12.50090,29384
12.50903,30392
12.51715,31151
12.52527,30938
12.53340,29187
12.54152,28916
12.54965,27854
12.55777,30830
12.56588,32960
12.57402,27661
12.58213,28770
12.59027,29697
12.59838,29303
12.60650,31601
12.61463,30432
12.62275,32633
12.63088,29266
12.63900,24807
12.64712,31251
12.65525,30118
12.66337,29903
12.67148,26210
12.67962,34833
12.68773,32068
12.69587,28720
12.70398,26616
12.71210,29836
12.72023,32076
12.72835,30523
12.73648,29621
12.74460,29085
12.75272,29546
12.76085,26646
12.76897,28414
12.77710,30776
12.78522,28829
12.79333,29956
12.80147,28000
12.80958,32753
12.81770,32084
12.82583,27221
12.83395,27900
12.84208,29151
12.85020,25555
12.85832,26057
12.86645,27737
12.87457,28158
12.88270,27095
12.89082,25563
12.89893,28030
12.90707,27592
12.91518,31613
12.92330,26104
12.93143,28520
12.93955,26844
12.94768,26298
12.95580,30518
12.96392,27039
12.97205,28213
12.98017,25210
12.98830,23000
12.99642,26036
13.00453,25360
13.01267,26873
13.02078,26215
13.02892,24943
13.03703,27495
13.04515,29690
13.05328,25379
13.06140,25728
13.06952,23827
13.07765,28823
13.08577,23914
13.09390,29097
13.10202,24287
13.11013,26648
13.11827,24759
13.12638,26401
13.13452,21954
13.14263,23979
13.15075,26810
13.15888,25503
13.16700,21462
13.17512,24621
13.18325,23047
13.19137,28775
13.19950,27169
13.20762,26755
13.21573,25411
13.22387,23874
13.23198,27033
13.24012,25848
13.24823,28275
13.25635,27359
13.26448,27505
13.27260,23542
13.28073,24362
13.28885,23738
13.29697,26934
13.30510,30740
13.31322,25932
13.32133,27982
13.32947,24358
13.33758,26111
13.34572,25744
13.35383,28641
13.36195,28283
13.37008,29239
13.37820,25229
13.38633,23349
13.39445,25065
13.40257,28844
13.41070,31283
13.41882,24877
13.42695,27082
13.43507,25271
13.44318,28212
13.45132,24504
13.45943,25209
13.46755,25734
13.47568,26972
13.48380,26035
13.49193,25103
13.50005,28471
13.50817,26693
13.51630,26631
13.52442,25999
13.53255,27073
13.54067,21313
13.54878,25810
13.55692,22370
13.56503,27407
13.57315,27369
13.58128,27859
13.58940,29797
13.59753,24521
13.60565,25293
13.61377,24356
13.62190,28980
13.63002,27644
13.63815,24362
13.64627,21708
13.65438,24010
13.66252,24213
13.67063,25576
13.67877,22971
13.68688,22178
13.69500,25906
13.70313,23626
13.71125,23760
13.71937,27323
13.72750,23963
13.73562,29961
13.74375,23807
13.75187,22423
13.75998,26696
13.76812,24906
13.77623,23187
13.78437,25106
13.79248,24745
13.80060,26322
13.80873,21952
13.81685,26030
13.82498,28568
13.83310,27657
13.84122,28925
13.84935,25170
13.85747,26346
13.86558,26399
13.87372,27703
13.88183,26861
13.88997,28738
13.89808,25068
13.90620,25325
13.91433,26846
13.92245,27997
13.93058,26056
13.93870,23739
13.94682,30347
13.95495,28344
13.96307,30654
13.97118,26922
13.97932,28983
13.98743,25016
13.99557,26597
14.00368,27549
14.01180,27278
14.01993,26479
14.02805,25777
14.03618,26441
14.04430,26374
14.05242,25259
14.06055,30311
14.06867,27520
14.07680,29744
14.08492,28216
14.09303,27720
14.10117,27160
14.10928,24846
14.11740,26097
14.12553,31971
14.13365,23796
14.14178,30682
14.14990,30798
14.15802,28454
14.16615,27262
14.17427,24821
14.18240,26654
14.19052,26561
14.19863,30938
14.20677,37828
14.21488,49366
14.22300,64374
14.23113,79924
14.23925,96573
14.24738,102681
14.25550,94118
14.26362,87299
14.27175,78437
14.27987,73570
14.28800,65766
14.29612,72180
14.30423,59835
14.31237,62179
14.32048,59106
14.32862,55401
14.33673,55406
14.34485,51275
14.35298,49727
14.36110,51154
14.36922,43413
14.37735,41931
14.38547,36732
14.39360,36988
14.40172,32737
14.40983,31369
14.41797,27543
14.42608,25802
14.43422,29921
14.44233,33683
14.45045,29312
14.45858,31902
14.46670,33684
14.47483,31213
14.48295,28272
14.49107,26815
14.49920,30060
14.50732,27620
14.51543,28220
14.52357,29264
14.53168,29228
14.53982,28417
14.54793,29832
14.55605,27570
14.56418,30008
14.57230,29876
14.58043,29086
14.58855,28889
14.59667,27059
14.60480,29648
14.61292,27924
14.62103,25370
14.62917,29099
14.63728,28917
14.64542,27442
14.65353,32972
14.66165,28199
14.66978,29270
14.67790,27627
14.68603,25806
14.69415,23141
14.70227,27574
14.71040,26668
14.71852,28408
14.72665,27354
14.73477,24167
14.74288,27328
14.75102,26067
14.75913,23619
14.76725,26732
14.77538,27043
14.78350,25752
14.79163,27743
14.79975,26186
14.80787,24629
14.81600,23404
14.82412,27271
14.83225,30370
14.84037,28434
14.84848,31073
14.85662,41648
14.86473,37433
14.87287,38499
14.88098,42157
14.88910,37789
14.89723,38200
14.90535,37642
14.91347,43700
14.92160,41536
14.92972,36514
14.93785,38817
14.94597,43342
14.95408,39119
14.96222,42241
14.97033,35032
14.97847,38533
14.98658,36416
14.99470,33951
15.00283,35157
15.01095,38246
15.01907,34969
15.02720,44477
15.03532,33049
15.04345,37786
15.05157,34050
15.05968,31551
15.06782,35162
15.07593,34217
15.08407,34633
15.09218,34699
15.10030,34064
15.10843,33763
15.11655,34880
15.12468,33757
15.13280,34355
15.14092,30219
15.14905,31426
15.15717,31715
15.16528,33671
15.17342,30992
15.18153,31701
15.18967,30193
15.19778,26504
15.20590,29610
15.21403,27076
15.22215,28958
15.23028,27145
15.23840,32265
15.24652,31990
15.25465,29105
15.26277,28038
15.27088,28648
15.27902,28464
15.28713,28829
15.29527,25208
15.30338,24052
15.31150,30003
15.31963,25480
15.32775,24085
15.33588,27467
15.34400,27151
15.35212,26231
15.36025,28770
15.36837,34018
15.37650,27249
15.38462,26969
15.39273,26240
15.40087,24801
15.40898,29436
15.41710,25074
15.42523,27597
15.43335,24877
15.44148,26933
15.44960,24524
15.45772,27492
15.46585,24956
15.47397,29536
15.48210,26507
15.49022,28335
15.49833,28227
15.50647,26257
15.51458,28813
15.52272,24281
15.53083,27373
15.53895,33347
15.54708,26720
15.55520,27075
15.56332,26449
15.57145,27086
15.57957,27993
15.58770,27242
15.59582,23608
15.60393,21152
15.61207,27055
15.62018,26659
15.62832,27513
15.63643,25194
15.64455,28732
15.65268,25903
15.66080,31101
15.66893,27491
15.67705,26994
15.68517,27056
15.69330,31867
15.70142,27770
15.70953,23324
15.71767,27422
15.72578,24237
15.73392,27132
15.74203,22080
15.75015,24945
15.75828,23548
15.76640,25865
15.77453,27883
15.78265,25028
15.79077,28604
15.79890,26549
15.80702,27176
15.81513,28574
15.82327,27302
15.83138,27364
15.83952,28501
15.84763,26152
15.85575,30446
15.86388,28598
15.87200,28377
15.88013,28854
15.88825,26585
15.89637,29106
15.90450,27054
15.91262,28414
15.92075,30871
15.92887,28745
15.93698,27375
15.94512,26588
15.95323,25165
15.96135,25980
15.96948,29709
15.97760,29458
15.98573,23557
15.99385,26613
16.00197,26922
16.01010,25322
16.01822,26114
16.02635,28501
16.03447,26262
16.04258,29422
16.05072,27840
16.05883,29337
16.06695,30198
16.07508,26030
16.08320,26627
16.09133,30317
16.09945,26096
16.10757,28700
16.11570,27203
16.12382,23831
16.13195,26900
16.14007,30788
16.14818,26442
16.15632,28209
16.16443,29254
16.17257,26794
16.18068,24833
16.18880,28332
16.19693,28645
16.20505,29610
16.21317,32872
16.22130,29358
16.22942,25280
16.23755,24000
16.24567,26411
16.25378,25395
16.26192,27625
16.27003,25374
16.27817,30014
16.28628,25611
16.29440,25570
16.30253,28404
16.31065,28911
16.31878,27047
16.32690,24285
16.33502,26767
16.34315,27665
16.35127,26461
16.35938,26041
16.36752,25352
16.37563,25694
16.38377,25814
16.39188,24671
16.40000,25683
16.40813,25641
16.41625,26027
16.42438,26824
16.43250,29018
16.44062,28609
16.44875,28265
16.45687,27873
16.46498,25836
16.47312,27802
16.48123,26099
16.48937,26469
16.49748,27802
16.50560,26293
16.51373,28978
16.52185,32310
16.52998,29677
16.53810,27383
16.54622,31591
16.55435,28803
16.56247,29176
16.57060,29858
16.57872,34271
16.58683,26388
16.59497,29885
16.60308,30993
16.61120,26157
16.61933,27259
16.62745,26870
16.63558,28306
16.64370,28207
16.65182,25687
16.65995,27239
16.66807,28361
16.67620,28922
16.68432,29294
16.69243,30973
16.70057,26621
16.70868,26654
16.71682,26245
16.72493,29952
16.73305,25585
16.74118,26100
16.74930,33581
16.75742,30649
16.76555,29214
16.77367,26646
16.78180,27518
16.78992,23001
16.79803,26195
16.80617,25733
16.81428,24642
16.82242,22583
16.83053,29897
16.83865,28377
16.84678,26016
16.85490,26951
16.86302,24381
16.87115,26775
16.87927,25312
16.88740,25653
16.89552,24509
16.90363,32124
16.91177,24274
16.91988,23338
16.92802,26351
16.93613,29027
16.94425,26833
16.95238,26359
16.96050,25180
16.96863,24910
16.97675,26713
16.98487,27697
16.99300,27896
17.00112,31937
17.00923,28797
17.01737,26478
17.02548,29578
17.03362,23565
17.04173,25379
17.04985,27324
17.05798,25543
17.06610,25083
17.07423,28836
17.08235,25582
17.09047,24350
17.09860,25313
17.10672,28845
17.11483,25133
17.12297,26935
17.13108,23474
17.13922,27458
17.14733,26554
17.15545,25488
17.16358,25841
17.17170,24763
17.17983,25149
17.18795,27908
17.19607,24252
17.20420,26628
17.21232,27057
17.22045,25488
17.22857,25331
17.23668,23936
17.24482,24713
17.25293,26160
17.26105,26115
17.26918,27308
17.27730,29058
17.28543,27129
17.29355,25236
17.30167,25189
17.30980,25264
17.31792,21554
17.32605,27069
17.33417,27823
17.34228,27917
17.35042,27713
17.35853,26178
17.36667,29558
17.37478,34522
17.38290,33076
17.39103,36573
17.39915,32844
17.40727,29977
17.41540,30312
17.42352,32135
17.43165,32217
17.43977,31880
17.44788,29555
17.45602,28376
17.46413,32550
17.47227,29168
17.48038,29390
17.48850,31223
17.49663,32485
17.50475,31229
17.51287,27995
17.52100,30075
17.52912,30360
17.53725,24685
17.54537,26553
17.55348,29034
17.56162,27913
17.56973,28590
17.57787,27809
17.58598,28570
17.59410,30542
17.60223,28565
17.61035,25912
17.61848,27141
17.62660,30426
17.63472,29178
17.64285,25307
17.65097,28945
17.65908,28338
17.66722,25328
17.67533,29401
17.68347,24081
17.69158,26056
17.69970,27883
17.70783,33611
17.71595,31482
17.72408,31728
17.73220,31968
17.74032,33712
17.74845,29649
17.75657,31455
17.76470,30838
17.77282,29636
17.78093,27671
17.78907,31000
17.79718,30318
17.80530,28012
17.81343,29354
17.82155,28150
17.82968,29886
17.83780,30179
17.84592,28664
17.85405,27287
17.86217,29856
17.87030,30498
17.87842,28834
17.88653,26455
17.89467,27416
17.90278,27503
17.91090,25975
17.91903,26716
17.92715,28192
17.93528,27791
17.94340,28147
17.95152,27399
17.95965,28159
17.96777,22764
17.97590,27317
17.98402,24817
17.99213,28824
18.00027,24723
18.00838,25342
18.01652,28324
18.02463,26137
18.03275,30598
18.04088,28962
18.04900,29701
18.05712,26475
18.06525,27374
18.07337,25756
18.08150,28078
18.08962,29168
18.09773,34070
18.10587,36662
18.11398,39421
18.12212,38137
18.13023,41753
18.13835,45055
18.14648,44726
18.15460,44076
18.16273,44228
18.17085,41339
18.17897,46211
18.18710,39396
18.19522,39605
18.20333,42853
18.21147,41656
18.21958,45235
18.22772,40206
18.23583,44826
18.24395,37419
18.25208,35383
18.26020,39223
18.26833,39599
18.27645,35866
18.28457,36273
18.29270,33336
18.30082,32598
18.30893,30604
18.31707,30678
18.32518,30006
18.33332,25954
18.34143,34732
18.34955,28845
18.35768,28777
18.36580,29901
18.37393,30699
18.38205,28832
18.39017,29657
18.39830,33708
18.40642,26674
18.41455,27939
18.42267,23937
18.43078,28919
18.43892,31629
18.44703,26282
18.45515,26532
18.46328,29069
18.47140,26994
18.47953,27113
18.48765,29380
18.49577,28282
18.50390,29004
18.51202,29935
18.52015,29424
18.52827,26782
18.53638,27997
18.54452,26472
18.55263,25975
18.56075,26409
18.56888,27846
18.57700,22954
18.58513,29934
18.59325,26983
18.60137,32854
18.60950,27092
18.61762,28780
18.62575,25089
18.63387,27407
18.64198,28376
18.65012,30486
18.65823,25875
18.66637,26946
18.67448,27613
18.68260,28831
18.69073,27417
18.69885,27050
18.70697,25486
18.71510,26676
18.72322,26644
18.73135,26842
18.73947,24869
18.74758,26136
18.75572,26926
18.76383,28024
18.77197,27955
18.78008,25362
18.78820,24555
18.79633,24361
18.80445,28849
18.81258,24348
18.82070,25266
18.82882,28223
18.83695,26745
18.84507,25042
18.85318,25606
18.86132,27629
18.86943,27951
18.87757,26427
18.88568,27437
18.89380,24494
18.90193,23433
18.91005,25318
18.91818,23178
18.92630,25381
18.93442,26200
18.94255,27348
18.95067,26818
18.95878,25380
18.96692,24755
18.97503,23907
18.98317,32242
18.99128,26169
18.99940,27157
19.00753,27111
19.01565,29471
19.02378,27535
19.03190,25593
19.04002,29842
19.04815,26114
19.05627,31701
19.06440,26496
19.07252,26703
19.08063,24175
19.08877,24867
19.09688,28951
19.10500,24978
19.11313,26926
19.12125,27330
19.12938,28586
19.13750,30668
19.14562,28842
19.15375,29419
19.16187,26621
19.17000,36077
19.17812,30757
19.18623,29204
19.19437,28058
19.20248,29109
19.21062,30062
19.21873,27148
19.22685,26525
19.23498,29540
19.24310,29876
19.25122,26844
19.25935,28202
19.26747,29682
19.27560,30703
19.28372,31305
19.29183,26000
19.29997,28148
19.30808,27565
19.31622,26100
19.32433,24921
19.33245,30599
19.34058,28136
19.34870,29667
19.35682,27383
19.36495,29519
19.37307,28274
19.38120,26804
19.38932,30948
19.39743,31962
19.40557,27171
19.41368,29783
19.42182,29264
19.42993,31335
19.43805,36029
19.44618,31290
19.45430,28918
19.46243,30022
19.47055,32955
19.47867,31090
19.48680,32275
19.49492,36264
19.50303,37069
19.51117,43491
19.51928,51977
19.52742,67863
19.53553,80891
19.54365,77283
19.55178,78234
19.55990,65307
19.56803,49967
19.57615,46757
19.58427,35160
19.59240,33701
19.60052,32311
19.60863,31208
19.61677,28322
19.62488,29143
19.63302,26987
19.64113,28644
19.64925,32222
19.65738,44350
19.66550,51627
19.67363,65087
19.68175,86752
19.68987,97384
19.69800,98742
19.70612,94330
19.71425,80862
19.72237,74571
19.73048,60782
19.73862,57932
19.74673,47581
19.75485,45249
19.76298,40044
19.77110,39155
19.77923,37211
19.78735,35002
19.79547,36227
19.80360,29969
19.81172,30359
19.81985,33241
19.82797,30278
19.83608,33376
19.84422,33154
19.85233,32107
19.86047,29483
19.86858,29711
19.87670,32439
19.88483,43707
19.89295,62386
19.90107,112334
19.90920,186514
19.91732,302282
19.92545,437028
19.93357,554818
19.94168,649685
19.94982,696056
19.95793,719526
19.96607,711248
19.97418,697210
19.98230,644170
19.99043,649434
19.99855,605589
20.00667,586187
20.01480,570323
20.02292,545095
20.03105,521750
20.03917,493400
20.04728,466385
20.05542,416696
20.06353,359048
20.07167,304103
20.07978,232373
20.08790,184204
20.09603,146679
20.10415,119553
20.11228,114317
20.12040,102489
20.12852,103417
20.13665,97352
20.14477,102340
20.15288,92708
20.16102,96319
20.16913,86285
20.17727,86767
20.18538,90238
20.19350,84531
20.20163,82952
20.20975,79391
20.21788,82190
20.22600,78183
20.23412,76209
20.24225,78255
20.25037,73796
20.25850,73096
20.26662,74934
20.27473,79356
20.28287,90283
20.29098,99433
20.29910,105010
20.30723,113664
20.31535,118179
20.32348,113403
20.33160,103506
20.33972,99902
20.34785,82391
20.35597,66645
20.36410,51929
20.37222,46492
20.38033,45022
20.38847,43877
20.39658,39181
20.40470,38373
20.41283,37000
20.42095,36037
20.42908,37908
20.43720,33344
20.44532,36451
20.45345,45859
20.46157,44725
20.46970,47657
20.47782,45698
20.48593,46414
20.49407,43056
20.50218,41546
20.51032,39585
20.51843,36013
20.52655,30571
20.53468,30519
20.54280,33566
20.55092,34039
20.55905,27962
20.56717,32089
20.57530,33654
20.58342,30248
20.59153,32838
20.59967,29409
20.60778,28709
20.61592,31083
20.62403,30715
20.63215,31153
20.64028,29764
20.64840,31924
20.65652,29602
20.66465,29345
20.67277,34581
20.68090,30672
20.68902,25143
20.69713,27592
20.70527,26062
20.71338,26496
20.72152,34857
20.72963,32440
20.73775,28335
20.74588,29849
20.75400,29900
20.76213,29427
20.77025,27977
20.77837,29332
20.78650,29336
20.79462,35886
20.80273,31043
20.81087,28408
20.81898,27834
20.82712,31692
20.83523,30522
20.84335,34008
20.85148,30582
20.85960,31138
20.86773,26779
20.87585,29530
20.88397,30255
20.89210,32248
20.90022,33072
20.90835,30978
20.91647,36063
20.92458,32347
20.93272,30709
20.94083,34408
20.94895,33724
20.95708,34524
20.96520,31300
20.97333,32850
20.98145,37656
20.98957,33566
20.99770,33096
21.00582,38080
21.01395,33060
21.02207,33282
21.03018,32614
21.03832,32665
21.04643,36828
21.05457,29559
21.06268,32298
21.07080,34609
21.07893,33366
21.08705,30111
21.09517,34220
21.10330,33263
21.11142,33339
21.11955,38235
21.12767,33959
21.13578,33139
21.14392,33003
21.15203,32120
21.16017,31808
21.16828,33926
21.17640,34600
21.18453,34219
21.19265,34918
21.20077,38420
21.20890,36970
21.21702,34035
21.22515,33820
21.23327,33354
21.24138,33624
21.24952,36302
21.25763,33572
21.26577,34104
21.27388,35437
21.28200,33418
21.29013,36962
21.29825,33890
21.30638,36218
21.31450,37388
21.32262,37522
21.33075,33577
21.33887,33978
21.34698,34831
21.35512,35452
21.36323,31485
21.37137,38984
21.37948,35035
21.38760,35717
21.39573,34363
21.40385,30199
21.41198,32518
21.42010,32814
21.42822,31296
21.43635,31546
21.44447,31124
21.45258,29595
21.46072,30159
21.46883,33571
21.47697,33326
21.48508,32513
21.49320,26676
21.50133,30893
21.50945,32285
21.51758,32439
21.52570,31480
21.53382,31961
21.54195,30367
21.55007,31953
21.55820,31281
21.56632,30674
21.57443,29130
21.58257,32102
21.59068,32870
21.59880,30686
21.60693,32380
21.61505,37371
21.62318,38497
21.63130,33680
21.63942,38299
21.64755,43485
21.65567,49413
21.66380,54238
21.67192,49054
21.68003,46065
21.68817,42775
21.69628,41486
21.70442,40320
21.71253,35350
21.72065,34278
21.72878,35354
21.73690,33455
21.74502,34804
21.75315,28418
21.76127,28647
21.76940,30454
21.77752,29108
21.78563,32863
21.79377,29283
21.80188,33572
21.81002,33015
21.81813,32102
21.82625,34703
21.83438,34109
21.84250,41058
21.85062,43798
21.85875,49997
21.86687,49457
21.87500,41975
21.88312,48225
21.89123,38994
21.89937,38513
21.90748,34633
21.91562,32143
21.92373,32135
21.93185,36761
21.93998,29768
21.94810,31628
21.95623,31752
21.96435,32779
21.97247,32929
21.98060,30536
21.98872,32840
21.99683,28823
22.00497,30456
22.01308,26343
22.02122,31921
22.02933,28761
22.03745,29379
22.04558,30070
22.05370,29441
22.06183,27511
22.06995,25860
22.07807,35498
22.08620,28261
22.09432,26985
22.10245,30222
22.11057,31609
22.11868,29788
22.12682,33203
22.13493,34271
22.14305,28737
22.15118,28668
22.15930,28354
22.16743,31482
22.17555,29023
22.18367,31556
22.19180,28554
22.19992,28318
22.20805,34561
22.21617,32102
22.22428,30077
22.23242,33412
22.24053,33395
22.24865,35092
22.25678,32341
22.26490,33066
22.27303,33986
22.28115,30493
22.28927,35522
22.29740,28255
22.30552,28682
22.31365,30911
22.32177,30817
22.32988,29881
22.33802,33610
22.34613,31755
22.35427,37340
22.36238,35076
22.37050,31794
22.37863,36600
22.38675,37485
22.39487,35883
22.40300,34810
22.41112,33597
22.41925,33654
22.42737,34571
22.43548,30330
22.44362,33601
22.45173,30697
22.45987,34498
22.46798,32594
22.47610,31409
22.48423,28890
22.49235,28559
22.50047,31721
22.50860,31029
22.51672,30088
22.52485,30908
22.53297,28772
22.54108,30678
22.54922,31086
22.55733,27916
22.56547,29406
22.57358,29744
22.58170,29831
22.58983,30306
22.59795,32155
22.60608,31927
22.61420,28809
22.62232,28637
22.63045,26150
22.63857,29262
22.64668,24397
22.65482,26416
22.66293,27959
22.67107,25891
22.67918,29326
22.68730,27573
22.69543,28317
22.70355,27377
22.71168,31644
22.71980,30763
22.72792,32198
22.73605,30474
22.74417,34348
22.75230,27629
22.76042,30265
22.76853,31977
22.77667,32745
22.78478,30591
22.79290,29196
22.80103,34737
22.80915,30274
22.81728,30796
22.82540,32387
22.83352,30378
22.84165,26151
22.84977,29920
22.85790,29873
22.86602,30837
22.87413,32142
22.88227,30818
22.89038,33072
22.89850,35604
22.90663,37446
22.91475,38142
22.92288,37096
22.93100,36710
22.93912,50690
22.94725,50160
22.95537,52305
22.96350,55686
22.97162,58314
22.97973,52080
22.98787,54912
22.99598,52487
23.00412,47628
23.01223,42772
23.02035,43181
23.02848,41304
23.03660,36297
23.04472,36321
23.05285,37835
23.06097,32868
23.06910,33771
23.07722,34572
23.08533,31714
23.09347,30638
23.10158,31508
23.10972,31155
23.11783,30053
23.12595,31426
23.13408,29999
23.14220,30202
23.15033,28320
23.15845,29262
23.16657,31984
23.17470,31265
23.18282,29905
23.19093,30464
23.19907,26732
23.20718,29768
23.21532,29761
23.22343,27679
23.23155,31089
23.23968,29158
23.24780,29536
23.25593,29478
23.26405,35374
23.27217,25126
23.28030,26653
23.28842,27302
23.29653,26821
23.30467,29121
23.31278,30899
23.32092,27732
23.32903,28402
23.33715,29017
23.34528,28820
23.35340,25664
23.36153,28671
23.36965,28066
23.37777,29211
23.38590,31113
23.39402,32099
23.40215,31607
23.41027,28514
23.41838,27112
23.42652,29751
23.43463,30642
23.44275,28354
23.45088,30994
23.45900,30407
23.46713,28704
23.47525,30675
23.48337,31179
23.49150,31312
23.49962,29080
23.50775,29530
23.51587,30499
23.52398,29613
23.53212,29297
23.54023,30491
23.54837,28067
23.55648,26930
23.56460,33315
23.57273,27730
23.58085,35608
23.58897,28324
23.59710,39734
23.60522,31228
23.61335,31608
23.62147,32014
23.62958,30754
23.63772,34338
23.64583,35771
23.65397,34362
23.66208,33068
23.67020,37192
23.67833,38144
23.68645,47071
23.69457,53008
23.70270,55052
23.71082,61379
23.71895,50987
23.72707,56782
23.73518,50771
23.74332,50979
23.75143,49254
23.75957,61418
23.76768,107820
23.77580,204832
23.78393,440818
23.79205,881586
23.80018,1448989
23.80830,1938050
23.81642,2140136
23.82455,1957434
23.83267,1627713
23.84078,1215737
23.84892,886048
23.85703,651743
23.86517,500199
23.87328,400241
23.88140,319215
23.88953,268034
23.89765,241686
23.90578,219723
23.91390,196654
23.92202,169734
23.93015,162055
23.93827,149145
23.94638,142966
23.95452,130055
23.96263,124210
23.97077,123424
23.97888,121279
23.98700,103129
23.99513,111469
24.00325,102021
24.01138,94261
24.01950,94498
24.02762,88479
24.03575,85826
24.04387,87739
24.05200,78153
24.06012,81342
24.06823,76997
24.07637,74717
24.08448,75980
24.09260,71175
24.10073,66941
24.10885,69358
24.11698,65642
24.12510,63735
24.13322,71922
24.14135,73446
24.14947,68403
24.15760,66931
24.16572,64858
24.17383,68059
24.18197,64280
24.19008,62481
24.19822,61464
24.20633,59797
24.21445,60135
24.22258,61654
24.23070,55526
24.23882,64333
24.24695,63681
24.25507,61009
24.26320,57861
24.27132,53155
24.27943,54606
24.28757,59756
24.29568,54292
24.30382,48061
24.31193,49714
24.32005,51196
24.32818,49712
24.33630,48979
24.34442,49710
24.35255,49211
24.36067,48420
24.36880,47770
24.37692,47312
24.38503,50104
24.39317,51222
24.40128,56219
24.40942,66817
24.41753,71284
24.42565,84119
24.43378,87271
24.44190,76666
24.45003,66694
24.45815,51489
24.46627,45783
24.47440,46256
24.48252,41827
24.49063,43508
24.49877,47199
24.50688,44637
24.51502,50772
24.52313,49006
24.53125,50213
24.53938,52600
24.54750,48672
24.55563,47333
24.56375,51260
24.57187,46008
24.58000,46098
24.58812,43130
24.59625,44212
24.60437,48928
24.61248,45337
24.62062,49863
24.62873,48047
24.63685,48445
24.64498,47237
24.65310,42873
24.66123,43416
24.66935,45712
24.67747,45123
24.68560,46357
24.69372,42335
24.70185,43855
24.70997,41198
24.71808,36979
24.72622,42738
24.73433,41987
24.74245,41271
24.75058,36052
24.75870,38282
24.76683,39094
24.77495,40887
24.78307,36387
24.79120,39801
24.79932,39758
24.80745,38532
24.81557,37787
24.82368,40078
24.83182,37790
24.83993,37703
24.84807,36790
24.85618,31125
24.86430,34772
24.87243,35696
24.88055,35811
24.88867,34622
24.89680,36959
24.90492,34110
24.91305,35626
24.92117,35569
24.92928,35885
24.93742,37659
24.94553,35450
24.95367,35855
24.96178,35571
24.96990,34841
24.97803,32566
24.98615,35931
24.99427,34197
25.00240,33394
25.01052,37222
25.01865,34945
25.02677,33427
25.03488,30852
25.04302,34183
25.05113,32152
25.05927,34528
25.06738,30354
25.07550,29599
25.08363,33537
25.09175,30426
25.09988,33604
25.10800,37040
25.11612,36715
25.12425,35886
25.13237,37954
25.14048,43333
25.14862,44502
25.15673,54731
25.16487,57370
25.17298,60797
25.18110,61086
25.18923,58724
25.19735,57296
25.20548,52116
25.21360,41103
25.22172,43938
25.22985,39656
25.23797,36135
25.24610,38080
25.25422,42550
25.26233,31654
25.27047,33285
25.27858,34752
25.28670,33752
25.29483,34796
25.30295,35986
25.31108,37760
25.31920,37950
25.32732,39401
25.33545,40385
25.34357,40391
25.35170,40029
25.35982,39205
25.36793,38845
25.37607,37325
25.38418,33130
25.39232,32919
25.40043,33436
25.40855,33450
25.41668,34412
25.42480,30160
25.43292,32773
25.44105,31799
25.44917,32496
25.45730,35199
25.46542,33377
25.47353,31904
25.48167,31928
25.48978,32258
25.49792,34034
25.50603,35723
25.51415,36603
25.52228,34725
25.53040,34766
25.53852,36409
25.54665,32221
25.55477,31887
25.56290,28920
25.57102,32062
25.57913,32425
25.58727,31935
25.59538,31392
25.60352,31659
25.61163,31767
25.61975,34308
25.62788,35030
25.63600,27958
25.64413,29720
25.65225,29062
25.66037,33204
25.66850,30597
25.67662,30998
25.68473,31656
25.69287,27286
25.70098,26187
25.70912,32123
25.71723,28406
25.72535,28653
25.73348,28575
25.74160,31721
25.74973,32371
25.75785,27439
25.76597,30493
25.77410,30543
25.78222,31469
25.79033,35809
25.79847,30048
25.80658,32377
25.81472,27428
25.82283,30824
25.83095,28487
25.83908,30080
25.84720,28022
25.85533,29451
25.86345,31385
25.87157,30602
25.87970,28295
25.88782,27509
25.89595,26904
25.90407,27688
25.91218,28305
25.92032,28519
25.92843,26929
25.93655,29910
25.94468,30157
25.95280,28636
25.96093,34521
25.96905,27799
25.97717,28890
25.98530,26536
25.99342,33390
26.00155,28759
26.00967,27004
26.01778,26777
26.02592,30526
26.03403,27439
26.04217,28386
26.05028,27367
26.05840,27243
26.06653,30008
26.07465,28592
26.08277,28923
26.09090,27053
26.09902,31556
26.10715,27822
26.11527,33641
26.12338,30186
26.13152,30700
26.13963,33764
26.14777,35742
26.15588,36489
26.16400,35129
26.17213,34524
26.18025,43558
26.18837,37678
26.19650,40413
26.20462,34860
26.21275,32878
26.22087,33258
26.22898,34535
26.23712,33446
26.24523,34753
26.25337,34998
26.26148,31077
26.26960,30673
26.27773,37392
26.28585,29701
26.29398,30331
26.30210,28160
26.31022,28758
26.31835,29703
26.32647,28041
26.33458,25943
26.34272,27397
26.35083,29031
26.35897,29000
26.36708,26238
26.37520,29202
26.38333,27525
26.39145,28105
26.39958,32662
26.40770,37322
26.41582,36003
26.42395,33551
26.43207,39224
26.44020,37696
26.44832,33129
26.45643,33421
26.46457,35181
26.47268,27157
26.48080,30614
26.48893,29265
26.49705,27970
26.50518,29059
26.51330,28874
26.52142,26938
26.52955,27192
26.53767,28915
26.54580,29095
26.55392,23457
26.56203,28540
26.57017,28575
26.57828,28306
26.58640,29197
26.59453,27935
26.60265,26812
26.61078,29294
26.61890,28512
26.62702,24869
26.63515,27601
26.64327,24726
26.65140,28953
26.65952,26277
26.66763,29225
26.67577,29656
26.68388,25584
26.69202,27542
26.70013,27624
26.70825,28713
26.71638,27168
26.72450,28403
26.73262,30263
26.74075,30332
26.74887,24713
26.75700,24779
26.76512,29453
26.77323,35768
26.78137,28124
26.78948,29494
26.79762,28495
26.80573,26569
26.81385,31167
26.82198,28997
26.83010,33263
26.83822,31595
26.84635,32269
26.85447,24792
26.86260,28160
26.87072,31476
26.87883,29388
26.88697,29543
26.89508,28377
26.90322,30800
26.91133,28811
26.91945,32976
26.92758,28660
26.93570,26445
26.94383,27873
26.95195,24459
26.96007,26971
26.96820,28503
26.97632,32843
26.98443,32874
26.99257,44297
27.00068,73668
27.00882,108919
27.01693,156567
27.02505,214448
27.03318,268943
27.04130,287378
27.04943,298252
27.05755,258028
27.06567,224651
27.07380,178218
27.08192,148899
27.09005,131265
27.09817,109414
27.10628,94182
27.11442,88423
27.12253,80594
27.13065,71214
27.13878,65857
27.14690,64886
27.15503,64487
27.16315,60443
27.17127,57590
27.17940,55936
27.18752,59224
27.19565,53364
27.20377,53905
27.21188,57379
27.22002,53627
27.22813,52792
27.23625,53624
27.24438,54697
27.25250,45657
27.26063,46574
27.26875,41633
27.27687,45264
27.28500,41310
27.29312,41731
27.30125,40461
27.30937,39557
27.31748,40033
27.32562,41477
27.33373,38267
27.34187,39858
27.34998,39913
27.35810,38562
27.36623,39300
27.37435,39671
27.38247,38438
27.39060,38507
27.39872,38306
27.40685,37250
27.41497,34992
27.42308,36430
27.43122,36113
27.43933,36339
27.44747,34696
27.45558,34218
27.46370,34840
27.47183,37592
27.47995,31132
27.48808,32204
27.49620,35115
27.50432,32257
27.51245,34555
27.52057,32887
27.52868,32707
27.53682,31880
27.54493,38403
27.55307,37809
27.56118,33515
27.56930,31918
27.57743,38401
27.58555,34746
27.59368,34589
27.60180,32687
27.60992,32952
27.61805,34012
27.62617,34089
27.63428,31705
27.64242,35511
27.65053,35660
27.65867,32667
27.66678,31037
27.67490,32620
27.68303,29381
27.69115,33371
27.69928,33213
27.70740,30850
27.71552,30877
27.72365,32113
27.73177,31538
27.73990,29747
27.74802,30727
27.75613,30929
27.76427,28110
27.77238,28882
27.78050,33589
27.78863,28943
27.79675,39309
27.80488,30132
27.81300,35003
27.82112,29372
27.82925,32239
27.83737,29906
27.84550,27352
27.85362,31198
27.86173,35728
27.86987,32617
27.87798,29915
27.88610,31051
27.89423,32601
27.90235,30557
27.91048,34273
27.91860,30132
27.92672,29511
27.93485,26431
27.94297,30599
27.95110,33451
27.95922,27565
27.96733,30269
27.97547,30999
27.98358,28333
27.99172,28631
27.99983,31446
28.00795,31460
28.01608,27781
28.02420,31272
28.03232,29940
28.04045,38047
28.04857,29938
28.05670,27751
28.06482,33968
28.07293,31192
28.08107,35185
28.08918,30586
28.09732,35680
28.10543,30241
28.11355,29613
28.12168,32249
28.12980,27542
28.13793,27859
28.14605,28867
28.15417,30126
28.16230,27109
28.17042,30899
28.17853,31345
28.18667,28882
28.19478,30367
28.20292,30782
28.21103,32486
28.21915,31488
28.22728,32989
28.23540,36242
28.24353,32622
28.25165,31069
28.25977,37910
28.26790,32808
28.27602,28784
28.28413,33081
28.29227,29794
28.30038,32591
28.30852,33837
28.31663,25784
28.32475,33406
28.33288,35090
28.34100,40590
28.34913,47020
28.35725,53900
28.36537,60509
28.37350,67898
28.38162,69076
28.38975,68938
28.39787,79228
28.40598,74133
28.41412,71009
28.42223,68261
28.43035,68003
28.43848,61940
28.44660,59030
28.45473,55919
28.46285,57729
28.47097,51073
28.47910,53271
28.48722,49842
28.49535,47007
28.50347,43115
28.51158,44523
28.51972,40685
28.52783,38761
28.53597,41018
28.54408,37807
28.55220,42633
28.56033,38320
28.56845,41600
28.57657,36152
28.58470,34840
28.59282,40307
28.60095,39486
28.60907,37778
28.61718,38172
28.62532,35665
28.63343,34138
28.64157,37199
28.64968,38289
28.65780,38304
28.66593,39939
28.67405,38172
28.68217,44824
28.69030,41858
28.69842,44579
28.70655,41324
28.71467,36329
28.72278,34242
28.73092,32203
28.73903,35927
28.74717,34234
28.75528,37394
28.76340,32329
28.77153,37775
28.77965,41483
28.78778,47844
28.79590,52426
28.80402,49162
28.81215,48653
28.82027,44835
28.82838,38800
28.83652,35395
28.84463,34507
28.85277,32700
28.86088,29922
28.86900,35858
28.87713,32922
28.88525,29048
28.89338,31868
28.90150,31660
28.90962,32282
28.91775,31358
28.92587,33775
28.93400,32084
28.94212,31370
28.95023,29984
28.95837,30506
28.96648,28791
28.97460,32895
28.98273,31603
28.99085,33793
28.99898,33735
29.00710,32932
29.01522,32376
29.02335,32084
29.03147,29431
29.03960,38408
29.04772,29440
29.05583,29762
29.06397,29240
29.07208,29105
29.08020,29105
29.08833,29866
29.09645,30190
29.10458,30765
29.11270,27194
29.12082,33579
29.12895,27229
29.13707,34195
29.14520,29923
29.15332,30075
29.16143,29683
29.16957,29386
29.17768,32169
29.18582,26541
29.19393,31238
29.20205,29381
29.21018,28989
29.21830,34624
29.22642,29324
29.23455,31864
29.24267,34759
29.25080,30453
29.25892,32387
29.26703,32151
29.27517,33678
29.28328,34439
29.29142,30090
29.29953,29573
29.30765,32969
29.31578,32065
29.32390,31846
29.33202,31771
29.34015,30902
29.34827,32300
29.35640,29326
29.36452,26700
29.37263,30910
29.38077,29486
29.38888,32374
29.39702,27667
29.40513,29669
29.41325,29849
29.42138,30207
29.42950,27950
29.43763,31299
29.44575,30034
29.45387,28349
29.46200,28077
29.47012,30725
29.47823,29029
29.48637,30777
29.49448,31478
29.50262,33207
29.51073,38481
29.51885,35773
29.52698,34336
29.53510,32218
29.54323,35025
29.55135,33494
29.55947,31858
29.56760,28630
29.57572,28385
29.58385,27676
29.59197,30637
29.60008,28603
29.60822,27746
29.61633,27188
29.62445,29264
29.63258,28576
29.64070,26609
29.64883,31022
29.65695,29768
29.66507,29223
29.67320,29153
29.68132,29113
29.68945,29508
29.69757,27535
29.70568,30472
29.71382,26876
29.72193,27162
29.73005,26380
29.73818,29051
29.74630,28646
29.75443,28597
29.76255,28749
29.77067,31187
29.77880,30659
29.78692,31884
29.79505,28019
29.80317,28961
29.81128,27386
29.81942,25749
29.82753,28609
29.83567,29411
29.84378,28776
29.85190,33933
29.86003,26713
29.86815,29699
29.87627,28626
29.88440,31248
29.89252,34362
29.90065,33863
29.90877,34352
29.91688,38849
29.92502,40611
29.93313,38690
29.94127,40023
29.94938,35769
29.95750,34052
29.96563,31521
29.97375,33501
29.98188,35804
29.99000,35502
29.99812,42353
30.00625,40824
30.01437,43262
30.02248,49956
30.03062,48992
30.03873,48998
30.04687,49698
30.05498,55406
30.06310,53658
30.07123,51766
30.07935,54520
30.08748,46246
30.09560,54333
30.10372,50246
30.11185,45340
30.11997,44951
30.12808,47400
30.13622,39922
30.14433,43231
30.15247,41712
30.16058,42884
30.16870,37024
30.17683,38608
30.18495,37871
30.19308,38803
30.20120,35684
30.20932,36310
30.21745,35715
30.22557,37937
30.23370,37180
30.24182,32900
30.24993,31944
30.25807,36060
30.26618,30946
30.27430,30380
30.28243,31255
30.29055,36383
30.29868,34038
30.30680,33654
30.31492,34825
30.32305,33827
30.33117,33704
30.33930,33194
30.34742,32261
30.35553,34028
30.36367,31374
30.37178,32206
30.37992,30189
30.38803,30990
30.39615,34416
30.40428,32238
30.41240,29274
30.42052,31780
30.42865,31491
30.43677,31749
30.44490,31949
30.45302,30268
30.46113,31966
30.46927,37190
30.47738,29612
30.48552,34120
30.49363,29545
30.50175,27898
30.50988,29928
30.51800,31236
30.52612,30991
30.53425,31663
30.54237,30692
30.55050,30834
30.55862,33697
30.56673,31007
30.57487,28603
30.58298,29186
30.59112,34797
30.59923,28767
30.60735,29597
30.61548,30298
30.62360,32385
30.63173,31424
30.63985,33209
30.64797,29547
30.65610,30186
30.66422,26805
30.67233,31163
30.68047,29169
30.68858,32312
30.69672,30320
30.70483,30830
30.71295,29870
30.72108,28891
30.72920,31755
30.73733,32133
30.74545,30643
30.75357,29246
30.76170,29750
30.76982,33355
30.77795,32109
30.78607,27705
30.79418,28228
30.80232,29710
30.81043,34120
30.81855,33714
30.82668,34600
30.83480,36454
30.84293,42193
30.85105,33971
30.85917,32700
30.86730,32982
30.87542,29730
30.88355,30572
30.89167,32644
30.89978,30372
30.90792,29825
30.91603,32333
30.92415,30517
30.93228,28810
30.94040,28316
30.94853,30736
30.95665,30000
30.96477,29347
30.97290,29838
30.98102,27676
30.98915,29588
30.99727,30806
31.00538,30487
31.01352,31600
31.02163,30136
31.02977,31594
31.03788,34965
31.04600,33045
31.05413,30104
31.06225,31256
31.07037,28268
31.07850,30636
31.08662,29311
31.09475,31465
31.10287,33790
31.11098,35549
31.11912,33430
31.12723,39498
31.13537,36271
31.14348,39465
31.15160,35986
31.15973,33772
31.16785,32692
31.17597,31415
31.18410,30934
31.19222,32542
31.20035,41532
31.20847,52531
31.21658,51813
31.22472,62126
31.23283,72925
31.24097,70638
31.24908,70294
31.25720,57712
31.26533,48656
31.27345,36953
31.28158,37156
31.28970,34461
31.29782,29884
31.30595,30696
31.31407,31356
31.32218,31945
31.33032,31149
31.33843,29684
31.34657,29525
31.35468,28097
31.36280,30731
31.37093,30291
31.37905,36866
31.38718,32331
31.39530,31315
31.40342,30698
31.41155,32002
31.41967,30686
31.42780,27326
31.43592,31804
31.44403,33230
31.45217,31771
31.46028,32037
31.46840,37435
31.47653,32070
31.48465,27486
31.49278,40200
31.50090,31829
31.50902,30035
31.51715,36212
31.52527,27766
31.53340,29510
31.54152,34795
31.54963,28807
31.55777,29805
31.56588,30021
31.57400,29476
31.58213,30918
31.59025,31416
31.59838,30735
31.60650,36247
31.61462,27990
31.62275,30947
31.63087,27574
31.63900,27004
31.64712,31794
31.65523,33032
31.66337,33419
31.67148,28611
31.67962,29337
31.68773,29167
31.69585,31248
31.70398,31356
31.71210,31522
31.72022,32386
31.72835,32551
31.73647,28892
31.74460,30124
31.75272,33723
31.76083,27357
31.76897,34784
31.77708,32062
31.78522,26570
31.79333,30874
31.80145,31829
31.80958,28954
31.81770,30231
31.82583,31263
31.83395,35382
31.84207,31257
31.85020,33267
31.85832,29600
31.86643,32270
31.87457,35646
31.88268,35118
31.89082,33160
31.89893,36515
31.90705,36116
31.91518,32319
31.92330,35285
31.93143,33938
31.93955,35884
31.94767,39200
31.95580,38385
31.96392,36083
31.97203,42248
31.98017,41981
31.98828,43879
31.99642,46419
32.00453,52625
32.01265,46241
32.02078,45423
32.02890,45905
32.03703,45066
32.04515,39102
32.05327,42655
32.06140,40628
32.06952,42572
32.07765,39647
32.08577,39919
32.09388,46146
32.10202,40961
32.11013,44542
32.11825,42587
32.12638,36926
32.13450,36428
32.14263,35174
32.15075,37046
32.15887,33101
32.16700,37187
32.17512,38121
32.18325,33116
32.19137,40000
32.19948,31014
32.20762,31398
32.21573,31219
32.22385,29739
32.23198,34360
32.24010,32915
32.24823,37210
32.25635,31977
32.26447,35997
32.27260,31084
32.28072,33602
32.28885,31268
32.29697,30188
32.30508,32415
32.31322,30970
32.32133,31360
32.32947,32186
32.33758,31980
32.34570,39122
32.35383,30297
32.36195,32785
32.37007,33178
32.37820,36673
32.38632,31562
32.39445,34157
32.40257,28529
32.41068,30065
32.41882,32076
32.42693,31927
32.43507,33009
32.44318,32560
32.45130,31684
32.45943,35069
32.46755,31411
32.47568,29887
32.48380,32413
32.49192,29254
32.50005,34265
32.50817,31029
32.51628,26743
32.52442,28018
32.53253,30606
32.54067,31042
32.54878,29793
32.55690,34049
32.56503,32028
32.57315,32855
32.58128,30164
32.58940,32716
32.59752,29937
32.60565,29595
32.61377,29814
32.62188,33356
32.63002,30723
32.63813,30866
32.64627,35202
32.65438,34147
32.66250,32620
32.67063,33750
32.67875,39837
32.68688,43135
32.69500,45590
32.70312,47587
32.71125,41536
32.71937,38969
32.72750,35974
32.73562,38003
32.74373,35867
32.75187,33867
32.75998,30303
32.76810,28104
32.77623,33480
32.78435,28980
32.79248,34368
32.80060,31851
32.80872,30673
32.81685,30913
32.82497,29652
32.83310,29454
32.84122,30234
32.84933,30598
32.85747,33116
32.86558,28188
32.87372,37568
32.88183,34956
32.88995,29874
32.89808,29447
32.90620,33685
32.91432,34392
32.92245,31376
32.93057,32260
32.93870,29252
32.94682,29817
32.95493,31442
32.96307,29808
32.97118,36177
32.97932,30917
32.98743,32734
32.99555,36213
33.00368,33686
33.01180,31744
33.01992,34984
33.02805,35684
33.03617,32576
33.04430,35193
33.05242,31036
33.06053,28555
33.06867,30699
33.07678,34999
33.08492,35861
33.09303,31031
33.10115,31042
33.10928,35622
33.11740,37300
33.12553,42110
33.13365,43749
33.14177,41619
33.14990,41961
33.15802,39143
33.16613,34521
33.17427,34292
33.18238,33918
33.19052,34035
33.19863,32813
33.20675,38321
33.21488,35139
33.22300,40780
33.23113,34258
33.23925,34916
33.24737,37185
33.25550,35655
33.26362,32581
33.27175,32213
33.27987,33610
33.28798,33751
33.29612,32660
33.30423,31614
33.31235,34608
33.32048,36373
33.32860,33199
33.33673,33949
33.34485,32356
33.35297,39767
33.36110,34649
33.36922,34937
33.37735,34455
33.38547,39265
33.39358,32684
33.40172,32199
33.40983,34058
33.41795,34199
33.42608,33290
33.43420,39723
33.44233,34463
33.45045,34178
33.45857,36078
33.46670,33381
33.47482,35962
33.48295,32443
33.49107,32643
33.49918,38533
33.50732,34493
33.51543,33451
33.52357,33280
33.53168,32974
33.53980,28918
33.54793,32744
33.55605,37889
33.56417,34316
33.57230,33704
33.58042,35570
33.58855,32690
33.59667,32008
33.60478,30085
33.61292,33552
33.62103,35117
33.62917,33780
33.63728,38566
33.64540,36779
33.65353,30853
33.66165,30970
33.66977,33335
33.67790,34233
33.68602,33262
33.69415,35353
33.70227,31564
33.71038,34761
33.71852,33081
33.72663,34416
33.73477,34958
33.74288,31724
33.75100,32198
33.75913,34914
33.76725,31082
33.77538,34810
33.78350,38012
33.79162,37591
33.79975,33322
33.80787,31333
33.81598,33141
33.82412,29088
33.83223,31661
33.84037,37419
33.84848,36563
33.85660,33495
33.86473,35336
33.87285,34532
33.88098,39544
33.88910,38399
33.89722,35102
33.90535,34415
33.91347,37674
33.92160,37935
33.92972,37909
33.93783,35093
33.94597,39219
33.95408,38641
33.96220,38261
33.97033,38662
33.97845,35879
33.98658,33489
33.99470,37802
34.00282,34509
34.01095,32509
34.01907,33333
34.02720,33842
34.03532,38877
34.04343,35434
34.05157,36969
34.05968,36488
34.06780,34847
34.07593,38061
34.08405,36475
34.09218,32838
34.10030,32311
34.10842,37411
34.11655,34850
34.12467,35969
34.13280,35769
34.14092,32585
34.14903,35058
34.15717,40265
34.16528,41621
34.17342,43119
34.18153,36437
34.18965,36685
34.19778,37996
34.20590,34815
34.21402,35512
34.22215,37629
34.23027,32996
34.23840,37456
34.24652,36782
34.25463,36174
34.26277,33499
34.27088,36151
34.27902,36912
34.28713,32611
34.29525,34565
34.30338,33578
34.31150,37845
34.31963,37779
34.32775,42283
34.33587,42326
34.34400,40354
34.35212,41996
34.36023,39931
34.36837,37739
34.37648,44860
34.38462,41361
34.39273,46120
34.40085,43894
34.40898,35714
34.41710,33809
34.42523,40244
34.43335,41334
34.44147,36304
34.44960,37795
34.45772,37695
34.46583,33895
34.47397,37097
34.48208,36353
34.49022,41078
34.49833,41362
34.50645,40289
34.51458,38617
34.52270,47015
34.53083,36680
34.53895,43476
34.54707,45703
34.55520,46270
34.56332,48506
34.57145,50635
34.57957,52424
34.58768,51420
34.59582,49329
34.60393,48902
34.61205,47424
34.62018,46530
34.62830,42158
34.63643,45025
34.64455,44194
34.65267,41702
34.66080,38588
34.66892,39811
34.67705,40800
34.68517,40185
34.69328,39946
34.70142,40352
34.70953,37601
34.71765,39715
34.72578,40270
34.73390,37413
34.74203,39371
34.75015,37328
34.75827,42179
34.76640,42866
34.77452,46679
34.78265,36003
34.79077,41075
34.79888,40869
34.80702,40615
34.81513,36150
34.82327,37250
34.83138,41223
34.83950,39553
34.84763,40548
34.85575,39023
34.86387,40955
34.87200,38588
34.88012,40398
34.88825,37618
34.89637,38422
34.90448,41051
34.91262,40561
34.92073,41812
34.92887,41295
34.93698,41272
34.94510,41350
34.95323,44931
34.96135,40349
34.96948,44232
34.97760,44702
34.98572,49131
34.99385,49319
35.00197,48363
35.01008,43946
35.01822,46993
35.02633,45810
35.03447,42490
35.04258,41037
35.05070,38607
35.05883,46052
35.06695,40294
35.07508,41479
35.08320,42063
35.09132,42965
35.09945,42173
35.10757,41805
35.11570,35102
35.12382,43107
35.13193,41589
35.14007,41905
35.14818,43228
35.15630,37824
35.16443,44136
35.17255,41173
35.18068,41689
35.18880,41859
35.19692,42227
35.20505,42960
35.21317,41424
35.22130,39345
35.22942,36948
35.23753,37162
35.24567,38965
35.25378,39564
35.26190,42035
35.27003,38376
35.27815,42717
35.28628,43926
35.29440,41447
35.30252,42169
35.31065,41363
35.31877,38515
35.32690,39963
35.33502,39341
35.34313,44632
35.35127,38281
35.35938,37518
35.36752,39837
35.37563,39394
35.38375,41630
35.39188,39423
35.40000,41222
35.40812,40316
35.41625,38146
35.42437,39628
35.43250,37277
35.44062,39708
35.44873,41117
35.45687,40357
35.46498,41719
35.47312,43650
35.48123,39913
35.48935,41281
35.49748,41940
35.50560,41392
35.51372,42187
35.52185,38551
35.52997,40598
35.53810,44350
35.54622,41391
35.55433,46028
35.56247,42731
35.57058,40835
35.57872,43863
35.58683,43256
35.59495,38979
35.60308,40269
35.61120,45649
35.61933,43607
35.62745,42252
35.63557,41802
35.64370,42748
35.65182,46689
35.65993,40484
35.66807,39202
35.67618,42372
35.68432,43135
35.69243,43185
35.70055,45623
35.70868,43157
35.71680,44871
35.72493,43566
35.73305,43535
35.74117,43835
35.74930,39406
35.75742,41368
35.76555,43044
35.77367,46964
35.78178,42443
35.78992,46134
35.79803,39153
35.80615,44611
35.81428,37643
35.82240,44508
35.83053,43049
35.83865,41080
35.84677,42686
35.85490,42904
35.86302,41702
35.87115,42216
35.87927,40988
35.88738,42149
35.89552,42076
35.90363,41013
35.91175,44016
35.91988,45687
35.92800,43035
35.93613,39390
35.94425,41120
35.95237,42998
35.96050,41697
35.96862,37938
35.97675,39409
35.98487,38334
35.99298,40586
36.00112,41180
36.00923,43584
36.01737,44636
36.02548,45211
36.03360,43771
36.04173,45703
36.04985,49767
36.05797,45457
36.06610,41544
36.07422,45344
36.08235,44460
36.09047,44241
36.09858,46071
36.10672,44929
36.11483,42832
36.12297,43353
36.13108,40996
36.13920,42899
36.14733,42993
36.15545,40365
36.16358,43944
36.17170,46900
36.17982,43324
36.18795,40863
36.19607,42829
36.20418,46121
36.21232,46779
36.22043,42543
36.22857,45693
36.23668,44966
36.24480,40817
36.25293,43897
36.26105,40855
36.26918,41019
36.27730,43523
36.28542,43275
36.29355,43087
36.30167,42095
36.30978,46938
36.31792,53226
36.32603,51248
36.33417,54502
36.34228,59824
36.35040,51772
36.35853,52133
36.36665,58006
36.37478,48305
36.38290,44294
36.39102,43771
36.39915,45581
36.40727,43701
36.41540,44175
36.42352,47951
36.43163,47182
36.43977,43846
36.44788,52261
36.45600,44255
36.46413,46213
36.47225,43729
36.48038,45625
36.48850,42635
36.49662,44097
36.50475,43981
36.51287,45382
36.52100,41172
36.52912,46006
36.53723,45853
36.54537,47760
36.55348,44140
36.56160,41293
36.56973,41667
36.57785,44667
36.58598,43616
36.59410,42129
36.60222,43932
36.61035,46780
36.61847,45003
36.62660,42993
36.63472,41471
36.64283,44856
36.65097,44593
36.65908,43818
36.66722,45951
36.67533,46630
36.68345,46916
36.69158,47665
36.69970,50538
36.70782,43962
36.71595,47136
36.72407,44916
36.73220,44174
36.74032,51739
36.74843,45197
36.75657,44686
36.76468,44952
36.77282,44654
36.78093,48443
36.78905,42650
36.79718,52928
36.80530,39516
36.81343,46650
36.82155,48827
36.82967,43731
36.83780,42529
36.84592,47105
36.85403,43163
36.86217,43284
36.87028,46007
36.87842,48949
36.88653,43501
36.89465,46322
36.90278,50267
36.91090,46769
36.91903,43852
36.92715,45476
36.93527,44890
36.94340,48670
36.95152,45350
36.95963,46364
36.96777,48230
36.97588,50893
36.98402,52539
36.99213,46875
37.00025,46049
37.00838,43829
37.01650,49561
37.02463,43441
37.03275,46416
37.04087,47475
37.04900,43995
37.05712,48093
37.06525,43984
37.07337,46520
37.08148,45733
37.08962,44632
37.09773,49716
37.10585,45268
37.11398,49864
37.12210,45939
37.13023,46827
37.13835,49398
37.14647,43840
37.15460,49576
37.16272,48190
37.17085,48433
37.17897,48034
37.18708,48594
37.19522,46194
37.20333,47416
37.21147,49564
37.21958,47500
37.22770,51237
37.23583,50233
37.24395,55878
37.25207,52607
37.26020,54474
37.26832,50507
37.27645,51037
37.28457,49789
37.29268,50585
37.30082,49504
37.30893,52294
37.31707,49093
37.32518,49640
37.33330,51194
37.34143,53078
37.34955,51372
37.35767,54689
37.36580,59867
37.37392,52671
37.38205,55516
37.39017,58747
37.39828,58478
37.40642,56789
37.41453,59178
37.42267,55051
37.43078,53659
37.43890,52014
37.44703,56422
37.45515,55013
37.46328,61136
37.47140,54682
37.47952,55523
37.48765,55784
