C:\MassHunter\GCMS\1\data\JTB-E18\BACandBLUE_bioassay\JTB-E18-41-12.D Wed Dec 04 12:04:11 2019
Start of data points
2.09535,26149
2.10347,26145
2.11160,25834
2.11972,28597
2.12783,27244
2.13597,22974
2.14408,21655
2.15222,23986
2.16033,23496
2.16845,26411
2.17658,21695
2.18470,23991
2.19283,19677
2.20095,19031
2.20907,21279
2.21720,24281
2.22532,21639
2.23343,20358
2.24157,19038
2.24968,20274
2.25782,27069
2.26593,167402
2.27405,1669705
2.28218,3387788
2.29030,1975795
2.29843,747535
2.30655,453736
2.31467,350456
2.32280,324115
2.33092,268490
2.33905,284866
2.34717,233916
2.35528,190881
2.36342,161579
2.37153,151527
2.37965,141677
2.38778,135749
2.39590,121883
2.40403,117032
2.41215,115127
2.42027,108517
2.42840,121157
2.43652,106536
2.44465,112562
2.45277,116265
2.46088,102305
2.46902,88763
2.47713,86841
2.48525,81654
2.49338,84215
2.50150,83040
2.50963,76793
2.51775,74297
2.52587,77716
2.53400,75988
2.54212,79132
2.55025,81135
2.55837,80928
2.56648,78470
2.57462,77784
2.58273,66610
2.59087,65799
2.59898,66927
2.60710,74579
2.61523,82490
2.62335,80142
2.63147,72210
2.63960,69525
2.64772,66681
2.65585,67406
2.66397,66837
2.67208,65439
2.68022,66631
2.68833,65692
2.69647,63607
2.70458,61694
2.71270,59697
2.72083,57981
2.72895,62884
2.73708,58875
2.74520,59037
2.75332,58623
2.76145,57671
2.76957,56236
2.77768,55996
2.78582,56501
2.79393,56832
2.80207,61242
2.81018,58589
2.81830,57111
2.82643,56472
2.83455,56697
2.84268,55643
2.85080,56602
2.85892,57138
2.86705,54127
2.87517,54555
2.88328,52760
2.89142,54370
2.89953,57848
2.90767,49524
2.91578,51877
2.92390,52417
2.93203,52265
2.94015,53770
2.94828,51691
2.95640,48983
2.96452,48810
2.97265,48542
2.98077,53274
2.98890,51484
2.99702,48450
3.00513,50879
3.01327,52110
3.02138,48509
3.02950,47051
3.03763,46762
3.04575,51000
3.05388,50467
3.06200,59304
3.07012,67193
3.07825,62900
3.08637,61280
3.09450,61818
3.10262,78644
3.11073,100169
3.11887,89668
3.12698,76066
3.13510,66738
3.14323,61318
3.15135,57796
3.15948,57110
3.16760,56052
3.17572,55841
3.18385,51985
3.19197,55627
3.20010,53674
3.20822,55336
3.21633,52576
3.22447,54281
3.23258,51238
3.24072,51139
3.24883,50111
3.25695,54020
3.26508,55441
3.27320,181029
3.28132,1296936
3.28945,6519824
3.29757,1.613487E+07
3.30570,2.144395E+07
3.31382,1.914553E+07
3.32193,1.312388E+07
3.33007,7966766
3.33818,5136515
3.34632,3626681
3.35443,2825509
3.36255,2280035
3.37068,1915276
3.37880,1647867
3.38693,1437969
3.39505,1276703
3.40317,1145997
3.41130,1057262
3.41942,973514
3.42753,897136
3.43567,857500
3.44378,800838
3.45192,764857
3.46003,728295
3.46815,684953
3.47628,661462
3.48440,639640
3.49253,603774
3.50065,581307
3.50877,554735
3.51690,527380
3.52502,512284
3.53313,502758
3.54127,494981
3.54938,461787
3.55752,449993
3.56563,436957
3.57375,434295
3.58188,422380
3.59000,413659
3.59813,398086
3.60625,398366
3.61437,387113
3.62250,388903
3.63062,372088
3.63875,375210
3.64687,351202
3.65498,344806
3.66312,344820
3.67123,327806
3.67935,325218
3.68748,322618
3.69560,319706
3.70373,313727
3.71185,319450
3.71997,310402
3.72810,307491
3.73622,298645
3.74435,292627
3.75247,293940
3.76058,285852
3.76872,277631
3.77683,279476
3.78497,279984
3.79308,272787
3.80120,269888
3.80933,271898
3.81745,271859
3.82557,268354
3.83370,269853
3.84182,261664
3.84995,255448
3.85807,252774
3.86618,247580
3.87432,260164
3.88243,247193
3.89057,245668
3.89868,237509
3.90680,239871
3.91493,237163
3.92305,241715
3.93117,232086
3.93930,230249
3.94742,227165
3.95555,231770
3.96367,226124
3.97178,225324
3.97992,221631
3.98803,221780
3.99617,222113
4.00428,221918
4.01240,221883
4.02053,214400
4.02865,215808
4.03678,217121
4.04490,211552
4.05302,210223
4.06115,210777
4.06927,204877
4.07738,202339
4.08552,204881
4.09363,202386
4.10177,195995
4.10988,193952
4.11800,198107
4.12613,197514
4.13425,207456
4.14238,208215
4.15050,212768
4.15862,209872
4.16675,199753
4.17487,193139
4.18298,189888
4.19112,188541
4.19923,190176
4.20737,187886
4.21548,186691
4.22360,203312
4.23173,210471
4.23985,203843
4.24798,194008
4.25610,185149
4.26422,188233
4.27235,188401
4.28047,188277
4.28860,185957
4.29672,184371
4.30483,181472
4.31297,183018
4.32108,183443
4.32920,182784
4.33733,182091
4.34545,184609
4.35358,184774
4.36170,189663
4.36982,186481
4.37795,185920
4.38607,186114
4.39420,175654
4.40232,170947
4.41043,173359
4.41857,173681
4.42668,163383
4.43482,159042
4.44293,170072
4.45105,166128
4.45918,165319
4.46730,163990
4.47542,160542
4.48355,160982
4.49167,159318
4.49980,162133
4.50792,160951
4.51603,164426
4.52417,169074
4.53228,178352
4.54042,180663
4.54853,173707
4.55665,165183
4.56478,163555
4.57290,155593
4.58103,156736
4.58915,157309
4.59727,156456
4.60540,160086
4.61352,157200
4.62163,162767
4.62977,155065
4.63788,152725
4.64602,148587
4.65413,151586
4.66225,155165
4.67038,149535
4.67850,146026
4.68663,147768
4.69475,147371
4.70287,148316
4.71100,142497
4.71912,144998
4.72723,146994
4.73537,150108
4.74348,145323
4.75162,147381
4.75973,148421
4.76785,146168
4.77598,143871
4.78410,142281
4.79223,145964
4.80035,138048
4.80847,138464
4.81660,147309
4.82472,140090
4.83285,138786
4.84097,139076
4.84908,140767
4.85722,139234
4.86533,146203
4.87345,141821
4.88158,143199
4.88970,147588
4.89783,245921
4.90595,664092
4.91407,2258509
4.92220,6080961
4.93032,1.100197E+07
4.93845,1.37551E+07
4.94657,1.244009E+07
4.95468,8614022
4.96282,5167027
4.97093,3006911
4.97905,1873714
4.98718,1363223
4.99530,1114823
5.00343,935712
5.01155,835032
5.01967,749713
5.02780,673383
5.03592,634385
5.04405,590386
5.05217,565837
5.06028,541588
5.06842,518103
5.07653,484820
5.08467,470441
5.09278,463033
5.10090,439939
5.10903,432543
5.11715,423416
5.12527,402617
5.13340,396926
5.14152,390548
5.14965,404270
5.15777,373717
5.16588,368790
5.17402,383794
5.18213,365602
5.19027,363780
5.19838,354363
5.20650,346584
5.21463,358690
5.22275,377334
5.23088,429487
5.23900,445580
5.24712,420034
5.25525,390235
5.26337,351724
5.27148,322428
5.27962,320286
5.28773,313581
5.29587,301270
5.30398,298515
5.31210,297950
5.32023,291050
5.32835,289464
5.33648,283821
5.34460,289405
5.35272,279405
5.36085,276904
5.36897,269802
5.37708,269071
5.38522,266586
5.39333,270600
5.40147,269347
5.40958,264298
5.41770,261310
5.42583,252096
5.43395,253218
5.44208,251998
5.45020,252537
5.45832,249813
5.46645,248131
5.47457,244688
5.48270,243521
5.49082,248048
5.49893,241731
5.50707,234078
5.51518,233368
5.52330,240068
5.53143,228678
5.53955,236152
5.54768,231988
5.55580,225853
5.56392,225458
5.57205,224137
5.58017,229474
5.58830,223440
5.59642,230614
5.60453,227194
5.61267,218231
5.62078,226240
5.62892,231701
5.63703,229077
5.64515,222065
5.65328,223545
5.66140,238369
5.66952,253068
5.67765,271928
5.68577,280592
5.69390,265808
5.70202,244393
5.71013,236031
5.71827,222750
5.72638,217481
5.73452,216531
5.74263,209765
5.75075,211048
5.75888,215859
5.76700,205860
5.77512,208915
5.78325,202860
5.79137,204649
5.79950,201993
5.80762,211069
5.81573,210574
5.82387,194856
5.83198,201981
5.84012,198787
5.84823,202412
5.85635,200729
5.86448,200542
5.87260,189165
5.88073,196974
5.88885,198972
5.89697,196448
5.90510,180433
5.91322,160185
5.92133,131186
5.92947,136668
5.93758,134956
5.94572,132215
5.95383,137871
5.96195,133775
5.97008,139518
5.97820,139892
5.98633,142686
5.99445,137528
6.00257,130646
6.01070,136879
6.01882,133184
6.02693,128210
6.03507,131352
6.04318,130892
6.05132,133514
6.05943,128001
6.06755,126561
6.07568,123646
6.08380,120283
6.09193,134409
6.10005,128629
6.10817,129326
6.11630,131838
6.12442,129947
6.13255,131304
6.14067,135217
6.14878,129034
6.15692,131622
6.16503,135702
6.17315,132046
6.18128,131978
6.18940,126811
6.19753,126297
6.20565,133046
6.21377,127132
6.22190,125414
6.23002,127872
6.23815,130293
6.24627,124716
6.25438,127603
6.26252,131467
6.27063,126448
6.27877,133944
6.28688,127838
6.29500,127750
6.30313,129317
6.31125,130316
6.31937,127397
6.32750,135458
6.33562,128616
6.34375,134242
6.35187,133788
6.35998,126177
6.36812,128310
6.37623,131573
6.38437,125817
6.39248,134486
6.40060,129061
6.40873,128384
6.41685,120731
6.42497,129763
6.43310,125063
6.44122,120590
6.44935,123008
6.45747,124204
6.46558,120336
6.47372,124528
6.48183,126258
6.48997,125156
6.49808,124096
6.50620,123662
6.51433,117575
6.52245,120465
6.53058,114306
6.53870,113113
6.54682,113161
6.55495,109800
6.56307,116277
6.57118,115275
6.57932,108000
6.58743,115377
6.59557,111754
6.60368,111142
6.61180,112284
6.61993,115969
6.62805,117299
6.63618,110606
6.64430,108579
6.65242,112163
6.66055,111638
6.66867,108507
6.67680,112079
6.68492,109233
6.69303,109954
6.70117,106659
6.70928,108196
6.71740,104925
6.72553,103937
6.73365,103239
6.74178,106849
6.74990,108858
6.75802,112251
6.76615,105907
6.77427,104857
6.78240,105884
6.79052,108691
6.79863,108622
6.80677,108324
6.81488,109587
6.82300,108458
6.83113,100176
6.83925,93534
6.84738,79160
6.85550,58030
6.86362,53547
6.87175,51996
6.87987,55053
6.88800,49076
6.89612,51172
6.90423,48092
6.91237,49785
6.92048,50548
6.92862,50430
6.93673,48014
6.94485,48884
6.95298,49187
6.96110,49119
6.96922,46913
6.97735,48237
6.98547,48673
6.99360,49979
7.00172,48177
7.00983,46277
7.01797,50589
7.02608,48754
7.03422,48342
7.04233,47912
7.05045,51843
7.05858,50684
7.06670,49176
7.07482,48053
7.08295,51227
7.09107,49249
7.09920,51196
7.10732,47238
7.11543,49116
7.12357,48406
7.13168,45693
7.13982,47579
7.14793,49169
7.15605,49782
7.16418,49654
7.17230,47883
7.18043,49028
7.18855,45237
7.19667,43785
7.20480,48368
7.21292,44418
7.22103,48632
7.22917,47348
7.23728,49223
7.24542,48890
7.25353,51409
7.26165,49416
7.26978,47991
7.27790,51867
7.28603,49321
7.29415,46951
7.30227,47316
7.31040,48325
7.31852,52383
7.32665,48469
7.33477,49202
7.34288,47922
7.35102,46119
7.35913,49006
7.36725,46100
7.37538,47678
7.38350,49522
7.39163,45314
7.39975,49464
7.40787,46867
7.41600,49823
7.42412,49483
7.43225,49763
7.44037,45954
7.44848,47606
7.45662,49063
7.46473,49537
7.47285,55301
7.48098,53410
7.48910,52767
7.49723,49659
7.50535,48284
7.51347,49204
7.52160,48429
7.52972,51216
7.53785,50756
7.54597,48685
7.55408,49000
7.56222,47748
7.57033,48331
7.57847,48929
7.58658,46529
7.59470,49169
7.60283,48983
7.61095,49979
7.61907,46057
7.62720,47357
7.63532,48511
7.64345,43726
7.65157,48095
7.65968,46237
7.66782,47985
7.67593,44342
7.68407,43790
7.69218,47683
7.70030,43651
7.70843,48160
7.71655,43061
7.72468,43311
7.73280,49358
7.74092,47662
7.74905,44523
7.75717,50308
7.76528,42960
7.77342,44692
7.78153,46995
7.78967,44238
7.79778,44631
7.80590,44762
7.81403,42566
7.82215,44148
7.83028,45523
7.83840,45264
7.84652,48754
7.85465,41952
7.86277,42366
7.87088,45951
7.87902,42978
7.88713,43038
7.89527,43864
7.90338,43438
7.91150,42673
7.91963,44313
7.92775,42261
7.93588,44147
7.94400,42773
7.95212,43903
7.96025,43648
7.96837,44588
7.97650,46416
7.98462,40995
7.99273,46233
8.00087,47106
8.00898,49331
8.01710,46410
8.02523,50481
8.03335,49442
8.04148,44955
8.04960,47308
8.05772,44562
8.06585,42320
8.07397,45330
8.08210,44739
8.09022,46191
8.09833,41531
8.10647,45351
8.11458,43992
8.12272,47706
8.13083,43461
8.13895,48565
8.14708,46407
8.15520,43574
8.16332,42993
8.17145,45906
8.17957,44500
8.18770,42402
8.19582,45754
8.20393,43227
8.21207,43776
8.22018,41460
8.22832,41501
8.23643,42668
8.24455,44748
8.25268,46313
8.26080,43551
8.26892,40125
8.27705,42864
8.28517,44499
8.29330,43191
8.30142,38280
8.30953,45987
8.31767,43379
8.32578,40887
8.33392,44005
8.34203,43876
8.35015,42786
8.35828,46366
8.36640,46870
8.37453,43541
8.38265,48442
8.39077,45413
8.39890,46590
8.40702,45730
8.41513,42917
8.42327,42531
8.43138,40435
8.43952,38973
8.44763,41877
8.45575,38120
8.46388,40212
8.47200,44838
8.48013,41512
8.48825,44583
8.49637,43202
8.50450,42947
8.51262,42310
8.52073,43723
8.52887,40453
8.53698,43487
8.54512,44049
8.55323,42418
8.56135,58070
8.56948,400263
8.57760,876500
8.58573,498817
8.59385,162064
8.60197,96121
8.61010,80260
8.61822,71243
8.62635,65652
8.63447,64574
8.64258,60896
8.65072,57085
8.65883,58787
8.66695,57023
8.67508,53479
8.68320,49760
8.69133,67072
8.69945,123601
8.70757,351393
8.71570,925023
8.72382,2048837
8.73195,3482368
8.74007,4331454
8.74818,3987662
8.75632,2934655
8.76443,1772257
8.77257,1032935
8.78068,650606
8.78880,465437
8.79693,377594
8.80505,322179
8.81317,289582
8.82130,269339
8.82942,241582
8.83755,231763
8.84567,224369
8.85378,210453
8.86192,210134
8.87003,200806
8.87817,197056
8.88628,182660
8.89440,180756
8.90253,179784
8.91065,179267
8.91877,167199
8.92690,165437
8.93502,161363
8.94315,154453
8.95127,157339
8.95938,178055
8.96752,895872
8.97563,4134167
8.98377,6122464
8.99188,4336163
9.00000,2837089
9.00813,2057337
9.01625,1595739
9.02438,1273363
9.03250,1047355
9.04062,875963
9.04875,776218
9.05687,655963
9.06498,580816
9.07312,507984
9.08123,469255
9.08937,421691
9.09748,390559
9.10560,355812
9.11373,333931
9.12185,320110
9.12998,293969
9.13810,273520
9.14622,272299
9.15435,251103
9.16247,238595
9.17060,231525
9.17872,234773
9.18683,221476
9.19497,215408
9.20308,208635
9.21120,204323
9.21933,189827
9.22745,203144
9.23558,185036
9.24370,182491
9.25182,176166
9.25995,177245
9.26807,171418
9.27620,168763
9.28432,165993
9.29243,158950
9.30057,159228
9.30868,150919
9.31680,145967
9.32493,148012
9.33305,149456
9.34118,145488
9.34930,138059
9.35742,142221
9.36555,137587
9.37367,137059
9.38180,142097
9.38992,138469
9.39803,139641
9.40617,143325
9.41428,134530
9.42242,124787
9.43053,131011
9.43865,123308
9.44678,149035
9.45490,469347
9.46302,1595635
9.47115,2705439
9.47927,2485615
9.48740,1714808
9.49552,1214700
9.50363,938684
9.51177,754775
9.51988,627837
9.52802,509021
9.53613,452902
9.54425,388634
9.55238,343905
9.56050,313108
9.56862,289216
9.57675,264354
9.58487,248305
9.59300,219156
9.60112,208520
9.60923,193147
9.61737,177603
9.62548,175568
9.63362,164185
9.64173,154049
9.64985,148673
9.65798,148240
9.66610,137011
9.67423,137702
9.68235,129614
9.69047,125808
9.69860,125779
9.70672,121209
9.71483,111065
9.72297,113114
9.73108,112512
9.73922,113241
9.74733,107182
9.75545,104820
9.76358,98547
9.77170,103091
9.77983,101984
9.78795,95796
9.79607,100381
9.80420,104956
9.81232,105942
9.82045,104461
9.82857,109490
9.83668,104959
9.84482,103040
9.85293,103049
9.86105,96639
9.86918,98078
9.87730,91699
9.88543,92897
9.89355,92434
9.90167,105430
9.90980,107869
9.91792,97411
9.92605,96914
9.93417,88431
9.94228,89724
9.95042,97971
9.95853,102857
9.96667,106759
9.97478,130028
9.98290,129661
9.99103,127976
9.99915,118361
10.00727,110640
10.01540,112541
10.02352,98982
10.03165,92319
10.03977,86962
10.04788,85214
10.05602,87774
10.06413,83402
10.07227,85287
10.08038,86901
10.08850,85739
10.09663,80544
10.10475,80700
10.11287,80358
10.12100,82087
10.12912,79915
10.13725,80768
10.14537,83738
10.15348,83541
10.16162,83682
10.16973,82759
10.17787,91144
10.18598,92857
10.19410,89886
10.20223,97255
10.21035,102289
10.21848,99589
10.22660,93345
10.23472,85759
10.24285,88299
10.25097,83970
10.25908,83976
10.26722,87402
10.27533,87077
10.28347,92420
10.29158,101150
10.29970,101929
10.30783,101894
10.31595,97564
10.32408,91630
10.33220,94007
10.34032,87280
10.34845,87697
10.35657,83145
10.36468,84238
10.37282,86884
10.38093,82327
10.38907,85030
10.39718,85460
10.40530,80268
10.41343,80915
10.42155,80346
10.42968,83204
10.43780,75989
10.44592,79200
10.45405,77264
10.46217,75215
10.47030,81422
10.47842,76351
10.48653,78914
10.49467,78176
10.50278,77840
10.51090,76055
10.51903,79551
10.52715,77522
10.53528,73706
10.54340,76011
10.55152,74515
10.55965,71128
10.56777,80707
10.57590,75643
10.58402,74839
10.59213,75937
10.60027,72798
10.60838,75393
10.61652,73637
10.62463,74947
10.63275,78095
10.64088,71029
10.64900,69466
10.65712,69790
10.66525,68808
10.67337,70707
10.68150,74425
10.68962,69906
10.69773,71299
10.70587,70914
10.71398,72302
10.72212,73639
10.73023,70623
10.73835,72256
10.74648,69876
10.75460,73474
10.76272,68402
10.77085,69768
10.77897,75712
10.78710,71952
10.79522,73213
10.80333,73636
10.81147,72329
10.81958,71162
10.82772,67609
10.83583,64634
10.84395,67023
10.85208,65284
10.86020,63202
10.86833,70091
10.87645,67450
10.88457,70312
10.89270,69989
10.90082,71057
10.90893,72322
10.91707,73082
10.92518,69755
10.93332,74177
10.94143,72588
10.94955,72013
10.95768,69382
10.96580,67680
10.97393,66856
10.98205,67985
10.99017,62556
10.99830,68215
11.00642,66207
11.01455,79118
11.02267,130879
11.03078,281169
11.03892,482921
11.04703,579932
11.05515,521184
11.06328,410323
11.07140,313553
11.07953,243177
11.08765,201845
11.09577,174214
11.10390,157617
11.11202,146881
11.12015,132100
11.12827,124493
11.13638,128030
11.14452,126868
11.15263,126637
11.16075,118349
11.16888,108093
11.17700,104376
11.18513,96960
11.19325,93540
11.20137,85286
11.20950,86123
11.21762,83198
11.22575,79764
11.23387,75951
11.24198,77521
11.25012,79136
11.25823,76182
11.26637,78189
11.27448,75175
11.28260,79051
11.29073,76172
11.29885,79819
11.30697,77504
11.31510,74328
11.32322,77107
11.33135,74058
11.33947,81900
11.34758,79872
11.35572,82077
11.36383,75844
11.37197,73766
11.38008,73552
11.38820,71735
11.39633,77407
11.40445,72376
11.41257,72683
11.42070,69420
11.42882,71061
11.43695,70112
11.44507,70994
11.45318,72215
11.46132,69400
11.46943,65937
11.47757,70074
11.48568,66219
11.49380,70715
11.50193,69252
11.51005,66395
11.51818,72725
11.52630,69089
11.53442,67156
11.54255,70314
11.55067,65674
11.55878,67254
11.56692,68174
11.57503,74932
11.58317,70634
11.59128,77189
11.59940,75624
11.60753,77132
11.61565,75963
11.62378,74027
11.63190,68689
11.64002,72337
11.64815,65711
11.65627,64463
11.66440,66981
11.67252,67977
11.68063,72640
11.68877,70171
11.69688,70931
11.70500,76124
11.71313,74485
11.72125,73980
11.72938,75332
11.73750,66180
11.74562,73853
11.75375,72222
11.76187,69952
11.77000,68974
11.77812,68222
11.78623,72625
11.79437,67525
11.80248,72715
11.81060,69075
11.81873,68245
11.82685,73141
11.83498,64704
11.84310,67523
11.85122,71400
11.85935,69219
11.86747,69442
11.87560,67103
11.88372,71776
11.89183,69796
11.89997,65517
11.90808,65617
11.91622,70147
11.92433,64078
11.93245,63481
11.94058,62733
11.94870,66324
11.95682,66959
11.96495,70531
11.97307,72770
11.98120,71453
11.98932,69893
11.99743,68197
12.00557,63459
12.01368,66723
12.02182,67139
12.02993,64077
12.03805,66283
12.04618,67058
12.05430,64835
12.06243,68617
12.07055,63745
12.07867,66447
12.08680,60050
12.09492,63513
12.10303,61224
12.11117,64713
12.11928,65303
12.12742,65252
12.13553,66125
12.14365,63743
12.15178,65432
12.15990,66421
12.16803,63258
12.17615,63688
12.18427,64412
12.19240,65696
12.20052,67072
12.20863,65591
12.21677,60142
12.22488,64107
12.23302,65448
12.24113,65578
12.24925,65082
12.25738,69220
12.26550,68509
12.27363,67629
12.28175,67474
12.28987,66098
12.29800,69215
12.30612,65286
12.31425,62893
12.32237,67537
12.33048,62748
12.33862,62464
12.34673,57478
12.35485,60151
12.36298,60976
12.37110,61711
12.37923,62228
12.38735,65162
12.39547,64695
12.40360,60683
12.41172,62949
12.41985,64099
12.42797,64170
12.43608,60683
12.44422,63495
12.45233,61667
12.46045,63509
12.46858,64911
12.47670,62220
12.48483,65534
12.49295,65539
12.50107,62345
12.50920,61114
12.51732,60036
12.52545,66494
12.53357,67027
12.54168,64197
12.54982,63769
12.55793,61775
12.56607,60885
12.57418,60030
12.58230,59687
12.59043,61988
12.59855,60808
12.60667,60053
12.61480,60329
12.62292,62222
12.63105,58581
12.63917,62961
12.64728,61498
12.65542,64647
12.66353,55096
12.67167,58679
12.67978,57955
12.68790,60694
12.69603,57636
12.70415,61118
12.71228,60780
12.72040,59032
12.72852,69608
12.73665,62497
12.74477,68090
12.75288,60696
12.76102,67198
12.76913,65009
12.77727,60292
12.78538,63124
12.79350,63599
12.80163,54859
12.80975,59236
12.81788,58359
12.82600,57774
12.83412,60308
12.84225,59464
12.85037,57839
12.85848,54924
12.86662,60478
12.87473,57626
12.88287,59255
12.89098,56403
12.89910,57864
12.90723,61379
12.91535,56873
12.92348,57864
12.93160,59533
12.93972,55895
12.94785,59769
12.95597,56507
12.96410,56619
12.97222,62352
12.98033,60086
12.98847,62882
12.99658,65045
13.00470,64618
13.01283,62195
13.02095,63502
13.02908,62650
13.03720,68725
13.04532,60954
13.05345,59621
13.06157,60672
13.06970,62019
13.07782,60444
13.08593,63321
13.09407,58433
13.10218,61990
13.11032,65696
13.11843,64730
13.12655,68364
13.13468,73427
13.14280,74499
13.15092,75618
13.15905,73215
13.16717,70367
13.17530,66747
13.18342,65899
13.19153,60485
13.19967,63392
13.20778,59640
13.21592,58126
13.22403,59292
13.23215,61261
13.24028,56082
13.24840,59378
13.25652,64144
13.26465,62542
13.27277,62155
13.28090,68082
13.28902,60919
13.29713,62455
13.30527,63633
13.31338,61097
13.32152,65588
13.32963,59303
13.33775,65886
13.34588,64273
13.35400,62094
13.36213,64746
13.37025,62872
13.37837,64389
13.38650,61641
13.39462,60906
13.40273,61097
13.41087,62742
13.41898,61410
13.42712,59923
13.43523,59643
13.44335,61308
13.45148,60307
13.45960,62871
13.46773,58890
13.47585,60653
13.48397,60709
13.49210,55780
13.50022,58680
13.50835,58941
13.51647,55148
13.52458,62929
13.53272,60204
13.54083,60198
13.54895,58968
13.55708,60100
13.56520,58623
13.57333,55260
13.58145,61182
13.58957,62110
13.59770,59339
13.60582,56638
13.61395,59237
13.62207,64456
13.63018,67354
13.63832,61272
13.64643,62543
13.65455,62248
13.66268,66243
13.67080,64268
13.67893,60397
13.68705,65107
13.69517,60965
13.70330,59836
13.71142,61982
13.71955,57910
13.72767,54639
13.73578,61342
13.74392,58029
13.75203,59590
13.76017,61234
13.76828,57673
13.77640,62555
13.78453,62180
13.79265,62873
13.80077,62866
13.80890,66451
13.81702,57665
13.82515,61181
13.83327,61526
13.84138,63030
13.84952,66969
13.85763,67218
13.86577,67864
13.87388,65579
13.88200,65077
13.89013,61091
13.89825,60567
13.90637,64172
13.91450,62955
13.92262,62012
13.93075,61216
13.93887,59773
13.94698,60706
13.95512,64790
13.96323,55419
13.97137,57614
13.97948,62363
13.98760,68885
13.99573,64785
14.00385,65553
14.01198,62971
14.02010,65751
14.02822,63005
14.03635,63531
14.04447,65461
14.05258,59616
14.06072,58481
14.06883,58814
14.07697,58097
14.08508,69311
14.09320,102830
14.10133,207258
14.10945,426557
14.11758,811145
14.12570,1244489
14.13382,1488910
14.14195,1376885
14.15007,1026139
14.15820,675428
14.16632,425137
14.17443,299749
14.18257,250241
14.19068,234266
14.19880,218342
14.20693,189069
14.21505,181536
14.22318,176252
14.23130,166879
14.23942,159967
14.24755,157939
14.25567,148403
14.26380,141356
14.27192,131593
14.28003,118573
14.28817,103644
14.29628,93933
14.30440,84487
14.31253,76351
14.32065,73572
14.32878,72447
14.33690,65151
14.34502,69839
14.35315,69459
14.36127,66710
14.36940,71738
14.37752,67098
14.38563,67219
14.39377,67473
14.40188,66648
14.41002,69403
14.41813,65996
14.42625,62555
14.43438,69380
14.44250,69135
14.45062,65177
14.45875,66618
14.46687,65250
14.47500,61922
14.48312,62410
14.49123,59735
14.49937,69199
14.50748,65581
14.51562,58475
14.52373,61072
14.53185,63454
14.53998,65170
14.54810,71230
14.55623,63449
14.56435,61473
14.57247,61133
14.58060,63127
14.58872,60854
14.59683,60956
14.60497,65512
14.61308,59729
14.62122,62977
14.62933,61774
14.63745,57724
14.64558,57637
14.65370,61537
14.66183,60411
14.66995,56997
14.67807,60446
14.68620,58504
14.69432,58233
14.70243,63121
14.71057,64909
14.71868,80440
14.72682,111553
14.73493,157686
14.74305,192688
14.75118,195369
14.75930,172369
14.76743,146469
14.77555,114873
14.78367,93657
14.79180,85071
14.79992,79624
14.80805,76959
14.81617,79392
14.82428,75305
14.83242,71621
14.84053,73352
14.84865,70703
14.85678,70126
14.86490,72207
14.87303,69925
14.88115,71220
14.88927,72376
14.89740,72015
14.90552,69555
14.91365,69290
14.92177,65073
14.92988,67843
14.93802,66771
14.94613,62130
14.95425,64381
14.96238,65409
14.97050,64787
14.97863,66372
14.98675,63881
14.99487,67562
15.00300,65665
15.01112,66865
15.01925,68239
15.02737,66274
15.03548,65749
15.04362,67018
15.05173,65317
15.05987,60481
15.06798,63168
15.07610,62843
15.08423,60505
15.09235,62828
15.10047,57732
15.10860,60327
15.11672,64342
15.12485,60485
15.13297,60636
15.14108,61872
15.14922,65561
15.15733,61076
15.16547,60845
15.17358,61246
15.18170,56047
15.18983,59362
15.19795,61056
15.20608,57478
15.21420,58428
15.22232,61459
15.23045,62121
15.23857,60258
15.24668,57078
15.25482,57319
15.26293,56126
15.27107,57439
15.27918,56733
15.28730,57264
15.29543,56161
15.30355,55693
15.31168,55474
15.31980,56097
15.32792,56850
15.33605,58952
15.34417,51059
15.35228,52577
15.36042,55117
15.36853,53826
15.37667,52883
15.38478,55824
15.39290,55991
15.40103,55523
15.40915,52544
15.41728,56866
15.42540,58969
15.43352,57816
15.44165,58468
15.44977,59660
15.45790,60003
15.46602,53463
15.47413,53330
15.48227,53021
15.49038,55090
15.49850,58520
15.50663,56148
15.51475,50704
15.52288,46812
15.53100,44717
15.53912,46336
15.54725,48679
15.55537,44696
15.56350,45317
15.57162,44417
15.57973,45794
15.58787,43241
15.59598,46749
15.60412,44383
15.61223,44136
15.62035,46674
15.62848,45312
15.63660,49983
15.64472,46037
15.65285,41432
15.66097,38210
15.66910,37892
15.67722,33343
15.68533,39146
15.69347,33914
15.70158,38997
15.70972,35931
15.71783,36011
15.72595,34719
15.73408,35948
15.74220,33116
15.75032,37813
15.75845,36614
15.76657,35081
15.77470,38583
15.78282,39936
15.79093,41530
15.79907,36211
15.80718,38342
15.81532,35871
15.82343,38499
15.83155,39350
15.83968,40065
15.84780,35254
15.85593,38389
15.86405,40731
15.87217,39895
15.88030,35508
15.88842,38038
15.89653,31775
15.90467,34561
15.91278,36077
15.92092,38545
15.92903,38290
15.93715,36079
15.94528,35559
15.95340,35191
15.96153,36820
15.96965,39114
15.97777,39604
15.98590,38961
15.99402,37597
16.00213,38718
16.01027,41743
16.01838,43451
16.02652,44569
16.03463,36777
16.04275,39488
16.05088,38087
16.05900,36114
16.06713,37334
16.07525,38259
16.08337,36036
16.09150,33824
16.09962,34905
16.10775,35804
16.11587,32553
16.12398,32649
16.13212,31253
16.14023,32180
16.14835,31979
16.15648,31349
16.16460,32826
16.17273,32259
16.18085,35714
16.18897,35055
16.19710,37683
16.20522,36125
16.21335,39021
16.22147,34450
16.22958,36005
16.23772,32126
16.24583,34803
16.25397,35231
16.26208,38839
16.27020,36916
16.27833,37464
16.28645,33326
16.29457,33917
16.30270,33228
16.31082,33174
16.31895,32418
16.32707,34165
16.33518,32530
16.34332,33084
16.35143,30834
16.35957,35243
16.36768,35608
16.37580,34837
16.38393,36826
16.39205,35463
16.40018,31596
16.40830,36762
16.41642,33495
16.42455,36201
16.43267,32463
16.44078,38282
16.44892,31996
16.45703,33063
16.46517,32737
16.47328,35530
16.48140,33958
16.48953,35435
16.49765,34134
16.50578,35669
16.51390,37919
16.52202,32449
16.53015,36418
16.53827,30298
16.54638,35448
16.55452,36550
16.56263,32220
16.57077,37879
16.57888,35985
16.58700,35298
16.59513,38003
16.60325,38323
16.61138,32488
16.61950,37096
16.62762,33711
16.63575,30630
16.64387,32574
16.65200,32632
16.66012,34832
16.66823,33010
16.67637,33032
16.68448,32429
16.69260,35519
16.70073,33045
16.70885,30977
16.71698,32544
16.72510,34135
16.73322,35303
16.74135,32528
16.74947,30348
16.75760,34594
16.76572,33737
16.77383,33837
16.78197,29769
16.79008,33848
16.79820,32509
16.80633,36397
16.81445,35334
16.82258,30530
16.83070,33273
16.83882,34586
16.84695,31180
16.85507,29529
16.86320,32385
16.87132,33383
16.87943,29618
16.88757,35126
16.89568,33265
16.90382,31399
16.91193,33731
16.92005,37143
16.92818,33982
16.93630,38196
16.94442,35709
16.95255,34717
16.96067,33703
16.96880,39816
16.97692,34529
16.98503,33762
16.99317,35948
17.00128,35960
17.00942,34817
17.01753,38277
17.02565,35572
17.03378,34097
17.04190,35555
17.05003,35019
17.05815,35954
17.06627,34200
17.07440,35676
17.08252,33156
17.09063,36131
17.09877,36946
17.10688,34170
17.11502,33778
17.12313,34803
17.13125,38448
17.13938,36319
17.14750,38247
17.15563,36256
17.16375,35916
17.17187,37799
17.18000,36057
17.18812,34254
17.19623,37764
17.20437,39593
17.21248,37801
17.22062,39126
17.22873,37648
17.23685,39632
17.24498,35045
17.25310,35529
17.26123,36510
17.26935,39373
17.27747,35873
17.28560,41127
17.29372,44005
17.30185,43090
17.30997,36545
17.31808,37865
17.32622,40162
17.33433,41808
17.34245,40422
17.35058,43988
17.35870,43998
17.36683,41802
17.37495,46071
17.38307,42559
17.39120,44803
17.39932,47201
17.40745,45172
17.41557,40054
17.42368,44746
17.43182,41039
17.43993,39992
17.44807,43348
17.45618,41607
17.46430,41021
17.47243,44226
17.48055,37452
17.48867,40614
17.49680,42922
17.50492,40639
17.51305,41432
17.52117,43345
17.52928,43870
17.53742,40618
17.54553,46098
17.55367,48088
17.56178,44020
17.56990,43515
17.57803,44077
17.58615,41561
17.59427,38373
17.60240,40208
17.61052,39092
17.61865,39160
17.62677,41617
17.63488,43439
17.64302,43093
17.65113,43621
17.65927,42507
17.66738,43174
17.67550,43379
17.68363,41843
17.69175,40259
17.69988,43386
17.70800,40579
17.71612,38714
17.72425,43459
17.73237,42669
17.74048,43896
17.74862,41366
17.75673,41989
17.76487,43645
17.77298,40116
17.78110,37988
17.78923,34956
17.79735,41444
17.80548,40680
17.81360,40555
17.82172,40306
17.82985,41000
17.83797,40869
17.84608,40525
17.85422,42171
17.86233,39235
17.87047,43260
17.87858,38855
17.88670,37796
17.89483,36501
17.90295,38733
17.91108,37020
17.91920,39907
17.92732,36683
17.93545,37540
17.94357,39164
17.95170,37714
17.95982,38311
17.96793,36916
17.97607,37417
17.98418,33394
17.99230,39504
18.00043,45851
18.00855,42843
18.01668,41329
18.02480,43097
18.03292,39335
18.04105,42957
18.04917,40979
18.05730,36330
18.06542,42098
18.07353,41658
18.08167,43185
18.08978,44773
18.09792,46031
18.10603,44879
18.11415,44552
18.12228,41912
18.13040,41173
18.13852,42485
18.14665,42005
18.15477,40456
18.16290,39008
18.17102,42058
18.17913,43960
18.18727,40068
18.19538,39822
18.20352,40196
18.21163,40552
18.21975,41705
18.22788,43056
18.23600,47015
18.24412,47038
18.25225,44297
18.26037,47107
18.26850,44244
18.27662,44258
18.28473,38416
18.29287,38727
18.30098,44450
18.30912,40539
18.31723,38218
18.32535,39320
18.33348,37524
18.34160,37721
18.34973,36705
18.35785,44200
18.36597,39704
18.37410,39744
18.38222,40328
18.39033,41357
18.39847,41256
18.40658,37054
18.41472,40423
18.42283,37692
18.43095,37332
18.43908,40162
18.44720,37282
18.45533,39476
18.46345,42339
18.47157,39279
18.47970,34605
18.48782,38909
18.49595,36408
18.50407,38567
18.51218,40371
18.52032,35897
18.52843,40334
18.53655,36039
18.54468,39460
18.55280,39124
18.56093,37160
18.56905,37762
18.57717,38548
18.58530,40529
18.59342,41731
18.60155,40472
18.60967,46013
18.61778,38419
18.62592,37023
18.63403,37179
18.64215,38966
18.65028,34630
18.65840,33940
18.66653,37560
18.67465,36622
18.68277,37641
18.69090,37973
18.69902,36799
18.70715,36131
18.71527,38302
18.72338,37306
18.73152,37198
18.73963,34065
18.74777,39008
18.75588,36443
18.76400,36636
18.77213,40132
18.78025,42262
18.78837,38557
18.79650,44491
18.80462,42334
18.81275,45294
18.82087,44800
18.82898,44738
18.83712,44752
18.84523,48616
18.85337,50996
18.86148,49366
18.86960,48762
18.87773,48466
18.88585,45878
18.89398,50756
18.90210,49691
18.91022,49082
18.91835,49834
18.92647,51052
18.93458,51004
18.94272,52343
18.95083,50137
18.95897,44890
18.96708,46370
18.97520,47104
18.98333,45702
18.99145,46030
18.99958,43333
19.00770,49061
19.01582,48178
19.02395,47041
19.03207,48596
19.04018,46247
19.04832,49666
19.05643,49977
19.06457,52695
19.07268,49314
19.08080,50326
19.08893,52622
19.09705,54001
19.10518,55251
19.11330,54554
19.12142,53038
19.12955,55395
19.13767,50059
19.14580,48964
19.15392,51555
19.16203,53059
19.17017,44733
19.17828,47081
19.18640,46097
19.19453,45498
19.20265,45800
19.21078,42255
19.21890,41686
19.22702,42598
19.23515,41549
19.24327,43914
19.25140,46185
19.25952,49318
19.26763,49647
19.27577,56132
19.28388,58272
19.29200,57227
19.30013,55378
19.30825,52119
19.31638,46902
19.32450,47331
19.33262,45440
19.34075,41958
19.34887,42398
19.35700,42558
19.36512,46393
19.37323,46332
19.38137,49260
19.38948,72295
19.39762,122073
19.40573,212237
19.41385,386622
19.42198,559144
19.43010,636600
19.43822,588696
19.44635,435176
19.45447,287973
19.46260,176839
19.47072,112112
19.47883,85793
19.48697,68587
19.49508,63445
19.50322,60762
19.51133,65628
19.51945,69569
19.52758,87428
19.53570,103280
19.54383,116202
19.55195,123631
19.56007,112282
19.56820,94040
19.57632,78385
19.58443,72780
19.59257,74626
19.60068,87180
19.60882,130155
19.61693,211074
19.62505,327605
19.63318,487333
19.64130,606717
19.64943,679065
19.65755,606275
19.66567,487760
19.67380,363319
19.68192,259221
19.69003,206708
19.69817,159969
19.70628,130727
19.71442,111795
19.72253,100754
19.73065,85515
19.73878,78907
19.74690,73149
19.75503,68408
19.76315,64478
19.77127,64385
19.77940,63788
19.78752,57610
19.79565,56235
19.80377,61244
19.81188,56773
19.82002,53355
19.82813,53906
19.83625,54902
19.84438,53796
19.85250,53209
19.86063,55799
19.86875,59783
19.87687,71716
19.88500,85197
19.89312,96666
19.90125,123489
19.90937,146745
19.91748,172791
19.92562,168478
19.93373,159299
19.94187,135129
19.94998,115255
19.95810,98845
19.96623,87905
19.97435,80472
19.98247,77723
19.99060,72858
19.99872,67071
20.00685,67420
20.01497,65295
20.02308,66908
20.03122,57219
20.03933,58995
20.04747,58062
20.05558,50547
20.06370,54920
20.07183,55011
20.07995,49954
20.08807,51880
20.09620,51113
20.10432,50244
20.11245,51969
20.12057,51905
20.12868,55108
20.13682,46601
20.14493,50097
20.15307,48950
20.16118,52040
20.16930,54338
20.17743,55394
20.18555,55217
20.19368,69245
20.20180,88923
20.20992,131554
20.21805,208281
20.22617,295905
20.23428,375425
20.24242,431765
20.25053,436978
20.25867,392885
20.26678,304216
20.27490,239452
20.28303,178550
20.29115,147175
20.29928,115962
20.30740,96225
20.31552,82610
20.32365,74910
20.33177,65617
20.33988,66192
20.34802,60033
20.35613,65494
20.36427,73629
20.37238,89166
20.38050,108421
20.38863,145443
20.39675,173651
20.40488,203440
20.41300,219510
20.42112,212901
20.42925,209973
20.43737,174707
20.44550,145921
20.45362,119957
20.46173,106687
20.46987,87922
20.47798,83054
20.48610,72356
20.49423,69742
20.50235,63146
20.51048,64857
20.51860,63221
20.52672,56651
20.53485,56464
20.54297,59578
20.55110,60727
20.55922,64358
20.56733,66183
20.57547,63938
20.58358,69165
20.59172,62505
20.59983,69265
20.60795,62344
20.61608,56556
20.62420,55330
20.63232,59515
20.64045,52954
20.64857,54665
20.65670,57024
20.66482,52457
20.67293,50535
20.68107,47673
20.68918,51825
20.69732,52446
20.70543,50108
20.71355,48287
20.72168,50128
20.72980,47659
20.73793,50566
20.74605,46120
20.75417,46805
20.76230,47705
20.77042,45679
20.77853,43093
20.78667,43470
20.79478,44947
20.80292,47091
20.81103,43357
20.81915,44190
20.82728,51391
20.83540,44885
20.84353,46538
20.85165,42100
20.85977,42349
20.86790,43533
20.87602,49572
20.88413,46992
20.89227,43881
20.90038,43323
20.90852,43009
20.91663,44919
20.92475,44980
20.93288,45292
20.94100,45731
20.94913,45289
20.95725,39471
20.96537,40330
20.97350,43267
20.98162,39243
20.98975,42697
20.99787,43288
21.00598,42104
21.01412,45733
21.02223,42755
21.03035,41934
21.03848,37833
21.04660,41647
21.05473,41719
21.06285,44015
21.07097,44796
21.07910,40619
21.08722,42623
21.09535,42173
21.10347,41176
21.11158,39343
21.11972,38420
21.12783,38289
21.13595,40971
21.14408,38807
21.15220,48201
21.16033,44217
21.16845,43911
21.17657,40380
21.18470,40798
21.19282,43336
21.20095,42509
21.20907,42831
21.21718,43861
21.22532,41066
21.23343,42646
21.24157,42163
21.24968,38466
21.25780,38593
21.26593,41124
21.27405,41786
21.28217,39741
21.29030,39648
21.29842,40460
21.30655,42665
21.31467,41993
21.32278,48250
21.33092,40400
21.33903,40750
21.34717,40533
21.35528,37801
21.36340,40425
21.37153,36688
21.37965,40015
21.38778,37327
21.39590,35142
21.40402,36179
21.41215,40363
21.42027,40645
21.42838,37056
21.43652,39076
21.44463,41372
21.45277,40752
21.46088,39545
21.46900,41363
21.47713,39096
21.48525,38532
21.49338,38443
21.50150,39434
21.50962,40266
21.51775,40848
21.52587,41534
21.53398,44039
21.54212,54569
21.55023,78694
21.55837,104377
21.56648,130327
21.57460,157025
21.58273,166078
21.59085,163228
21.59898,138179
21.60710,107731
21.61522,91792
21.62335,76230
21.63147,73363
21.63960,60489
21.64772,61291
21.65583,67484
21.66397,69784
21.67208,75265
21.68020,71596
21.68833,72500
21.69645,63471
21.70458,64929
21.71270,56980
21.72082,56455
21.72895,55007
21.73707,62812
21.74520,73094
21.75332,97080
21.76143,119822
21.76957,142345
21.77768,139546
21.78582,137464
21.79393,124158
21.80205,101987
21.81018,80067
21.81830,70957
21.82642,60274
21.83455,58525
21.84267,54587
21.85080,54088
21.85892,62021
21.86703,62292
21.87517,65144
21.88328,59973
21.89142,56886
21.89953,55723
21.90765,53415
21.91578,48784
21.92390,51062
21.93202,46901
21.94015,43709
21.94827,44311
21.95640,42263
21.96452,40618
21.97263,42833
21.98077,41179
21.98888,41597
21.99702,38821
22.00513,38642
22.01325,44642
22.02138,38046
22.02950,41321
22.03763,41893
22.04575,41712
22.05387,43619
22.06200,46772
22.07012,42723
22.07823,44749
22.08637,45507
22.09448,43139
22.10262,44514
22.11073,40575
22.11885,43517
22.12698,44610
22.13510,50751
22.14323,59949
22.15135,61948
22.15947,67445
22.16760,65643
22.17572,63348
22.18383,57198
22.19197,48592
22.20008,45357
22.20822,38905
22.21633,41592
22.22445,33800
22.23258,38621
22.24070,38812
22.24883,40409
22.25695,42391
22.26507,36066
22.27320,39316
22.28132,40233
22.28945,41227
22.29757,39480
22.30568,36755
22.31382,38405
22.32193,35015
22.33005,34268
22.33818,35867
22.34630,35230
22.35443,35464
22.36255,36645
22.37067,34690
22.37880,36616
22.38692,34329
22.39505,31444
22.40317,30718
22.41128,36046
22.41942,36822
22.42753,38819
22.43567,37609
22.44378,38947
22.45190,33969
22.46003,35252
22.46815,35380
22.47627,35304
22.48440,32954
22.49252,33188
22.50065,31696
22.50877,34368
22.51688,35382
22.52502,30493
22.53313,30236
22.54127,32260
22.54938,31647
22.55750,33307
22.56563,34961
22.57375,30984
22.58187,29420
22.59000,31046
22.59812,32638
22.60625,31768
22.61437,31770
22.62248,31105
22.63062,31108
22.63873,33245
22.64687,34400
22.65498,34981
22.66310,32999
22.67123,32636
22.67935,31480
22.68748,35586
22.69560,33240
22.70372,29706
22.71185,33588
22.71997,31861
22.72808,32894
22.73622,30019
22.74433,32904
22.75247,34602
22.76058,32651
22.76870,32952
22.77683,31676
22.78495,31267
22.79308,31153
22.80120,28238
22.80932,30362
22.81745,30001
22.82557,31071
22.83370,34259
22.84182,35029
22.84993,36657
22.85807,36499
22.86618,37824
22.87430,40753
22.88243,40974
22.89055,47334
22.89868,54608
22.90680,57837
22.91492,68050
22.92305,74550
22.93117,72527
22.93930,68037
22.94742,72105
22.95553,61086
22.96367,56546
22.97178,50200
22.97990,50484
22.98803,46106
22.99615,46530
23.00428,41568
23.01240,39570
23.02052,37181
23.02865,30548
23.03677,32273
23.04490,33896
23.05302,35210
23.06113,31725
23.06927,32959
23.07738,34780
23.08552,33125
23.09363,29410
23.10175,31145
23.10988,29579
23.11800,33471
23.12612,32775
23.13425,30801
23.14237,27562
23.15050,31845
23.15862,31614
23.16673,33790
23.17487,33401
23.18298,34507
23.19112,37958
23.19923,41848
23.20735,35602
23.21548,36597
23.22360,38632
23.23172,33605
23.23985,36398
23.24797,33611
23.25610,33933
23.26422,33186
23.27233,36590
23.28047,34133
23.28858,34188
23.29672,35031
23.30483,31946
23.31295,33181
23.32108,38853
23.32920,32340
23.33733,32677
23.34545,33889
23.35357,33541
23.36170,34325
23.36982,34094
23.37793,34086
23.38607,34728
23.39418,34792
23.40232,32339
23.41043,38148
23.41855,32614
23.42668,35520
23.43480,35379
23.44293,30400
23.45105,36297
23.45917,32495
23.46730,32440
23.47542,33163
23.48355,33586
23.49167,33173
23.49978,33439
23.50792,31828
23.51603,32773
23.52415,36468
23.53228,34357
23.54040,33604
23.54853,32955
23.55665,33994
23.56477,36530
23.57290,35679
23.58102,39460
23.58915,35422
23.59727,36379
23.60538,35231
23.61352,34406
23.62163,40148
23.62975,35539
23.63788,39192
23.64600,37786
23.65413,39142
23.66225,40573
23.67037,42452
23.67850,39588
23.68662,37741
23.69475,36609
23.70287,41321
23.71098,70938
23.71912,162976
23.72723,440437
23.73537,1118946
23.74348,2534737
23.75160,4349369
23.75973,5768889
23.76785,6402921
23.77597,6159818
23.78410,5083681
23.79222,3816413
23.80035,2804334
23.80847,1967894
23.81658,1419605
23.82472,1112238
23.83283,893825
23.84097,817069
23.84908,886820
23.85720,1081671
23.86533,1344264
23.87345,1633789
23.88158,1641166
23.88970,1584608
23.89782,1367740
23.90595,1104910
23.91407,881144
23.92218,688115
23.93032,551366
23.93843,445240
23.94657,389205
23.95468,339137
23.96280,308870
23.97093,281063
23.97905,255731
23.98718,237026
23.99530,220687
24.00342,208966
24.01155,197116
24.01967,195912
24.02778,194407
24.03592,195239
24.04403,200223
24.05217,200323
24.06028,200241
24.06840,190816
24.07653,182408
24.08465,162401
24.09278,160109
24.10090,163180
24.10902,154263
24.11715,153216
24.12527,165486
24.13340,169168
24.14152,172851
24.14963,164881
24.15777,155538
24.16588,144169
24.17400,137219
24.18213,131128
24.19025,124144
24.19838,123358
24.20650,115079
24.21462,114634
24.22275,109790
24.23087,110786
24.23900,106786
24.24712,108544
24.25523,103403
24.26337,104279
24.27148,118808
24.27962,137637
24.28773,187092
24.29585,271152
24.30398,370907
24.31210,457530
24.32022,479467
24.32835,431408
24.33647,326193
24.34460,250600
24.35272,188798
24.36083,153586
24.36897,128050
24.37708,111595
24.38522,112490
24.39333,119205
24.40145,130053
24.40958,147233
24.41770,164861
24.42582,174751
24.43395,177784
24.44207,177382
24.45020,153307
24.45832,146860
24.46643,130776
24.47457,126515
24.48268,115280
24.49082,105819
24.49893,96301
24.50705,102086
24.51518,93549
24.52330,87308
24.53143,86671
24.53955,89000
24.54767,89260
24.55580,83838
24.56392,86004
24.57203,82568
24.58017,85920
24.58828,83479
24.59642,79853
24.60453,79024
24.61265,76695
24.62078,78864
24.62890,80478
24.63703,79716
24.64515,81939
24.65327,77097
24.66140,81092
24.66952,82010
24.67763,75318
24.68577,73788
24.69388,68994
24.70202,67436
24.71013,69810
24.71825,72958
24.72638,64394
24.73450,65417
24.74263,62478
24.75075,66849
24.75887,66027
24.76700,66441
24.77512,64779
24.78325,63939
24.79137,65677
24.79948,59502
24.80762,63817
24.81573,59274
24.82385,59515
24.83198,64050
24.84010,58101
24.84823,59778
24.85635,62062
24.86447,63749
24.87260,56839
24.88072,59646
24.88885,61636
24.89697,61260
24.90508,56538
24.91322,56979
24.92133,57904
24.92947,57121
24.93758,53435
24.94570,55116
24.95383,51949
24.96195,56393
24.97007,55350
24.97820,57241
24.98632,55612
24.99445,52000
25.00257,54545
25.01068,54161
25.01882,51900
25.02693,52371
25.03507,52938
25.04318,52179
25.05130,53269
25.05943,52528
25.06755,54417
25.07567,51260
25.08380,54248
25.09192,51691
25.10005,53936
25.10817,60388
25.11628,61302
25.12442,71398
25.13253,72086
25.14067,73695
25.14878,74183
25.15690,67554
25.16503,65801
25.17315,66597
25.18128,60588
25.18940,56624
25.19752,52709
25.20565,56714
25.21377,55077
25.22188,52717
25.23002,52035
25.23813,53478
25.24627,53480
25.25438,56610
25.26250,58570
25.27063,63581
25.27875,62581
25.28688,70280
25.29500,69001
25.30312,75446
25.31125,72069
25.31937,69471
25.32750,64251
25.33562,69740
25.34373,59329
25.35187,57563
25.35998,61089
25.36810,65705
25.37623,65136
25.38435,70052
25.39248,76156
25.40060,73679
25.40872,71106
25.41685,68723
25.42497,64029
25.43310,65262
25.44122,61452
25.44933,60329
25.45747,62381
25.46558,59495
25.47370,61397
25.48183,59931
25.48995,57978
25.49808,55783
25.50620,58769
25.51432,55020
25.52245,53979
25.53057,54008
25.53870,52800
25.54682,51142
25.55493,49606
25.56307,52873
25.57118,52582
25.57932,48861
25.58743,52853
25.59555,52059
25.60368,53115
25.61180,48649
25.61992,47387
25.62805,50119
25.63617,48732
25.64430,46960
25.65242,47544
25.66053,47135
25.66867,46514
25.67678,50711
25.68492,43658
25.69303,44544
25.70115,45324
25.70928,45053
25.71740,45558
25.72552,47658
25.73365,45948
25.74177,46176
25.74990,46768
25.75802,49337
25.76613,45874
25.77427,44387
25.78238,45833
25.79052,48016
25.79863,44177
25.80675,45455
25.81488,44547
25.82300,46049
25.83113,43914
25.83925,43300
25.84737,44637
25.85550,41875
25.86362,45143
25.87173,40597
25.87987,43360
25.88798,42629
25.89612,40796
25.90423,43896
25.91235,44211
25.92048,46133
25.92860,45145
25.93673,48022
25.94485,49739
25.95297,46487
25.96110,44976
25.96922,44093
25.97735,44687
25.98547,40724
25.99358,44029
26.00172,41253
26.00983,44128
26.01795,46102
26.02608,44529
26.03420,41262
26.04233,45091
26.05045,43529
26.05857,42243
26.06670,43268
26.07482,46436
26.08295,45142
26.09107,47774
26.09918,43817
26.10732,50016
26.11543,55662
26.12357,54659
26.13168,58513
26.13980,59600
26.14793,58920
26.15605,60284
26.16417,58273
26.17230,53043
26.18042,52478
26.18855,51974
26.19667,47702
26.20478,45563
26.21292,42459
26.22103,45974
26.22917,44826
26.23728,42366
26.24540,46755
26.25353,45855
26.26165,45275
26.26977,44637
26.27790,44260
26.28602,41381
26.29415,44076
26.30227,45743
26.31038,42786
26.31852,44703
26.32663,43014
26.33477,42117
26.34288,51356
26.35100,43513
26.35913,42599
26.36725,52971
26.37538,50577
26.38350,51687
26.39162,53070
26.39975,50760
26.40787,53011
26.41598,48372
26.42412,50174
26.43223,46936
26.44037,48564
26.44848,46927
26.45660,46994
26.46473,46608
26.47285,46758
26.48098,45147
26.48910,44088
26.49722,45527
26.50535,46736
26.51347,45434
26.52158,45133
26.52972,45819
26.53783,43385
26.54597,46361
26.55408,49619
26.56220,43491
26.57033,45542
26.57845,46732
26.58658,52274
26.59470,48810
26.60282,51046
26.61095,45051
26.61907,46414
26.62720,49412
26.63532,49770
26.64343,52883
26.65157,51001
26.65968,54892
26.66780,55188
26.67593,51063
26.68405,49802
26.69218,47907
26.70030,51701
26.70842,54277
26.71655,49607
26.72467,56656
26.73280,53836
26.74092,53106
26.74903,53318
26.75717,57369
26.76528,59761
26.77342,59978
26.78153,60658
26.78965,51384
26.79778,52788
26.80590,50985
26.81402,52742
26.82215,50395
26.83027,50119
26.83840,53221
26.84652,53834
26.85463,59272
26.86277,58390
26.87088,65262
26.87902,62930
26.88713,67381
26.89525,71762
26.90338,75314
26.91150,86304
26.91962,135175
26.92775,270887
26.93587,636714
26.94400,1542213
26.95212,3337356
26.96023,5984096
26.96837,8826307
26.97648,1.107342E+07
26.98462,1.256156E+07
26.99273,1.272967E+07
27.00085,1.141639E+07
27.00898,1.029946E+07
27.01710,8818332
27.02523,7363776
27.03335,6001585
27.04147,4568810
27.04960,3443902
27.05772,2668439
27.06583,2076124
27.07397,1622587
27.08208,1294684
27.09022,1057515
27.09833,866264
27.10645,751733
27.11458,662758
27.12270,578915
27.13083,521286
27.13895,467127
27.14707,435088
27.15520,415109
27.16332,378604
27.17145,356101
27.17957,332888
27.18768,324404
27.19582,300511
27.20393,280630
27.21205,264733
27.22018,256394
27.22830,252691
27.23643,245561
27.24455,230641
27.25267,219411
27.26080,210043
27.26892,208937
27.27705,204816
27.28517,200552
27.29328,186609
27.30142,180435
27.30953,181678
27.31765,173385
27.32578,173013
27.33390,167096
27.34203,162283
27.35015,156987
27.35827,149538
27.36640,150367
27.37452,143493
27.38265,146165
27.39077,147613
27.39888,144641
27.40702,151275
27.41513,146720
27.42327,147100
27.43138,148999
27.43950,146773
27.44763,149039
27.45575,136491
27.46387,133108
27.47200,131018
27.48012,130448
27.48825,129678
27.49637,125218
27.50448,124235
27.51262,124675
27.52073,129876
27.52887,121838
27.53698,118595
27.54510,110320
27.55323,114935
27.56135,106282
27.56947,111792
27.57760,103514
27.58572,101417
27.59385,101075
27.60197,102145
27.61008,98473
27.61822,96740
27.62633,95998
27.63447,91886
27.64258,93804
27.65070,92024
27.65883,87399
27.66695,85104
27.67508,90281
27.68320,90401
27.69132,86245
27.69945,85332
27.70757,85289
27.71568,90905
27.72382,83556
27.73193,85762
27.74007,84689
27.74818,87831
27.75630,85101
27.76443,84578
27.77255,86463
27.78068,80936
27.78880,82821
27.79692,82562
27.80505,81097
27.81317,82524
27.82130,82728
27.82942,84879
27.83753,84801
27.84567,80551
27.85378,82327
27.86190,78048
27.87003,76165
27.87815,74622
27.88628,70558
27.89440,74773
27.90252,75718
27.91065,73332
27.91877,75209
27.92690,66742
27.93502,70675
27.94313,69894
27.95127,69497
27.95938,66261
27.96750,72911
27.97563,70962
27.98375,72213
27.99188,71206
28.00000,68399
28.00812,71397
28.01625,70913
28.02437,70369
28.03250,66489
28.04062,68276
28.04873,64207
28.05687,67862
28.06498,71865
28.07312,70654
28.08123,79107
28.08935,86071
28.09748,97721
28.10560,109708
28.11372,110807
28.12185,106542
28.12997,96206
28.13810,87305
28.14622,77748
28.15433,74627
28.16247,77253
28.17058,71732
28.17872,71570
28.18683,72389
28.19495,68795
28.20308,69798
28.21120,76901
28.21933,100262
28.22745,148449
28.23557,247129
28.24370,436857
28.25182,761159
28.25993,1211030
28.26807,1848921
28.27618,2688140
28.28432,3534175
28.29243,4228627
28.30055,4710795
28.30868,4955112
28.31680,4872943
28.32493,4573075
28.33305,4482243
28.34117,3945275
28.34930,3435522
28.35742,2958557
28.36553,2556293
28.37367,2165647
28.38178,1785493
28.38992,1543411
28.39803,1296406
28.40615,1121237
28.41428,982657
28.42240,823054
28.43053,707616
28.43865,609882
28.44677,557549
28.45490,481216
28.46302,452140
28.47115,407155
28.47927,364768
28.48738,338461
28.49552,314671
28.50363,299204
28.51175,285355
28.51988,269413
28.52800,253700
28.53613,232686
28.54425,227685
28.55237,227812
28.56050,210272
28.56862,203954
28.57675,201021
28.58487,195276
28.59298,187901
28.60112,182651
28.60923,183961
28.61737,181097
28.62548,173396
28.63360,179896
28.64173,201146
28.64985,214484
28.65797,262626
28.66610,303562
28.67422,359415
28.68235,397429
28.69047,394922
28.69858,333597
28.70672,274080
28.71483,216941
28.72297,186395
28.73108,159447
28.73920,154170
28.74733,137828
28.75545,140230
28.76357,131751
28.77170,131998
28.77982,127900
28.78795,128042
28.79607,123093
28.80418,125414
28.81232,113398
28.82043,116408
28.82857,114114
28.83668,109449
28.84480,105347
28.85293,114408
28.86105,110019
28.86918,108929
28.87730,107156
28.88542,108158
28.89355,106694
28.90167,104381
28.90978,109873
28.91792,100996
28.92603,104528
28.93417,103191
28.94228,104394
28.95040,97407
28.95853,101926
28.96665,104643
28.97478,99756
28.98290,97917
28.99102,97501
28.99915,91820
29.00727,93811
29.01538,90386
29.02352,95703
29.03163,93156
29.03977,93134
29.04788,91462
29.05600,88408
29.06413,87931
29.07225,87613
29.08038,92116
29.08850,84183
29.09662,85253
29.10475,84015
29.11287,84455
29.12100,83429
29.12912,83044
29.13723,80532
29.14537,87201
29.15348,88447
29.16160,80156
29.16973,82700
29.17785,80967
29.18598,82195
29.19410,84859
29.20222,84570
29.21035,83311
29.21847,79561
29.22660,85314
29.23472,84414
29.24283,82165
29.25097,84563
29.25908,84270
29.26722,80017
29.27533,83606
29.28345,80799
29.29158,82106
29.29970,78090
29.30782,79626
29.31595,76235
29.32407,78970
29.33220,80367
29.34032,73225
29.34843,78621
29.35657,83341
29.36468,84326
29.37282,82142
29.38093,87070
29.38905,84144
29.39718,84810
29.40530,82168
29.41342,88027
29.42155,80127
29.42967,75035
29.43780,71915
29.44592,66389
29.45403,70580
29.46217,73741
29.47028,73019
29.47842,78004
29.48653,79201
29.49465,78221
29.50278,79914
29.51090,75855
29.51903,74866
29.52715,74198
29.53527,70882
29.54340,68045
29.55152,68139
29.55963,66954
29.56777,63491
29.57588,68741
29.58402,65574
29.59213,69253
29.60025,64962
29.60838,67608
29.61650,70781
29.62463,73310
29.63275,65925
29.64087,63253
29.64900,63965
29.65712,62070
29.66525,63107
29.67337,62094
29.68148,60731
29.68962,59339
29.69773,59060
29.70585,61491
29.71398,60056
29.72210,55386
29.73023,57467
29.73835,62349
29.74647,63812
29.75460,57605
29.76272,57162
29.77085,58925
29.77897,57647
29.78708,57535
29.79522,58168
29.80333,61077
29.81145,56919
29.81958,57432
29.82770,57959
29.83583,70604
29.84395,87250
29.85207,116225
29.86020,172292
29.86832,258794
29.87645,376314
29.88457,535977
29.89268,711888
29.90082,918289
29.90893,1127127
29.91707,1302827
29.92518,1512167
29.93330,1651980
29.94143,1745153
29.94955,1744710
29.95767,1722524
29.96580,1654149
29.97392,1584955
29.98205,1484264
29.99017,1379020
29.99828,1247235
30.00642,1153648
30.01453,1012118
30.02267,907398
30.03078,814530
30.03890,734303
30.04703,655751
30.05515,605035
30.06327,535658
30.07140,473878
30.07952,415400
30.08765,379823
30.09577,350318
30.10388,311706
30.11202,295154
30.12013,264947
30.12827,242486
30.13638,225573
30.14450,207565
30.15263,198626
30.16075,180980
30.16888,172169
30.17700,167312
30.18512,160295
30.19325,147912
30.20137,141843
30.20948,141582
30.21762,135738
30.22573,129718
30.23387,127030
30.24198,126369
30.25010,132574
30.25823,120690
30.26635,115409
30.27448,115071
30.28260,111653
30.29072,109168
30.29885,111301
30.30697,107234
30.31510,108302
30.32322,103733
30.33133,102202
30.33947,103922
30.34758,101534
30.35570,102239
30.36383,93851
30.37195,95356
30.38008,100769
30.38820,90607
30.39632,91227
30.40445,90042
30.41257,89329
30.42070,87060
30.42882,88185
30.43693,84646
30.44507,84819
30.45318,85833
30.46132,83776
30.46943,81854
30.47755,84251
30.48568,88727
30.49380,78942
30.50192,77547
30.51005,78482
30.51817,82210
30.52630,74359
30.53442,71193
30.54253,76256
30.55067,77289
30.55878,77153
30.56692,83426
30.57503,77894
30.58315,74502
30.59128,73705
30.59940,75975
30.60752,79062
30.61565,73003
30.62377,72276
30.63190,69972
30.64002,71046
30.64813,70189
30.65627,73835
30.66438,68806
30.67252,73720
30.68063,72108
30.68875,71483
30.69688,67324
30.70500,66848
30.71313,71143
30.72125,69285
30.72937,67184
30.73750,72417
30.74562,75407
30.75373,95285
30.76187,139424
30.76998,218622
30.77812,336529
30.78623,443898
30.79435,519433
30.80248,551226
30.81060,494868
30.81873,384383
30.82685,271727
30.83497,191014
30.84310,139203
30.85122,102857
30.85933,88272
30.86747,85646
30.87558,81535
30.88372,75506
30.89183,74340
30.89995,72780
30.90808,73912
30.91620,69483
30.92433,69507
30.93245,71273
30.94057,65211
30.94870,70523
30.95682,66771
30.96495,63465
30.97307,67297
30.98118,67231
30.98932,59819
30.99743,62590
31.00555,58272
31.01368,62760
31.02180,62914
31.02993,63541
31.03805,64503
31.04617,70836
31.05430,71008
31.06242,74297
31.07055,81063
31.07867,87268
31.08678,89226
31.09492,80955
31.10303,83504
31.11117,78734
31.11928,76133
31.12740,75422
31.13553,77191
31.14365,77692
31.15177,83587
31.15990,93081
31.16802,116148
31.17615,149450
31.18427,187892
31.19238,223381
31.20052,253286
31.20863,236734
31.21677,210727
31.22488,165355
31.23300,127136
31.24113,101526
31.24925,83296
31.25737,69694
31.26550,61992
31.27362,65057
31.28175,62303
31.28987,66950
31.29798,76811
31.30612,75973
31.31423,72366
31.32237,74606
31.33048,67123
31.33860,70007
31.34673,64446
31.35485,57160
31.36298,60294
31.37110,59271
31.37922,56016
31.38735,60610
31.39547,58085
31.40358,50017
31.41172,57071
31.41983,55157
31.42797,59077
31.43608,53009
31.44420,51425
31.45233,53750
31.46045,51604
31.46858,54777
31.47670,56206
31.48482,51039
31.49295,51933
31.50107,54682
31.50920,59090
31.51732,52881
31.52543,60145
31.53357,49772
31.54168,59639
31.54980,53729
31.55793,51281
31.56605,54093
31.57418,53921
31.58230,49031
31.59042,51019
31.59855,54773
31.60667,52298
31.61480,55797
31.62292,51674
31.63103,55385
31.63917,54884
31.64728,51874
31.65540,55263
31.66353,56109
31.67165,53334
31.67978,52658
31.68790,49575
31.69602,49786
31.70415,55722
31.71227,54790
31.72040,49347
31.72852,46964
31.73663,51652
31.74477,50726
31.75288,51700
31.76102,54008
31.76913,55905
31.77725,63256
31.78538,69241
31.79350,86550
31.80162,109025
31.80975,146981
31.81787,199093
31.82600,271125
31.83412,362906
31.84223,491304
31.85037,594578
31.85848,653660
31.86662,724766
31.87473,759187
31.88285,782402
31.89098,783655
31.89910,757701
31.90722,717231
31.91535,655889
31.92347,608992
31.93160,532578
31.93972,496573
31.94783,467915
31.95597,437703
31.96408,413428
31.97222,373062
31.98033,330559
31.98845,290253
31.99658,265864
32.00470,228863
32.01283,212923
32.02095,190036
32.02907,179114
32.03720,170350
32.04532,162021
32.05343,153774
32.06157,146043
32.06968,139784
32.07782,135712
32.08593,130235
32.09405,128468
32.10218,121586
32.11030,117550
32.11843,112092
32.12655,113266
32.13467,103624
32.14280,103444
32.15092,99304
32.15905,93224
32.16717,99419
32.17528,93595
32.18342,90726
32.19153,94531
32.19965,94531
32.20778,89710
32.21590,87909
32.22403,87306
32.23215,86204
32.24027,86708
32.24840,87829
32.25652,85165
32.26465,79317
32.27277,79521
32.28088,83310
32.28902,79629
32.29713,75028
32.30525,77294
32.31338,78723
32.32150,78089
32.32963,80834
32.33775,78359
32.34587,79170
32.35400,75455
32.36212,74234
32.37025,75381
32.37837,74119
32.38648,72780
32.39462,80319
32.40273,70466
32.41087,70605
32.41898,69616
32.42710,68307
32.43523,70123
32.44335,68324
32.45147,67534
32.45960,70403
32.46772,71442
32.47585,67995
32.48397,64849
32.49208,62613
32.50022,60715
32.50833,63336
32.51647,59399
32.52458,65986
32.53270,75979
32.54083,99240
32.54895,131582
32.55708,178180
32.56520,207323
32.57332,232729
32.58145,217499
32.58957,179559
32.59768,147384
32.60582,108332
32.61393,93498
32.62207,77010
32.63018,72254
32.63830,70700
32.64643,69618
32.65455,68860
32.66268,66548
32.67080,65459
32.67892,67047
32.68705,67851
32.69517,64565
32.70328,72087
32.71142,65788
32.71953,69897
32.72767,68594
32.73578,67689
32.74390,65464
32.75203,61965
32.76015,63912
32.76828,62863
32.77640,61353
32.78452,63341
32.79265,61908
32.80077,61624
32.80890,61051
32.81702,63318
32.82513,62516
32.83327,62623
32.84138,58688
32.84950,62377
32.85763,56871
32.86575,58434
32.87388,61003
32.88200,60538
32.89012,63622
32.89825,58239
32.90637,59416
32.91450,59742
32.92262,56744
32.93073,55243
32.93887,57993
32.94698,59115
32.95512,52110
32.96323,58126
32.97135,54683
32.97948,59414
32.98760,60810
32.99572,57102
33.00385,60691
33.01197,63230
33.02010,57713
33.02822,54400
33.03633,58795
33.04447,55572
33.05258,56167
33.06072,59469
33.06883,62195
33.07695,70518
33.08508,79850
33.09320,79323
33.10132,87804
33.10945,81980
33.11757,82526
33.12570,69443
33.13382,70883
33.14193,66623
33.15007,62446
33.15818,61786
33.16632,63795
33.17443,62967
33.18255,57711
33.19068,60550
33.19880,56771
33.20693,54689
33.21505,58177
33.22317,59556
33.23130,58753
33.23942,60195
33.24753,58128
33.25567,57086
33.26378,58435
33.27192,58190
33.28003,55118
33.28815,54572
33.29628,55253
33.30440,53630
33.31253,58211
33.32065,56701
33.32877,55240
33.33690,55266
33.34502,49741
33.35313,56834
33.36127,51775
33.36938,53461
33.37752,52288
33.38563,51778
33.39375,48450
33.40188,52485
33.41000,54135
33.41813,55754
33.42625,56320
33.43437,50961
33.44250,58651
33.45062,55257
33.45875,58117
33.46687,55756
33.47498,52821
33.48312,52973
33.49123,56065
33.49935,57651
33.50748,52553
33.51560,52874
33.52373,57200
33.53185,55962
33.53997,54477
33.54810,55067
33.55622,56306
33.56435,57987
33.57247,56755
33.58058,55511
33.58872,55951
33.59683,55177
33.60497,53567
33.61308,54333
33.62120,59837
33.62933,59717
33.63745,54693
33.64557,59965
33.65370,58788
33.66182,58372
33.66995,57135
33.67807,55184
33.68618,62676
33.69432,57557
33.70243,61611
33.71057,59547
33.71868,63192
33.72680,63779
33.73493,61678
33.74305,62305
33.75117,63104
33.75930,61222
33.76742,60500
33.77555,61125
33.78367,58717
33.79178,64185
33.79992,58868
33.80803,60012
33.81617,55756
33.82428,59328
33.83240,61163
33.84053,58972
33.84865,60608
33.85678,57826
33.86490,61580
33.87302,60399
33.88115,57558
33.88927,57615
33.89738,55459
33.90552,55147
33.91363,56138
33.92177,57417
33.92988,56514
33.93800,52472
33.94613,56738
33.95425,55628
33.96238,49724
33.97050,55563
33.97862,54231
33.98675,51504
33.99487,54056
34.00300,55650
34.01112,53290
34.01923,54063
34.02737,49914
34.03548,52043
34.04360,53042
34.05173,51757
34.05985,52440
34.06798,49792
34.07610,51388
34.08422,49496
34.09235,49851
34.10047,52164
34.10860,51122
34.11672,54508
34.12483,53649
34.13297,54213
34.14108,56187
34.14920,52298
34.15733,50152
34.16545,51691
34.17358,49920
34.18170,51283
34.18982,50118
34.19795,53603
34.20607,50034
34.21420,49925
34.22232,51486
34.23043,52976
34.23857,51678
34.24668,52595
34.25482,54298
34.26293,54992
34.27105,53307
34.27918,52979
34.28730,51180
34.29542,55357
34.30355,52923
34.31167,48507
34.31980,48221
34.32792,52062
34.33603,53150
34.34417,54583
34.35228,51790
34.36042,58667
34.36853,55595
34.37665,53514
34.38478,53483
34.39290,60811
34.40102,69753
34.40915,94682
34.41727,132656
34.42540,192387
34.43352,285395
34.44163,392965
34.44977,495083
34.45788,574730
34.46602,591631
34.47413,589258
34.48225,567019
34.49038,503916
34.49850,446622
34.50663,372905
34.51475,316660
34.52287,270830
34.53100,229243
34.53912,206813
34.54723,183601
34.55537,171227
34.56348,155781
34.57162,142017
34.57973,134724
34.58785,132771
34.59598,126293
34.60410,126388
34.61223,112450
34.62035,109904
34.62847,115686
34.63660,107290
34.64472,105386
34.65285,95676
34.66097,95392
34.66908,92567
34.67722,88266
34.68533,87696
34.69345,82210
34.70158,83167
34.70970,85041
34.71783,84426
34.72595,83193
34.73407,81204
34.74220,82182
34.75032,80430
34.75845,81010
34.76657,77776
34.77468,81708
34.78282,73261
34.79093,75853
34.79907,73050
34.80718,73258
34.81530,72161
34.82343,72977
34.83155,77690
34.83967,78106
34.84780,78973
34.85592,68591
34.86405,77949
34.87217,69103
34.88028,70578
34.88842,69258
34.89653,69141
34.90467,69557
34.91278,70423
34.92090,70164
34.92903,69626
34.93715,71586
34.94527,71803
34.95340,70444
34.96152,65133
34.96965,71626
34.97777,69906
34.98588,63720
34.99402,67456
35.00213,68848
35.01027,67864
35.01838,69007
35.02650,71160
35.03463,74375
35.04275,79361
35.05088,79875
35.05900,78136
35.06712,75376
35.07525,69869
35.08337,66011
35.09148,68488
35.09962,64681
35.10773,65401
35.11587,62528
35.12398,68931
35.13210,70068
35.14023,64043
35.14835,63649
35.15648,63382
35.16460,61956
35.17272,60818
35.18085,62456
35.18897,67585
35.19708,64468
35.20522,64302
35.21333,61910
35.22147,64130
35.22958,64580
35.23770,65907
35.24583,66941
35.25395,60920
35.26208,60627
35.27020,61174
35.27832,60514
35.28645,62088
35.29457,61418
35.30270,61280
35.31082,60072
35.31893,63714
35.32707,60479
35.33518,63317
35.34330,60459
35.35143,63517
35.35955,64008
35.36768,59100
35.37580,57090
35.38392,62016
35.39205,61304
35.40017,59457
35.40830,61220
35.41642,68210
35.42453,64094
35.43267,67481
35.44078,67217
35.44892,74790
35.45703,74612
35.46515,68208
35.47328,68918
35.48140,66799
35.48952,66593
35.49765,68680
35.50577,63661
35.51390,70189
35.52202,66060
35.53013,72571
35.53827,80813
35.54638,85392
35.55452,93212
35.56263,99709
35.57075,97649
35.57888,89222
35.58700,86976
35.59512,73656
35.60325,69255
35.61137,65527
35.61950,67172
35.62762,65059
35.63573,65307
35.64387,62538
35.65198,67923
35.66012,57689
35.66823,69053
35.67635,63061
35.68448,63036
35.69260,59454
35.70073,60945
35.70885,63812
35.71697,63718
35.72510,59925
35.73322,58218
35.74133,65703
35.74947,66677
35.75758,64752
35.76572,64355
35.77383,63507
35.78195,64631
35.79008,63379
35.79820,63712
35.80633,67527
35.81445,67118
35.82257,68876
35.83070,68006
35.83882,64212
35.84695,64608
35.85507,62901
35.86318,58169
35.87132,65007
35.87943,60098
35.88755,64133
35.89568,55745
35.90380,60195
35.91193,62127
35.92005,63882
35.92817,59471
35.93630,61501
35.94442,61660
35.95255,64299
35.96067,63488
35.96878,64893
35.97692,68199
35.98503,68840
35.99315,73048
36.00128,75491
36.00940,81075
36.01753,79707
36.02565,73993
36.03377,78329
36.04190,72089
36.05002,76151
36.05815,72176
36.06627,68006
36.07438,64269
36.08252,64511
36.09063,68631
36.09877,61530
36.10688,60572
36.11500,62709
36.12313,64194
36.13125,67736
36.13937,66498
36.14750,64182
36.15562,63067
36.16375,70565
36.17187,73075
36.17998,85297
36.18812,109211
36.19623,143193
36.20437,172023
36.21248,203686
36.22060,198486
36.22873,184112
36.23685,154277
36.24497,126696
36.25310,107429
36.26122,87271
36.26935,80712
36.27747,75926
36.28558,70596
36.29372,68069
36.30183,69088
36.30997,66527
36.31808,67477
36.32620,65487
36.33433,66018
36.34245,64954
36.35058,67272
36.35870,66228
36.36682,62336
36.37495,62536
36.38307,59012
36.39118,62079
36.39932,71820
36.40743,61784
36.41557,66142
36.42368,60273
36.43180,59862
36.43993,62404
36.44805,65740
36.45618,61673
36.46430,62673
36.47242,58004
36.48055,62827
36.48867,61019
36.49680,59145
36.50492,62343
36.51303,64325
36.52117,65350
36.52928,69698
36.53740,75309
36.54553,76516
36.55365,76205
36.56178,71907
36.56990,69120
36.57802,63768
36.58615,64903
36.59427,63212
36.60240,65115
36.61052,68151
36.61863,67899
36.62677,70331
36.63488,66489
36.64300,73337
36.65113,70629
36.65925,74511
36.66738,74034
36.67550,78256
36.68362,80341
36.69175,86683
36.69987,87412
36.70800,88877
36.71612,85751
36.72423,92913
36.73237,86479
36.74048,87891
36.74862,86475
36.75673,86543
36.76485,86708
36.77298,83013
36.78110,76289
36.78922,76428
36.79735,74534
36.80547,73819
36.81360,73665
36.82172,73283
36.82983,68730
36.83797,66591
36.84608,64789
36.85422,63371
36.86233,64492
36.87045,63333
36.87858,60437
36.88670,58322
36.89483,61374
36.90295,59729
36.91107,64973
36.91920,64252
36.92732,64013
36.93543,64811
36.94357,58138
36.95168,61262
36.95982,62281
36.96793,63127
36.97605,68231
36.98418,66509
36.99230,66316
37.00043,69533
37.00855,71633
37.01667,70793
37.02480,73970
37.03292,70592
37.04103,68587
37.04917,68969
37.05728,71346
37.06542,72943
37.07353,71102
37.08165,74485
37.08978,67363
37.09790,67497
37.10603,67562
37.11415,67264
37.12227,64508
37.13040,60404
37.13852,66876
37.14665,66674
37.15477,64738
37.16288,62495
37.17102,68496
37.17913,67468
37.18725,64454
37.19538,74817
37.20350,86297
37.21163,102194
37.21975,157277
37.22787,230881
37.23600,304235
37.24412,374783
37.25225,432931
37.26037,446687
37.26848,434786
37.27662,387036
37.28473,340268
37.29285,283149
37.30098,258287
37.30910,213183
37.31723,191530
37.32535,171093
37.33347,164450
37.34160,155284
37.34972,147311
37.35785,137716
37.36597,130711
37.37408,123630
37.38222,123581
37.39033,120124
37.39847,113742
37.40658,105961
37.41470,107090
37.42283,106245
37.43095,100784
37.43907,99392
37.44720,100925
37.45532,95808
37.46345,96394
37.47157,96045
37.47968,95626
37.48782,92272
