D:\MassHunter\GCMS\1\data\JTB-E02\BACandSTRAW\JTB-E02-208-19.D Thu Mar 14 08:07:52 2019
Start of data points
2.09542,90034
2.10355,103392
2.11167,121317
2.11978,115024
2.12792,115984
2.13603,121152
2.14417,140615
2.15228,126525
2.16040,124447
2.16853,123918
2.17665,120154
2.18478,113454
2.19290,109377
2.20102,113191
2.20915,101098
2.21727,96313
2.22540,87911
2.23352,90005
2.24163,86460
2.24977,84889
2.25788,79515
2.26600,77690
2.27413,76794
2.28225,73324
2.29038,72072
2.29850,70895
2.30662,72430
2.31475,62645
2.32287,67563
2.33100,64641
2.33912,58966
2.34723,63212
2.35537,66010
2.36348,64283
2.37162,61485
2.37973,75016
2.38785,61444
2.39598,114340
2.40410,1347288
2.41222,6458594
2.42035,6576378
2.42847,2802739
2.43660,1413610
2.44472,1018730
2.45283,850814
2.46097,748518
2.46908,663783
2.47722,600649
2.48533,524183
2.49345,481475
2.50158,426231
2.50970,406058
2.51782,391939
2.52595,371856
2.53407,362748
2.54220,351661
2.55032,353137
2.55843,338837
2.56657,426182
2.57468,353648
2.58282,313983
2.59093,316812
2.59905,299733
2.60718,285598
2.61530,265627
2.62343,257197
2.63155,256013
2.63967,254379
2.64780,242276
2.65592,237545
2.66403,236576
2.67217,228374
2.68028,231633
2.68842,237624
2.69653,222582
2.70465,229991
2.71278,235490
2.72090,227414
2.72903,215121
2.73715,204901
2.74527,202803
2.75340,194638
2.76152,211385
2.76965,233436
2.77777,230244
2.78588,206129
2.79402,204128
2.80213,199116
2.81025,198450
2.81838,188555
2.82650,179446
2.83463,175273
2.84275,174257
2.85087,180831
2.85900,177722
2.86712,172870
2.87525,172116
2.88337,170787
2.89148,160693
2.89962,169225
2.90773,164449
2.91587,161893
2.92398,152845
2.93210,159442
2.94023,157081
2.94835,155249
2.95647,156268
2.96460,154315
2.97272,152910
2.98085,147264
2.98897,158581
2.99708,151179
3.00522,147663
3.01333,149349
3.02147,146422
3.02958,150909
3.03770,149531
3.04583,152481
3.05395,144912
3.06207,148676
3.07020,145020
3.07832,143722
3.08645,146477
3.09457,145313
3.10268,138954
3.11082,137239
3.11893,136307
3.12707,137806
3.13518,147348
3.14330,148365
3.15143,140125
3.15955,137222
3.16768,143598
3.17580,147990
3.18392,142984
3.19205,136618
3.20017,134690
3.20828,138132
3.21642,136950
3.22453,138279
3.23267,136576
3.24078,134818
3.24890,135180
3.25703,133706
3.26515,130571
3.27328,129928
3.28140,136319
3.28952,157920
3.29765,175066
3.30577,162564
3.31390,143978
3.32202,149238
3.33013,138987
3.33827,136872
3.34638,129560
3.35450,133349
3.36263,132626
3.37075,134424
3.37888,133248
3.38700,129291
3.39512,129301
3.40325,123852
3.41137,131249
3.41950,128127
3.42762,127076
3.43573,120969
3.44387,126910
3.45198,125385
3.46010,215403
3.46823,963689
3.47635,3805337
3.48448,7840305
3.49260,8944956
3.50072,7025809
3.50885,5187803
3.51697,4036698
3.52510,3237540
3.53322,2683722
3.54133,2271521
3.54947,1958303
3.55758,1728522
3.56572,1532054
3.57383,1369173
3.58195,1242816
3.59008,1136362
3.59820,1039838
3.60632,980902
3.61445,906098
3.62257,853231
3.63070,799585
3.63882,773323
3.64693,722555
3.65507,672211
3.66318,654750
3.67132,625295
3.67943,617256
3.68755,575214
3.69568,561526
3.70380,544970
3.71193,518199
3.72005,505882
3.72817,501321
3.73630,481966
3.74442,470878
3.75253,448917
3.76067,440973
3.76878,431565
3.77692,427150
3.78503,405713
3.79315,410332
3.80128,396673
3.80940,395900
3.81753,388075
3.82565,381584
3.83377,367971
3.84190,353101
3.85002,345266
3.85815,351634
3.86627,329643
3.87438,329366
3.88252,327438
3.89063,323831
3.89875,314070
3.90688,312564
3.91500,317495
3.92313,300014
3.93125,297896
3.93937,293062
3.94750,286630
3.95562,283871
3.96375,275006
3.97187,275418
3.97998,272951
3.98812,271755
3.99623,276513
4.00435,263580
4.01248,259279
4.02060,261860
4.02873,268655
4.03685,268425
4.04497,264313
4.05310,255937
4.06122,253844
4.06935,253365
4.07747,246868
4.08558,253486
4.09372,240845
4.10183,237757
4.10997,235623
4.11808,239321
4.12620,234458
4.13433,225833
4.14245,225713
4.15057,229312
4.15870,225999
4.16682,225156
4.17495,230784
4.18307,210103
4.19118,219722
4.19932,221041
4.20743,208924
4.21557,209217
4.22368,205248
4.23180,213349
4.23993,207739
4.24805,204423
4.25618,200741
4.26430,203744
4.27242,203794
4.28055,208750
4.28867,200832
4.29678,202831
4.30492,196782
4.31303,190777
4.32117,197160
4.32928,193216
4.33740,191476
4.34553,195541
4.35365,194283
4.36178,209592
4.36990,214273
4.37802,217873
4.38615,240752
4.39427,265488
4.40238,246271
4.41052,220113
4.41863,212887
4.42677,195130
4.43488,197626
4.44300,187820
4.45113,187452
4.45925,185510
4.46738,183458
4.47550,198092
4.48362,201655
4.49175,197745
4.49987,185037
4.50800,189773
4.51612,183951
4.52423,182853
4.53237,171352
4.54048,179726
4.54860,183335
4.55673,188751
4.56485,202230
4.57298,202320
4.58110,192968
4.58922,191985
4.59735,185686
4.60547,184260
4.61360,185130
4.62172,183683
4.62983,177902
4.63797,174640
4.64608,173730
4.65422,175664
4.66233,174470
4.67045,168271
4.67858,173717
4.68670,172055
4.69482,176465
4.70295,171069
4.71107,169724
4.71920,166076
4.72732,171033
4.73543,167968
4.74357,158316
4.75168,165531
4.75982,165457
4.76793,169037
4.77605,156515
4.78418,164699
4.79230,162489
4.80043,162672
4.80855,167682
4.81667,163239
4.82480,165506
4.83292,161996
4.84103,156928
4.84917,158167
4.85728,159024
4.86542,153980
4.87353,157743
4.88165,155550
4.88978,152069
4.89790,155891
4.90603,154341
4.91415,152843
4.92227,158932
4.93040,149108
4.93852,149147
4.94663,153821
4.95477,154411
4.96288,146397
4.97102,154864
4.97913,149092
4.98725,149021
4.99538,152635
5.00350,150926
5.01163,149582
5.01975,145092
5.02787,143677
5.03600,149089
5.04412,141400
5.05225,146708
5.06037,142106
5.06848,146183
5.07662,150768
5.08473,156045
5.09285,148292
5.10098,146955
5.10910,148857
5.11723,145376
5.12535,152633
5.13347,165048
5.14160,214599
5.14972,496046
5.15785,1228131
5.16597,2330897
5.17408,3107454
5.18222,3094519
5.19033,2538583
5.19847,1929971
5.20658,1518401
5.21470,1257516
5.22283,1079256
5.23095,928937
5.23907,861648
5.24720,782032
5.25532,708506
5.26345,663682
5.27157,631961
5.27968,587974
5.28782,568125
5.29593,526192
5.30407,504206
5.31218,479909
5.32030,470879
5.32843,445475
5.33655,441960
5.34467,426739
5.35280,408113
5.36092,400717
5.36905,382349
5.37717,378159
5.38528,368714
5.39342,354826
5.40153,333108
5.40967,314158
5.41778,314091
5.42590,310602
5.43403,305940
5.44215,299126
5.45028,287328
5.45840,285948
5.46652,288012
5.47465,276241
5.48277,295258
5.49088,283471
5.49902,293929
5.50713,283067
5.51527,287295
5.52338,275941
5.53150,267526
5.53963,255835
5.54775,260400
5.55588,237259
5.56400,237640
5.57212,233199
5.58025,232218
5.58837,233727
5.59650,230015
5.60462,240382
5.61273,221088
5.62087,220518
5.62898,217523
5.63710,221733
5.64523,224294
5.65335,205409
5.66148,204362
5.66960,219420
5.67772,213484
5.68585,199547
5.69397,220597
5.70210,205094
5.71022,212531
5.71833,200265
5.72647,211071
5.73458,201001
5.74270,199982
5.75083,195594
5.75895,195645
5.76708,200765
5.77520,190764
5.78332,186023
5.79145,186577
5.79957,190122
5.80770,187540
5.81582,185656
5.82393,185317
5.83207,190028
5.84018,189632
5.84832,185181
5.85643,186251
5.86455,185854
5.87268,183413
5.88080,180540
5.88892,183434
5.89705,185877
5.90517,191545
5.91330,191875
5.92142,179183
5.92953,187538
5.93767,174960
5.94578,172045
5.95392,184727
5.96203,204262
5.97015,255003
5.97828,299646
5.98640,309818
5.99453,269588
6.00265,233455
6.01077,199749
6.01890,193229
6.02702,183503
6.03513,175819
6.04327,174557
6.05138,169714
6.05952,170825
6.06763,153111
6.07575,147291
6.08388,132859
6.09200,129907
6.10013,129914
6.10825,125759
6.11637,123011
6.12450,124326
6.13262,125482
6.14075,120287
6.14887,122260
6.15698,119166
6.16512,123152
6.17323,118296
6.18135,118722
6.18948,114239
6.19760,119897
6.20573,124786
6.21385,120687
6.22197,132195
6.23010,123656
6.23822,120549
6.24635,130571
6.25447,117432
6.26258,140985
6.27072,142262
6.27883,139323
6.28695,130752
6.29508,126785
6.30320,123788
6.31133,119418
6.31945,118858
6.32757,113300
6.33570,125938
6.34382,125421
6.35195,114733
6.36007,112808
6.36818,120221
6.37632,123786
6.38443,113053
6.39257,111044
6.40068,112457
6.40880,117487
6.41693,120779
6.42505,108898
6.43317,109957
6.44130,116607
6.44942,114654
6.45755,108875
6.46567,121560
6.47378,114269
6.48192,120271
6.49003,120610
6.49817,116756
6.50628,131590
6.51440,123418
6.52253,130931
6.53065,122968
6.53878,123190
6.54690,133089
6.55502,126404
6.56315,137685
6.57127,142912
6.57938,134028
6.58752,136411
6.59563,137752
6.60377,140499
6.61188,141078
6.62000,144861
6.62813,148542
6.63625,152527
6.64438,158811
6.65250,151301
6.66062,156101
6.66875,170334
6.67687,160380
6.68498,166448
6.69312,178977
6.70123,181780
6.70937,184667
6.71748,181337
6.72560,183646
6.73373,184051
6.74185,184248
6.74998,192419
6.75810,182037
6.76622,183988
6.77435,194994
6.78247,193491
6.79060,197546
6.79872,200385
6.80683,201216
6.81497,192430
6.82308,207886
6.83120,207792
6.83933,201538
6.84745,208676
6.85558,208834
6.86370,210177
6.87182,184641
6.87995,168236
6.88807,166807
6.89620,156272
6.90432,144086
6.91243,144159
6.92057,141648
6.92868,147156
6.93682,139356
6.94493,142702
6.95305,139904
6.96118,130635
6.96930,128272
6.97742,131242
6.98555,132105
6.99367,124053
7.00180,127539
7.00992,128465
7.01803,122280
7.02617,129599
7.03428,122495
7.04242,113536
7.05053,111428
7.05865,93736
7.06678,87528
7.07490,88562
7.08302,95223
7.09115,86795
7.09927,88240
7.10740,92459
7.11552,78652
7.12363,79998
7.13177,88530
7.13988,80344
7.14802,83474
7.15613,82456
7.16425,81727
7.17238,82148
7.18050,87371
7.18863,89752
7.19675,108025
7.20487,87743
7.21300,85859
7.22112,84060
7.22923,78994
7.23737,79442
7.24548,82501
7.25362,80569
7.26173,78418
7.26985,77951
7.27798,73299
7.28610,78371
7.29423,76770
7.30235,76081
7.31047,78494
7.31860,69146
7.32672,67666
7.33485,66339
7.34297,67249
7.35108,71580
7.35922,65107
7.36733,70279
7.37545,69600
7.38358,68763
7.39170,67877
7.39983,70465
7.40795,73635
7.41607,69137
7.42420,73499
7.43232,73260
7.44045,70526
7.44857,66948
7.45668,68490
7.46482,64932
7.47293,69969
7.48107,66362
7.48918,67628
7.49730,69421
7.50543,65110
7.51355,66040
7.52167,73864
7.52980,67699
7.53792,64794
7.54605,75690
7.55417,66232
7.56228,64242
7.57042,65258
7.57853,64854
7.58667,63651
7.59478,71716
7.60290,66256
7.61103,60279
7.61915,62043
7.62727,61224
7.63540,69497
7.64352,66261
7.65165,63133
7.65977,62946
7.66788,61888
7.67602,64735
7.68413,64344
7.69227,60538
7.70038,63325
7.70850,62678
7.71663,65360
7.72475,65873
7.73288,65960
7.74100,67175
7.74912,63393
7.75725,61534
7.76537,66684
7.77348,69188
7.78162,69685
7.78973,73994
7.79787,65603
7.80598,63494
7.81410,65691
7.82223,67487
7.83035,63611
7.83848,65437
7.84660,64630
7.85472,62451
7.86285,65847
7.87097,62020
7.87910,63615
7.88722,66863
7.89533,60892
7.90347,58795
7.91158,63353
7.91970,60358
7.92783,58729
7.93595,64365
7.94408,62822
7.95220,60259
7.96032,65159
7.96845,59246
7.97657,58591
7.98470,62170
7.99282,59033
8.00093,56507
8.00907,61934
8.01718,56772
8.02530,61834
8.03343,64586
8.04155,60373
8.04968,58768
8.05780,58885
8.06592,55164
8.07405,58088
8.08217,57521
8.09030,59237
8.09842,54363
8.10653,58685
8.11467,54048
8.12278,51709
8.13092,57802
8.13903,53833
8.14715,63710
8.15528,51715
8.16340,51646
8.17152,63792
8.17965,57192
8.18777,49656
8.19590,58275
8.20402,51329
8.21213,48143
8.22027,51681
8.22838,53896
8.23652,55913
8.24463,50996
8.25275,52296
8.26088,49687
8.26900,51397
8.27713,50463
8.28525,54518
8.29337,55075
8.30150,56564
8.30962,59538
8.31773,56309
8.32587,56429
8.33398,58208
8.34212,50890
8.35023,55640
8.35835,58817
8.36648,59540
8.37460,60427
8.38273,59533
8.39085,54544
8.39897,57375
8.40710,55105
8.41522,54547
8.42333,58340
8.43147,58494
8.43958,55015
8.44772,55185
8.45583,55723
8.46395,51300
8.47208,56085
8.48020,59719
8.48833,56502
8.49645,56563
8.50457,58255
8.51270,61668
8.52082,58221
8.52895,57253
8.53707,56750
8.54518,55907
8.55332,52992
8.56143,59228
8.56955,53906
8.57768,55782
8.58580,52791
8.59393,55783
8.60205,53394
8.61017,53055
8.61830,54356
8.62642,58498
8.63455,54601
8.64267,54823
8.65078,56685
8.65892,54903
8.66703,55211
8.67517,57225
8.68328,57749
8.69140,59444
8.69953,59972
8.70765,63074
8.71577,57001
8.72390,54834
8.73202,63232
8.74015,50526
8.74827,51681
8.75638,51486
8.76452,55463
8.77263,59199
8.78077,54484
8.78888,65814
8.79700,60829
8.80513,56825
8.81325,55636
8.82138,54077
8.82950,63525
8.83762,59856
8.84575,59772
8.85387,62195
8.86198,50759
8.87012,54586
8.87823,60687
8.88637,71264
8.89448,74242
8.90260,66215
8.91073,72218
8.91885,67041
8.92698,57092
8.93510,56676
8.94322,57670
8.95135,66154
8.95947,54154
8.96758,54947
8.97572,60189
8.98383,57055
8.99197,59656
9.00008,57796
9.00820,69829
9.01633,100458
9.02445,175300
9.03258,344010
9.04070,584888
9.04882,751757
9.05695,780949
9.06507,650259
9.07320,514867
9.08132,424346
9.08943,368557
9.09757,339894
9.10568,298100
9.11380,271507
9.12193,255091
9.13005,236423
9.13818,214932
9.14630,210695
9.15442,199688
9.16255,189376
9.17067,176970
9.17880,165896
9.18692,162627
9.19503,158015
9.20317,150326
9.21128,151186
9.21942,145220
9.22753,141255
9.23565,141620
9.24378,130213
9.25190,141349
9.26002,129852
9.26815,122426
9.27627,126232
9.28440,122580
9.29252,116959
9.30063,119572
9.30877,121580
9.31688,124494
9.32502,108230
9.33313,111717
9.34125,107368
9.34938,110900
9.35750,105700
9.36562,112130
9.37375,109092
9.38187,104354
9.39000,104154
9.39812,108046
9.40623,98200
9.41437,93588
9.42248,94496
9.43062,96992
9.43873,88370
9.44685,91341
9.45498,98124
9.46310,97855
9.47123,98780
9.47935,96631
9.48747,93284
9.49560,90888
9.50372,93105
9.51183,95390
9.51997,92761
9.52808,92919
9.53622,86233
9.54433,92164
9.55245,93488
9.56058,90356
9.56870,86057
9.57683,84603
9.58495,84115
9.59307,84228
9.60120,84864
9.60932,85152
9.61745,91329
9.62557,88864
9.63368,85379
9.64182,77737
9.64993,79582
9.65805,79819
9.66618,78823
9.67430,75808
9.68243,79166
9.69055,71304
9.69867,70468
9.70680,77253
9.71492,75070
9.72305,74983
9.73117,70118
9.73928,71356
9.74742,68265
9.75553,71824
9.76365,71041
9.77178,75870
9.77990,70805
9.78803,62154
9.79615,65940
9.80427,60222
9.81240,51543
9.82052,51298
9.82865,52511
9.83677,51530
9.84488,53144
9.85302,51446
9.86113,46042
9.86927,54737
9.87738,50623
9.88550,49673
9.89363,45921
9.90175,50219
9.90987,50978
9.91800,49043
9.92612,47762
9.93425,54671
9.94237,51535
9.95048,53864
9.95862,50656
9.96673,62087
9.97487,60523
9.98298,48688
9.99110,47156
9.99923,45257
10.00735,47456
10.01548,57657
10.02360,63082
10.03172,65455
10.03985,75836
10.04797,78100
10.05608,76345
10.06422,87742
10.07233,90470
10.08047,102595
10.08858,101858
10.09670,103834
10.10483,107212
10.11295,106259
10.12108,106916
10.12920,107754
10.13732,103754
10.14545,106971
10.15357,98232
10.16170,106195
10.16982,105057
10.17793,103933
10.18607,107877
10.19418,104690
10.20230,119234
10.21043,126737
10.21855,131744
10.22668,125202
10.23480,112403
10.24292,109912
10.25105,107523
10.25917,112086
10.26730,117647
10.27542,137846
10.28353,141672
10.29167,140615
10.29978,140186
10.30790,140241
10.31603,130921
10.32415,123157
10.33228,126700
10.34040,120254
10.34852,123123
10.35665,119925
10.36477,118612
10.37290,105045
10.38102,107906
10.38913,103175
10.39727,101271
10.40538,98572
10.41352,99396
10.42163,104134
10.42975,100111
10.43788,100999
10.44600,103288
10.45412,93570
10.46225,95171
10.47037,97761
10.47850,97979
10.48662,90651
10.49473,92352
10.50287,91904
10.51098,89691
10.51912,90694
10.52723,88248
10.53535,85047
10.54348,84344
10.55160,95942
10.55973,95451
10.56785,98352
10.57597,108793
10.58410,114432
10.59222,107040
10.60033,103104
10.60847,88009
10.61658,90675
10.62472,86560
10.63283,86676
10.64095,86015
10.64908,84966
10.65720,88816
10.66533,81977
10.67345,85253
10.68157,86967
10.68970,81525
10.69782,82434
10.70593,81006
10.71407,79945
10.72218,76974
10.73032,80185
10.73843,84192
10.74655,78103
10.75468,74388
10.76280,76887
10.77093,73842
10.77905,75979
10.78717,75110
10.79530,76740
10.80342,86861
10.81155,85542
10.81967,72263
10.82778,84693
10.83592,74092
10.84403,74155
10.85215,78271
10.86028,73344
10.86840,77420
10.87653,77026
10.88465,75291
10.89277,74265
10.90090,70017
10.90902,71937
10.91715,80558
10.92527,73031
10.93338,77719
10.94152,70048
10.94963,72272
10.95777,74582
10.96588,68638
10.97400,65282
10.98213,65917
10.99025,53280
10.99837,49712
11.00650,46176
11.01462,43620
11.02275,45868
11.03087,45349
11.03898,44443
11.04712,42103
11.05523,43920
11.06337,40276
11.07148,45002
11.07960,44042
11.08773,43801
11.09585,44331
11.10397,42992
11.11210,47626
11.12022,48698
11.12835,50110
11.13647,51234
11.14458,46578
11.15272,44507
11.16083,44716
11.16897,45576
11.17708,45359
11.18520,42856
11.19333,46504
11.20145,46980
11.20958,49590
11.21770,44479
11.22582,44526
11.23395,46079
11.24207,43397
11.25018,45687
11.25832,46067
11.26643,49922
11.27457,46889
11.28268,46384
11.29080,51039
11.29893,40352
11.30705,38723
11.31518,43362
11.32330,49375
11.33142,38810
11.33955,41941
11.34767,43270
11.35580,40128
11.36392,42819
11.37203,40864
11.38017,42667
11.38828,37841
11.39640,39649
11.40453,40907
11.41265,43400
11.42078,40309
11.42890,48110
11.43702,42707
11.44515,52802
11.45327,57420
11.46140,70729
11.46952,82219
11.47763,86618
11.48577,82878
11.49388,92643
11.50202,78747
11.51013,71844
11.51825,68817
11.52638,64320
11.53450,56238
11.54262,56372
11.55075,58342
11.55887,54269
11.56700,54871
11.57512,52644
11.58323,54685
11.59137,51205
11.59948,50079
11.60762,52941
11.61573,53414
11.62385,55022
11.63198,53592
11.64010,50499
11.64822,53223
11.65635,52648
11.66447,53848
11.67260,49761
11.68072,57230
11.68883,53379
11.69697,51417
11.70508,50887
11.71322,45934
11.72133,48315
11.72945,47575
11.73758,46648
11.74570,48914
11.75383,54550
11.76195,46675
11.77007,48337
11.77820,47472
11.78632,42811
11.79443,42944
11.80257,47391
11.81068,48012
11.81882,48730
11.82693,47575
11.83505,43836
11.84318,46664
11.85130,50341
11.85943,56741
11.86755,47101
11.87567,43941
11.88380,49382
11.89192,44675
11.90005,55682
11.90817,45322
11.91628,52591
11.92442,53184
11.93253,45088
11.94065,45149
11.94878,45339
11.95690,44018
11.96503,43874
11.97315,44464
11.98127,43953
11.98940,43662
11.99752,43503
12.00565,45467
12.01377,43936
12.02188,49559
12.03002,50126
12.03813,49817
12.04625,55374
12.05438,51400
12.06250,49211
12.07063,44997
12.07875,46429
12.08687,48726
12.09500,44533
12.10312,56711
12.11125,51736
12.11937,51714
12.12748,49757
12.13562,54663
12.14373,47771
12.15187,46879
12.15998,45403
12.16810,45961
12.17623,43775
12.18435,42842
12.19247,41368
12.20060,42752
12.20872,38908
12.21685,38051
12.22497,44973
12.23308,44735
12.24122,37114
12.24933,44728
12.25747,39575
12.26558,44967
12.27370,37208
12.28183,41142
12.28995,40098
12.29808,40710
12.30620,40619
12.31432,40846
12.32245,40583
12.33057,39339
12.33868,36610
12.34682,40403
12.35493,39446
12.36307,39052
12.37118,35330
12.37930,33316
12.38743,33691
12.39555,40759
12.40368,35984
12.41180,33504
12.41992,37158
12.42805,34786
12.43617,36072
12.44428,37200
12.45242,38185
12.46053,36925
12.46867,36958
12.47678,36335
12.48490,36213
12.49303,35077
12.50115,36802
12.50928,37807
12.51740,38400
12.52552,33615
12.53365,38164
12.54177,36622
12.54990,37198
12.55802,38802
12.56613,37240
12.57427,39272
12.58238,37312
12.59050,35202
12.59863,35452
12.60675,41272
12.61488,36403
12.62300,34049
12.63112,39853
12.63925,38063
12.64737,40386
12.65550,37539
12.66362,37385
12.67173,39797
12.67987,36844
12.68798,42014
12.69612,42333
12.70423,38707
12.71235,40497
12.72048,38609
12.72860,39856
12.73672,38099
12.74485,40024
12.75297,43541
12.76110,45685
12.76922,39328
12.77733,41871
12.78547,41483
12.79358,43866
12.80172,44240
12.80983,40235
12.81795,38216
12.82608,41162
12.83420,44427
12.84233,37955
12.85045,38961
12.85857,42673
12.86670,41115
12.87482,39037
12.88293,38917
12.89107,41147
12.89918,36663
12.90732,35334
12.91543,36994
12.92355,40914
12.93168,36140
12.93980,36978
12.94793,39884
12.95605,40042
12.96417,37592
12.97230,39059
12.98042,39250
12.98853,36170
12.99667,44228
13.00478,45019
13.01292,38484
13.02103,38246
13.02915,39211
13.03728,36057
13.04540,40178
13.05353,33073
13.06165,39168
13.06977,36004
13.07790,35296
13.08602,37643
13.09415,34871
13.10227,37201
13.11038,36410
13.11852,40522
13.12663,43884
13.13475,55830
13.14288,53231
13.15100,49929
13.15913,46749
13.16725,43343
13.17537,42587
13.18350,43682
13.19162,38139
13.19975,48180
13.20787,41944
13.21598,37582
13.22412,36522
13.23223,34196
13.24037,43177
13.24848,34951
13.25660,35049
13.26473,31239
13.27285,30342
13.28097,36013
13.28910,36282
13.29722,31500
13.30535,33632
13.31347,32383
13.32158,31851
13.32972,32445
13.33783,32595
13.34597,33325
13.35408,36380
13.36220,33852
13.37033,40307
13.37845,31886
13.38657,31636
13.39470,32427
13.40282,34781
13.41095,32269
13.41907,33729
13.42718,34885
13.43532,35824
13.44343,38474
13.45157,49144
13.45968,44637
13.46780,50367
13.47593,49172
13.48405,45812
13.49218,43111
13.50030,41331
13.50842,37089
13.51655,37752
13.52467,36685
13.53278,33233
13.54092,44130
13.54903,36428
13.55717,33705
13.56528,32101
13.57340,42573
13.58153,33474
13.58965,35356
13.59778,31275
13.60590,31284
13.61402,30548
13.62215,33206
13.63027,41349
13.63840,37564
13.64652,34087
13.65463,33986
13.66277,35471
13.67088,32909
13.67900,33276
13.68713,32940
13.69525,31113
13.70338,30884
13.71150,33638
13.71962,33876
13.72775,28465
13.73587,31893
13.74400,28856
13.75212,31653
13.76023,31011
13.76837,31442
13.77648,30623
13.78460,29770
13.79273,33846
13.80085,28844
13.80898,32394
13.81710,30937
13.82522,28376
13.83335,28750
13.84147,38137
13.84960,30327
13.85772,29501
13.86583,31837
13.87397,29411
13.88208,34088
13.89022,28262
13.89833,29474
13.90645,27966
13.91458,31970
13.92270,30347
13.93082,28609
13.93895,34608
13.94707,28253
13.95520,31057
13.96332,29559
13.97143,31233
13.97957,27927
13.98768,28537
13.99582,30826
14.00393,36810
14.01205,30082
14.02018,29912
14.02830,28764
14.03643,28660
14.04455,28432
14.05267,33564
14.06080,30807
14.06892,31583
14.07703,37575
14.08517,30000
14.09328,31986
14.10142,31693
14.10953,27818
14.11765,28306
14.12578,32101
14.13390,30623
14.14203,30970
14.15015,31116
14.15827,28757
14.16640,29084
14.17452,29620
14.18265,30095
14.19077,37183
14.19888,39450
14.20702,40018
14.21513,41803
14.22325,35273
14.23138,34904
14.23950,34154
14.24763,34388
14.25575,36354
14.26387,32738
14.27200,37962
14.28012,32114
14.28825,32944
14.29637,36539
14.30448,36801
14.31262,32151
14.32073,34670
14.32885,38277
14.33698,40675
14.34510,37349
14.35323,39170
14.36135,36174
14.36947,39646
14.37760,30956
14.38572,32143
14.39385,30705
14.40197,31009
14.41008,27153
14.41822,33609
14.42633,32454
14.43447,38847
14.44258,36404
14.45070,49594
14.45883,56253
14.46695,96640
14.47507,138761
14.48320,199760
14.49132,249956
14.49945,245288
14.50757,221860
14.51568,176947
14.52382,142103
14.53193,126223
14.54007,114962
14.54818,105771
14.55630,106590
14.56443,96601
14.57255,95113
14.58068,95318
14.58880,86936
14.59692,76165
14.60505,71030
14.61317,70170
14.62128,60126
14.62942,56325
14.63753,58183
14.64567,47873
14.65378,45325
14.66190,43778
14.67003,46055
14.67815,45248
14.68628,46293
14.69440,35517
14.70252,38634
14.71065,38325
14.71877,33650
14.72688,31365
14.73502,42233
14.74313,32482
14.75127,39823
14.75938,32192
14.76750,30426
14.77563,37820
14.78375,38871
14.79188,31783
14.80000,32431
14.80812,35020
14.81625,34919
14.82437,33412
14.83250,41747
14.84062,30807
14.84873,30703
14.85687,31357
14.86498,40936
14.87310,38496
14.88123,34604
14.88935,33157
14.89748,29798
14.90560,38368
14.91372,29517
14.92185,31832
14.92997,34182
14.93810,30959
14.94622,37092
14.95433,35292
14.96247,33296
14.97058,34720
14.97872,33207
14.98683,35168
14.99495,35197
15.00308,31619
15.01120,39068
15.01932,34853
15.02745,31625
15.03557,28880
15.04370,30265
15.05182,37242
15.05993,34738
15.06807,27151
15.07618,27780
15.08432,26542
15.09243,29811
15.10055,30189
15.10868,29411
15.11680,29914
15.12492,27218
15.13305,28494
15.14117,27202
15.14930,26615
15.15742,28725
15.16553,31667
15.17367,35217
15.18178,36173
15.18992,29655
15.19803,29754
15.20615,26246
15.21428,36519
15.22240,32251
15.23053,28590
15.23865,29344
15.24677,37460
15.25490,35479
15.26302,29584
15.27113,31736
15.27927,39101
15.28738,33437
15.29552,34380
15.30363,33994
15.31175,31973
15.31988,33999
15.32800,40168
15.33613,39793
15.34425,33121
15.35237,32413
15.36050,37387
15.36862,35334
15.37675,34070
15.38487,28551
15.39298,32078
15.40112,30306
15.40923,30748
15.41735,34101
15.42548,40403
15.43360,31659
15.44173,34155
15.44985,34205
15.45797,35763
15.46610,42427
15.47422,36362
15.48235,36166
15.49047,37352
15.49858,36306
15.50672,36084
15.51483,40277
15.52297,31627
15.53108,39326
15.53920,29827
15.54733,32349
15.55545,31552
15.56357,32907
15.57170,32874
15.57982,31301
15.58795,31398
15.59607,31172
15.60418,36484
15.61232,31292
15.62043,31156
15.62857,30760
15.63668,34770
15.64480,38224
15.65293,34631
15.66105,36018
15.66917,27441
15.67730,30807
15.68542,28906
15.69355,25907
15.70167,30090
15.70978,29019
15.71792,28960
15.72603,31326
15.73417,28226
15.74228,32820
15.75040,28137
15.75853,30212
15.76665,25220
15.77478,36417
15.78290,31489
15.79102,31176
15.79915,33819
15.80727,31715
15.81538,34517
15.82352,29615
15.83163,27719
15.83977,25909
15.84788,27687
15.85600,30125
15.86413,35417
15.87225,29542
15.88038,28857
15.88850,26211
15.89662,28974
15.90475,29979
15.91287,29811
15.92100,28732
15.92912,29134
15.93723,26552
15.94537,27759
15.95348,35544
15.96160,28511
15.96973,28316
15.97785,27007
15.98598,28780
15.99410,28004
16.00222,29220
16.01035,30299
16.01847,26546
16.02660,26403
16.03472,26291
16.04283,24427
16.05097,32695
16.05908,26010
16.06722,31093
16.07533,23540
16.08345,35195
16.09158,34969
16.09970,27187
16.10782,25181
16.11595,24950
16.12407,27171
16.13220,26095
16.14032,28690
16.14843,27691
16.15657,26561
16.16468,25114
16.17282,34287
16.18093,29984
16.18905,30039
16.19718,29925
16.20530,31948
16.21342,29290
16.22155,27592
16.22967,28436
16.23780,28490
16.24592,25585
16.25403,28870
16.26217,26600
16.27028,25440
16.27842,27310
16.28653,27925
16.29465,30503
16.30278,28046
16.31090,28842
16.31903,28428
16.32715,37152
16.33527,29704
16.34340,33483
16.35152,29039
16.35963,26925
16.36777,34774
16.37588,28118
16.38402,27312
16.39213,32117
16.40025,28721
16.40838,32037
16.41650,43979
16.42463,42319
16.43275,53775
16.44087,63221
16.44900,73436
16.45712,72621
16.46525,62362
16.47337,50737
16.48148,43356
16.48962,38633
16.49773,36458
16.50585,34670
16.51398,32789
16.52210,39224
16.53023,30904
16.53835,32540
16.54647,30081
16.55460,31365
16.56272,30621
16.57085,34249
16.57897,29375
16.58708,29253
16.59522,37961
16.60333,31754
16.61145,31676
16.61958,32907
16.62770,31644
16.63583,35872
16.64395,32312
16.65207,27665
16.66020,29776
16.66832,29736
16.67645,30598
16.68457,29178
16.69268,28740
16.70082,27974
16.70893,31002
16.71707,29913
16.72518,33341
16.73330,28451
16.74143,31409
16.74955,33224
16.75767,29678
16.76580,29410
16.77392,29053
16.78205,27964
16.79017,31490
16.79828,31260
16.80642,30966
16.81453,31835
16.82267,34500
16.83078,30740
16.83890,35934
16.84703,34182
16.85515,32631
16.86328,32642
16.87140,32846
16.87952,35696
16.88765,30285
16.89577,39059
16.90388,32985
16.91202,29904
16.92013,34412
16.92827,33566
16.93638,29228
16.94450,29578
16.95263,29627
16.96075,35353
16.96888,32393
16.97700,27988
16.98512,30140
16.99325,29284
17.00137,30067
17.00950,34282
17.01762,31804
17.02573,30220
17.03387,30302
17.04198,37145
17.05010,26168
17.05823,27904
17.06635,27367
17.07448,30059
17.08260,33063
17.09072,32421
17.09885,28366
17.10697,25999
17.11510,27152
17.12322,26572
17.13133,27923
17.13947,26582
17.14758,26388
17.15570,26583
17.16383,34272
17.17195,27130
17.18008,26394
17.18820,31486
17.19632,29130
17.20445,30429
17.21257,29528
17.22070,29251
17.22882,31498
17.23693,25605
17.24507,27501
17.25318,30249
17.26132,28718
17.26943,25508
17.27755,29515
17.28568,27838
17.29380,27681
17.30192,29563
17.31005,29556
17.31817,29999
17.32630,29193
17.33442,28190
17.34253,27958
17.35067,27681
17.35878,28328
17.36692,24791
17.37503,34062
17.38315,28764
17.39128,29199
17.39940,29640
17.40753,34470
17.41565,25147
17.42377,29838
17.43190,27515
17.44002,38249
17.44813,27191
17.45627,27101
17.46438,27934
17.47252,27590
17.48063,32414
17.48875,27596
17.49688,31632
17.50500,27489
17.51313,29733
17.52125,27698
17.52937,28931
17.53750,32417
17.54562,28461
17.55373,29078
17.56187,29995
17.56998,30572
17.57812,36484
17.58623,30169
17.59435,30252
17.60248,30360
17.61060,29538
17.61873,25323
17.62685,27330
17.63497,32682
17.64310,31467
17.65122,30939
17.65935,38632
17.66747,32402
17.67558,32148
17.68372,32107
17.69183,29471
17.69995,34939
17.70808,26693
17.71620,29202
17.72433,27384
17.73245,31875
17.74057,27698
17.74870,29915
17.75682,33697
17.76495,26747
17.77307,31244
17.78118,31736
17.78932,34052
17.79743,38685
17.80557,34895
17.81368,39334
17.82180,35853
17.82993,35134
17.83805,32975
17.84617,32494
17.85430,31455
17.86242,32519
17.87055,35754
17.87867,31849
17.88678,31327
17.89492,37683
17.90303,30804
17.91117,31913
17.91928,31769
17.92740,32373
17.93553,36685
17.94365,35502
17.95177,33125
17.95990,33509
17.96802,33612
17.97615,38284
17.98427,31481
17.99238,34691
18.00052,34687
18.00863,30695
18.01677,31756
18.02488,30384
18.03300,31243
18.04113,37641
18.04925,30276
18.05738,28681
18.06550,27927
18.07362,29666
18.08175,26047
18.08987,29212
18.09798,29212
18.10612,34716
18.11423,33550
18.12237,39297
18.13048,36694
18.13860,35871
18.14673,32130
18.15485,31263
18.16298,30903
18.17110,32079
18.17922,31963
18.18735,27507
18.19547,31871
18.20360,31059
18.21172,28459
18.21983,31300
18.22797,32029
18.23608,33126
18.24420,38305
18.25233,32796
18.26045,36493
18.26858,35136
18.27670,35938
18.28482,31277
18.29295,35362
18.30107,37552
18.30920,32141
18.31732,31033
18.32543,30267
18.33357,31270
18.34168,29764
18.34982,26877
18.35793,30624
18.36605,31462
18.37418,34210
18.38230,36405
18.39042,38493
18.39855,36363
18.40667,37445
18.41480,32818
18.42292,30361
18.43103,32240
18.43917,31779
18.44728,30414
18.45542,27096
18.46353,29472
18.47165,31551
18.47978,28641
18.48790,28339
18.49602,31551
18.50415,28974
18.51227,29856
18.52040,30567
18.52852,30508
18.53663,31626
18.54477,31962
18.55288,33079
18.56102,34509
18.56913,33080
18.57725,30732
18.58538,31544
18.59350,32424
18.60163,38283
18.60975,29168
18.61787,30963
18.62600,31524
18.63412,29041
18.64223,31068
18.65037,34436
18.65848,42121
18.66662,56708
18.67473,63374
18.68285,73546
18.69098,70827
18.69910,78284
18.70723,74069
18.71535,77957
18.72347,79216
18.73160,79833
18.73972,79492
18.74785,88825
18.75597,79099
18.76408,77883
18.77222,70482
18.78033,71782
18.78845,67360
18.79658,67044
18.80470,69288
18.81283,65167
18.82095,61877
18.82907,55333
18.83720,64935
18.84532,58362
18.85345,53693
18.86157,51815
18.86968,52118
18.87782,57181
18.88593,47072
18.89405,46452
18.90218,46032
18.91030,45342
18.91843,46335
18.92655,47193
18.93467,45392
18.94280,45332
18.95092,47403
18.95905,45647
18.96717,41945
18.97528,43078
18.98342,41998
18.99153,41383
18.99967,40643
19.00778,44105
19.01590,40852
19.02403,41221
19.03215,36898
19.04027,38410
19.04840,37466
19.05652,36670
19.06465,37798
19.07277,35780
19.08088,36593
19.08902,42116
19.09713,35232
19.10527,33834
19.11338,36555
19.12150,36000
19.12963,38700
19.13775,33578
19.14588,35380
19.15400,33133
19.16212,32855
19.17025,33790
19.17837,38490
19.18648,36876
19.19462,32645
19.20273,28926
19.21087,32697
19.21898,32116
19.22710,32403
19.23523,35109
19.24335,39268
19.25148,29755
19.25960,28779
19.26772,39971
19.27585,33407
19.28397,30354
19.29208,33207
19.30022,34999
19.30833,30230
19.31647,31305
19.32458,30860
19.33270,31810
19.34083,34541
19.34895,38169
19.35708,27361
19.36520,33041
19.37332,33964
19.38145,32843
19.38957,29810
19.39770,32338
19.40582,33193
19.41393,31259
19.42207,30651
19.43018,30691
19.43830,31612
19.44643,30147
19.45455,31311
19.46268,29403
19.47080,30453
19.47892,30266
19.48705,30473
19.49517,29678
19.50330,27856
19.51142,29388
19.51953,37680
19.52767,38698
19.53578,40735
19.54392,51001
19.55203,63035
19.56015,67159
19.56828,69517
19.57640,65661
19.58452,61864
19.59265,55260
19.60077,57656
19.60890,53448
19.61702,51351
19.62513,49201
19.63327,45406
19.64138,51740
19.64952,45238
19.65763,43028
19.66575,43705
19.67388,37933
19.68200,44100
19.69013,44606
19.69825,42741
19.70637,46573
19.71450,65696
19.72262,80955
19.73073,78890
19.73887,76539
19.74698,68245
19.75512,58301
19.76323,49816
19.77135,47822
19.77948,62971
19.78760,79238
19.79573,102595
19.80385,127451
19.81197,155271
19.82010,141989
19.82822,126418
19.83633,88642
19.84447,70823
19.85258,53786
19.86072,46304
19.86883,41218
19.87695,37862
19.88508,38155
19.89320,36014
19.90133,38529
19.90945,33865
19.91757,30521
19.92570,34422
19.93382,34166
19.94195,32656
19.95007,35098
19.95818,32749
19.96632,40515
19.97443,38061
19.98255,32172
19.99068,34344
19.99880,34035
20.00693,40596
20.01505,57434
20.02317,100077
20.03130,191728
20.03942,354022
20.04755,596331
20.05567,827918
20.06378,945819
20.07192,887687
20.08003,686431
20.08817,503214
20.09628,350844
20.10440,272569
20.11253,203913
20.12065,164230
20.12877,133595
20.13690,115713
20.14502,92301
20.15315,82347
20.16127,74044
20.16938,68040
20.17752,61685
20.18563,55899
20.19377,56664
20.20188,52151
20.21000,50959
20.21813,52748
20.22625,56661
20.23437,49577
20.24250,43039
20.25062,45163
20.25875,44647
20.26687,41827
20.27498,38845
20.28312,39855
20.29123,41866
20.29937,42137
20.30748,40780
20.31560,38395
20.32373,37636
20.33185,40448
20.33998,39998
20.34810,39600
20.35622,44852
20.36435,59227
20.37247,71911
20.38058,76515
20.38872,82098
20.39683,88760
20.40497,84068
20.41308,77780
20.42120,81064
20.42933,69645
20.43745,67103
20.44558,67126
20.45370,57591
20.46182,60221
20.46995,56649
20.47807,59982
20.48620,61905
20.49432,54583
20.50243,60093
20.51057,50312
20.51868,48987
20.52680,45551
20.53493,44787
20.54305,43225
20.55118,37184
20.55930,41695
20.56742,37074
20.57555,45405
20.58367,57081
20.59180,98681
20.59992,172775
20.60803,305577
20.61617,462427
20.62428,574518
20.63240,602298
20.64053,535924
20.64865,406472
20.65678,295700
20.66490,202484
20.67302,156791
20.68115,117499
20.68927,99489
20.69740,80817
20.70552,71313
20.71363,67044
20.72177,62555
20.72988,64212
20.73802,59466
20.74613,57578
20.75425,62982
20.76238,75930
20.77050,111080
20.77862,144866
20.78675,182148
20.79487,211170
20.80300,193327
20.81112,165648
20.81923,130060
20.82737,104173
20.83548,93054
20.84362,76301
20.85173,70346
20.85985,58593
20.86798,56346
20.87610,54438
20.88423,47578
20.89235,50102
20.90047,47258
20.90860,44664
20.91672,46550
20.92483,43705
20.93297,42434
20.94108,43905
20.94922,38860
20.95733,40767
20.96545,42617
20.97358,38806
20.98170,38451
20.98983,36753
20.99795,35395
21.00607,42531
21.01420,37797
21.02232,37880
21.03045,35130
21.03857,38916
21.04668,41044
21.05482,37721
21.06293,33992
21.07105,33452
21.07918,33067
21.08730,35031
21.09543,34949
21.10355,38199
21.11167,31936
21.11980,30935
21.12792,33621
21.13605,35083
21.14417,35091
21.15228,40333
21.16042,33090
21.16853,33353
21.17665,34860
21.18478,35139
21.19290,33451
21.20103,31034
21.20915,36491
21.21727,30750
21.22540,31538
21.23352,29967
21.24165,39449
21.24977,32409
21.25788,35118
21.26602,39383
21.27413,43306
21.28227,47756
21.29038,43265
21.29850,40133
21.30663,36415
21.31475,43066
21.32287,39494
21.33100,36853
21.33912,43247
21.34725,35265
21.35537,35061
21.36348,36851
21.37162,35706
21.37973,35920
21.38787,38456
21.39598,38202
21.40410,38323
21.41223,38887
21.42035,33300
21.42848,36296
21.43660,35580
21.44472,34454
21.45285,40081
21.46097,36551
21.46908,31391
21.47722,36990
21.48533,33684
21.49347,34186
21.50158,32204
21.50970,35928
21.51783,35150
21.52595,33370
21.53408,36343
21.54220,37359
21.55032,31088
21.55845,31988
21.56657,32588
21.57468,33355
21.58282,32912
21.59093,30953
21.59907,31866
21.60718,32984
21.61530,36136
21.62343,37108
21.63155,38322
21.63968,37414
21.64780,36066
21.65592,35234
21.66405,42411
21.67217,33859
21.68030,32143
21.68842,30628
21.69653,36199
21.70467,34825
21.71278,35767
21.72090,41481
21.72903,36735
21.73715,37011
21.74528,36143
21.75340,36107
21.76152,32936
21.76965,35644
21.77777,33880
21.78590,33408
21.79402,35671
21.80213,32098
21.81027,35592
21.81838,33639
21.82652,35307
21.83463,36484
21.84275,31314
21.85088,31017
21.85900,32455
21.86712,31448
21.87525,31701
21.88337,33123
21.89150,32453
21.89962,31833
21.90773,33109
21.91587,37486
21.92398,48740
21.93212,67105
21.94023,113925
21.94835,139118
21.95648,173795
21.96460,176340
21.97272,159446
21.98085,125339
21.98897,97436
21.99710,81237
22.00522,68899
22.01333,50637
22.02147,45740
22.02958,49825
22.03772,45477
22.04583,40170
22.05395,43661
22.06208,33758
22.07020,35176
22.07833,37866
22.08645,36275
22.09457,33402
22.10270,37204
22.11082,38833
22.11893,36800
22.12707,46608
22.13518,65502
22.14332,87116
22.15143,125473
22.15955,141503
22.16768,166015
22.17580,137530
22.18393,119237
22.19205,87910
22.20017,75088
22.20830,53901
22.21642,53404
22.22455,50531
22.23267,48863
22.24078,49876
22.24892,45963
22.25703,48010
22.26515,50144
22.27328,40326
22.28140,41396
22.28953,45188
22.29765,39951
22.30577,39843
22.31390,37989
22.32202,36162
22.33015,41478
22.33827,33120
22.34638,35698
22.35452,32870
22.36263,31501
22.37077,36736
22.37888,36617
22.38700,32291
22.39513,34181
22.40325,33669
22.41137,31238
22.41950,31313
22.42762,35994
22.43575,37662
22.44387,40640
22.45198,41378
22.46012,41525
22.46823,40557
22.47637,38252
22.48448,36594
22.49260,37384
22.50073,34905
22.50885,32851
22.51697,36367
22.52510,41212
22.53322,43875
22.54135,59131
22.54947,69708
22.55758,71211
22.56572,74344
22.57383,63774
22.58197,64242
22.59008,47414
22.59820,47876
22.60633,50085
22.61445,38162
22.62258,41363
22.63070,42518
22.63882,41373
22.64695,36665
22.65507,36393
22.66318,34886
22.67132,35909
22.67943,34118
22.68757,38232
22.69568,33665
22.70380,35846
22.71193,35928
22.72005,32283
22.72818,32340
22.73630,33867
22.74442,33685
22.75255,35288
22.76067,34937
22.76880,30750
22.77692,32986
22.78503,34397
22.79317,32781
22.80128,33590
22.80940,37825
22.81753,37929
22.82565,46684
22.83378,37859
22.84190,39388
22.85002,38743
22.85815,35201
22.86627,37612
22.87440,41799
22.88252,46498
22.89063,44723
22.89877,40877
22.90688,43654
22.91500,40868
22.92313,43476
22.93125,42952
22.93938,37539
22.94750,35366
22.95562,37619
22.96375,40059
22.97187,43994
22.98000,39869
22.98812,35909
22.99623,37921
23.00437,41364
23.01248,34269
23.02062,37333
23.02873,34819
23.03685,35446
23.04498,37340
23.05310,36133
23.06122,31882
23.06935,33333
23.07747,36174
23.08560,36356
23.09372,41822
23.10183,34609
23.10997,43125
23.11808,36497
23.12622,35346
23.13433,42158
23.14245,33995
23.15058,36713
23.15870,37766
23.16683,35375
23.17495,39799
23.18307,39431
23.19120,39094
23.19932,42802
23.20743,45704
23.21557,42855
23.22368,41320
23.23182,41207
23.23993,38612
23.24805,37090
23.25618,35040
23.26430,36714
23.27243,36876
23.28055,39649
23.28867,36672
23.29680,38459
23.30492,31102
23.31303,40097
23.32117,36808
23.32928,41543
23.33742,40356
23.34553,39223
23.35365,39231
23.36178,43353
23.36990,51874
23.37803,45456
23.38615,52510
23.39427,46302
23.40240,41095
23.41052,41358
23.41865,44707
23.42677,46518
23.43488,57186
23.44302,53028
23.45113,60520
23.45925,69302
23.46738,78202
23.47550,90502
23.48363,96692
23.49175,95552
23.49987,100256
23.50800,97096
23.51612,83726
23.52425,79814
23.53237,79587
23.54048,65053
23.54862,62089
23.55673,55129
23.56487,48667
23.57298,45047
23.58110,43618
23.58923,40732
23.59735,40433
23.60547,36800
23.61360,40920
23.62172,42680
23.62985,40300
23.63797,34569
23.64608,38998
23.65422,37994
23.66233,38552
23.67047,36754
23.67858,37477
23.68670,39184
23.69483,41435
23.70295,37208
23.71108,37359
23.71920,34356
23.72732,34013
23.73545,37979
23.74357,43536
23.75168,36499
23.75982,37494
23.76793,40153
23.77607,34396
23.78418,37111
23.79230,37490
23.80043,37920
23.80855,35955
23.81668,34996
23.82480,33014
23.83292,32544
23.84105,34505
23.84917,33056
23.85728,35435
23.86542,32695
23.87353,40036
23.88167,35685
23.88978,34648
23.89790,33464
23.90603,32935
23.91415,32375
23.92228,27324
23.93040,31824
23.93852,35596
23.94665,37121
23.95477,32253
23.96290,31009
23.97102,37894
23.97913,31369
23.98727,33433
23.99538,36074
24.00350,33375
24.01163,33532
24.01975,36925
24.02788,35634
24.03600,36211
24.04412,38896
24.05225,42928
24.06037,44842
24.06850,45456
24.07662,43387
24.08473,47001
24.09287,44704
24.10098,43037
24.10912,39853
24.11723,42757
24.12535,35610
24.13348,42479
24.14160,38206
24.14972,44668
24.15785,45322
24.16597,48998
24.17410,49835
24.18222,53718
24.19033,52804
24.19847,53323
24.20658,56283
24.21472,58694
24.22283,93772
24.23095,249427
24.23908,787053
24.24720,2543341
24.25532,6212216
24.26345,1.023187E+07
24.27157,1.313217E+07
24.27970,1.358401E+07
24.28782,1.234154E+07
24.29593,9806514
24.30407,7242242
24.31218,5303251
24.32032,3919152
24.32843,2989463
24.33655,2256629
24.34468,1785584
24.35280,1406107
24.36093,1113231
24.36905,909411
24.37717,753418
24.38530,614242
24.39342,529522
24.40153,459888
24.40967,392379
24.41778,357903
24.42592,324906
24.43403,300306
24.44215,295871
24.45028,278629
24.45840,245227
24.46653,230217
24.47465,200906
24.48277,183015
24.49090,176643
24.49902,154647
24.50715,144973
24.51527,151141
24.52338,160395
24.53152,170025
24.53963,164865
24.54775,171756
24.55588,153636
24.56400,127922
24.57213,123246
24.58025,106781
24.58837,109306
24.59650,99052
24.60462,94597
24.61275,95973
24.62087,87718
24.62898,88907
24.63712,86486
24.64523,83298
24.65337,84219
24.66148,79700
24.66960,78268
24.67773,81034
24.68585,90410
24.69397,108216
24.70210,123561
24.71022,146626
24.71835,137271
24.72647,129628
24.73458,111865
24.74272,88493
24.75083,77604
24.75897,70380
24.76708,78490
24.77520,73946
24.78333,78333
24.79145,81428
24.79957,90887
24.80770,107279
24.81582,123563
24.82395,133428
24.83207,116374
24.84018,105007
24.84832,93234
24.85643,79754
24.86457,76346
24.87268,70634
24.88080,70185
24.88893,63733
24.89705,64285
24.90518,61434
24.91330,57830
24.92142,61834
24.92955,57261
24.93767,62225
24.94578,58661
24.95392,55775
24.96203,56903
24.97017,57510
24.97828,58842
24.98640,57329
24.99453,61113
25.00265,55333
25.01078,63224
25.01890,55337
25.02702,60700
25.03515,51480
25.04327,54536
25.05140,59566
25.05952,60945
25.06763,54029
25.07577,53877
25.08388,55114
25.09200,59028
25.10013,53977
25.10825,55153
25.11638,63405
25.12450,55648
25.13262,56360
25.14075,59906
25.14887,61460
25.15700,63228
25.16512,71516
25.17323,70402
25.18137,68991
25.18948,70959
25.19760,59097
25.20573,51770
25.21385,53260
25.22198,52520
25.23010,46984
25.23822,49507
25.24635,57949
25.25447,46298
25.26260,51711
25.27072,52308
25.27883,46008
25.28697,47748
25.29508,46585
25.30322,50563
25.31133,49669
25.31945,45377
25.32758,47833
25.33570,55910
25.34382,45676
25.35195,54383
25.36007,49920
25.36820,52107
25.37632,45646
25.38443,46992
25.39257,44307
25.40068,50017
25.40882,47734
25.41693,49608
25.42505,46556
25.43318,45515
25.44130,46033
25.44943,52612
25.45755,52512
25.46567,47591
25.47380,45551
25.48192,44572
25.49003,47101
25.49817,43393
25.50628,48297
25.51442,46650
25.52253,47928
25.53065,56403
25.53878,50376
25.54690,58340
25.55503,51909
25.56315,49615
25.57127,45234
25.57940,45708
25.58752,47202
25.59565,52475
25.60377,45449
25.61188,51947
25.62002,54388
25.62813,48239
25.63625,50603
25.64438,56101
25.65250,51915
25.66063,58473
25.66875,53082
25.67687,47413
25.68500,51067
25.69312,50169
25.70125,46164
25.70937,45536
25.71748,43830
25.72562,44533
25.73373,46117
25.74185,50832
25.74998,43717
25.75810,46884
25.76623,50699
25.77435,52763
25.78247,61787
25.79060,63646
25.79872,81471
25.80685,77113
25.81497,87977
25.82308,76064
25.83122,72467
25.83933,73125
25.84747,63782
25.85558,61503
25.86370,52316
25.87183,49999
25.87995,50963
25.88807,47300
25.89620,54007
25.90432,48363
25.91245,45500
25.92057,46368
25.92868,45643
25.93682,49302
25.94493,49088
25.95307,44852
25.96118,42339
25.96930,45714
25.97743,45631
25.98555,42958
25.99368,45684
26.00180,44078
26.00992,41483
26.01805,45499
26.02617,45076
26.03428,44460
26.04242,43978
26.05053,44951
26.05867,45267
26.06678,45594
26.07490,42309
26.08303,39858
26.09115,40587
26.09928,42794
26.10740,45872
26.11552,50370
26.12365,42366
26.13177,51593
26.13988,47395
26.14802,46342
26.15613,42458
26.16427,42840
26.17238,45844
26.18050,49189
26.18863,41687
26.19675,43360
26.20488,48540
26.21300,40063
26.22112,45931
26.22925,46432
26.23737,41333
26.24550,44353
26.25362,41917
26.26173,44676
26.26987,43161
26.27798,42485
26.28610,46798
26.29423,43361
26.30235,42471
26.31048,45664
26.31860,45872
26.32672,47612
26.33485,50808
26.34297,49269
26.35110,50677
26.35922,50059
26.36733,53273
26.37547,53852
26.38358,52621
26.39172,51171
26.39983,45360
26.40795,53792
26.41608,49500
26.42420,48617
26.43232,53750
26.44045,51254
26.44857,52944
26.45670,52037
26.46482,48598
26.47293,45990
26.48107,46321
26.48918,44138
26.49732,42450
26.50543,44032
26.51355,42385
26.52168,41494
26.52980,43771
26.53793,50523
26.54605,48075
26.55417,45437
26.56230,48233
26.57042,49239
26.57853,46104
26.58667,43291
26.59478,39922
26.60292,42849
26.61103,46633
26.61915,50175
26.62728,49094
26.63540,54206
26.64353,59962
26.65165,65659
26.65977,67034
26.66790,68491
26.67602,67752
26.68413,70571
26.69227,59996
26.70038,58618
26.70852,56983
26.71663,56126
26.72475,54770
26.73288,46877
26.74100,49541
26.74913,47577
26.75725,42575
26.76537,49169
26.77350,44058
26.78162,41793
26.78975,49286
26.79787,42165
26.80598,43139
26.81412,43122
26.82223,44547
26.83035,48893
26.83848,42350
26.84660,42567
26.85473,43469
26.86285,48427
26.87097,45235
26.87910,43849
26.88722,43739
26.89535,41581
26.90347,40230
26.91158,41914
26.91972,44453
26.92783,44894
26.93597,41778
26.94408,45416
26.95220,40637
26.96033,40055
26.96845,50555
26.97657,36754
26.98470,43347
26.99282,43741
27.00095,42268
27.00907,53418
27.01718,43867
27.02532,46647
27.03343,49040
27.04157,44043
27.04968,51400
27.05780,52929
27.06593,46200
27.07405,44602
27.08217,44045
27.09030,54901
27.09842,46708
27.10655,49702
27.11467,46463
27.12278,55175
27.13092,50019
27.13903,50725
27.14717,50764
27.15528,52847
27.16340,59229
27.17153,56646
27.17965,57902
27.18778,61404
27.19590,60292
27.20402,58652
27.21215,61762
27.22027,54135
27.22838,60547
27.23652,49460
27.24463,52188
27.25277,52703
27.26088,50839
27.26900,51107
27.27713,52416
27.28525,54599
27.29338,55938
27.30150,52090
27.30962,46786
27.31775,54854
27.32587,50981
27.33400,52481
27.34212,49186
27.35023,57062
27.35837,52233
27.36648,47583
27.37460,54848
27.38273,56017
27.39085,66718
27.39898,96227
27.40710,194174
27.41522,455414
27.42335,1081291
27.43147,2426704
27.43960,4820818
27.44772,7254486
27.45583,8631483
27.46397,8637014
27.47208,7816563
27.48020,6610394
27.48833,5293690
27.49645,4126482
27.50458,3261412
27.51270,2510974
27.52082,1945638
27.52895,1528043
27.53707,1194049
27.54520,955253
27.55332,778718
27.56143,626134
27.56957,521273
27.57768,458749
27.58582,369140
27.59393,320376
27.60205,289614
27.61018,254054
27.61830,218988
27.62642,206733
27.63455,194096
27.64267,177134
27.65080,160372
27.65892,149623
27.66703,145314
27.67517,139747
27.68328,136237
27.69142,124144
27.69953,130115
27.70765,128665
27.71578,113284
27.72390,103797
27.73203,96718
27.74015,100522
27.74827,96187
27.75640,91037
27.76452,89720
27.77263,87745
27.78077,82074
27.78888,81274
27.79702,77558
27.80513,83272
27.81325,83389
27.82138,87097
27.82950,85301
27.83763,88776
27.84575,88485
27.85387,87106
27.86200,81163
27.87012,87514
27.87825,77829
27.88637,77303
27.89448,73632
27.90262,74205
27.91073,75140
27.91885,76732
27.92698,85253
27.93510,82363
27.94323,74711
27.95135,70594
27.95947,76486
27.96760,75271
27.97572,72527
27.98385,67146
27.99197,66791
28.00008,71482
28.00822,59624
28.01633,62265
28.02445,61271
28.03258,64022
28.04070,59717
28.04883,61814
28.05695,60402
28.06507,62015
28.07320,60397
28.08132,59656
28.08945,58903
28.09757,57925
28.10568,66253
28.11382,64612
28.12193,66134
28.13007,62503
28.13818,61520
28.14630,61793
28.15443,61148
28.16255,62398
28.17067,59544
28.17880,58715
28.18692,60633
28.19505,61650
28.20317,58031
28.21128,58791
28.21942,56792
28.22753,58535
28.23567,58967
28.24378,55601
28.25190,57893
28.26003,57033
28.26815,64309
28.27628,65425
28.28440,58252
28.29252,57488
28.30065,57262
28.30877,58051
28.31688,56845
28.32502,56052
28.33313,59962
28.34127,57854
28.34938,64104
28.35750,64384
28.36563,58578
28.37375,58539
28.38188,56856
28.39000,65016
28.39812,53553
28.40625,57184
28.41437,56266
28.42248,58064
28.43062,54236
28.43873,56267
28.44687,63604
28.45498,59354
28.46310,60033
28.47123,60830
28.47935,62345
28.48748,64819
28.49560,70631
28.50372,80622
28.51185,85313
28.51997,88862
28.52810,88601
28.53622,80016
28.54433,71695
28.55247,66394
28.56058,61066
28.56870,63102
28.57683,57651
28.58495,64798
28.59308,60706
28.60120,58639
28.60932,62420
28.61745,55311
28.62557,56396
28.63370,56449
28.64182,52897
28.64993,61081
28.65807,64059
28.66618,60679
28.67432,61278
28.68243,78361
28.69055,99497
28.69868,167537
28.70680,284034
28.71492,489641
28.72305,725367
28.73117,994007
28.73930,1247688
28.74742,1419935
28.75553,1550847
28.76367,1627730
28.77178,1624319
28.77992,1611043
28.78803,1527162
28.79615,1446020
28.80428,1343757
28.81240,1232722
28.82052,1127878
28.82865,1055623
28.83677,959993
28.84490,880667
28.85302,801573
28.86113,761574
28.86927,678369
28.87738,613541
28.88552,568115
28.89363,536328
28.90175,476244
28.90988,442665
28.91800,418573
28.92613,379507
28.93425,339475
28.94237,321856
28.95050,299955
28.95862,277408
28.96673,274368
28.97487,252065
28.98298,224602
28.99112,219247
28.99923,206957
29.00735,198343
29.01548,184716
29.02360,171073
29.03173,169237
29.03985,154860
29.04797,148086
29.05610,146551
29.06422,147722
29.07235,143655
29.08047,149330
29.08858,145768
29.09672,155516
29.10483,144079
29.11295,139637
29.12108,125006
29.12920,111417
29.13733,105182
29.14545,96823
29.15357,98633
29.16170,101172
29.16982,108234
29.17795,106387
29.18607,108857
29.19418,110611
29.20232,102935
29.21043,100824
29.21857,88018
29.22668,90483
29.23480,88491
29.24293,80440
29.25105,77372
29.25917,74583
29.26730,77909
29.27542,76970
29.28355,71094
29.29167,74282
29.29978,71422
29.30792,78202
29.31603,75494
29.32417,70661
29.33228,67660
29.34040,73840
29.34853,67885
29.35665,65358
29.36477,69142
29.37290,69587
29.38102,65718
29.38915,68609
29.39727,67828
29.40538,67137
29.41352,60261
29.42163,59730
29.42977,67256
29.43788,73945
29.44600,61254
29.45413,62878
29.46225,69769
29.47038,68519
29.47850,65530
29.48662,63976
29.49475,63230
29.50287,68683
29.51098,67627
29.51912,69901
29.52723,65813
29.53537,68077
29.54348,63446
29.55160,67118
29.55973,55588
29.56785,60032
29.57598,65106
29.58410,60163
29.59222,60097
29.60035,56710
29.60847,56807
29.61660,53156
29.62472,57153
29.63283,59105
29.64097,58884
29.64908,57234
29.65720,55581
29.66533,57447
29.67345,66124
29.68158,57823
29.68970,63030
29.69782,64209
29.70595,61134
29.71407,61665
29.72220,58893
29.73032,65396
29.73843,58639
29.74657,57511
29.75468,59495
29.76280,55398
29.77093,65784
29.77905,69303
29.78718,63818
29.79530,65140
29.80342,65428
29.81155,64711
29.81967,72567
29.82780,58931
29.83592,60485
29.84403,61180
29.85217,60749
29.86028,64606
29.86842,56070
29.87653,58949
29.88465,57702
29.89278,55861
29.90090,55717
29.90902,54081
29.91715,54391
29.92527,51425
29.93340,56135
29.94152,55496
29.94963,63936
29.95777,58151
29.96588,56278
29.97402,52797
29.98213,58941
29.99025,53602
29.99838,55781
30.00650,52825
30.01463,63123
30.02275,59880
30.03087,71354
30.03900,66144
30.04712,67326
30.05523,66228
30.06337,61407
30.07148,58810
30.07962,56796
30.08773,59886
30.09585,64342
30.10398,55100
30.11210,66937
30.12023,55901
30.12835,58446
30.13647,66502
30.14460,68078
30.15272,62718
30.16083,62084
30.16897,72907
30.17708,65798
30.18522,64010
30.19333,60347
30.20145,58579
30.20958,59231
30.21770,63123
30.22583,61888
30.23395,65250
30.24207,59635
30.25020,61778
30.25832,57313
30.26645,66007
30.27457,58059
30.28268,64821
30.29082,75048
30.29893,87287
30.30705,114333
30.31518,166114
30.32330,231942
30.33143,293176
30.33955,355914
30.34767,423296
30.35580,485665
30.36392,515463
30.37205,529065
30.38017,527447
30.38828,550472
30.39642,543322
30.40453,522172
30.41267,508051
30.42078,475590
30.42890,464153
30.43703,446489
30.44515,444642
30.45327,407580
30.46140,396508
30.46952,360288
30.47765,347003
30.48577,336521
30.49388,312366
30.50202,293419
30.51013,277260
30.51827,263812
30.52638,255139
30.53450,226997
30.54263,220793
30.55075,208501
30.55888,195461
30.56700,193993
30.57512,180768
30.58325,164072
30.59137,165169
30.59948,152623
30.60762,150563
30.61573,146683
30.62387,143865
30.63198,123898
30.64010,128301
30.64823,126097
30.65635,117924
30.66448,117656
30.67260,115264
30.68072,111681
30.68885,107433
30.69697,105334
30.70508,100167
30.71322,99667
30.72133,93953
30.72947,89892
30.73758,91261
30.74570,86631
30.75383,88177
30.76195,84144
30.77008,79337
30.77820,81705
30.78632,82983
30.79445,84936
30.80257,77209
30.81070,80342
30.81882,81273
30.82693,77536
30.83507,77530
30.84318,85524
30.85130,72217
30.85943,76790
30.86755,81848
30.87568,67089
30.88380,68753
30.89192,66710
30.90005,71996
30.90817,76005
30.91630,68413
30.92442,69113
30.93253,65845
30.94067,66540
30.94878,65385
30.95692,60528
30.96503,67213
30.97315,66316
30.98128,67488
30.98940,62540
30.99752,61326
31.00565,59898
31.01377,62153
31.02190,61594
31.03002,59552
31.03813,62938
31.04627,59964
31.05438,67530
31.06252,66410
31.07063,59705
31.07875,61670
31.08688,64412
31.09500,67751
31.10312,64405
31.11125,60742
31.11937,58963
31.12750,62535
31.13562,61672
31.14373,59864
31.15187,56677
31.15998,59058
31.16812,53801
31.17623,59744
31.18435,59334
31.19248,68739
31.20060,56533
31.20873,56206
31.21685,56159
31.22497,56655
31.23310,58296
31.24122,54916
31.24933,57909
31.25747,60605
31.26558,52751
31.27372,54125
31.28183,57397
31.28995,55710
31.29808,59375
31.30620,66772
31.31433,57333
31.32245,58078
31.33057,57387
31.33870,68181
31.34682,57310
31.35495,54714
31.36307,56600
31.37118,58890
31.37932,56256
31.38743,60463
31.39555,58325
31.40368,56082
31.41180,58148
31.41993,55185
31.42805,54767
31.43617,54141
31.44430,59277
31.45242,54604
31.46055,63631
31.46867,57176
31.47678,54589
31.48492,60287
31.49303,62597
31.50115,58913
31.50928,58838
31.51740,60305
31.52553,57887
31.53365,60470
31.54177,63259
31.54990,72428
31.55802,63972
31.56615,70087
31.57427,60283
31.58238,61219
31.59052,58394
31.59863,57655
31.60677,60018
31.61488,56016
31.62300,60685
31.63113,73689
31.63925,84937
31.64737,99110
31.65550,104961
31.66362,112630
31.67175,126078
31.67987,106098
31.68798,98938
31.69612,81625
31.70423,71713
31.71237,80183
31.72048,70286
31.72860,77222
31.73673,68883
31.74485,68242
31.75298,68510
31.76110,63301
31.76922,60350
31.77735,58792
31.78547,65298
31.79358,62085
31.80172,57443
31.80983,62877
31.81797,62272
31.82608,62294
31.83420,56713
31.84233,58820
31.85045,56606
31.85858,53971
31.86670,58318
31.87482,63713
31.88295,62500
31.89107,62163
31.89920,57913
31.90732,57176
31.91543,56983
31.92357,64494
31.93168,65712
31.93980,59394
31.94793,63639
31.95605,55977
31.96418,68249
31.97230,65000
31.98042,57763
31.98855,57630
31.99667,60227
32.00480,57554
32.01292,57659
32.02103,58450
32.02917,62359
32.03728,65101
32.04540,57272
32.05353,58652
32.06165,61918
32.06978,59991
32.07790,65620
32.08602,59172
32.09415,57519
32.10227,58233
32.11040,61245
32.11852,59964
32.12663,57652
32.13477,56582
32.14288,61945
32.15102,63951
32.15913,61935
32.16725,64015
32.17538,65985
32.18350,64434
32.19162,60124
32.19975,56837
32.20787,59774
32.21600,64054
32.22412,70698
32.23223,75469
32.24037,85714
32.24848,125660
32.25662,152039
32.26473,201795
32.27285,254161
32.28098,289857
32.28910,314602
32.29723,328683
32.30535,345260
32.31347,333680
32.32160,334147
32.32972,321525
32.33783,294420
32.34597,280790
32.35408,262679
32.36222,248125
32.37033,229184
32.37845,218590
32.38658,211725
32.39470,216787
32.40283,194988
32.41095,173135
32.41907,162403
32.42720,149379
32.43532,151260
32.44343,143629
32.45157,133586
32.45968,128535
32.46782,122287
32.47593,125756
32.48405,104421
32.49218,109427
32.50030,97687
32.50843,96318
32.51655,93716
32.52467,93647
32.53280,90500
32.54092,86638
32.54905,93232
32.55717,81711
32.56528,83491
32.57342,87919
32.58153,76679
32.58965,73854
32.59778,73987
32.60590,79698
32.61403,74919
32.62215,77762
32.63027,71583
32.63840,75760
32.64652,76138
32.65465,75733
32.66277,74969
32.67088,69989
32.67902,68845
32.68713,71151
32.69527,62458
32.70338,66870
32.71150,71816
32.71963,75049
32.72775,68209
32.73587,67359
32.74400,66860
32.75212,65764
32.76025,77003
32.76837,82109
32.77648,79477
32.78462,72223
32.79273,75830
32.80087,71143
32.80898,68529
32.81710,68996
32.82523,69448
32.83335,68996
32.84147,70839
32.84960,70092
32.85772,65486
32.86585,70253
32.87397,62050
32.88208,64802
32.89022,68424
32.89833,68617
32.90647,66963
32.91458,65438
32.92270,67033
32.93083,76329
32.93895,67696
32.94708,70486
32.95520,73650
32.96332,72666
32.97145,75553
32.97957,80349
32.98768,80426
32.99582,88468
33.00393,81497
33.01207,84150
33.02018,77668
33.02830,71099
33.03643,68635
33.04455,66058
33.05268,63898
33.06080,63610
33.06892,63190
33.07705,62263
33.08517,65493
33.09330,66346
33.10142,66627
33.10953,66897
33.11767,66061
33.12578,63411
33.13390,65945
33.14203,72633
33.15015,66391
33.15828,72044
33.16640,64233
33.17452,64896
33.18265,67935
33.19077,64678
33.19890,64940
33.20702,72737
33.21513,65611
33.22327,68451
33.23138,68004
33.23952,66491
33.24763,69201
33.25575,68480
33.26388,74665
33.27200,68967
33.28012,66476
33.28825,73298
33.29637,73432
33.30450,66819
33.31262,66634
33.32073,65586
33.32887,62555
33.33698,58997
33.34512,61801
33.35323,61203
33.36135,61326
33.36948,63542
33.37760,62917
33.38572,61320
33.39385,64306
33.40197,66894
33.41010,60887
33.41822,62693
33.42633,63202
33.43447,63028
33.44258,64372
33.45072,73412
33.45883,70870
33.46695,63717
33.47508,65768
33.48320,65188
33.49133,64691
33.49945,68412
33.50757,75538
33.51570,72072
33.52382,73036
33.53193,69135
33.54007,69026
33.54818,65147
33.55632,67661
33.56443,67129
33.57255,65887
33.58068,75485
33.58880,69249
33.59693,71635
33.60505,78158
33.61317,77073
33.62130,71670
33.62942,76713
33.63755,86104
33.64567,89684
33.65378,93428
33.66192,93958
33.67003,95950
33.67815,95151
33.68628,80201
33.69440,73481
33.70253,63379
33.71065,66127
33.71877,62738
33.72690,63960
33.73502,66468
33.74315,64600
33.75127,65803
33.75938,63521
33.76752,63923
33.77563,77626
33.78375,68843
33.79188,68802
33.80000,66907
33.80813,72368
33.81625,72149
33.82437,64518
33.83250,79326
33.84062,69750
33.84875,69955
33.85687,69751
33.86498,69847
33.87312,69074
33.88123,62929
33.88937,63521
33.89748,71400
33.90560,65396
33.91373,70545
33.92185,66260
33.92997,60300
33.93810,67536
33.94622,64366
33.95435,71946
33.96247,66959
33.97058,70428
33.97872,64422
33.98683,72627
33.99497,66896
34.00308,67934
34.01120,69011
34.01933,65131
34.02745,72373
34.03558,68832
34.04370,69619
34.05182,69297
34.05995,65459
34.06807,71679
34.07618,69161
34.08432,68953
34.09243,69815
34.10057,78051
34.10868,74489
34.11680,74525
34.12493,70775
34.13305,69121
34.14118,72007
34.14930,74096
34.15742,69310
34.16555,74426
34.17367,78548
34.18178,84293
34.18992,75547
34.19803,73893
34.20617,74782
34.21428,69018
34.22240,74061
34.23053,88567
34.23865,80675
34.24678,76807
34.25490,74781
34.26302,76618
34.27115,69051
34.27927,74999
34.28740,75343
34.29552,75175
34.30363,67692
34.31177,71554
34.31988,67764
34.32800,72738
34.33613,70937
34.34425,78959
34.35238,73382
34.36050,72066
34.36862,72226
34.37675,71029
34.38487,75928
34.39300,74300
34.40112,72013
34.40923,72453
34.41737,73305
34.42548,76281
34.43362,82850
34.44173,76298
34.44985,82972
34.45798,73179
34.46610,69716
34.47422,71664
34.48235,70726
34.49047,82658
34.49860,78111
34.50672,77443
34.51483,73748
34.52297,67476
34.53108,72860
34.53922,74799
34.54733,75841
34.55545,76046
34.56358,73489
34.57170,75729
34.57983,78729
34.58795,73937
34.59607,74693
34.60420,71540
34.61232,72035
34.62043,71913
34.62857,72847
34.63668,73734
34.64482,82869
34.65293,69421
34.66105,75374
34.66918,72425
34.67730,71232
34.68543,73867
34.69355,76571
34.70167,75352
34.70980,71240
34.71792,71891
34.72603,74250
34.73417,76936
34.74228,78273
34.75042,73021
34.75853,69692
34.76665,71507
34.77478,68628
34.78290,71379
34.79103,74230
34.79915,73297
34.80727,72389
34.81540,79454
34.82352,74918
34.83165,79214
34.83977,92683
34.84788,102745
34.85602,128213
34.86413,172019
34.87225,219810
34.88038,263285
34.88850,302166
34.89663,328308
34.90475,295892
34.91287,282281
34.92100,242607
34.92912,219482
34.93725,181379
34.94537,159905
34.95348,148306
34.96162,140312
34.96973,131717
34.97787,120966
34.98598,110949
34.99410,111077
35.00223,112502
35.01035,105090
35.01847,104563
35.02660,100766
35.03472,99434
35.04285,101539
35.05097,101992
35.05908,101870
35.06722,94900
35.07533,87498
35.08347,95230
35.09158,90969
35.09970,88813
35.10783,83334
35.11595,83738
35.12407,88376
35.13220,83735
35.14032,85531
35.14845,87803
35.15657,88436
35.16468,86773
35.17282,86164
35.18093,85446
35.18907,84274
35.19718,80765
35.20530,84814
35.21343,83152
35.22155,83556
35.22968,81725
35.23780,85845
35.24592,84865
35.25405,85542
35.26217,88044
35.27028,83702
35.27842,93896
35.28653,88806
35.29467,89713
35.30278,85605
35.31090,89985
35.31903,84642
35.32715,88172
35.33528,90815
35.34340,88642
35.35152,82894
35.35965,87343
35.36777,83037
35.37590,82533
35.38402,84324
35.39213,76740
35.40027,84798
35.40838,86892
35.41650,78885
35.42463,85568
35.43275,81650
35.44088,85177
35.44900,83759
35.45712,93007
35.46525,94180
35.47337,105784
35.48150,101346
35.48962,100039
35.49773,99693
35.50587,98773
35.51398,99078
35.52210,99593
35.53023,95309
35.53835,97592
35.54648,100641
35.55460,99766
35.56272,95680
35.57085,97943
35.57897,96001
35.58710,99336
35.59522,95642
35.60333,94347
35.61147,101298
35.61958,95742
35.62772,96862
35.63583,92508
35.64395,95135
35.65208,96411
35.66020,98757
35.66832,94953
35.67645,89776
35.68457,98636
35.69270,91037
35.70082,89759
35.70893,96079
35.71707,86426
35.72518,91350
35.73332,83755
35.74143,91971
35.74955,88599
35.75768,88527
35.76580,91954
35.77393,86343
35.78205,85392
35.79017,87462
35.79830,89728
35.80642,99599
35.81453,91294
35.82267,90116
35.83078,93024
35.83892,82607
35.84703,94296
35.85515,95195
35.86328,83497
35.87140,86479
35.87953,87086
35.88765,88749
35.89577,90932
35.90390,87782
35.91202,85752
35.92015,90587
35.92827,85229
35.93638,89118
35.94452,95221
35.95263,90402
35.96075,90526
35.96888,92167
35.97700,100239
35.98513,112799
35.99325,110337
36.00137,117860
36.00950,114079
36.01762,118504
36.02575,117481
36.03387,112397
36.04198,113503
36.05012,115995
36.05823,108135
36.06635,106565
36.07448,99015
36.08260,98348
36.09073,99435
36.09885,99562
36.10697,98866
36.11510,100846
36.12322,96588
36.13135,94802
36.13947,91676
36.14758,91411
36.15572,92417
36.16383,89945
36.17197,92236
36.18008,102719
36.18820,92182
36.19633,94185
36.20445,95636
36.21257,98684
36.22070,95839
36.22882,100324
36.23695,103430
36.24507,109683
36.25318,111764
36.26132,116509
36.26943,117343
36.27757,115158
36.28568,109863
36.29380,108894
36.30193,108843
36.31005,112343
36.31818,100832
36.32630,104133
36.33442,98812
36.34255,104067
36.35067,102146
36.35878,97233
36.36692,97016
36.37503,95527
36.38317,95564
36.39128,101062
36.39940,95351
36.40753,94648
36.41565,96921
36.42378,98137
36.43190,91539
36.44002,97551
36.44815,91263
36.45627,90253
36.46438,94466
36.47252,96185
36.48063,96842
36.48877,99048
36.49688,96756
36.50500,95126
36.51313,101813
36.52125,95698
36.52938,91808
36.53750,93525
36.54562,103462
36.55375,105868
36.56187,110566
36.57000,105500
36.57812,108455
36.58623,105169
36.59437,112874
36.60248,112477
36.61060,117518
36.61873,119011
36.62685,108076
36.63498,117662
36.64310,120659
36.65122,114775
36.65935,127736
36.66747,125543
36.67560,131156
36.68372,111171
36.69183,111995
36.69997,104529
36.70808,108080
36.71622,110647
36.72433,97142
36.73245,103951
36.74058,103133
36.74870,90048
36.75682,95357
36.76495,105736
36.77307,102635
36.78120,98515
36.78932,101060
36.79743,106265
36.80557,103182
36.81368,104440
36.82182,106685
36.82993,99080
36.83805,101677
36.84618,106246
36.85430,103472
36.86242,102148
36.87055,104178
36.87867,101072
36.88680,103818
36.89492,102204
36.90303,100268
36.91117,102134
36.91928,105598
36.92742,104525
36.93553,106844
36.94365,98834
36.95178,104245
36.95990,106229
36.96803,114270
36.97615,129540
36.98427,128636
36.99240,127569
37.00052,123317
37.00863,113230
37.01677,117252
37.02488,113469
37.03302,108081
37.04113,111739
37.04925,115315
37.05738,106963
37.06550,108273
37.07363,112840
37.08175,110645
37.08987,104834
37.09800,111209
37.10612,105501
37.11425,108847
37.12237,120369
37.13048,109331
37.13862,113308
37.14673,106078
37.15485,109143
37.16298,109349
37.17110,106539
37.17923,109514
37.18735,109044
37.19547,109676
37.20360,104043
37.21172,110698
37.21985,107571
37.22797,99129
37.23608,106571
37.24422,112394
37.25233,108394
37.26047,116477
37.26858,109284
37.27670,117207
37.28483,110784
37.29295,109277
37.30107,107932
37.30920,104520
37.31732,105737
37.32545,114060
37.33357,108139
37.34168,108690
37.34982,120601
37.35793,111290
37.36607,110786
37.37418,111180
37.38230,110594
37.39043,106936
37.39855,112674
37.40667,112629
37.41480,113735
37.42292,108493
37.43105,104826
37.43917,116400
37.44728,112674
37.45542,110940
37.46353,114798
37.47167,110289
37.47978,114773
37.48790,120490
