Z:\data\JTB-E02\BACandBLUE\JTB-E02-201-11.D Fri Mar 01 10:42:31 2019
Start of data points
2.09535	67819
2.10347	66206
2.11160	62628
2.11972	64210
2.12783	68936
2.13597	63134
2.14408	67444
2.15222	62207
2.16033	58723
2.16845	60009
2.17658	60157
2.18470	58736
2.19283	61067
2.20095	61660
2.20907	55134
2.21720	56291
2.22532	55136
2.23343	53427
2.24157	50188
2.24968	54191
2.25782	83567
2.26593	510989
2.27405	1858742
2.28218	2257138
2.29030	1228712
2.29843	679341
2.30655	530599
2.31467	439518
2.32280	382181
2.33092	344403
2.33903	318004
2.34717	273802
2.35528	254957
2.36342	223943
2.37153	212377
2.37965	223778
2.38778	207027
2.39590	242145
2.40403	318958
2.41215	400246
2.42027	722124
2.42840	558759
2.43652	358321
2.44465	285525
2.45277	238931
2.46088	229403
2.46902	199356
2.47713	184314
2.48525	181628
2.49338	180561
2.50150	171597
2.50963	161664
2.51775	162179
2.52587	158751
2.53400	143713
2.54212	156901
2.55025	181514
2.55837	295169
2.56648	294177
2.57462	214747
2.58273	177262
2.59087	162497
2.59898	240815
2.60710	770662
2.61523	1343870
2.62335	1085299
2.63147	626953
2.63960	422754
2.64772	328691
2.65585	267954
2.66397	225137
2.67208	199442
2.68022	176878
2.68833	170013
2.69647	160089
2.70458	154004
2.71270	145756
2.72083	138730
2.72895	129398
2.73707	125010
2.74520	124733
2.75332	115574
2.76145	115838
2.76957	127099
2.77768	222598
2.78582	525876
2.79393	641169
2.80207	454880
2.81018	329692
2.81830	282062
2.82643	252285
2.83455	215136
2.84268	182178
2.85080	183080
2.85892	173627
2.86705	166823
2.87517	152357
2.88328	151829
2.89142	143521
2.89953	137999
2.90767	130840
2.91578	122182
2.92390	122774
2.93203	109266
2.94015	112851
2.94828	112838
2.95640	118751
2.96452	141323
2.97265	159690
2.98077	140595
2.98888	123666
2.99702	127537
3.00513	148674
3.01327	159571
3.02138	144127
3.02950	125448
3.03763	114996
3.04575	108074
3.05388	108729
3.06200	113097
3.07012	111598
3.07825	191090
3.08637	846949
3.09450	2657810
3.10262	4530555
3.11073	6244697
3.11887	6843034
3.12698	5149952
3.13510	3490309
3.14323	2565841
3.15135	2027689
3.15948	1612511
3.16760	1361456
3.17572	1178232
3.18385	1087903
3.19197	1305980
3.20010	1700668
3.20822	1656559
3.21633	1291017
3.22447	1041741
3.23258	891849
3.24072	762324
3.24883	672305
3.25695	608047
3.26508	539010
3.27320	502401
3.28132	467511
3.28945	535656
3.29757	1190468
3.30570	3582028
3.31382	7687294
3.32193	1.016552E+07
3.33007	9149102
3.33818	6719157
3.34632	4716687
3.35443	3489846
3.36255	2846499
3.37068	2333265
3.37880	1982460
3.38692	1756948
3.39505	1539497
3.40317	1420139
3.41130	1274419
3.41942	1162767
3.42753	1061631
3.43567	997320
3.44378	922054
3.45192	862697
3.46003	806676
3.46815	769154
3.47628	753058
3.48440	733814
3.49253	710620
3.50065	666564
3.50877	638896
3.51690	628633
3.52502	585409
3.53313	564595
3.54127	552771
3.54938	528839
3.55752	495042
3.56563	465048
3.57375	526155
3.58188	665029
3.59000	686866
3.59813	597447
3.60625	498314
3.61437	459813
3.62250	454702
3.63062	441232
3.63875	421089
3.64687	407764
3.65498	407513
3.66312	501712
3.67123	1467824
3.67935	5164129
3.68748	1.033296E+07
3.69560	1.1238E+07
3.70373	8173655
3.71185	5411378
3.71997	4047648
3.72810	3345356
3.73622	2814963
3.74435	2494639
3.75247	2204275
3.76058	1966203
3.76872	1827971
3.77683	1693057
3.78495	1556887
3.79308	1472085
3.80120	1449944
3.80933	1706284
3.81745	2642116
3.82557	3776690
3.83370	3868541
3.84182	3008145
3.84995	2336129
3.85807	1925180
3.86618	1683188
3.87432	1527478
3.88243	1406454
3.89057	1285224
3.89868	1208394
3.90680	1146071
3.91493	1082775
3.92305	1055238
3.93117	1080022
3.93930	1117714
3.94742	1114058
3.95555	1470433
3.96367	3005269
3.97178	5624895
3.97992	7024972
3.98803	5842871
3.99617	4248021
4.00428	5301466
4.01240	1.326015E+07
4.02053	2.60204E+07
4.02865	3.281206E+07
4.03677	2.755151E+07
4.04490	1.690236E+07
4.05302	9720597
4.06115	6417859
4.06927	4693984
4.07738	3689986
4.08552	3037356
4.09363	2553837
4.10177	2211602
4.10988	1968803
4.11800	1758740
4.12613	1569686
4.13425	1430547
4.14238	1309545
4.15050	1275417
4.15862	1277971
4.16675	1272182
4.17487	1211361
4.18298	1117070
4.19112	1045460
4.19923	971287
4.20737	904285
4.21548	981387
4.22360	1906953
4.23173	5088856
4.23985	1.036221E+07
4.24798	1.432426E+07
4.25610	1.422278E+07
4.26422	1.051714E+07
4.27235	6662452
4.28047	4566838
4.28860	3352315
4.29672	2607801
4.30483	2085214
4.31297	1751652
4.32108	1510055
4.32920	1343510
4.33733	1192886
4.34545	1111084
4.35358	1020440
4.36170	976726
4.36982	953391
4.37795	908751
4.38607	873844
4.39420	800142
4.40232	718396
4.41043	669972
4.41857	625445
4.42668	610084
4.43482	566078
4.44293	543604
4.45105	523013
4.45918	501897
4.46730	482967
4.47542	449505
4.48355	448126
4.49167	421792
4.49980	418319
4.50792	420783
4.51603	403492
4.52417	395346
4.53228	392586
4.54042	381865
4.54853	394327
4.55665	381970
4.56478	383681
4.57290	370803
4.58102	369531
4.58915	362551
4.59727	350590
4.60540	359557
4.61352	343696
4.62163	339740
4.62977	348690
4.63788	414176
4.64602	517962
4.65413	615301
4.66225	612487
4.67038	530100
4.67850	438923
4.68663	407266
4.69475	392049
4.70287	360993
4.71100	345458
4.71912	331467
4.72723	311540
4.73537	305833
4.74348	295058
4.75162	292978
4.75973	287263
4.76785	276163
4.77598	274519
4.78410	281952
4.79223	275333
4.80035	282826
4.80847	337790
4.81660	413297
4.82472	449545
4.83283	428509
4.84097	384854
4.84908	375876
4.85722	377096
4.86533	390589
4.87345	382478
4.88158	362856
4.88970	334694
4.89783	311692
4.90595	307086
4.91407	286407
4.92220	284478
4.93032	266136
4.93845	274816
4.94657	299510
4.95468	456342
4.96282	1009638
4.97093	2202750
4.97905	3602941
4.98718	4514350
4.99530	4295313
5.00343	3438841
5.01155	2538575
5.01967	1884370
5.02780	1495455
5.03592	1253084
5.04405	1167465
5.05217	1119739
5.06028	1091890
5.06842	1000552
5.07653	880631
5.08467	797939
5.09278	725736
5.10090	667291
5.10903	635660
5.11715	577546
5.12527	544777
5.13340	498956
5.14152	467363
5.14965	449363
5.15777	446460
5.16588	466496
5.17402	500942
5.18213	553535
5.19027	563157
5.19838	544265
5.20650	533608
5.21463	540872
5.22275	534539
5.23087	512872
5.23900	485845
5.24712	469071
5.25525	448604
5.26337	423054
5.27148	397803
5.27962	367038
5.28773	339656
5.29587	336170
5.30398	325344
5.31210	313677
5.32023	317977
5.32835	322661
5.33648	321904
5.34460	331090
5.35272	351929
5.36085	361629
5.36897	350141
5.37708	331050
5.38522	307625
5.39333	305405
5.40147	305580
5.40958	307989
5.41770	306631
5.42583	286721
5.43395	285321
5.44208	277555
5.45020	269447
5.45832	270334
5.46645	276677
5.47457	279087
5.48270	280467
5.49082	272071
5.49893	257833
5.50707	248905
5.51518	243234
5.52330	246641
5.53143	247067
5.53955	253168
5.54768	255243
5.55580	244248
5.56392	249969
5.57205	261588
5.58017	311083
5.58830	357245
5.59642	373636
5.60453	347782
5.61267	313455
5.62078	277040
5.62890	262683
5.63703	272297
5.64515	297375
5.65328	314055
5.66140	299885
5.66952	282399
5.67765	261164
5.68577	254064
5.69390	276785
5.70202	322335
5.71013	371562
5.71827	384350
5.72638	353535
5.73452	316705
5.74263	271562
5.75075	246427
5.75888	235508
5.76700	224992
5.77512	220359
5.78325	213069
5.79137	212359
5.79950	215637
5.80762	202835
5.81573	204072
5.82387	209277
5.83198	194922
5.84012	207323
5.84823	194860
5.85635	196834
5.86448	196931
5.87260	191598
5.88072	187888
5.88885	183982
5.89697	179092
5.90510	177899
5.91322	173551
5.92133	163321
5.92947	166027
5.93758	172161
5.94572	160345
5.95383	158997
5.96195	167712
5.97008	187074
5.97820	232499
5.98633	302980
5.99445	420283
6.00257	489554
6.01070	520445
6.01882	451124
6.02693	375077
6.03507	301298
6.04318	262520
6.05132	230592
6.05943	204958
6.06755	200360
6.07568	189570
6.08380	186543
6.09193	180374
6.10005	172261
6.10817	166066
6.11630	170609
6.12442	164202
6.13255	166941
6.14067	189987
6.14878	257877
6.15692	350431
6.16503	438026
6.17315	429678
6.18128	371870
6.18940	307630
6.19753	262307
6.20565	240922
6.21377	230804
6.22190	218486
6.23002	211033
6.23815	208124
6.24627	205129
6.25438	201942
6.26252	205397
6.27063	212330
6.27875	214045
6.28688	211992
6.29500	212390
6.30313	206288
6.31125	200698
6.31937	200672
6.32750	197828
6.33562	197950
6.34375	202365
6.35187	210416
6.35998	222029
6.36812	220174
6.37623	216919
6.38437	208548
6.39248	200129
6.40060	202785
6.40873	210039
6.41685	206688
6.42497	212678
6.43310	200476
6.44122	203388
6.44935	200148
6.45747	208137
6.46558	213933
6.47372	199220
6.48183	222417
6.48997	210383
6.49808	210271
6.50620	207877
6.51433	217959
6.52245	217321
6.53058	208575
6.53870	224564
6.54682	210010
6.55495	205321
6.56307	214706
6.57118	210713
6.57932	232425
6.58743	244917
6.59557	286205
6.60368	303973
6.61180	278201
6.61993	263021
6.62805	242807
6.63618	242564
6.64430	224145
6.65242	231089
6.66055	235768
6.66867	264127
6.67678	316292
6.68492	391523
6.69303	423037
6.70117	387454
6.70928	318546
6.71740	257390
6.72553	202488
6.73365	184036
6.74178	188717
6.74990	177364
6.75802	171904
6.76615	156658
6.77427	159226
6.78240	152415
6.79052	143675
6.79863	141386
6.80677	142364
6.81488	132143
6.82300	137150
6.83113	134353
6.83925	130694
6.84738	131086
6.85550	135880
6.86362	143463
6.87175	165241
6.87987	184573
6.88800	206004
6.89612	205290
6.90423	175259
6.91237	145849
6.92048	125099
6.92860	116509
6.93673	99953
6.94485	105357
6.95298	101281
6.96110	101325
6.96922	100809
6.97735	114309
6.98547	134041
6.99360	163445
7.00172	187966
7.00983	187127
7.01797	153050
7.02608	131794
7.03422	119371
7.04233	109757
7.05045	103967
7.05858	101161
7.06670	97869
7.07482	104536
7.08295	103119
7.09107	102276
7.09920	102497
7.10732	99831
7.11543	97219
7.12357	93646
7.13168	92156
7.13982	90366
7.14793	100042
7.15605	115579
7.16418	141522
7.17230	179812
7.18043	222709
7.18855	218507
7.19667	220616
7.20480	186056
7.21292	213794
7.22103	376998
7.22917	819181
7.23728	1528965
7.24542	2038239
7.25353	1996882
7.26165	1451510
7.26978	847758
7.27790	498488
7.28603	310868
7.29415	191454
7.30227	138609
7.31040	115289
7.31852	113670
7.32663	106981
7.33477	113483
7.34288	121992
7.35102	118866
7.35913	126391
7.36725	116120
7.37538	112834
7.38350	106211
7.39163	100714
7.39975	110716
7.40787	114970
7.41600	119592
7.42412	131538
7.43225	121675
7.44037	118934
7.44848	110829
7.45662	104267
7.46473	107355
7.47285	99005
7.48098	94557
7.48910	94811
7.49723	98073
7.50535	89904
7.51347	91757
7.52160	87004
7.52972	82904
7.53785	96049
7.54597	114465
7.55408	163883
7.56222	240760
7.57033	341907
7.57847	455251
7.58658	512486
7.59470	507328
7.60283	434966
7.61095	337779
7.61907	244573
7.62720	190865
7.63532	145499
7.64345	126488
7.65157	111351
7.65968	106613
7.66782	98230
7.67593	96033
7.68407	92927
7.69218	90857
7.70030	90036
7.70843	83981
7.71655	81517
7.72467	82423
7.73280	91789
7.74092	91318
7.74905	84963
7.75717	85611
7.76528	90364
7.77342	93460
7.78153	89332
7.78967	86241
7.79778	87042
7.80590	91626
7.81403	95451
7.82215	103251
7.83028	104348
7.83840	100219
7.84652	98414
7.85465	90292
7.86277	77062
7.87088	76467
7.87902	81505
7.88713	86490
7.89527	85345
7.90338	96156
7.91150	100141
7.91963	95722
7.92775	91094
7.93588	107407
7.94400	131902
7.95212	198937
7.96025	271985
7.96837	321978
7.97650	309471
7.98462	254681
7.99273	201355
8.00087	154596
8.00898	120798
8.01710	103405
8.02523	93073
8.03335	88559
8.04148	92000
8.04960	89089
8.05772	83230
8.06585	86103
8.07397	80146
8.08210	78541
8.09022	76566
8.09833	80192
8.10647	78669
8.11458	73641
8.12270	83841
8.13083	74936
8.13895	78540
8.14708	82905
8.15520	89789
8.16332	107856
8.17145	119332
8.17957	120735
8.18770	105743
8.19582	95238
8.20393	85136
8.21207	82493
8.22018	87872
8.22832	80396
8.23643	73295
8.24455	77474
8.25268	73141
8.26080	71103
8.26892	70340
8.27705	73201
8.28517	73050
8.29330	69519
8.30142	75328
8.30953	73453
8.31767	73304
8.32578	79714
8.33392	93184
8.34203	99841
8.35015	104615
8.35828	96816
8.36640	92076
8.37452	80423
8.38265	83600
8.39077	71667
8.39890	75601
8.40702	77607
8.41513	75899
8.42327	76273
8.43138	73975
8.43952	74870
8.44763	71264
8.45575	70329
8.46388	71905
8.47200	69366
8.48013	71575
8.48825	68543
8.49637	70398
8.50450	70831
8.51262	70385
8.52073	70584
8.52887	81044
8.53698	94142
8.54512	146512
8.55323	249425
8.56135	378471
8.56948	425736
8.57760	388992
8.58573	298193
8.59385	190575
8.60197	138367
8.61010	120890
8.61822	109279
8.62635	103822
8.63447	95035
8.64258	102567
8.65072	98391
8.65883	90053
8.66695	92628
8.67508	86574
8.68320	83863
8.69133	88635
8.69945	84895
8.70757	85290
8.71570	85691
8.72382	87719
8.73195	86962
8.74007	82429
8.74818	81756
8.75632	85096
8.76443	81450
8.77255	82366
8.78068	120059
8.78880	239830
8.79693	541869
8.80505	1050544
8.81317	1531451
8.82130	1782127
8.82942	1614031
8.83755	1171962
8.84567	787139
8.85378	559488
8.86192	430711
8.87003	367840
8.87817	328536
8.88628	292908
8.89440	274809
8.90253	250653
8.91065	244879
8.91877	211521
8.92690	195097
8.93502	193982
8.94315	190398
8.95127	200211
8.95938	208877
8.96752	210099
8.97563	208407
8.98377	188920
8.99188	173728
9.00000	166525
9.00813	161528
9.01625	167360
9.02438	150779
9.03250	156705
9.04062	140903
9.04875	139299
9.05687	138320
9.06498	131269
9.07312	126268
9.08123	127097
9.08937	123104
9.09748	120717
9.10560	123542
9.11373	127227
9.12185	128843
9.12998	135525
9.13810	145133
9.14622	155535
9.15435	149437
9.16247	142159
9.17058	132867
9.17872	120044
9.18683	121604
9.19497	122791
9.20308	120550
9.21120	113907
9.21933	110079
9.22745	107244
9.23558	103633
9.24370	106620
9.25182	104346
9.25995	105152
9.26807	105174
9.27620	108955
9.28432	102934
9.29243	93503
9.30057	101137
9.30868	98238
9.31680	96773
9.32493	99699
9.33305	89279
9.34118	89957
9.34930	96054
9.35742	91169
9.36555	86406
9.37367	89007
9.38180	84912
9.38992	90128
9.39803	90070
9.40617	83484
9.41428	85648
9.42240	89434
9.43053	93677
9.43865	95392
9.44678	107319
9.45490	120479
9.46302	128629
9.47115	120001
9.47927	108712
9.48740	115863
9.49552	99679
9.50363	91234
9.51177	89102
9.51988	85957
9.52802	92329
9.53613	104408
9.54425	117286
9.55238	120210
9.56050	123263
9.56862	113959
9.57675	103205
9.58487	99295
9.59300	95364
9.60112	96659
9.60923	103288
9.61737	103994
9.62548	101231
9.63362	88200
9.64173	84811
9.64985	77910
9.65798	71247
9.66610	73049
9.67423	64191
9.68235	65181
9.69047	67163
9.69860	63565
9.70672	63228
9.71483	66491
9.72297	66762
9.73108	63433
9.73922	63612
9.74733	61479
9.75545	63961
9.76358	63790
9.77170	59300
9.77983	60874
9.78795	59108
9.79607	60045
9.80420	60281
9.81232	58241
9.82045	57872
9.82857	56468
9.83668	54336
9.84482	54540
9.85293	55831
9.86105	61554
9.86918	64124
9.87730	63685
9.88543	65546
9.89355	66470
9.90167	62531
9.90980	63916
9.91792	58575
9.92605	55540
9.93417	58092
9.94228	62896
9.95042	71679
9.95853	84934
9.96665	106426
9.97478	135108
9.98290	146130
9.99103	142165
9.99915	127148
10.00727	103624
10.01540	97780
10.02352	94815
10.03165	104990
10.03977	114748
10.04788	102861
10.05602	101714
10.06413	90168
10.07227	86079
10.08038	84209
10.08850	84252
10.09663	86789
10.10475	80493
10.11287	79597
10.12100	80706
10.12912	79516
10.13725	78563
10.14537	74883
10.15348	71654
10.16162	67714
10.16973	68273
10.17787	71009
10.18598	64885
10.19410	62749
10.20223	65203
10.21035	62309
10.21847	68626
10.22660	63338
10.23472	59105
10.24285	63632
10.25097	73321
10.25908	79577
10.26722	82832
10.27533	112144
10.28347	188723
10.29158	401713
10.29970	852738
10.30783	1555457
10.31595	2391842
10.32408	3349101
10.33220	4796298
10.34032	7017725
10.34845	9520044
10.35657	1.091626E+07
10.36468	9890491
10.37282	7076027
10.38093	4064196
10.38907	2173726
10.39718	1224545
10.40530	815932
10.41343	601024
10.42155	454678
10.42968	367085
10.43780	307569
10.44592	274427
10.45405	245211
10.46217	228600
10.47030	221361
10.47842	198770
10.48653	191503
10.49467	174143
10.50278	165090
10.51090	163441
10.51903	147464
10.52715	141231
10.53528	139035
10.54340	141310
10.55152	139372
10.55965	135609
10.56777	130889
10.57590	125560
10.58402	125500
10.59213	118604
10.60027	122300
10.60838	116634
10.61650	112342
10.62463	119640
10.63275	106450
10.64088	99336
10.64900	105145
10.65712	96573
10.66525	91395
10.67337	93846
10.68150	91458
10.68962	92143
10.69773	96954
10.70587	92620
10.71398	104790
10.72212	99274
10.73023	99579
10.73835	96873
10.74648	100888
10.75460	94765
10.76272	94184
10.77085	94173
10.77897	93762
10.78710	96344
10.79522	97554
10.80333	92562
10.81147	87356
10.81958	84756
10.82772	79956
10.83583	83840
10.84395	79775
10.85208	79278
10.86020	80797
10.86833	75599
10.87645	75695
10.88457	75210
10.89270	69265
10.90082	69048
10.90893	75791
10.91707	72652
10.92518	71267
10.93332	67781
10.94143	67317
10.94955	65810
10.95768	77755
10.96580	71741
10.97393	65802
10.98205	67266
10.99017	70652
10.99830	75433
11.00642	76522
11.01453	66404
11.02267	75112
11.03078	70049
11.03892	69049
11.04703	61839
11.05515	62791
11.06328	60950
11.07140	58974
11.07953	61727
11.08765	63114
11.09577	65623
11.10390	65245
11.11202	66077
11.12015	66406
11.12827	69177
11.13638	62202
11.14452	57227
11.15263	57361
11.16075	56843
11.16888	53984
11.17700	60388
11.18513	59478
11.19325	66692
11.20137	85058
11.20950	89972
11.21762	90452
11.22575	87781
11.23387	86414
11.24198	77966
11.25012	69347
11.25823	68676
11.26635	59324
11.27448	61147
11.28260	62383
11.29073	54617
11.29885	54341
11.30697	54736
11.31510	61409
11.32322	71312
11.33135	94888
11.33947	136189
11.34758	184342
11.35572	244744
11.36383	289771
11.37197	298135
11.38008	265031
11.38820	208989
11.39633	155150
11.40445	133324
11.41257	112233
11.42070	102760
11.42882	95628
11.43695	90757
11.44507	80987
11.45318	77195
11.46132	74669
11.46943	69697
11.47757	76412
11.48568	74169
11.49380	86817
11.50193	107146
11.51005	136720
11.51818	158446
11.52630	166445
11.53442	160484
11.54255	144899
11.55067	119990
11.55878	103883
11.56692	99264
11.57503	90500
11.58317	87084
11.59128	80089
11.59940	76604
11.60753	83898
11.61565	88530
11.62378	113860
11.63190	131342
11.64002	154662
11.64815	157121
11.65627	139677
11.66438	116997
11.67252	93696
11.68063	84167
11.68877	73191
11.69688	70897
11.70500	74671
11.71313	71173
11.72125	73904
11.72938	77406
11.73750	78354
11.74562	81715
11.75375	81274
11.76187	75525
11.77000	73266
11.77812	63017
11.78623	64034
11.79437	70238
11.80248	67666
11.81060	65470
11.81873	63236
11.82685	62505
11.83498	60819
11.84310	61449
11.85122	70625
11.85935	75929
11.86747	91259
11.87560	99774
11.88372	107472
11.89183	93556
11.89997	84406
11.90808	67951
11.91622	63781
11.92433	56813
11.93245	60633
11.94058	59981
11.94870	61195
11.95682	67215
11.96495	67697
11.97307	59865
11.98120	60348
11.98932	50877
11.99743	60439
12.00557	58779
12.01368	66455
12.02182	78505
12.02993	87601
12.03805	91433
12.04618	85002
12.05430	80401
12.06242	62819
12.07055	67220
12.07867	59028
12.08680	57115
12.09492	58176
12.10303	57533
12.11117	57599
12.11928	59966
12.12742	66744
12.13553	65837
12.14365	71359
12.15178	79549
12.15990	81685
12.16803	85616
12.17615	76486
12.18427	63641
12.19240	61275
12.20052	53810
12.20863	60481
12.21677	60204
12.22488	56787
12.23302	63215
12.24113	56133
12.24925	56731
12.25738	56654
12.26550	53704
12.27363	56807
12.28175	59536
12.28987	54871
12.29800	52263
12.30612	54405
12.31423	50948
12.32237	54241
12.33048	61828
12.33862	57927
12.34673	54281
12.35485	49985
12.36298	54281
12.37110	51586
12.37923	51903
12.38735	56272
12.39547	56559
12.40360	56405
12.41172	71411
12.41985	81237
12.42797	102728
12.43608	127570
12.44422	167154
12.45233	179465
12.46045	160102
12.46858	146827
12.47670	126013
12.48483	109142
12.49295	83480
12.50107	74307
12.50920	73530
12.51732	63201
12.52545	66217
12.53357	63165
12.54168	63568
12.54982	61506
12.55793	62778
12.56607	72538
12.57418	80435
12.58230	82966
12.59043	89037
12.59855	87032
12.60667	80021
12.61480	68411
12.62292	60831
12.63105	63960
12.63917	63652
12.64728	57761
12.65542	59501
12.66353	56797
12.67167	51636
12.67978	52988
12.68790	54421
12.69603	53337
12.70415	51089
12.71227	56361
12.72040	58592
12.72852	58459
12.73665	65325
12.74477	75861
12.75288	88075
12.76102	96719
12.76913	88085
12.77727	80819
12.78538	72575
12.79350	62995
12.80163	55847
12.80975	56062
12.81788	58087
12.82600	50605
12.83412	54859
12.84225	50029
12.85037	46821
12.85848	47956
12.86662	45758
12.87473	44555
12.88287	45251
12.89098	48876
12.89910	49057
12.90723	50604
12.91535	46186
12.92348	46199
12.93160	49158
12.93972	46394
12.94785	48828
12.95597	48034
12.96410	43965
12.97222	46709
12.98033	49623
12.98847	48489
12.99658	53532
13.00470	54009
13.01283	54838
13.02095	50231
13.02908	48851
13.03720	49455
13.04532	48371
13.05345	45986
13.06157	45092
13.06970	44576
13.07782	49920
13.08593	41345
13.09407	53298
13.10218	48685
13.11030	46131
13.11843	50132
13.12655	47891
13.13468	47179
13.14280	47457
13.15092	45017
13.15905	50328
13.16717	42782
13.17530	44118
13.18342	52556
13.19153	43346
13.19967	51969
13.20778	52245
13.21592	61517
13.22403	56997
13.23215	55103
13.24028	61307
13.24840	56790
13.25652	58336
13.26465	61408
13.27277	52923
13.28090	51942
13.28902	48147
13.29713	51828
13.30527	52172
13.31338	44693
13.32152	48897
13.32963	41075
13.33775	44556
13.34588	45215
13.35400	44765
13.36213	50178
13.37025	44228
13.37837	47458
13.38650	44383
13.39462	46095
13.40273	42189
13.41087	43406
13.41898	41777
13.42712	40673
13.43523	41409
13.44335	45586
13.45148	46068
13.45960	46397
13.46773	41941
13.47585	42333
13.48397	46118
13.49210	43251
13.50022	43629
13.50833	42079
13.51647	46894
13.52458	46471
13.53272	49217
13.54083	46570
13.54895	50461
13.55708	48159
13.56520	46404
13.57333	45340
13.58145	46206
13.58957	44077
13.59770	51516
13.60582	47599
13.61395	49831
13.62207	53054
13.63018	55474
13.63832	56463
13.64643	60383
13.65455	55613
13.66268	53417
13.67080	48198
13.67893	46989
13.68705	43642
13.69517	43863
13.70330	42580
13.71142	40619
13.71955	43009
13.72767	40510
13.73578	42346
13.74392	44770
13.75203	45635
13.76015	52885
13.76828	60797
13.77640	79071
13.78453	108794
13.79265	150760
13.80077	161049
13.80890	184938
13.81702	178546
13.82515	179103
13.83327	167607
13.84138	177121
13.84952	188576
13.85763	190899
13.86577	186789
13.87388	172623
13.88200	144319
13.89013	125425
13.89825	109017
13.90637	94380
13.91450	80488
13.92262	75585
13.93075	70172
13.93887	63688
13.94698	66882
13.95512	66106
13.96323	68467
13.97137	75171
13.97948	90879
13.98760	108094
13.99573	132291
14.00385	146276
14.01198	150791
14.02010	144196
14.02822	123836
14.03635	95478
14.04447	81313
14.05258	76788
14.06072	73752
14.06883	68300
14.07697	66895
14.08508	69954
14.09320	64983
14.10133	70123
14.10945	68428
14.11758	59984
14.12570	64287
14.13382	68670
14.14195	60873
14.15007	56820
14.15818	60198
14.16632	64835
14.17443	64937
14.18257	63971
14.19068	70919
14.19880	73465
14.20693	92232
14.21505	128069
14.22318	179178
14.23130	227932
14.23942	272476
14.24755	254295
14.25567	244952
14.26380	215902
14.27192	194068
14.28003	187113
14.28817	172951
14.29628	155037
14.30440	136775
14.31253	123820
14.32065	115989
14.32878	96680
14.33690	96014
14.34502	96225
14.35315	90324
14.36127	85077
14.36940	79382
14.37752	83513
14.38563	73123
14.39377	67989
14.40188	66273
14.41002	57958
14.41813	61620
14.42625	66944
14.43438	72529
14.44250	77077
14.45062	77952
14.45875	70068
14.46687	69050
14.47500	64830
14.48312	63410
14.49123	59715
14.49937	53619
14.50748	55424
14.51562	54876
14.52373	57050
14.53185	65896
14.53998	61940
14.54810	59143
14.55622	54860
14.56435	57569
14.57247	56588
14.58060	54474
14.58872	55449
14.59683	53508
14.60497	50601
14.61308	51075
14.62122	51895
14.62933	46930
14.63745	49768
14.64558	47741
14.65370	48335
14.66183	48252
14.66995	50480
14.67807	47897
14.68620	46547
14.69432	46204
14.70243	47315
14.71057	44541
14.71868	49013
14.72682	43286
14.73493	51657
14.74305	50611
14.75118	50960
14.75930	51445
14.76743	51331
14.77555	51221
14.78367	51354
14.79180	51639
14.79992	57827
14.80803	93988
14.81617	200850
14.82428	505675
14.83242	1201647
14.84053	2224839
14.84865	3266039
14.85678	3857565
14.86490	3572177
14.87303	2738804
14.88115	1804170
14.88927	1105798
14.89740	692914
14.90552	490586
14.91365	381394
14.92177	319561
14.92988	276984
14.93802	245412
14.94613	236393
14.95425	217485
14.96238	195371
14.97050	185260
14.97863	176479
14.98675	167010
14.99487	157052
15.00300	156933
15.01112	152727
15.01925	144043
15.02737	132879
15.03548	137977
15.04362	126513
15.05173	118499
15.05987	114544
15.06798	109692
15.07610	117682
15.08423	109588
15.09235	107999
15.10047	95042
15.10860	103935
15.11672	100122
15.12485	89951
15.13297	93401
15.14108	95532
15.14922	100833
15.15733	106335
15.16547	115765
15.17358	110715
15.18170	102796
15.18983	97067
15.19795	83930
15.20608	74665
15.21420	71251
15.22232	75504
15.23045	63247
15.23857	69867
15.24668	60930
15.25482	59083
15.26293	57827
15.27107	58596
15.27918	59807
15.28730	65991
15.29543	58032
15.30355	56545
15.31168	58482
15.31980	54580
15.32792	58102
15.33605	53837
15.34417	54592
15.35228	49679
15.36042	58018
15.36853	54745
15.37667	56031
15.38478	57526
15.39290	60019
15.40103	57082
15.40915	56390
15.41728	54859
15.42540	57620
15.43352	49340
15.44165	52510
15.44977	56773
15.45790	49480
15.46602	51661
15.47413	54216
15.48227	54008
15.49038	57616
15.49850	68865
15.50663	75310
15.51475	87193
15.52288	92158
15.53100	97860
15.53912	97929
15.54725	83949
15.55537	81515
15.56350	79965
15.57162	70722
15.57973	62012
15.58787	59610
15.59598	62805
15.60410	58744
15.61223	56423
15.62035	53791
15.62848	57604
15.63660	55283
15.64472	55110
15.65285	57125
15.66097	53518
15.66910	55645
15.67722	53557
15.68533	51935
15.69347	49384
15.70158	47780
15.70972	55813
15.71783	47276
15.72595	50353
15.73408	46479
15.74220	49960
15.75032	52651
15.75845	57032
15.76657	59320
15.77470	76021
15.78282	101086
15.79093	161441
15.79907	216599
15.80718	287687
15.81532	301704
15.82343	269157
15.83155	209678
15.83968	161276
15.84780	120352
15.85593	106682
15.86405	87370
15.87217	78244
15.88030	82808
15.88842	85006
15.89653	75075
15.90467	68465
15.91278	71672
15.92092	64899
15.92903	70214
15.93715	66394
15.94528	61905
15.95340	69905
15.96153	64298
15.96965	63342
15.97777	65688
15.98590	75952
15.99402	86028
16.00213	84865
16.01027	86865
16.01838	96179
16.02652	109803
16.03463	120267
16.04275	129177
16.05088	138609
16.05900	143836
16.06713	116501
16.07525	100937
16.08337	90144
16.09150	80967
16.09962	74450
16.10775	71105
16.11587	69922
16.12398	70865
16.13212	73137
16.14023	66357
16.14835	68437
16.15648	68366
16.16460	69564
16.17273	72932
16.18085	65713
16.18897	68177
16.19710	65016
16.20522	62707
16.21335	62467
16.22147	59269
16.22958	57679
16.23772	61553
16.24583	60192
16.25397	58757
16.26208	58983
16.27020	59340
16.27833	56955
16.28645	54636
16.29457	54199
16.30270	55439
16.31082	60382
16.31895	63040
16.32707	63427
16.33518	59531
16.34332	62025
16.35143	62929
16.35957	62885
16.36768	69191
16.37580	71679
16.38393	88176
16.39205	101186
16.40017	104861
16.40830	100067
16.41642	94157
16.42455	81925
16.43267	70594
16.44078	68698
16.44892	69127
16.45703	78444
16.46517	97511
16.47328	154469
16.48140	290703
16.48953	497614
16.49765	716367
16.50578	863783
16.51390	796872
16.52202	634680
16.53015	427069
16.53827	272825
16.54638	190215
16.55452	153203
16.56263	130623
16.57077	109438
16.57888	105442
16.58700	100894
16.59513	99613
16.60325	97469
16.61138	90829
16.61950	98433
16.62762	100209
16.63575	92529
16.64387	93242
16.65198	88344
16.66012	85717
16.66823	74980
16.67637	80122
16.68448	76256
16.69260	73892
16.70073	68366
16.70885	64419
16.71698	66897
16.72510	66193
16.73322	62638
16.74135	56922
16.74947	58289
16.75760	61626
16.76572	63620
16.77383	63268
16.78197	72034
16.79008	75428
16.79820	65407
16.80633	61891
16.81445	66602
16.82258	60283
16.83070	55303
16.83882	52991
16.84695	55332
16.85507	53773
16.86320	52978
16.87132	53168
16.87943	49925
16.88757	45770
16.89568	51980
16.90382	50339
16.91193	54466
16.92005	51078
16.92818	47235
16.93630	48657
16.94442	51431
16.95255	53296
16.96067	53306
16.96880	50436
16.97692	49211
16.98503	51862
16.99317	49469
17.00128	49410
17.00942	46853
17.01753	48555
17.02565	51276
17.03378	55210
17.04190	54023
17.05002	51245
17.05815	50715
17.06627	54714
17.07440	59986
17.08252	65252
17.09063	57660
17.09877	60232
17.10688	55194
17.11502	60099
17.12313	54225
17.13125	54726
17.13938	49983
17.14750	53752
17.15563	60046
17.16375	54156
17.17187	54986
17.18000	59642
17.18812	53405
17.19623	50981
17.20437	58303
17.21248	55887
17.22062	52301
17.22873	57079
17.23685	54077
17.24498	51486
17.25310	53234
17.26123	57050
17.26935	56525
17.27747	54265
17.28560	55968
17.29372	50966
17.30185	51629
17.30997	52510
17.31808	47707
17.32622	51181
17.33433	51919
17.34245	51758
17.35058	59342
17.35870	64841
17.36683	60375
17.37495	65305
17.38307	70227
17.39120	63709
17.39932	67564
17.40745	64314
17.41557	62835
17.42368	61253
17.43182	64074
17.43993	60131
17.44805	62247
17.45618	57588
17.46430	56091
17.47243	54911
17.48055	57926
17.48867	54678
17.49680	53657
17.50492	59792
17.51305	51222
17.52117	53115
17.52928	59481
17.53742	54294
17.54553	52976
17.55367	55236
17.56178	58445
17.56990	55829
17.57803	73773
17.58615	96483
17.59427	133913
17.60240	203663
17.61052	321767
17.61865	411736
17.62677	475426
17.63488	481468
17.64302	434528
17.65113	342255
17.65927	282805
17.66738	251149
17.67550	246394
17.68363	260151
17.69175	262251
17.69988	254157
17.70800	215112
17.71612	176359
17.72425	140675
17.73237	124344
17.74048	107572
17.74862	102503
17.75673	99052
17.76487	85647
17.77298	83976
17.78110	83250
17.78923	82673
17.79735	77336
17.80548	78930
17.81360	77530
17.82172	83855
17.82985	107891
17.83797	135776
17.84608	155680
17.85422	152955
17.86233	165560
17.87047	147669
17.87858	128643
17.88670	102388
17.89483	100617
17.90295	90246
17.91108	87887
17.91920	76201
17.92732	73397
17.93545	66331
17.94357	64353
17.95170	59196
17.95982	62384
17.96793	58534
17.97607	61501
17.98418	58392
17.99230	57717
18.00043	53742
18.00855	53978
18.01668	54298
18.02480	62087
18.03292	63211
18.04105	74469
18.04917	78577
18.05730	92448
18.06542	105870
18.07353	144793
18.08167	284942
18.08978	549011
18.09790	984389
18.10603	1555494
18.11415	1921371
18.12228	1990194
18.13040	1672613
18.13852	1256439
18.14665	912720
18.15477	689208
18.16290	530995
18.17102	457399
18.17913	388453
18.18727	350237
18.19538	305437
18.20352	281218
18.21163	256305
18.21975	235076
18.22788	217576
18.23600	198299
18.24412	181050
18.25225	182556
18.26037	160104
18.26850	155908
18.27662	150183
18.28473	142229
18.29287	126291
18.30098	110568
18.30912	97281
18.31723	89279
18.32535	76574
18.33348	74369
18.34160	66172
18.34973	66414
18.35785	63132
18.36597	69618
18.37410	62816
18.38222	64299
18.39033	58937
18.39847	61583
18.40658	55892
18.41472	59352
18.42283	60119
18.43095	57860
18.43908	59202
18.44720	61558
18.45533	66462
18.46345	82747
18.47157	93255
18.47970	122600
18.48782	145432
18.49593	185161
18.50407	200088
18.51218	191597
18.52032	169291
18.52843	140172
18.53655	112461
18.54468	94753
18.55280	82030
18.56093	71009
18.56905	71154
18.57717	66400
18.58530	60121
18.59342	64822
18.60155	61528
18.60967	69799
18.61778	67994
18.62592	66217
18.63403	66625
18.64215	68304
18.65028	68434
18.65840	62180
18.66653	57204
18.67465	62700
18.68277	64050
18.69090	61729
18.69902	57666
18.70715	56517
18.71527	69799
18.72338	110200
18.73152	149261
18.73963	186959
18.74777	202333
18.75588	209295
18.76400	225629
18.77213	232855
18.78025	226529
18.78837	239752
18.79650	235206
18.80462	235929
18.81275	237513
18.82087	229480
18.82898	246719
18.83712	246733
18.84523	253835
18.85337	245345
18.86148	233822
18.86960	233696
18.87773	246385
18.88585	231252
18.89397	240930
18.90210	247855
18.91022	239554
18.91835	242269
18.92647	242725
18.93458	237829
18.94272	246920
18.95083	239729
18.95897	240279
18.96708	247600
18.97520	250651
18.98333	254490
18.99145	239946
18.99958	241147
19.00770	236744
19.01582	229240
19.02395	233470
19.03207	222608
19.04018	222889
19.04832	221612
19.05643	211526
19.06457	213047
19.07268	209632
19.08080	220748
19.08893	215183
19.09705	225858
19.10518	231640
19.11330	256017
19.12142	270566
19.12955	277044
19.13767	277712
19.14578	264762
19.15392	251101
19.16203	230369
19.17017	241048
19.17828	226287
19.18640	228533
19.19453	222010
19.20265	226571
19.21078	216316
19.21890	218712
19.22702	214128
19.23515	212920
19.24327	203538
19.25140	197941
19.25952	192653
19.26763	200656
19.27577	196898
19.28388	198393
19.29200	211772
19.30013	221797
19.30825	235265
19.31638	239391
19.32450	229312
19.33262	220673
19.34075	219996
19.34887	207923
19.35700	205370
19.36512	203777
19.37323	210915
19.38137	222260
19.38948	233385
19.39762	239291
19.40573	234693
19.41385	224611
19.42198	210878
19.43010	199848
19.43822	186086
19.44635	175088
19.45447	176311
19.46260	173170
19.47072	179824
19.47883	174402
19.48697	171315
19.49508	182955
19.50322	189491
19.51133	198294
19.51945	235085
19.52758	261594
19.53570	283113
19.54382	291282
19.55195	270844
19.56007	243497
19.56820	216186
19.57632	190061
19.58443	169626
19.59257	163182
19.60068	162899
19.60882	160155
19.61693	155343
19.62505	156282
19.63318	155523
19.64130	163780
19.64943	188565
19.65755	259500
19.66567	377861
19.67380	562391
19.68192	814916
19.69003	983184
19.69817	1026007
19.70628	947401
19.71442	772250
19.72253	611969
19.73065	475838
19.73878	380187
19.74690	307981
19.75503	286838
19.76315	242907
19.77127	228309
19.77940	206911
19.78752	199976
19.79565	185020
19.80377	190130
19.81188	188332
19.82002	187091
19.82813	184887
19.83625	181509
19.84438	174603
19.85250	178394
19.86063	237134
19.86875	511097
19.87687	1366685
19.88500	3554597
19.89312	8181268
19.90125	1.503037E+07
19.90937	2.255985E+07
19.91748	2.873159E+07
19.92562	3.192861E+07
19.93373	2.96608E+07
19.94185	2.441707E+07
19.94998	1.765105E+07
19.95810	1.185279E+07
19.96623	8164293
19.97435	6243224
19.98247	5109821
19.99060	4523388
19.99872	4070778
20.00685	3726003
20.01497	3414001
20.02308	3098291
20.03122	2858272
20.03933	2643607
20.04747	2427730
20.05558	2126865
20.06370	1811771
20.07183	1470011
20.07995	1140974
20.08807	854144
20.09620	700186
20.10432	566282
20.11245	516335
20.12057	467831
20.12868	433621
20.13682	423248
20.14493	399636
20.15307	400818
20.16118	399569
20.16930	384509
20.17743	382177
20.18555	388427
20.19367	389251
20.20180	396187
20.20992	388115
20.21805	390209
20.22617	380417
20.23428	355346
20.24242	333654
20.25053	337156
20.25867	348394
20.26678	385228
20.27490	468780
20.28303	612470
20.29115	808260
20.29928	937332
20.30740	1021079
20.31552	972697
20.32365	829593
20.33177	653126
20.33988	505978
20.34802	405736
20.35613	327175
20.36427	266588
20.37238	230142
20.38050	196114
20.38863	177955
20.39675	173459
20.40488	157677
20.41300	150209
20.42112	152808
20.42925	155021
20.43737	167530
20.44550	192209
20.45362	228203
20.46173	248161
20.46987	250368
20.47798	260326
20.48610	234289
20.49423	211743
20.50235	184648
20.51048	171309
20.51860	148867
20.52672	146086
20.53485	137706
20.54297	129419
20.55110	124656
20.55922	126865
20.56733	123557
20.57547	126332
20.58358	125168
20.59172	121910
20.59983	118973
20.60795	117286
20.61608	112663
20.62420	115525
20.63232	113929
20.64045	107493
20.64857	105301
20.65670	104751
20.66482	110890
20.67293	111189
20.68107	107204
20.68918	108470
20.69732	107456
20.70543	98042
20.71355	99030
20.72168	101046
20.72980	102447
20.73792	103179
20.74605	107378
20.75417	99937
20.76230	99068
20.77042	96638
20.77853	99159
20.78667	103657
20.79478	110543
20.80292	115707
20.81103	137740
20.81915	167484
20.82728	203633
20.83540	217214
20.84353	236782
20.85165	229540
20.85977	179305
20.86790	149260
20.87602	130592
20.88413	114773
20.89227	110090
20.90038	102101
20.90852	103932
20.91663	104908
20.92475	101640
20.93288	98081
20.94100	95044
20.94913	96501
20.95725	95018
20.96537	93814
20.97350	99349
20.98162	95198
20.98973	95889
20.99787	87636
21.00598	92515
21.01412	93621
21.02223	86989
21.03035	82388
21.03848	85107
21.04660	85655
21.05473	89774
21.06285	87675
21.07097	91525
21.07910	94786
21.08722	86327
21.09535	92662
21.10347	88787
21.11158	85656
21.11972	86511
21.12783	93022
21.13595	92556
21.14408	97075
21.15220	98161
21.16033	109081
21.16845	113025
21.17657	125478
21.18470	136054
21.19282	125579
21.20095	121372
21.20907	109544
21.21718	110970
21.22532	103145
21.23343	102834
21.24157	99955
21.24968	99202
21.25780	91513
21.26593	93873
21.27405	102208
21.28217	95820
21.29030	89550
21.29842	96684
21.30655	85882
21.31467	98190
21.32278	83724
21.33092	85730
21.33903	87550
21.34717	89333
21.35528	83768
21.36340	85771
21.37153	79724
21.37965	87607
21.38777	80885
21.39590	87887
21.40402	96635
21.41215	104062
21.42027	117639
21.42838	133902
21.43652	130786
21.44463	135137
21.45277	132218
21.46088	120342
21.46900	108135
21.47713	99635
21.48525	99429
21.49338	92738
21.50150	86482
21.50962	84133
21.51775	85893
21.52587	81168
21.53398	83654
21.54212	84069
21.55023	82357
21.55837	77682
21.56648	79370
21.57460	80062
21.58273	79144
21.59085	82954
21.59898	85556
21.60710	87189
21.61522	88974
21.62335	101632
21.63147	98322
21.63960	113607
21.64772	142170
21.65583	164585
21.66397	182132
21.67208	197557
21.68020	180199
21.68833	168692
21.69645	146745
21.70458	127375
21.71270	107948
21.72082	95629
21.72895	89223
21.73707	82220
21.74520	80698
21.75332	76791
21.76143	71323
21.76957	73627
21.77768	74378
21.78580	69686
21.79393	71492
21.80205	73141
21.81018	66728
21.81830	69369
21.82642	76486
21.83455	86637
21.84267	108028
21.85080	125046
21.85892	154558
21.86703	158929
21.87517	152319
21.88328	141029
21.89142	118244
21.89953	95136
21.90765	86460
21.91578	75942
21.92390	78505
21.93202	76906
21.94015	68310
21.94827	68099
21.95640	67656
21.96452	63852
21.97263	62898
21.98077	62138
21.98888	59373
21.99702	58776
22.00513	51728
22.01325	56077
22.02138	56981
22.02950	54128
22.03762	59116
22.04575	55448
22.05387	61813
22.06200	65839
22.07012	59736
22.07823	58537
22.08637	57450
22.09448	56388
22.10262	52744
22.11073	56863
22.11885	56987
22.12698	64078
22.13510	59633
22.14323	54040
22.15135	57785
22.15947	59631
22.16760	63295
22.17572	58563
22.18383	56376
22.19197	58625
22.20008	55343
22.20822	57082
22.21633	56765
22.22445	57535
22.23258	62230
22.24070	67727
22.24883	73496
22.25695	75384
22.26507	70276
22.27320	65638
22.28132	69321
22.28945	63407
22.29757	59599
22.30568	64111
22.31382	66620
22.32193	70387
22.33005	83114
22.33818	102077
22.34630	116362
22.35443	136304
22.36255	131827
22.37067	121673
22.37880	104196
22.38692	97375
22.39505	85574
22.40317	86766
22.41128	92690
22.41942	112687
22.42753	134445
22.43565	143438
22.44378	157875
22.45190	153950
22.46003	146307
22.46815	137842
22.47627	131475
22.48440	130522
22.49252	126487
22.50065	125816
22.50877	128548
22.51688	128252
22.52502	133474
22.53313	131796
22.54127	130609
22.54938	127075
22.55750	119900
22.56563	114859
22.57375	123392
22.58187	116480
22.59000	115706
22.59812	115753
22.60625	109322
22.61437	104642
22.62248	109298
22.63062	103042
22.63873	103671
22.64687	104546
22.65498	108765
22.66310	108003
22.67123	105549
22.67935	111239
22.68748	115831
22.69560	121111
22.70372	122420
22.71185	128002
22.71997	133940
22.72808	140740
22.73622	138804
22.74433	123520
22.75247	119538
22.76058	118541
22.76870	115518
22.77683	112408
22.78495	104334
22.79308	112041
22.80120	110667
22.80932	124188
22.81745	131977
22.82557	139799
22.83368	138833
22.84182	126931
22.84993	124683
22.85807	115646
22.86618	110310
22.87430	103947
22.88243	112008
22.89055	113939
22.89868	114480
22.90680	116932
22.91492	127043
22.92305	133999
22.93117	143936
22.93930	153633
22.94742	171879
22.95553	176869
22.96367	167995
22.97178	156751
22.97990	137566
22.98803	119282
22.99615	107596
23.00428	103159
23.01240	94018
23.02052	94892
23.02865	75953
23.03677	80995
23.04490	70484
23.05302	71427
23.06113	67606
23.06927	62582
23.07738	67967
23.08552	62740
23.09363	64897
23.10175	65048
23.10988	62563
23.11800	62493
23.12612	62769
23.13425	61280
23.14237	59847
23.15050	59473
23.15862	60430
23.16673	54456
23.17487	54241
23.18298	62482
23.19112	63688
23.19923	70068
23.20735	84890
23.21548	101771
23.22360	106383
23.23172	111078
23.23985	117644
23.24797	126304
23.25610	144675
23.26422	148607
23.27233	164433
23.28047	173399
23.28858	169986
23.29672	162784
23.30483	153194
23.31295	148536
23.32108	140028
23.32920	137891
23.33733	136181
23.34545	136987
23.35357	149538
23.36170	161140
23.36982	199172
23.37793	242038
23.38607	307891
23.39418	408954
23.40232	519843
23.41043	615358
23.41855	730055
23.42668	824041
23.43480	874866
23.44293	879782
23.45105	883309
23.45917	843790
23.46730	816021
23.47542	788885
23.48353	727871
23.49167	676007
23.49978	637161
23.50792	586812
23.51603	553771
23.52415	505551
23.53228	467330
23.54040	436063
23.54853	406044
23.55665	376028
23.56477	360161
23.57290	352007
23.58102	346701
23.58915	333635
23.59727	339700
23.60538	328323
23.61352	330228
23.62163	342491
23.62975	327956
23.63788	314154
23.64600	320758
23.65413	353416
23.66225	413246
23.67037	525832
23.67850	609702
23.68662	678527
23.69475	650450
23.70287	581078
23.71098	465000
23.71912	382602
23.72723	323095
23.73537	276618
23.74348	247348
23.75160	247741
23.75973	277124
23.76785	421260
23.77597	816594
23.78410	1633259
23.79222	2989478
23.80035	4363258
23.80847	5327418
23.81658	5449402
23.82472	4833511
23.83283	3669338
23.84097	2686329
23.84908	1953125
23.85720	1451919
23.86533	1118037
23.87345	904417
23.88157	759430
23.88970	648417
23.89782	586262
23.90595	529039
23.91407	475366
23.92218	463496
23.93032	423936
23.93843	407019
23.94657	394978
23.95468	365158
23.96280	348909
23.97093	331378
23.97905	316616
23.98718	300931
23.99530	288752
24.00342	281746
24.01155	265611
24.01967	271459
24.02778	262914
24.03592	261694
24.04403	267558
24.05217	261876
24.06028	269033
24.06840	268193
24.07653	245726
24.08465	233652
24.09278	234001
24.10090	216165
24.10902	205823
24.11715	200571
24.12527	203674
24.13340	211860
24.14152	207285
24.14963	205485
24.15777	221849
24.16588	225778
24.17400	221586
24.18213	216124
24.19025	204172
24.19838	196783
24.20650	192103
24.21462	193174
24.22275	204382
24.23087	204337
24.23900	206654
24.24712	203039
24.25523	199549
24.26337	185633
24.27148	185045
24.27960	174663
24.28773	158929
24.29585	154244
24.30398	157218
24.31210	145670
24.32022	142461
24.32835	133915
24.33647	134171
24.34460	137675
24.35272	120556
24.36083	126285
24.36897	115845
24.37708	113534
24.38522	112294
24.39333	119217
24.40145	124195
24.40958	139143
24.41770	156995
24.42582	161841
24.43395	155271
24.44207	149708
24.45020	131526
24.45832	121824
24.46643	111404
24.47457	110452
24.48268	116593
24.49082	124312
24.49893	129163
24.50705	137531
24.51518	145406
24.52330	161813
24.53142	182260
24.53955	205372
24.54767	237793
24.55580	248822
24.56392	260734
24.57203	264321
24.58017	238803
24.58828	214480
24.59642	191319
24.60453	165912
24.61265	148267
24.62078	143194
24.62890	136264
24.63703	122974
24.64515	120528
24.65327	112357
24.66140	110066
24.66952	119528
24.67763	110248
24.68577	115074
24.69388	113289
24.70202	104346
24.71013	93176
24.71825	92931
24.72638	96618
24.73450	91047
24.74263	94628
24.75075	94578
24.75887	86782
24.76700	88747
24.77512	84627
24.78325	85845
24.79137	93613
24.79948	91516
24.80762	87608
24.81573	89080
24.82385	85577
24.83198	88624
24.84010	101720
24.84823	130494
24.85635	172582
24.86447	215024
24.87260	270156
24.88072	318382
24.88885	408664
24.89697	489891
24.90508	561015
24.91322	590181
24.92133	582225
24.92945	539522
24.93758	448294
24.94570	376233
24.95383	340735
24.96195	308481
24.97007	288199
24.97820	273892
24.98632	276961
24.99445	279872
25.00257	264916
25.01068	263986
25.01882	271643
25.02693	261500
25.03507	262180
25.04318	260752
25.05130	258251
25.05943	250022
25.06755	257276
25.07567	260901
25.08380	261692
25.09192	256955
25.10005	254832
25.10817	273093
25.11628	309903
25.12442	388981
25.13253	596553
25.14067	929645
25.14878	1434271
25.15690	1984643
25.16503	2290391
25.17315	2182417
25.18128	1810143
25.18940	1377442
25.19752	951443
25.20565	669693
25.21377	477671
25.22188	380407
25.23002	334617
25.23813	292212
25.24627	292763
25.25438	275919
25.26250	287027
25.27063	311303
25.27875	304483
25.28688	320645
25.29500	317455
25.30312	298474
25.31125	280827
25.31937	260271
25.32748	251541
25.33562	251121
25.34373	230239
25.35187	223236
25.35998	218809
25.36810	204866
25.37623	198344
25.38435	188731
25.39248	184727
25.40060	178946
25.40872	182660
25.41685	176250
25.42497	166439
25.43310	169560
25.44122	146950
25.44933	130030
25.45747	119781
25.46558	112811
25.47370	104938
25.48183	101039
25.48995	102429
25.49808	111212
25.50620	112092
25.51432	108289
25.52245	106574
25.53057	101091
25.53870	95256
25.54682	91806
25.55493	85272
25.56307	89640
25.57118	84476
25.57930	87540
25.58743	76895
25.59555	82525
25.60368	76222
25.61180	75160
25.61992	82841
25.62805	74905
25.63617	76482
25.64430	76859
25.65242	80791
25.66053	82644
25.66867	84371
25.67678	81141
25.68492	84409
25.69303	78945
25.70115	79574
25.70928	74922
25.71740	74256
25.72552	71564
25.73365	73822
25.74177	71212
25.74990	74096
25.75802	69913
25.76613	74789
25.77427	72303
25.78238	70050
25.79052	70010
25.79863	67541
25.80675	69287
25.81488	73119
25.82300	77019
25.83113	89459
25.83925	116826
25.84737	172584
25.85550	217376
25.86362	247573
25.87173	260198
25.87987	273045
25.88798	279780
25.89612	283322
25.90423	273515
25.91235	276975
25.92048	274926
25.92860	284157
25.93673	289734
25.94485	279544
25.95297	293476
25.96110	274588
25.96922	284955
25.97735	289801
25.98547	271312
25.99358	282384
26.00172	272361
26.00983	277429
26.01795	264440
26.02608	268524
26.03420	276019
26.04233	266083
26.05045	258260
26.05857	265268
26.06670	265637
26.07482	261962
26.08295	269655
26.09107	269899
26.09918	266090
26.10732	256766
26.11543	267160
26.12355	264123
26.13168	257559
26.13980	256132
26.14793	261737
26.15605	257306
26.16417	267350
26.17230	269024
26.18042	262888
26.18855	257620
26.19667	256007
26.20478	245793
26.21292	238095
26.22103	239136
26.22917	240924
26.23728	231407
26.24540	230511
26.25353	220837
26.26165	228464
26.26977	224653
26.27790	223443
26.28602	219551
26.29415	220885
26.30227	224275
26.31038	222210
26.31852	231372
26.32663	212730
26.33477	206148
26.34288	209903
26.35100	216494
26.35913	204664
26.36725	204435
26.37537	200394
26.38350	207602
26.39162	209981
26.39975	219139
26.40787	225624
26.41598	231434
26.42412	229820
26.43223	225044
26.44037	213266
26.44848	215127
26.45660	196323
26.46473	198457
26.47285	190470
26.48098	187439
26.48910	184709
26.49722	172040
26.50535	183560
26.51347	183974
26.52158	172233
26.52972	173480
26.53783	166408
26.54597	165716
26.55408	163290
26.56220	165396
26.57033	162315
26.57845	157798
26.58658	162468
26.59470	161004
26.60282	154159
26.61095	152585
26.61907	155721
26.62720	159608
26.63532	158071
26.64343	148776
26.65157	154799
26.65968	155407
26.66780	153451
26.67593	159704
26.68405	170297
26.69218	157316
26.70030	152763
26.70842	156644
26.71655	152628
26.72467	148050
26.73280	152054
26.74092	146515
26.74903	141906
26.75717	141853
26.76528	137861
26.77340	137535
26.78153	142665
26.78965	140953
26.79778	135463
26.80590	136234
26.81402	137779
26.82215	145869
26.83027	138220
26.83840	141830
26.84652	142985
26.85463	142607
26.86277	137334
26.87088	139958
26.87902	131119
26.88713	135593
26.89525	132374
26.90338	135080
26.91150	131216
26.91962	119695
26.92775	121521
26.93587	123272
26.94400	126634
26.95212	129407
26.96023	119605
26.96837	137491
26.97648	172527
26.98462	266848
26.99273	455839
27.00085	864485
27.00898	1666400
27.01710	2789698
27.02523	3892121
27.03335	4661841
27.04147	4776874
27.04960	4213420
27.05772	3250858
27.06583	2463106
27.07397	1763680
27.08208	1334242
27.09022	1003152
27.09833	780504
27.10645	654286
27.11458	547116
27.12270	482595
27.13083	439016
27.13895	401288
27.14707	385118
27.15520	332223
27.16332	318765
27.17143	294901
27.17957	276770
27.18768	272639
27.19582	264233
27.20393	268777
27.21205	252058
27.22018	238486
27.22830	227538
27.23643	229276
27.24455	207038
27.25267	204969
27.26080	188848
27.26892	194594
27.27705	186136
27.28517	170470
27.29328	165709
27.30142	166537
27.30953	155207
27.31765	159494
27.32578	154815
27.33390	148654
27.34203	150035
27.35015	145526
27.35827	137442
27.36640	137614
27.37452	141569
27.38265	130557
27.39077	130861
27.39888	138267
27.40702	124574
27.41513	130219
27.42325	130128
27.43138	122457
27.43950	116870
27.44763	124082
27.45575	122677
27.46387	115317
27.47200	118952
27.48012	117305
27.48825	109422
27.49637	110571
27.50448	111829
27.51262	107193
27.52073	111550
27.52887	109222
27.53698	108855
27.54510	110681
27.55323	109199
27.56135	110180
27.56947	110901
27.57760	100706
27.58572	114685
27.59385	110170
27.60197	113263
27.61008	119944
27.61822	118238
27.62633	118376
27.63447	116955
27.64258	108586
27.65070	100527
27.65883	99051
27.66695	97908
27.67508	90318
27.68320	93444
27.69132	91168
27.69945	91913
27.70757	86943
27.71568	88132
27.72382	86602
27.73193	87407
27.74007	80607
27.74818	82232
27.75630	83754
27.76443	84278
27.77255	79462
27.78068	84821
27.78880	86229
27.79692	84911
27.80505	86466
27.81317	83982
27.82128	82922
27.82942	84066
27.83753	88306
27.84567	89886
27.85378	83736
27.86190	85632
27.87003	87737
27.87815	82801
27.88628	77125
27.89440	80527
27.90252	82609
27.91065	77740
27.91877	76550
27.92690	78701
27.93502	71331
27.94313	74280
27.95127	71947
27.95938	67142
27.96750	73282
27.97563	71530
27.98375	66797
27.99188	70058
28.00000	73379
28.00812	71837
28.01625	74963
28.02437	74968
28.03250	70694
28.04062	73240
28.04873	70983
28.05687	77749
28.06498	76287
28.07312	76385
28.08123	80951
28.08935	84933
28.09748	78491
28.10560	84355
28.11372	81404
28.12185	78779
28.12997	76372
28.13810	68754
28.14622	70133
28.15433	64779
28.16247	69191
28.17058	61747
28.17872	72396
28.18683	66394
28.19495	71777
28.20308	74633
28.21120	76575
28.21932	86425
28.22745	95811
28.23557	105311
28.24370	103764
28.25182	100520
28.25993	90774
28.26807	85663
28.27618	76809
28.28432	75084
28.29243	75538
28.30055	77370
28.30868	87770
28.31680	98570
28.32493	144770
28.33305	216441
28.34117	308704
28.34930	399206
28.35742	535154
28.36553	653845
28.37367	770694
28.38178	836638
28.38992	862943
28.39803	871442
28.40615	840565
28.41428	765466
28.42240	663043
28.43053	588249
28.43865	504547
28.44677	440368
28.45490	370717
28.46302	326059
28.47115	295343
28.47927	257046
28.48738	241544
28.49552	234850
28.50363	200741
28.51175	191805
28.51988	185857
28.52800	166095
28.53613	159099
28.54425	160014
28.55237	148321
28.56050	152003
28.56862	139643
28.57675	136820
28.58487	133690
28.59298	127823
28.60112	122584
28.60923	123485
28.61735	120125
28.62548	121423
28.63360	117126
28.64173	113714
28.64985	118484
28.65797	122230
28.66610	115877
28.67422	124292
28.68235	122482
28.69047	113739
28.69858	107747
28.70672	109991
28.71483	103971
28.72297	93634
28.73108	102429
28.73920	96745
28.74733	97923
28.75545	89522
28.76357	90578
28.77170	99052
28.77982	97027
28.78795	101205
28.79607	101056
28.80418	109527
28.81232	108534
28.82043	106444
28.82857	98397
28.83668	97487
28.84480	91309
28.85293	85161
28.86105	85608
28.86917	86746
28.87730	84571
28.88542	88972
28.89355	90744
28.90167	90401
28.90978	89656
28.91792	94405
28.92603	93488
28.93417	88994
28.94228	95289
28.95040	86361
28.95853	96962
28.96665	102097
28.97478	99783
28.98290	99301
28.99102	91689
28.99915	98749
29.00727	88163
29.01538	80481
29.02352	81425
29.03163	77597
29.03977	77091
29.04788	82432
29.05600	79104
29.06413	78042
29.07225	80491
29.08038	80854
29.08850	81502
29.09662	80191
29.10475	81298
29.11287	83650
29.12100	81039
29.12912	82567
29.13723	78687
29.14537	80145
29.15348	80930
29.16160	79809
29.16973	76387
29.17785	78589
29.18598	84137
29.19410	83454
29.20222	82768
29.21035	92499
29.21847	111010
29.22660	116277
29.23472	120626
29.24283	124188
29.25097	114507
29.25908	105223
29.26720	94618
29.27533	85949
29.28345	84115
29.29158	78555
29.29970	76694
29.30782	79445
29.31595	78020
29.32407	71235
29.33220	73495
29.34032	73068
29.34843	72656
29.35657	72794
29.36468	78217
29.37282	72254
29.38093	69437
29.38905	73710
29.39718	72366
29.40530	73481
29.41342	69922
29.42155	72821
29.42967	71287
29.43780	70205
29.44592	69557
29.45403	65903
29.46217	67888
29.47028	71012
29.47842	65683
29.48653	67185
29.49465	68991
29.50278	68816
29.51090	75578
29.51903	78855
29.52715	75328
29.53527	75562
29.54340	73976
29.55152	70941
29.55963	68808
29.56777	62012
29.57588	61056
29.58402	64697
29.59213	58351
29.60025	61302
29.60838	59490
29.61650	58888
29.62463	57766
29.63275	61388
29.64087	61601
29.64900	62592
29.65712	57196
29.66523	59474
29.67337	67074
29.68148	58687
29.68962	59617
29.69773	61286
29.70585	60972
29.71398	63046
29.72210	66778
29.73023	66001
29.73835	62156
29.74647	66898
29.75460	65114
29.76272	65924
29.77085	63715
29.77897	61403
29.78708	59130
29.79522	59868
29.80333	54682
29.81145	56416
29.81958	57872
29.82770	54063
29.83583	56873
29.84395	54992
29.85207	57639
29.86020	58929
29.86832	65024
29.87645	65609
29.88457	78780
29.89268	103971
29.90082	137019
29.90893	174664
29.91705	192794
29.92518	188500
29.93330	174244
29.94143	135781
29.94955	114671
29.95767	98991
29.96580	106823
29.97392	118246
29.98205	134597
29.99017	158403
29.99828	182749
30.00642	207738
30.01453	242744
30.02267	275510
30.03078	287280
30.03890	313338
30.04703	309563
30.05515	322607
30.06327	315477
30.07140	287985
30.07952	284240
30.08765	278706
30.09577	257466
30.10388	231076
30.11202	221621
30.12013	208573
30.12827	190664
30.13638	180068
30.14450	162238
30.15263	155579
30.16075	142680
30.16888	138254
30.17700	126583
30.18512	119505
30.19325	121154
30.20137	117923
30.20948	109434
30.21762	105592
30.22573	102663
30.23387	96545
30.24198	95883
30.25010	93131
30.25823	88544
30.26635	85682
30.27448	85948
30.28260	87402
30.29072	82775
30.29885	77272
30.30697	79108
30.31508	81265
30.32322	84430
30.33133	79558
30.33947	81778
30.34758	77959
30.35570	77989
30.36383	76260
30.37195	75303
30.38008	78915
30.38820	73941
30.39632	83214
30.40445	74877
30.41257	70231
30.42070	71912
30.42882	72639
30.43693	68890
30.44507	69430
30.45318	74426
30.46130	69484
30.46943	65226
30.47755	69299
30.48568	74259
30.49380	73619
30.50192	71231
30.51005	64886
30.51817	68168
30.52630	65217
30.53442	64760
30.54253	64143
30.55067	62076
30.55878	63198
30.56692	64370
30.57503	66737
30.58315	64371
30.59128	62871
30.59940	58636
30.60752	62102
30.61565	58393
30.62377	55578
30.63190	61316
30.64002	63407
30.64813	56757
30.65627	56873
30.66438	59392
30.67252	59221
30.68063	62335
30.68875	56020
30.69688	63947
30.70500	59812
30.71312	66957
30.72125	66260
30.72937	65899
30.73750	63661
30.74562	68597
30.75373	67805
30.76187	66056
30.76998	66490
30.77812	68104
30.78623	70110
30.79435	73064
30.80248	85392
30.81060	98734
30.81873	111096
30.82685	113317
30.83497	118524
30.84310	104550
30.85122	97986
30.85933	83764
30.86747	77466
30.87558	80880
30.88372	73206
30.89183	68442
30.89995	74674
30.90808	67780
30.91620	64066
30.92433	66295
30.93245	65891
30.94057	64438
30.94870	65743
30.95682	65494
30.96493	71573
30.97307	64296
30.98118	68095
30.98932	65571
30.99743	62866
31.00555	64448
31.01368	64559
31.02180	62173
31.02993	65081
31.03805	66125
31.04617	69500
31.05430	69058
31.06242	73508
31.07055	67076
31.07867	72567
31.08678	80560
31.09492	106461
31.10303	129914
31.11115	180060
31.11928	214110
31.12740	231819
31.13553	219285
31.14365	184717
31.15177	141968
31.15990	108673
31.16802	101472
31.17615	82743
31.18427	81874
31.19238	85090
31.20052	88457
31.20863	99361
31.21677	118483
31.22488	131857
31.23300	140330
31.24113	150938
31.24925	142235
31.25737	128699
31.26550	113278
31.27362	87474
31.28175	79603
31.28987	71903
31.29798	57505
31.30612	57457
31.31423	68150
31.32237	62494
31.33048	65203
31.33860	64205
31.34673	60944
31.35485	63001
31.36298	57522
31.37110	66197
31.37922	65714
31.38735	75293
31.39547	78033
31.40358	79645
31.41172	80019
31.41983	80817
31.42797	76436
31.43608	66811
31.44420	65241
31.45233	58915
31.46045	58267
31.46858	56086
31.47670	57025
31.48482	58649
31.49295	53462
31.50107	61692
31.50918	59037
31.51732	60386
31.52543	58528
31.53357	57826
31.54168	56992
31.54980	58209
31.55793	55642
31.56605	59843
31.57418	65163
31.58230	66393
31.59042	73172
31.59855	68595
31.60667	71996
31.61480	73424
31.62292	69886
31.63103	70470
31.63917	78757
31.64728	76767
31.65540	77001
31.66353	80174
31.67165	81682
31.67978	85145
31.68790	86516
31.69602	85138
31.70415	80634
31.71227	87411
31.72040	82857
31.72852	84221
31.73663	77709
31.74477	79799
31.75288	75262
31.76100	77039
31.76913	79914
31.77725	76664
31.78538	78176
31.79350	76192
31.80162	81283
31.80975	82838
31.81787	83578
31.82600	77576
31.83412	80706
31.84223	85892
31.85037	81354
31.85848	88804
31.86662	84771
31.87473	91830
31.88285	91601
31.89098	92802
31.89910	95560
31.90722	99107
31.91535	108047
31.92347	113126
31.93160	128020
31.93972	140857
31.94783	146301
31.95597	160836
31.96408	174331
31.97222	192674
31.98033	194757
31.98845	198191
31.99658	195330
32.00470	192994
32.01283	192047
32.02095	182972
32.02907	171296
32.03720	165259
32.04532	151532
32.05343	143871
32.06157	130705
32.06968	131303
32.07782	124770
32.08593	120211
32.09405	114293
32.10218	118162
32.11030	106794
32.11843	105499
32.12655	100340
32.13467	95219
32.14280	89066
32.15092	84890
32.15903	85934
32.16717	83042
32.17528	82531
32.18342	80069
32.19153	78397
32.19965	76268
32.20778	75368
32.21590	79397
32.22403	76940
32.23215	74127
32.24027	73351
32.24840	78520
32.25652	79483
32.26465	76086
32.27277	83187
32.28088	74204
32.28902	74758
32.29713	78013
32.30525	71264
32.31338	68962
32.32150	67268
32.32963	69727
32.33775	68094
32.34587	79218
32.35400	75487
32.36212	75456
32.37025	83029
32.37837	82192
32.38648	77958
32.39462	78260
32.40273	72608
32.41087	66307
32.41898	70344
32.42710	65885
32.43523	65865
32.44335	69192
32.45147	60657
32.45960	61947
32.46772	63127
32.47585	61870
32.48397	60523
32.49208	63018
32.50022	58552
32.50833	56061
32.51647	62223
32.52458	59881
32.53270	65642
32.54083	61905
32.54895	58105
32.55707	59994
32.56520	64834
32.57332	61214
32.58145	57063
32.58957	57523
32.59768	61233
32.60582	69815
32.61393	58678
32.62207	54491
32.63018	52956
32.63830	54757
32.64643	55181
32.65455	59109
32.66268	60106
32.67080	64110
32.67892	65769
32.68705	70813
32.69517	71174
32.70328	68004
32.71142	69783
32.71953	63723
32.72767	64333
32.73578	65595
32.74390	60296
32.75203	61188
32.76015	56764
32.76828	57655
32.77640	55016
32.78452	55034
32.79265	53848
32.80077	51860
32.80888	51051
32.81702	57135
32.82513	50623
32.83327	52177
32.84138	50021
32.84950	61242
32.85763	55146
32.86575	53490
32.87388	51393
32.88200	54791
32.89012	61675
32.89825	51694
32.90637	55911
32.91450	49831
32.92262	54543
32.93073	54232
32.93887	52770
32.94698	52311
32.95510	56398
32.96323	54122
32.97135	51363
32.97948	52661
32.98760	55875
32.99572	62589
33.00385	66713
33.01197	71261
33.02010	70623
33.02822	74745
33.03633	66768
33.04447	64892
33.05258	66607
33.06072	63165
33.06883	61193
33.07695	62930
33.08508	63072
33.09320	73226
33.10132	72647
33.10945	79615
33.11757	88918
33.12570	99685
33.13382	109593
33.14193	115549
33.15007	105615
33.15818	96159
33.16632	82316
33.17443	75482
33.18255	64730
33.19068	61563
33.19880	58393
33.20692	63562
33.21505	64159
33.22317	57520
33.23130	62076
33.23942	61999
33.24753	65672
33.25567	59143
33.26378	57874
33.27192	60638
33.28003	55406
33.28815	51804
33.29628	51165
33.30440	57320
33.31253	50050
33.32065	47908
33.32877	52584
33.33690	49279
33.34502	58075
33.35313	55302
33.36127	56770
33.36938	54100
33.37752	55141
33.38563	54344
33.39375	52263
33.40188	56493
33.41000	53037
33.41813	48444
33.42625	51778
33.43437	49192
33.44250	52933
33.45062	50247
33.45875	52918
33.46687	52211
33.47498	47207
33.48312	50620
33.49123	54558
33.49935	51213
33.50748	55350
33.51560	60270
33.52373	54963
33.53185	52909
33.53997	59114
33.54810	54488
33.55622	55087
33.56435	57987
33.57247	62484
33.58058	60312
33.58872	58263
33.59683	58750
33.60495	55183
33.61308	52917
33.62120	50513
33.62933	54872
33.63745	51491
33.64557	50256
33.65370	50929
33.66182	53624
33.66995	53009
33.67807	53193
33.68618	57722
33.69432	52257
33.70243	56663
33.71057	48749
33.71868	48827
33.72680	51508
33.73493	49616
33.74305	49709
33.75117	47397
33.75930	45030
33.76742	50427
33.77555	54867
33.78367	50570
33.79178	47546
33.79992	48677
33.80803	53990
33.81617	50282
33.82428	49380
33.83240	49407
33.84053	50783
33.84865	50756
33.85677	58620
33.86490	49502
33.87302	57325
33.88115	55901
33.88927	55795
33.89738	49770
33.90552	49699
33.91363	53624
33.92177	53855
33.92988	51969
33.93800	49456
33.94613	49380
33.95425	51737
33.96238	59719
33.97050	55550
33.97862	49922
33.98675	49366
33.99487	50734
34.00298	50255
34.01112	47875
34.01923	51044
34.02737	48552
34.03548	49516
34.04360	54337
34.05173	47002
34.05985	54642
34.06798	48953
34.07610	49169
34.08422	53734
34.09235	52396
34.10047	50072
34.10860	50674
34.11672	45934
34.12483	45623
34.13297	50034
34.14108	48509
34.14920	51532
34.15733	51703
34.16545	48664
34.17358	46376
34.18170	54400
34.18982	46876
34.19795	48910
34.20607	49927
34.21420	53236
34.22232	51462
34.23043	55120
34.23857	50866
34.24668	51492
34.25480	55430
34.26293	51461
34.27105	58503
34.27918	48107
34.28730	51143
34.29542	47013
34.30355	47353
34.31167	51448
34.31980	50425
34.32792	53341
34.33603	50615
34.34417	51330
34.35228	54120
34.36042	48851
34.36853	52563
34.37665	51620
34.38478	54712
34.39290	48666
34.40102	53903
34.40915	52103
34.41727	51154
34.42540	52111
34.43352	52377
34.44163	53803
34.44977	52210
34.45788	51295
34.46602	52762
34.47413	52165
34.48225	54370
34.49038	48246
34.49850	50930
34.50663	50851
34.51475	54962
34.52287	61234
34.53100	60104
34.53912	72071
34.54723	86634
34.55537	90981
34.56348	107241
34.57162	110919
34.57973	119389
34.58785	115743
34.59598	113048
34.60410	114633
34.61223	95751
34.62035	84055
34.62847	85608
34.63660	77729
34.64472	75169
34.65283	67918
34.66097	67095
34.66908	69295
34.67722	66690
34.68533	70302
34.69345	58127
34.70158	62062
34.70970	63032
34.71783	63492
34.72595	59374
34.73407	60778
34.74220	57324
34.75032	60612
34.75845	63210
34.76657	60763
34.77468	68301
34.78282	59700
34.79093	60060
34.79905	56254
34.80718	55082
34.81530	57043
34.82343	59395
34.83155	60939
34.83967	57931
34.84780	62535
34.85592	58391
34.86405	59623
34.87217	56155
34.88028	61153
34.88842	56267
34.89653	54917
34.90467	53007
34.91278	57195
34.92090	55376
34.92903	57142
34.93715	57057
34.94527	62208
34.95340	78151
34.96152	103391
34.96965	156044
34.97777	229874
34.98588	287486
34.99402	335803
35.00213	314298
35.01027	260356
35.01838	193697
35.02650	130686
35.03463	96718
35.04275	77875
35.05087	71572
35.05900	68486
35.06712	66775
35.07525	68682
35.08337	68481
35.09148	67872
35.09962	65885
35.10773	67728
35.11587	59136
35.12398	64712
35.13210	64856
35.14023	63980
35.14835	64508
35.15648	65778
35.16460	63551
35.17272	69331
35.18085	64440
35.18897	65291
35.19708	67007
35.20522	61357
35.21333	60252
35.22147	60338
35.22958	60040
35.23770	65505
35.24583	53580
35.25395	58596
35.26208	60024
35.27020	60571
35.27832	60913
35.28645	63200
35.29457	61025
35.30268	55578
35.31082	62476
35.31893	59693
35.32707	57759
35.33518	55662
35.34330	51607
35.35143	56474
35.35955	52707
35.36768	54034
35.37580	55147
35.38392	57937
35.39205	56390
35.40017	55930
35.40830	60468
35.41642	57092
35.42453	55236
35.43267	60712
35.44078	57089
35.44890	59426
35.45703	56020
35.46515	64756
35.47328	67474
35.48140	69758
35.48952	62904
35.49765	68479
35.50577	68047
35.51390	61943
35.52202	62524
35.53013	61822
35.53827	61218
35.54638	52393
35.55452	56363
35.56263	56273
35.57075	53452
35.57888	56783
35.58700	58605
35.59512	62322
35.60325	57907
35.61137	57628
35.61950	58339
35.62762	52892
35.63573	58079
35.64387	61652
35.65198	53516
35.66012	55536
35.66823	55847
35.67635	57166
35.68448	58141
35.69260	61572
35.70072	64235
35.70885	63979
35.71697	62194
35.72510	66025
35.73322	59137
35.74133	59542
35.74947	57622
35.75758	61029
35.76572	67160
35.77383	66991
35.78195	67067
35.79008	63589
35.79820	57118
35.80633	59183
35.81445	61260
35.82257	62535
35.83070	56032
35.83882	56034
35.84693	55556
35.85507	58876
35.86318	54021
35.87132	59004
35.87943	60861
35.88755	57679
35.89568	56205
35.90380	55137
35.91193	59455
35.92005	53256
35.92817	56643
35.93630	55657
35.94442	57075
35.95255	57186
35.96067	56970
35.96878	54611
35.97692	57174
35.98503	52860
35.99315	58632
36.00128	54961
36.00940	59420
36.01753	61209
36.02565	64247
36.03377	58062
36.04190	62732
36.05002	62126
36.05815	62610
36.06627	58233
36.07438	57159
36.08252	54302
36.09063	61657
36.09875	57252
36.10688	60111
36.11500	53360
36.12313	62620
36.13125	58599
36.13937	62054
36.14750	57930
36.15562	60725
36.16375	55781
36.17187	59988
36.17998	58103
36.18812	66184
36.19623	63795
36.20437	59858
36.21248	55812
36.22060	58431
36.22873	55146
36.23685	55515
36.24497	54242
36.25310	56171
36.26122	55439
36.26935	57198
36.27747	59125
36.28558	54043
36.29372	61593
36.30183	56147
36.30997	57055
36.31808	55722
36.32620	65827
36.33433	65158
36.34245	66098
36.35057	65313
36.35870	63198
36.36682	66978
36.37495	62943
36.38307	66110
36.39118	59053
36.39932	60253
36.40743	61362
36.41557	60657
36.42368	64441
36.43180	62680
36.43993	63405
36.44805	60553
36.45618	60683
36.46430	64964
36.47242	58369
36.48055	64349
36.48867	58585
36.49678	59902
36.50492	67290
36.51303	59117
36.52117	56515
36.52928	58389
36.53740	55628
36.54553	56675
36.55365	57389
36.56178	57496
36.56990	61747
36.57802	58989
36.58615	58781
36.59427	61568
36.60240	51885
36.61052	58730
36.61863	56183
36.62677	58812
36.63488	55785
36.64300	56999
36.65113	61107
36.65925	54603
36.66738	60543
36.67550	58727
36.68362	60292
36.69175	61158
36.69987	64360
36.70800	60019
36.71612	56622
36.72423	59992
36.73237	57405
36.74048	57986
36.74862	55749
36.75673	59931
36.76485	55905
36.77298	63471
36.78110	52968
36.78922	58486
36.79735	59523
36.80547	54436
36.81360	58677
36.82172	57814
36.82983	57972
36.83797	58758
36.84608	57429
36.85422	55629
36.86233	55035
36.87045	57684
36.87858	62287
36.88670	59959
36.89482	52230
36.90295	54522
36.91107	57058
36.91920	58404
36.92732	57697
36.93543	64177
36.94357	62881
36.95168	59937
36.95982	66455
36.96793	69257
36.97605	70482
36.98418	70962
36.99230	74582
37.00043	71188
37.00855	67797
37.01667	65387
37.02480	65860
37.03292	67402
37.04103	62989
37.04917	68872
37.05728	70202
37.06542	70571
37.07353	69902
37.08165	74545
37.08978	71471
37.09790	75393
37.10603	70619
37.11415	80922
37.12227	77428
37.13040	80950
37.13852	73465
37.14663	75228
37.15477	78241
37.16288	76438
37.17102	73386
37.17913	75585
37.18725	76726
37.19538	82388
37.20350	81237
37.21163	81649
37.21975	79540
37.22787	80349
37.23600	79931
37.24412	79131
37.25225	82122
37.26037	76419
37.26848	76641
37.27662	76376
37.28473	79706
37.29285	78066
37.30098	73521
37.30910	76717
37.31723	75997
37.32535	79154
37.33347	77178
37.34160	80497
37.34972	86803
37.35785	93605
37.36597	98330
37.37408	103614
37.38222	104512
37.39033	105742
37.39847	109110
37.40658	104169
37.41470	102252
37.42283	97948
37.43095	90078
37.43907	90607
37.44720	77370
37.45532	84426
37.46345	77176
37.47157	80484
37.47968	80160
37.48782	79998
