Z:\data\JTB-E02\BACandBLUE\JTB-E02-208-14.D Thu Mar 14 12:58:36 2019
Start of data points
2.09528	49102
2.10340	53933
2.11152	53855
2.11965	50427
2.12777	53182
2.13588	50245
2.14402	49361
2.15213	50383
2.16027	50441
2.16838	49457
2.17650	50571
2.18463	50237
2.19275	48211
2.20088	44204
2.20900	46150
2.21712	41444
2.22525	41336
2.23337	40953
2.24150	46111
2.24962	41878
2.25773	40014
2.26587	134675
2.27398	1646179
2.28210	3862894
2.29023	2155335
2.29835	938549
2.30648	718967
2.31460	608372
2.32272	536750
2.33085	460311
2.33897	433600
2.34710	373081
2.35522	331785
2.36333	302655
2.37147	292056
2.37958	276882
2.38772	249391
2.39583	233163
2.40395	238574
2.41208	226786
2.42020	230530
2.42832	230528
2.43645	203207
2.44457	195201
2.45270	193662
2.46082	182690
2.46893	189191
2.47707	184293
2.48518	180812
2.49332	194954
2.50143	201787
2.50955	181435
2.51768	173392
2.52580	175598
2.53392	174745
2.54205	175163
2.55017	303746
2.55830	1615634
2.56642	2785977
2.57453	1518096
2.58267	756249
2.59078	557833
2.59892	468269
2.60703	502660
2.61515	734674
2.62328	668802
2.63140	480859
2.63953	392053
2.64765	339614
2.65577	313561
2.66390	279812
2.67202	269469
2.68013	252859
2.68827	248735
2.69638	234035
2.70452	217033
2.71263	216738
2.72075	212274
2.72888	203842
2.73700	207875
2.74513	207563
2.75325	203043
2.76137	193966
2.76950	194484
2.77762	189767
2.78575	208115
2.79387	227226
2.80198	210385
2.81012	195052
2.81823	196596
2.82635	184092
2.83448	193946
2.84260	187199
2.85073	173509
2.85885	169931
2.86697	168492
2.87510	161247
2.88322	163573
2.89135	168250
2.89947	160825
2.90758	156557
2.91572	153878
2.92383	158883
2.93195	156053
2.94008	148542
2.94820	143028
2.95633	147731
2.96445	156054
2.97257	143119
2.98070	143491
2.98882	147940
2.99695	139722
3.00507	145866
3.01318	147085
3.02132	141169
3.02943	144088
3.03757	139295
3.04568	142933
3.05380	132636
3.06193	142874
3.07005	137214
3.07817	138621
3.08630	200851
3.09442	445574
3.10255	1355554
3.11067	3683561
3.11878	4520618
3.12692	3021293
3.13503	1996042
3.14317	1584019
3.15128	1297356
3.15940	1079004
3.16753	908207
3.17565	798731
3.18377	680880
3.19190	619620
3.20002	548350
3.20815	523012
3.21627	526261
3.22438	497621
3.23252	442948
3.24063	401011
3.24877	360631
3.25688	334524
3.26500	310191
3.27313	297448
3.28125	294425
3.28938	400617
3.29750	1037534
3.30562	2790581
3.31375	4764595
3.32187	4970276
3.32998	3676074
3.33812	2501027
3.34623	1866528
3.35437	1474373
3.36248	1263927
3.37060	1094294
3.37873	969235
3.38685	879868
3.39498	797945
3.40310	736172
3.41122	681015
3.41935	637442
3.42747	592384
3.43560	561180
3.44372	536602
3.45183	510058
3.45997	485109
3.46808	481891
3.47620	496856
3.48433	490609
3.49245	462227
3.50058	431239
3.50870	404024
3.51682	383223
3.52495	359280
3.53307	359465
3.54120	343829
3.54932	324132
3.55743	316672
3.56557	313333
3.57368	316234
3.58180	295898
3.58993	292671
3.59805	292306
3.60618	281753
3.61430	279413
3.62242	283762
3.63055	281170
3.63867	272648
3.64680	258004
3.65492	260529
3.66303	248463
3.67117	240067
3.67928	247926
3.68742	240380
3.69553	233081
3.70365	236095
3.71178	222777
3.71990	224282
3.72802	215268
3.73615	221572
3.74427	215793
3.75240	222840
3.76052	219771
3.76863	219728
3.77677	211303
3.78488	217120
3.79302	224536
3.80113	377800
3.80925	1146739
3.81738	2711035
3.82550	3412457
3.83363	2536224
3.84175	1668339
3.84987	1236202
3.85800	1031948
3.86612	890805
3.87423	756260
3.88237	689922
3.89048	636855
3.89862	584004
3.90673	536805
3.91485	518594
3.92298	471434
3.93110	447797
3.93923	432936
3.94735	436028
3.95547	565483
3.96360	861722
3.97172	1109852
3.97983	1034734
3.98797	763226
3.99608	620053
4.00422	901051
4.01233	1648044
4.02045	2233961
4.02858	1984704
4.03670	1298504
4.04483	829427
4.05295	619505
4.06107	494969
4.06920	449587
4.07732	397317
4.08545	371752
4.09357	354854
4.10168	332178
4.10982	311119
4.11793	305620
4.12605	291030
4.13418	316138
4.14230	354958
4.15043	431861
4.15855	456614
4.16667	413267
4.17480	371838
4.18292	357113
4.19105	333990
4.19917	289680
4.20728	274029
4.21542	335632
4.22353	599759
4.23165	1130198
4.23978	1420935
4.24790	1221704
4.25603	893650
4.26415	690348
4.27227	558330
4.28040	477691
4.28852	411605
4.29665	357185
4.30477	332227
4.31288	303225
4.32102	293054
4.32913	268026
4.33727	264373
4.34538	259109
4.35350	243405
4.36163	243934
4.36975	230980
4.37787	223848
4.38600	218388
4.39412	214319
4.40225	206177
4.41037	208350
4.41848	203080
4.42662	203369
4.43473	195362
4.44287	195590
4.45098	188187
4.45910	191162
4.46723	184799
4.47535	174858
4.48348	176667
4.49160	177972
4.49972	173027
4.50785	173984
4.51597	169883
4.52408	177773
4.53222	168330
4.54033	172937
4.54847	165553
4.55658	162205
4.56470	168045
4.57283	165778
4.58095	155047
4.58908	156055
4.59720	162607
4.60532	164886
4.61345	162140
4.62157	164271
4.62970	156327
4.63782	156366
4.64593	150547
4.65407	150829
4.66218	150648
4.67030	153169
4.67843	155468
4.68655	149912
4.69468	153021
4.70280	148958
4.71092	152090
4.71905	152862
4.72717	150036
4.73530	149296
4.74342	142315
4.75153	137413
4.75967	138182
4.76778	143905
4.77590	137455
4.78403	136424
4.79215	134822
4.80028	138582
4.80840	144719
4.81652	139617
4.82465	144556
4.83277	173616
4.84090	199652
4.84902	224344
4.85713	203819
4.86527	175662
4.87338	164249
4.88152	146769
4.88963	145934
4.89775	137618
4.90588	141354
4.91400	138916
4.92212	141259
4.93025	139118
4.93837	176697
4.94650	305163
4.95462	672715
4.96273	1246640
4.97087	1717160
4.97898	1820660
4.98712	1575608
4.99523	1208268
5.00335	913924
5.01148	738684
5.01960	628877
5.02772	562448
5.03585	515662
5.04397	465168
5.05210	426233
5.06022	404798
5.06833	376597
5.07647	354887
5.08458	341633
5.09272	319428
5.10083	319023
5.10895	300185
5.11708	284646
5.12520	277702
5.13333	261908
5.14145	267363
5.14957	251025
5.15770	255726
5.16582	254146
5.17393	247837
5.18207	236887
5.19018	238725
5.19832	229577
5.20643	223837
5.21455	226237
5.22268	223484
5.23080	231679
5.23893	239631
5.24705	242184
5.25517	237983
5.26330	220512
5.27142	213740
5.27955	189073
5.28767	192432
5.29578	184156
5.30392	181196
5.31203	179402
5.32015	181992
5.32828	191960
5.33640	205877
5.34453	233703
5.35265	242623
5.36077	226556
5.36890	199970
5.37702	188059
5.38515	184355
5.39327	170043
5.40138	170823
5.40952	171013
5.41763	166246
5.42575	160688
5.43388	162833
5.44200	165656
5.45013	164602
5.45825	170652
5.46637	154771
5.47450	162981
5.48262	153709
5.49075	145324
5.49887	140034
5.50698	148861
5.51512	159976
5.52323	160761
5.53137	167928
5.53948	163764
5.54760	167805
5.55573	145023
5.56385	145591
5.57197	143035
5.58010	162628
5.58822	171205
5.59635	191898
5.60447	194989
5.61258	176152
5.62072	165796
5.62883	155515
5.63697	150607
5.64508	157742
5.65320	153898
5.66133	144726
5.66945	156037
5.67758	148976
5.68570	188175
5.69382	239927
5.70195	256163
5.71007	248922
5.71818	209251
5.72632	193621
5.73443	164271
5.74257	156253
5.75068	152495
5.75880	138380
5.76693	143413
5.77505	139365
5.78318	136673
5.79130	126656
5.79942	132873
5.80755	130355
5.81567	136034
5.82378	133405
5.83192	124416
5.84003	123067
5.84817	125763
5.85628	116557
5.86440	126614
5.87253	120776
5.88065	121482
5.88878	119912
5.89690	121324
5.90502	117158
5.91315	104961
5.92127	97424
5.92940	94587
5.93752	93718
5.94563	96050
5.95377	92249
5.96188	103891
5.97000	102835
5.97813	112381
5.98625	132417
5.99438	135370
6.00250	146023
6.01062	128333
6.01875	118387
6.02687	106567
6.03500	94619
6.04312	91234
6.05123	102921
6.05937	95306
6.06748	93697
6.07560	91601
6.08373	90459
6.09185	93494
6.09998	94170
6.10810	88709
6.11622	91743
6.12435	99036
6.13247	90985
6.14060	94745
6.14872	102997
6.15683	118204
6.16497	127017
6.17308	126192
6.18122	123153
6.18933	118955
6.19745	108367
6.20558	116062
6.21370	119837
6.22182	124515
6.22995	120856
6.23807	128674
6.24620	122614
6.25432	118642
6.26243	119237
6.27057	122667
6.27868	124289
6.28682	126534
6.29493	130974
6.30305	129489
6.31118	132721
6.31930	146410
6.32743	134948
6.33555	136184
6.34367	140079
6.35180	139958
6.35992	148104
6.36803	145854
6.37617	150549
6.38428	154122
6.39242	145117
6.40053	148104
6.40865	147874
6.41678	147937
6.42490	154852
6.43303	155041
6.44115	163165
6.44927	153697
6.45740	162423
6.46552	160385
6.47363	164117
6.48177	170533
6.48988	169262
6.49802	159647
6.50613	168341
6.51425	163951
6.52238	174948
6.53050	171790
6.53863	177516
6.54675	176329
6.55487	178140
6.56300	175120
6.57112	173494
6.57925	178983
6.58737	184384
6.59548	185419
6.60362	184091
6.61173	187052
6.61985	192458
6.62798	187243
6.63610	216005
6.64423	411612
6.65235	1492012
6.66047	5329462
6.66860	1.239056E+07
6.67672	1.874951E+07
6.68485	2.016454E+07
6.69297	1.613126E+07
6.70108	1.04532E+07
6.70922	6531898
6.71733	4486847
6.72547	3413035
6.73358	2782660
6.74170	2360597
6.74983	2039097
6.75795	1789689
6.76607	1635268
6.77420	1488568
6.78232	1336560
6.79045	1236209
6.79857	1151939
6.80668	1109565
6.81482	1015594
6.82293	956063
6.83107	895387
6.83918	843711
6.84730	812051
6.85543	782881
6.86355	722521
6.87167	673189
6.87980	625026
6.88792	587298
6.89605	560507
6.90417	533470
6.91228	508583
6.92042	483544
6.92853	464717
6.93667	438647
6.94478	408935
6.95290	399175
6.96103	380361
6.96915	379868
6.97728	391118
6.98540	402541
6.99352	384287
7.00165	352701
7.00977	302108
7.01788	257069
7.02602	221467
7.03413	190098
7.04227	162569
7.05038	137820
7.05850	143149
7.06663	213021
7.07475	317330
7.08288	393496
7.09100	399986
7.09912	400448
7.10725	396673
7.11537	392633
7.12348	382552
7.13162	372521
7.13973	362037
7.14787	357274
7.15598	353846
7.16410	346216
7.17223	340595
7.18035	335765
7.18848	322655
7.19660	309541
7.20472	302705
7.21285	303968
7.22097	304044
7.22910	343896
7.23722	497147
7.24533	872022
7.25347	1457257
7.26158	1852568
7.26970	1770623
7.27783	1324522
7.28595	853472
7.29408	590210
7.30220	451479
7.31032	403147
7.31845	352789
7.32657	301913
7.33470	257014
7.34282	231591
7.35093	235486
7.35907	221936
7.36718	228456
7.37532	221572
7.38343	220086
7.39155	214572
7.39968	210708
7.40780	210112
7.41592	204790
7.42405	203911
7.43217	199621
7.44030	190016
7.44842	184233
7.45653	179796
7.46467	184814
7.47278	189964
7.48092	184601
7.48903	175037
7.49715	178434
7.50528	165975
7.51340	167443
7.52152	164575
7.52965	159952
7.53777	156818
7.54590	154891
7.55402	158259
7.56213	148637
7.57027	152360
7.57838	145546
7.58652	147761
7.59463	152212
7.60275	146317
7.61088	143085
7.61900	146278
7.62713	136938
7.63525	136565
7.64337	134449
7.65150	140411
7.65962	136582
7.66773	134556
7.67587	131225
7.68398	129343
7.69212	126675
7.70023	134103
7.70835	127472
7.71648	125351
7.72460	122911
7.73273	123187
7.74085	125904
7.74897	122598
7.75710	124732
7.76522	117651
7.77335	117733
7.78147	121391
7.78958	120684
7.79772	117464
7.80583	121359
7.81395	118510
7.82208	109653
7.83020	116904
7.83833	110745
7.84645	107841
7.85457	112318
7.86270	107954
7.87082	108324
7.87895	115043
7.88707	113698
7.89518	113628
7.90332	107653
7.91143	112956
7.91955	108789
7.92768	143998
7.93580	195223
7.94393	285144
7.95205	365548
7.96017	377661
7.96830	334509
7.97642	251396
7.98455	183551
7.99267	138959
8.00078	124847
8.00892	110046
8.01703	105554
8.02517	108769
8.03328	100620
8.04140	98104
8.04953	103810
8.05765	97238
8.06577	97123
8.07390	93930
8.08202	94344
8.09015	89510
8.09827	88928
8.10638	87761
8.11452	89932
8.12263	84191
8.13077	87720
8.13888	89660
8.14700	89165
8.15513	98429
8.16325	83410
8.17138	93794
8.17950	94097
8.18762	85812
8.19575	88369
8.20387	79010
8.21198	82552
8.22012	83164
8.22823	82308
8.23637	86331
8.24448	84018
8.25260	84350
8.26073	81691
8.26885	79396
8.27698	77934
8.28510	79002
8.29322	76319
8.30135	80527
8.30947	80918
8.31758	81396
8.32572	85024
8.33383	77660
8.34197	79814
8.35008	76795
8.35820	75524
8.36633	79261
8.37445	80387
8.38258	82103
8.39070	81011
8.39882	71785
8.40695	70780
8.41507	59649
8.42320	56324
8.43132	54877
8.43943	56477
8.44757	60504
8.45568	72954
8.46380	80691
8.47193	79724
8.48005	82435
8.48818	76689
8.49630	62740
8.50442	58784
8.51255	53730
8.52067	57786
8.52880	60409
8.53692	82751
8.54503	145961
8.55317	281364
8.56128	490095
8.56940	586750
8.57753	600377
8.58565	473570
8.59378	308837
8.60190	198445
8.61002	125282
8.61815	100619
8.62627	89179
8.63440	85080
8.64252	84462
8.65063	77678
8.65877	75090
8.66688	79535
8.67502	74031
8.68313	66165
8.69125	67991
8.69938	67216
8.70750	76862
8.71562	67239
8.72375	65090
8.73187	64034
8.74000	68904
8.74812	66837
8.75623	70877
8.76437	119821
8.77248	244057
8.78062	447837
8.78873	704249
8.79685	812463
8.80498	804109
8.81310	630628
8.82123	477962
8.82935	314380
8.83747	233169
8.84560	191520
8.85372	184134
8.86183	174973
8.86997	177347
8.87808	163314
8.88622	162181
8.89433	150859
8.90245	143747
8.91058	137484
8.91870	129137
8.92683	129894
8.93495	131494
8.94307	119703
8.95120	113710
8.95932	110288
8.96743	113375
8.97557	106761
8.98368	106058
8.99182	107556
8.99993	110772
9.00805	101072
9.01618	97290
9.02430	98038
9.03243	94149
9.04055	96838
9.04867	93688
9.05680	90092
9.06492	90925
9.07305	87115
9.08117	83261
9.08928	85712
9.09742	83382
9.10553	89285
9.11365	90207
9.12178	85888
9.12990	80776
9.13803	81610
9.14615	82585
9.15427	82141
9.16240	77346
9.17052	81006
9.17865	82257
9.18677	76804
9.19488	82165
9.20302	76962
9.21113	74000
9.21927	75156
9.22738	77512
9.23550	83988
9.24363	86095
9.25175	88077
9.25987	90130
9.26800	91891
9.27612	84211
9.28425	81220
9.29237	77490
9.30048	68390
9.30862	65658
9.31673	77110
9.32487	63404
9.33298	70120
9.34110	61264
9.34923	62514
9.35735	62037
9.36547	61489
9.37360	61110
9.38172	62467
9.38985	63560
9.39797	63719
9.40608	59862
9.41422	59885
9.42233	57415
9.43047	60877
9.43858	63631
9.44670	63197
9.45483	56477
9.46295	59616
9.47108	56823
9.47920	55804
9.48732	64388
9.49545	67460
9.50357	72871
9.51168	91637
9.51982	115916
9.52793	128398
9.53607	123391
9.54418	113075
9.55230	105515
9.56043	97057
9.56855	91482
9.57668	89766
9.58480	85817
9.59292	74323
9.60105	74211
9.60917	67090
9.61728	57959
9.62542	53476
9.63353	55134
9.64167	47864
9.64978	45330
9.65790	48577
9.66603	49225
9.67415	49753
9.68228	43514
9.69040	46845
9.69852	48411
9.70665	44269
9.71477	42774
9.72290	41987
9.73102	40524
9.73913	41180
9.74727	44450
9.75538	42721
9.76350	41248
9.77163	44996
9.77975	44454
9.78788	44941
9.79600	42474
9.80412	41279
9.81225	39452
9.82037	41540
9.82850	42827
9.83662	38918
9.84473	41998
9.85287	43225
9.86098	43325
9.86912	42912
9.87723	44088
9.88535	43300
9.89348	44742
9.90160	41004
9.90972	40152
9.91785	41065
9.92597	43287
9.93410	45891
9.94222	46832
9.95033	50802
9.95847	54258
9.96658	56243
9.97472	50629
9.98283	52455
9.99095	51358
9.99908	48438
10.00720	54103
10.01532	56692
10.02345	58675
10.03157	54048
10.03970	53221
10.04782	49715
10.05593	45392
10.06407	42486
10.07218	43338
10.08032	44697
10.08843	41066
10.09655	40615
10.10468	47353
10.11280	44865
10.12093	41589
10.12905	42628
10.13717	42231
10.14530	40202
10.15342	41057
10.16153	40538
10.16967	36938
10.17778	37875
10.18592	39537
10.19403	37204
10.20215	43135
10.21028	43553
10.21840	40425
10.22653	39003
10.23465	40200
10.24277	47454
10.25090	50652
10.25902	71412
10.26715	132687
10.27527	315777
10.28338	912302
10.29152	2263363
10.29963	4590318
10.30775	7650697
10.31588	1.130509E+07
10.32400	1.570152E+07
10.33213	2.102385E+07
10.34025	2.86622E+07
10.34837	3.76592E+07
10.35650	4.829538E+07
10.36462	5.689213E+07
10.37275	6.396947E+07
10.38087	7.074083E+07
10.38898	7.599302E+07
10.39712	8.045401E+07
10.40523	8.118072E+07
10.41335	7.005703E+07
10.42148	3.150132E+07
10.42960	7403395
10.43773	3067179
10.44585	2390701
10.45397	2116526
10.46210	1887734
10.47022	1740030
10.47835	1572253
10.48647	1460579
10.49458	1361987
10.50272	1296073
10.51083	1191139
10.51897	1092465
10.52708	1048588
10.53520	987336
10.54333	928835
10.55145	876497
10.55957	841618
10.56770	788148
10.57582	750196
10.58395	702556
10.59207	690243
10.60018	641161
10.60832	626417
10.61643	600601
10.62457	580708
10.63268	560891
10.64080	538971
10.64893	512679
10.65705	489580
10.66517	478003
10.67330	457806
10.68142	443959
10.68955	434891
10.69767	423954
10.70578	402508
10.71392	390706
10.72203	366978
10.73017	375839
10.73828	370324
10.74640	355138
10.75453	341547
10.76265	337854
10.77078	315621
10.77890	315803
10.78702	313131
10.79515	296736
10.80327	289221
10.81138	296458
10.81952	264753
10.82763	266595
10.83577	260837
10.84388	246611
10.85200	244180
10.86013	241683
10.86825	234113
10.87638	229701
10.88450	220886
10.89262	221002
10.90075	221654
10.90887	217749
10.91700	211801
10.92512	203959
10.93323	205916
10.94137	199368
10.94948	190652
10.95760	192996
10.96573	193144
10.97385	194515
10.98198	182254
10.99010	174153
10.99822	176383
11.00635	172995
11.01447	165888
11.02260	159751
11.03072	164591
11.03883	154772
11.04697	151369
11.05508	157426
11.06322	152022
11.07133	150078
11.07945	152864
11.08758	149912
11.09570	143099
11.10382	136540
11.11195	133597
11.12007	126466
11.12820	113642
11.13632	98605
11.14443	82735
11.15257	72821
11.16068	69732
11.16882	70245
11.17693	73297
11.18505	70275
11.19318	70087
11.20130	65848
11.20942	65367
11.21755	67242
11.22567	63511
11.23380	62495
11.24192	62171
11.25003	58041
11.25817	59133
11.26628	53739
11.27442	59828
11.28253	54231
11.29065	58431
11.29878	50952
11.30690	51321
11.31503	53626
11.32315	50900
11.33127	56860
11.33940	51225
11.34752	56865
11.35563	51137
11.36377	45426
11.37188	55203
11.38002	51376
11.38813	51642
11.39625	48711
11.40438	47738
11.41250	47991
11.42063	46434
11.42875	44705
11.43687	43428
11.44500	47348
11.45312	45934
11.46123	47958
11.46937	46194
11.47748	47380
11.48562	57039
11.49373	76463
11.50185	90477
11.50998	106578
11.51810	109656
11.52623	105867
11.53435	101352
11.54247	106947
11.55060	119465
11.55872	128447
11.56685	129341
11.57497	102462
11.58308	90087
11.59122	77790
11.59933	65704
11.60745	58035
11.61558	57443
11.62370	54023
11.63183	52317
11.63995	56032
11.64807	52662
11.65620	51802
11.66432	47601
11.67245	53108
11.68057	50547
11.68868	52407
11.69682	54979
11.70493	53727
11.71307	50841
11.72118	51898
11.72930	51888
11.73743	47822
11.74555	49264
11.75367	43578
11.76180	46295
11.76992	51822
11.77805	44136
11.78617	47181
11.79428	47205
11.80242	50645
11.81053	47938
11.81867	54321
11.82678	45153
11.83490	43988
11.84303	42443
11.85115	43922
11.85927	45285
11.86740	44637
11.87552	47771
11.88365	48292
11.89177	45427
11.89988	48182
11.90802	48323
11.91613	51171
11.92427	55180
11.93238	54950
11.94050	60454
11.94863	53401
11.95675	49228
11.96488	48893
11.97300	46096
11.98112	45550
11.98925	44459
11.99737	49261
12.00548	63490
12.01362	66905
12.02173	75003
12.02987	75324
12.03798	71784
12.04610	70312
12.05423	59402
12.06235	56490
12.07048	51584
12.07860	48201
12.08672	50851
12.09485	47499
12.10297	45524
12.11110	51788
12.11922	51490
12.12733	52184
12.13547	49474
12.14358	50615
12.15170	49503
12.15983	43047
12.16795	42994
12.17608	43050
12.18420	41774
12.19232	47731
12.20045	40058
12.20857	42498
12.21670	43684
12.22482	46264
12.23293	42704
12.24107	44415
12.24918	47400
12.25730	42911
12.26543	44858
12.27355	47453
12.28168	49621
12.28980	46893
12.29792	42049
12.30605	43816
12.31417	43395
12.32230	42870
12.33042	45567
12.33853	38339
12.34667	38824
12.35478	41912
12.36292	41299
12.37103	38331
12.37915	40133
12.38728	39485
12.39540	38716
12.40352	39403
12.41165	40604
12.41977	43063
12.42790	47793
12.43602	47395
12.44413	50689
12.45227	45369
12.46038	44421
12.46852	43082
12.47663	39271
12.48475	39975
12.49288	40985
12.50100	39584
12.50912	37299
12.51725	37917
12.52537	40073
12.53350	41257
12.54162	37124
12.54973	46822
12.55787	50821
12.56598	71610
12.57412	81945
12.58223	89068
12.59035	86229
12.59848	75812
12.60660	60812
12.61473	53660
12.62285	58595
12.63097	45545
12.63910	46149
12.64722	47611
12.65533	47309
12.66347	43419
12.67158	41673
12.67972	40520
12.68783	38239
12.69595	40927
12.70408	37683
12.71220	37118
12.72033	38702
12.72845	39050
12.73657	45093
12.74470	44274
12.75282	44979
12.76095	49048
12.76907	43224
12.77718	40247
12.78532	33966
12.79343	36310
12.80155	38249
12.80968	36614
12.81780	39442
12.82593	33292
12.83405	38209
12.84217	38063
12.85030	38011
12.85842	38071
12.86655	37864
12.87467	36765
12.88278	41689
12.89092	34678
12.89903	36952
12.90715	39158
12.91528	35759
12.92340	34241
12.93153	32480
12.93965	39583
12.94777	34247
12.95590	38552
12.96402	35385
12.97215	36791
12.98027	41059
12.98838	43230
12.99652	42762
13.00463	43437
13.01277	43385
13.02088	42107
13.02900	39208
13.03713	35178
13.04525	37748
13.05337	40676
13.06150	38341
13.06962	37964
13.07775	35050
13.08587	37761
13.09398	40180
13.10212	42189
13.11023	44763
13.11837	41335
13.12648	40282
13.13460	36110
13.14273	35375
13.15085	38328
13.15898	35445
13.16710	34806
13.17522	38873
13.18335	39874
13.19147	43995
13.19958	43006
13.20772	41152
13.21583	44840
13.22397	39264
13.23208	39506
13.24020	39429
13.24833	37860
13.25645	39913
13.26458	41260
13.27270	36942
13.28082	37972
13.28895	35021
13.29707	35868
13.30518	33394
13.31332	33474
13.32143	31942
13.32957	34679
13.33768	37205
13.34580	41802
13.35393	34598
13.36205	32003
13.37018	32311
13.37830	32287
13.38642	29053
13.39455	38968
13.40267	34216
13.41080	33964
13.41892	34501
13.42703	32825
13.43517	32612
13.44328	34722
13.45140	33516
13.45953	30551
13.46765	31209
13.47578	36186
13.48390	32211
13.49202	32968
13.50015	32069
13.50827	35581
13.51640	35608
13.52452	29580
13.53263	33807
13.54077	33941
13.54888	29359
13.55702	35231
13.56513	36240
13.57325	35742
13.58138	34928
13.58950	38636
13.59762	37851
13.60575	32334
13.61387	33762
13.62200	37402
13.63012	35583
13.63823	30901
13.64637	33300
13.65448	32679
13.66262	34573
13.67073	30705
13.67885	29808
13.68698	31813
13.69510	32567
13.70322	29501
13.71135	31202
13.71947	33010
13.72760	32736
13.73572	32801
13.74383	38866
13.75197	40707
13.76008	55119
13.76822	71952
13.77633	101140
13.78445	130389
13.79258	143081
13.80070	133699
13.80883	120698
13.81695	98772
13.82507	79438
13.83320	65608
13.84132	54531
13.84943	51951
13.85757	50867
13.86568	45120
13.87382	46312
13.88193	46543
13.89005	45936
13.89818	41913
13.90630	44104
13.91443	41067
13.92255	41686
13.93067	40914
13.93880	40393
13.94692	44417
13.95503	56034
13.96317	76570
13.97128	105829
13.97942	161347
13.98753	199602
13.99565	254549
14.00378	244215
14.01190	221127
14.02003	163802
14.02815	129042
14.03627	107400
14.04440	93062
14.05252	79360
14.06065	76343
14.06877	70335
14.07688	62139
14.08502	68125
14.09313	70372
14.10125	63613
14.10938	59838
14.11750	59721
14.12563	54176
14.13375	52951
14.14187	53204
14.15000	55090
14.15812	52796
14.16625	56222
14.17437	56518
14.18248	53779
14.19062	60412
14.19873	66912
14.20687	91510
14.21498	128690
14.22310	156318
14.23123	169418
14.23935	175851
14.24747	160537
14.25560	144427
14.26372	139399
14.27185	127260
14.27997	105101
14.28808	99485
14.29622	96208
14.30433	89702
14.31247	79848
14.32058	76697
14.32870	75179
14.33683	68707
14.34495	74174
14.35307	74727
14.36120	65886
14.36932	64233
14.37745	59889
14.38557	54000
14.39368	49635
14.40182	49557
14.40993	45540
14.41807	42535
14.42618	44729
14.43430	42332
14.44243	41006
14.45055	42713
14.45868	37868
14.46680	39424
14.47492	38353
14.48305	36881
14.49117	36243
14.49928	39873
14.50742	40434
14.51553	41943
14.52367	37252
14.53178	45944
14.53990	40692
14.54803	42530
14.55615	41029
14.56428	37574
14.57240	41032
14.58052	34186
14.58865	36159
14.59677	40844
14.60490	36969
14.61302	35340
14.62113	36567
14.62927	33791
14.63738	34950
14.64550	36838
14.65363	35066
14.66175	37034
14.66988	36294
14.67800	33813
14.68612	35031
14.69425	36268
14.70237	35522
14.71050	36180
14.71862	39294
14.72673	33227
14.73487	33947
14.74298	32109
14.75110	34842
14.75923	34900
14.76735	36889
14.77548	34396
14.78360	36614
14.79172	40248
14.79985	34868
14.80797	32875
14.81610	35147
14.82422	36431
14.83233	40998
14.84047	42742
14.84858	43969
14.85672	43420
14.86483	41049
14.87295	42571
14.88108	40816
14.88920	45330
14.89732	39181
14.90545	39384
14.91357	40451
14.92170	38121
14.92982	39216
14.93793	37458
14.94607	36942
14.95418	43185
14.96232	38463
14.97043	41097
14.97855	36925
14.98668	36154
14.99480	35562
15.00292	35081
15.01105	37210
15.01917	36455
15.02730	38581
15.03542	32436
15.04353	35430
15.05167	34769
15.05978	37770
15.06792	34195
15.07603	33946
15.08415	36513
15.09228	31949
15.10040	34161
15.10853	35727
15.11665	32777
15.12477	34939
15.13290	32866
15.14102	32011
15.14913	30065
15.15727	35661
15.16538	39578
15.17352	34307
15.18163	35230
15.18975	33964
15.19788	35492
15.20600	32586
15.21413	36177
15.22225	31376
15.23037	33033
15.23850	29298
15.24662	33034
15.25475	30716
15.26287	33121
15.27098	30582
15.27912	30813
15.28723	30864
15.29535	36455
15.30348	32763
15.31160	32126
15.31973	36216
15.32785	31804
15.33597	31245
15.34410	33710
15.35222	31876
15.36035	38331
15.36847	32610
15.37658	35450
15.38472	32405
15.39283	36192
15.40097	28607
15.40908	32317
15.41720	32908
15.42533	31895
15.43345	31410
15.44157	33612
15.44970	33242
15.45782	30924
15.46595	32455
15.47407	35445
15.48218	30447
15.49032	35946
15.49843	43237
15.50657	72307
15.51468	161410
15.52280	361456
15.53093	810312
15.53905	1637624
15.54717	2711011
15.55530	3405934
15.56342	3322285
15.57155	2721025
15.57967	1819237
15.58778	1142158
15.59592	733133
15.60403	532182
15.61217	389685
15.62028	322272
15.62840	258710
15.63653	219543
15.64465	184276
15.65278	162673
15.66090	145586
15.66902	122837
15.67715	114732
15.68527	111327
15.69338	101180
15.70152	96339
15.70963	81939
15.71777	79544
15.72588	74387
15.73400	71241
15.74213	69397
15.75025	63769
15.75838	62820
15.76650	66767
15.77462	66715
15.78275	64497
15.79087	69514
15.79898	78293
15.80712	75607
15.81523	73274
15.82337	64430
15.83148	65086
15.83960	59551
15.84773	57809
15.85585	56486
15.86398	50880
15.87210	56769
15.88022	69232
15.88835	77111
15.89647	84496
15.90460	86925
15.91272	87691
15.92083	82158
15.92897	67670
15.93708	62811
15.94520	59591
15.95333	54467
15.96145	56876
15.96958	63785
15.97770	69238
15.98582	70990
15.99395	82791
16.00207	78344
16.01020	73386
16.01832	70543
16.02643	70116
16.03457	73234
16.04268	65802
16.05082	62955
16.05893	58439
16.06705	51945
16.07518	52531
16.08330	49270
16.09142	47674
16.09955	48295
16.10767	46021
16.11580	44364
16.12392	43534
16.13203	38709
16.14017	42122
16.14828	43419
16.15642	43236
16.16453	42455
16.17265	39364
16.18078	41326
16.18890	39961
16.19702	40823
16.20515	37700
16.21327	40157
16.22140	39753
16.22952	43352
16.23763	40643
16.24577	39375
16.25388	39925
16.26202	39962
16.27013	39098
16.27825	40375
16.28638	39182
16.29450	41301
16.30263	38182
16.31075	37401
16.31887	38770
16.32700	37556
16.33512	38799
16.34323	41793
16.35137	46293
16.35948	50183
16.36762	58574
16.37573	71313
16.38385	84294
16.39198	88036
16.40010	87947
16.40823	77004
16.41635	65601
16.42447	62800
16.43260	51618
16.44072	49240
16.44885	43787
16.45697	41638
16.46508	38343
16.47322	37772
16.48133	39971
16.48945	41666
16.49758	37845
16.50570	40211
16.51383	41067
16.52195	41599
16.53007	41637
16.53820	39619
16.54632	41029
16.55445	38269
16.56257	40559
16.57068	36118
16.57882	42690
16.58693	45932
16.59505	42951
16.60318	45811
16.61130	46175
16.61943	51254
16.62755	57454
16.63567	53610
16.64380	49596
16.65192	48592
16.66005	41794
16.66817	44027
16.67628	39420
16.68442	39332
16.69253	37975
16.70067	35377
16.70878	39614
16.71690	34045
16.72503	39269
16.73315	42471
16.74127	34333
16.74940	37983
16.75752	35565
16.76565	36481
16.77377	39036
16.78188	35873
16.79002	33163
16.79813	33360
16.80627	30987
16.81438	40279
16.82250	33502
16.83063	35695
16.83875	38355
16.84687	32819
16.85500	32915
16.86312	30278
16.87125	31928
16.87937	31204
16.88748	30329
16.89562	30296
16.90373	33010
16.91187	35733
16.91998	30633
16.92810	31984
16.93623	29530
16.94435	33932
16.95248	31493
16.96060	31418
16.96872	30648
16.97685	31677
16.98497	33855
16.99308	37882
17.00122	30916
17.00933	31082
17.01747	30286
17.02558	30419
17.03370	32644
17.04183	30887
17.04995	30787
17.05808	32658
17.06620	31538
17.07432	30813
17.08245	35753
17.09057	32711
17.09870	35355
17.10682	32988
17.11493	31676
17.12307	34634
17.13118	34028
17.13930	33931
17.14743	30969
17.15555	29254
17.16368	34344
17.17180	30377
17.17992	31393
17.18805	37632
17.19617	31144
17.20430	31869
17.21242	33396
17.22053	31465
17.22867	33307
17.23678	34946
17.24490	32937
17.25303	30549
17.26115	36309
17.26928	32482
17.27740	36885
17.28552	35030
17.29365	30745
17.30177	30785
17.30990	31226
17.31802	35206
17.32613	36503
17.33427	33690
17.34238	35246
17.35052	34870
17.35863	34121
17.36675	35928
17.37488	39525
17.38300	35017
17.39112	39496
17.39925	37763
17.40737	39673
17.41550	37705
17.42362	37187
17.43173	37446
17.43987	38052
17.44798	37635
17.45612	37447
17.46423	34313
17.47235	33604
17.48048	34025
17.48860	35132
17.49673	33718
17.50485	35149
17.51297	32332
17.52110	32389
17.52922	32857
17.53733	33650
17.54547	33176
17.55358	33063
17.56172	30952
17.56983	30059
17.57795	34782
17.58608	36673
17.59420	36120
17.60233	34299
17.61045	37407
17.61857	39471
17.62670	39819
17.63482	45853
17.64293	56234
17.65107	79647
17.65918	115175
17.66732	150417
17.67543	182703
17.68355	187984
17.69168	175489
17.69980	149390
17.70793	115598
17.71605	94992
17.72417	73437
17.73230	64912
17.74042	59448
17.74855	58481
17.75667	55517
17.76478	51442
17.77292	50044
17.78103	49375
17.78915	50590
17.79728	46654
17.80540	47301
17.81353	45470
17.82165	49284
17.82977	45115
17.83790	43299
17.84602	43010
17.85415	46679
17.86227	45362
17.87038	46441
17.87852	40548
17.88663	38420
17.89477	40934
17.90288	35707
17.91100	39279
17.91913	35068
17.92725	34675
17.93537	31558
17.94350	38248
17.95162	31112
17.95975	32445
17.96787	37161
17.97598	31407
17.98412	34028
17.99223	31271
18.00037	32525
18.00848	31940
18.01660	34739
18.02473	31534
18.03285	36750
18.04097	37464
18.04910	36835
18.05722	38389
18.06535	36185
18.07347	37961
18.08158	36852
18.08972	40910
18.09783	39153
18.10597	42872
18.11408	43732
18.12220	41583
18.13033	47787
18.13845	42629
18.14658	42203
18.15470	44166
18.16282	45331
18.17095	45815
18.17907	45657
18.18718	49857
18.19532	45759
18.20343	43846
18.21157	43768
18.21968	45180
18.22780	41157
18.23593	38140
18.24405	39039
18.25218	36327
18.26030	39556
18.26842	38316
18.27655	37826
18.28467	35513
18.29278	37525
18.30092	35576
18.30903	33152
18.31717	34221
18.32528	33967
18.33340	34920
18.34153	31154
18.34965	31846
18.35778	30246
18.36590	31190
18.37402	35176
18.38215	34731
18.39027	34722
18.39840	32734
18.40652	32449
18.41463	35751
18.42277	37142
18.43088	30859
18.43900	32703
18.44713	34239
18.45525	35489
18.46338	38576
18.47150	32073
18.47962	32506
18.48775	34472
18.49587	32341
18.50400	32703
18.51212	35830
18.52023	33808
18.52837	32402
18.53648	31244
18.54462	34642
18.55273	34880
18.56085	31436
18.56898	30235
18.57710	30962
18.58522	33019
18.59335	36410
18.60147	39231
18.60960	44858
18.61772	48440
18.62583	46361
18.63397	39505
18.64208	44960
18.65022	38079
18.65833	42209
18.66645	36543
18.67458	40154
18.68270	36239
18.69082	35103
18.69895	36190
18.70707	36055
18.71520	34799
18.72332	29869
18.73143	33429
18.73957	33651
18.74768	31163
18.75582	32770
18.76393	33365
18.77205	32387
18.78018	31278
18.78830	33780
18.79643	30938
18.80455	30169
18.81267	28252
18.82080	30106
18.82892	33231
18.83703	29374
18.84517	31617
18.85328	34359
18.86142	32720
18.86953	29161
18.87765	28889
18.88578	36010
18.89390	35638
18.90203	31599
18.91015	35919
18.91827	35669
18.92640	36307
18.93452	41014
18.94265	53764
18.95077	62574
18.95888	81795
18.96702	89070
18.97513	100237
18.98325	99402
18.99138	86061
18.99950	72797
19.00763	71245
19.01575	55619
19.02387	51191
19.03200	46970
19.04012	44978
19.04825	43101
19.05637	42718
19.06448	39439
19.07262	41718
19.08073	47109
19.08885	50457
19.09698	52108
19.10510	61188
19.11323	67412
19.12135	68673
19.12947	68510
19.13760	63198
19.14572	64345
19.15385	63676
19.16197	58692
19.17008	66318
19.17822	71525
19.18633	69300
19.19447	72077
19.20258	68431
19.21070	63971
19.21883	60948
19.22695	56962
19.23507	47805
19.24320	43679
19.25132	41790
19.25945	41918
19.26757	41198
19.27568	44027
19.28382	43909
19.29193	51068
19.30007	49261
19.30818	53887
19.31630	55310
19.32443	48315
19.33255	50171
19.34067	53485
19.34880	55017
19.35692	57500
19.36505	52236
19.37317	48589
19.38128	46761
19.38942	48443
19.39753	40647
19.40567	41975
19.41378	42163
19.42190	39964
19.43003	42845
19.43815	38150
19.44628	42286
19.45440	41952
19.46252	37264
19.47065	34584
19.47877	39177
19.48688	38120
19.49502	41118
19.50313	50435
19.51127	59645
19.51938	85503
19.52750	96187
19.53563	108126
19.54375	97083
19.55188	80702
19.56000	73051
19.56812	52624
19.57625	46176
19.58437	40139
19.59250	37290
19.60062	36813
19.60873	38451
19.61687	35265
19.62498	38333
19.63310	38294
19.64123	45840
19.64935	59229
19.65748	87125
19.66560	121821
19.67372	165830
19.68185	191913
19.68997	203545
19.69810	189041
19.70622	156464
19.71433	129586
19.72247	101171
19.73058	86003
19.73870	76782
19.74683	72620
19.75495	71064
19.76308	68366
19.77120	61057
19.77932	55705
19.78745	55336
19.79557	48832
19.80370	47159
19.81182	54273
19.81993	51501
19.82807	46569
19.83618	46295
19.84432	49658
19.85243	44037
19.86055	46887
19.86868	53578
19.87680	83504
19.88492	134065
19.89305	235546
19.90117	400242
19.90930	583930
19.91742	805837
19.92553	1004039
19.93367	1107410
19.94178	1145381
19.94992	1092617
19.95803	1110614
19.96615	1055688
19.97428	1025675
19.98240	951601
19.99053	916563
19.99865	883823
20.00677	853129
20.01490	803058
20.02302	771539
20.03113	712437
20.03927	675140
20.04738	624303
20.05552	545894
20.06363	440744
20.07175	346885
20.07988	271284
20.08800	207635
20.09613	179889
20.10425	158732
20.11237	150289
20.12050	141626
20.12862	133841
20.13673	128995
20.14487	137902
20.15298	130615
20.16112	132596
20.16923	130327
20.17735	127929
20.18548	128688
20.19360	124672
20.20173	118539
20.20985	115051
20.21797	112297
20.22610	108815
20.23422	103523
20.24235	105729
20.25047	106590
20.25858	121001
20.26672	130416
20.27483	171782
20.28295	207889
20.29108	250833
20.29920	253549
20.30733	260357
20.31545	229358
20.32357	192193
20.33170	162589
20.33982	125876
20.34795	115982
20.35607	98498
20.36418	78373
20.37232	64470
20.38043	58581
20.38855	51522
20.39668	51814
20.40480	46937
20.41293	47002
20.42105	52181
20.42917	51593
20.43730	54421
20.44542	66454
20.45355	77241
20.46167	84541
20.46978	80026
20.47792	81174
20.48603	71515
20.49417	70793
20.50228	58740
20.51040	53054
20.51853	46170
20.52665	43360
20.53477	40762
20.54290	43311
20.55102	42826
20.55915	41648
20.56727	41063
20.57538	41949
20.58352	37349
20.59163	37881
20.59977	38813
20.60788	45828
20.61600	37016
20.62413	37411
20.63225	39137
20.64038	37150
20.64850	36566
20.65662	35077
20.66475	33418
20.67287	36375
20.68098	39643
20.68912	38266
20.69723	40579
20.70537	39829
20.71348	39676
20.72160	39734
20.72973	37621
20.73785	37759
20.74598	35187
20.75410	36124
20.76222	37186
20.77035	39704
20.77847	37782
20.78660	36744
20.79472	37634
20.80283	39194
20.81097	37460
20.81908	36401
20.82720	39706
20.83533	39368
20.84345	40326
20.85158	40407
20.85970	40348
20.86782	36311
20.87595	39232
20.88407	34456
20.89220	38035
20.90032	38860
20.90843	40867
20.91657	40179
20.92468	40436
20.93280	38492
20.94093	37427
20.94905	37531
20.95718	38963
20.96530	41885
20.97342	39102
20.98155	40757
20.98967	36954
20.99780	36941
21.00592	37188
21.01403	35931
21.02217	35326
21.03028	36638
21.03842	39904
21.04653	35684
21.05465	44333
21.06278	37376
21.07090	35272
21.07902	33153
21.08715	36038
21.09527	35005
21.10340	34082
21.11152	33486
21.11963	39914
21.12777	38037
21.13588	41872
21.14402	40568
21.15213	42960
21.16025	43111
21.16838	41885
21.17650	46736
21.18462	46256
21.19275	48904
21.20087	40047
21.20900	39841
21.21712	38002
21.22523	38339
21.23337	38504
21.24148	45900
21.24962	41039
21.25773	36592
21.26585	38356
21.27398	37686
21.28210	40378
21.29023	39878
21.29835	39182
21.30647	40876
21.31460	38730
21.32272	35839
21.33083	38632
21.33897	39156
21.34708	39003
21.35522	36344
21.36333	36740
21.37145	40635
21.37958	39754
21.38770	41739
21.39583	41103
21.40395	39791
21.41207	40987
21.42020	44750
21.42832	39803
21.43645	35005
21.44457	38084
21.45268	41133
21.46082	43898
21.46893	40226
21.47705	36013
21.48518	38833
21.49330	39105
21.50143	37016
21.50955	35735
21.51767	35107
21.52580	32788
21.53392	38748
21.54205	32785
21.55017	37006
21.55828	37387
21.56642	34984
21.57453	39803
21.58265	35869
21.59078	33155
21.59890	35589
21.60703	37833
21.61515	38299
21.62327	41298
21.63140	47878
21.63952	51202
21.64765	69180
21.65577	68881
21.66388	70187
21.67202	70486
21.68013	66344
21.68827	56297
21.69638	47374
21.70450	45492
21.71263	41235
21.72075	43273
21.72887	35920
21.73700	40138
21.74512	37334
21.75325	36103
21.76137	38738
21.76948	38922
21.77762	37147
21.78573	40135
21.79387	41490
21.80198	32724
21.81010	37230
21.81823	41073
21.82635	44691
21.83448	54726
21.84260	64486
21.85072	77294
21.85885	76653
21.86697	79873
21.87508	73174
21.88322	67212
21.89133	54039
21.89947	51875
21.90758	45305
21.91570	44372
21.92383	41176
21.93195	36764
21.94008	38333
21.94820	36949
21.95632	38945
21.96445	35720
21.97257	38926
21.98068	35811
21.98882	32170
21.99693	37727
22.00507	33090
22.01318	33284
22.02130	33092
22.02943	31826
22.03755	32376
22.04568	31784
22.05380	32875
22.06192	35998
22.07005	33878
22.07817	34422
22.08630	35808
22.09442	32141
22.10253	30279
22.11067	32094
22.11878	33810
22.12690	36165
22.13503	38315
22.14315	34538
22.15128	32033
22.15940	33656
22.16752	35811
22.17565	32979
22.18377	33107
22.19190	36670
22.20002	32335
22.20813	34163
22.21627	34844
22.22438	37560
22.23250	40170
22.24063	37380
22.24875	38931
22.25688	43663
22.26500	44305
22.27312	43746
22.28125	54667
22.28937	72140
22.29750	94909
22.30562	117150
22.31373	146822
22.32187	159113
22.32998	167235
22.33812	166550
22.34623	165916
22.35435	153560
22.36248	132342
22.37060	109567
22.37872	88169
22.38685	76494
22.39497	64984
22.40310	58927
22.41122	58615
22.41933	50743
22.42747	51939
22.43558	49673
22.44372	43190
22.45183	44031
22.45995	47062
22.46808	45400
22.47620	36426
22.48433	39939
22.49245	36573
22.50057	39345
22.50870	39911
22.51682	38578
22.52493	36429
22.53307	36954
22.54118	37646
22.54932	38736
22.55743	40496
22.56555	40443
22.57368	37164
22.58180	35568
22.58993	35801
22.59805	36082
22.60617	32498
22.61430	31774
22.62242	32751
22.63053	34077
22.63867	35243
22.64678	37973
22.65492	32072
22.66303	35881
22.67115	36413
22.67928	44046
22.68740	45165
22.69553	48900
22.70365	47214
22.71177	47003
22.71990	45086
22.72802	44454
22.73615	38056
22.74427	39286
22.75238	37825
22.76052	34490
22.76863	32896
22.77675	32484
22.78488	33237
22.79300	33282
22.80113	31711
22.80925	32462
22.81737	30873
22.82550	29810
22.83362	33089
22.84175	30691
22.84987	31979
22.85798	30269
22.86612	32478
22.87423	32911
22.88237	38029
22.89048	34701
22.89860	32629
22.90673	36781
22.91485	48117
22.92297	47607
22.93110	54049
22.93922	60272
22.94735	66665
22.95547	67333
22.96358	69023
22.97172	66049
22.97983	68158
22.98797	63164
22.99608	60282
23.00420	54935
23.01233	52636
23.02045	53029
23.02857	46632
23.03670	42575
23.04482	41080
23.05295	43039
23.06107	37566
23.06918	42083
23.07732	37630
23.08543	35510
23.09357	37543
23.10168	39249
23.10980	38097
23.11793	36457
23.12605	35316
23.13418	36267
23.14230	38037
23.15042	35103
23.15855	37133
23.16667	35201
23.17478	32746
23.18292	33985
23.19103	34994
23.19917	32984
23.20728	31642
23.21540	35205
23.22353	30284
23.23165	36177
23.23978	36303
23.24790	38246
23.25602	41781
23.26415	45121
23.27227	49939
23.28038	44048
23.28852	43513
23.29663	41526
23.30477	40220
23.31288	37608
23.32100	37802
23.32913	38866
23.33725	32108
23.34538	36797
23.35350	33933
23.36162	36718
23.36975	35231
23.37787	41620
23.38600	40864
23.39412	37070
23.40223	36159
23.41037	41344
23.41848	37272
23.42660	38881
23.43473	35317
23.44285	33293
23.45098	35467
23.45910	34355
23.46722	36303
23.47535	36733
23.48347	36383
23.49160	35555
23.49972	40282
23.50783	34957
23.51597	34704
23.52408	37672
23.53222	34891
23.54033	37402
23.54845	37919
23.55658	34006
23.56470	37445
23.57282	36951
23.58095	43847
23.58907	49228
23.59720	54901
23.60532	66240
23.61343	70834
23.62157	81649
23.62968	82662
23.63782	102852
23.64593	132296
23.65405	208952
23.66218	296042
23.67030	395152
23.67842	450320
23.68655	442881
23.69467	376466
23.70280	288461
23.71092	211524
23.71903	168488
23.72717	126734
23.73528	109436
23.74342	96087
23.75153	91375
23.75965	120090
23.76778	217671
23.77590	469426
23.78403	973015
23.79215	1681415
23.80027	2348551
23.80840	2745352
23.81652	2541960
23.82463	2138416
23.83277	1674251
23.84088	1189982
23.84902	889377
23.85713	658272
23.86525	512054
23.87338	422918
23.88150	353947
23.88963	304631
23.89775	273203
23.90587	246065
23.91400	217778
23.92212	196581
23.93025	180581
23.93837	171963
23.94648	166799
23.95462	153258
23.96273	147478
23.97085	142804
23.97898	128596
23.98710	122656
23.99523	117891
24.00335	112647
24.01147	117100
24.01960	112327
24.02772	116886
24.03585	125726
24.04397	127751
24.05208	127967
24.06022	126905
24.06833	119152
24.07645	111459
24.08458	111634
24.09270	93293
24.10083	91522
24.10895	86815
24.11707	87217
24.12520	84534
24.13332	85153
24.14145	87215
24.14957	87928
24.15768	90954
24.16582	87341
24.17393	83485
24.18207	79184
24.19018	82680
24.19830	74255
24.20643	76245
24.21455	73637
24.22267	71502
24.23080	79926
24.23892	87185
24.24705	82555
24.25517	77860
24.26328	69773
24.27142	65887
24.27953	68556
24.28767	68866
24.29578	64802
24.30390	61530
24.31203	65005
24.32015	60516
24.32828	59498
24.33640	58167
24.34452	56461
24.35265	54879
24.36077	54199
24.36888	52697
24.37702	54232
24.38513	56801
24.39327	59222
24.40138	71723
24.40950	80094
24.41763	91616
24.42575	93849
24.43388	84793
24.44200	79650
24.45012	66061
24.45825	61499
24.46637	51939
24.47448	57257
24.48262	55737
24.49073	54862
24.49887	50347
24.50698	55562
24.51510	61964
24.52323	62273
24.53135	66851
24.53948	65995
24.54760	68248
24.55572	59334
24.56385	58007
24.57197	50235
24.58010	56585
24.58822	56189
24.59633	54536
24.60447	52727
24.61258	50064
24.62070	48177
24.62883	51309
24.63695	51476
24.64508	51127
24.65320	52569
24.66132	50640
24.66945	52237
24.67757	50044
24.68570	50527
24.69382	48063
24.70193	45312
24.71007	43051
24.71818	44365
24.72630	49992
24.73443	45209
24.74255	46585
24.75068	38373
24.75880	43730
24.76692	41635
24.77505	41433
24.78317	41831
24.79130	41222
24.79942	41906
24.80753	42562
24.81567	39829
24.82378	38754
24.83192	41627
24.84003	36833
24.84815	41157
24.85628	38138
24.86440	40566
24.87252	43943
24.88065	40520
24.88877	37221
24.89690	38690
24.90502	39775
24.91313	38602
24.92127	42050
24.92938	43609
24.93752	39630
24.94563	40312
24.95375	34962
24.96188	39877
24.97000	37034
24.97813	43286
24.98625	36324
24.99437	37614
25.00250	41385
25.01062	38799
25.01873	32710
25.02687	35670
25.03498	36329
25.04312	39220
25.05123	35926
25.05935	39115
25.06748	39459
25.07560	36661
25.08373	36423
25.09185	38149
25.09997	40798
25.10810	39584
25.11622	38470
25.12433	36165
25.13247	40897
25.14058	40681
25.14872	41387
25.15683	41499
25.16495	44507
25.17308	46962
25.18120	45303
25.18933	42286
25.19745	42275
25.20557	41397
25.21370	42242
25.22182	39071
25.22995	39636
25.23807	39973
25.24618	36042
25.25432	36741
25.26243	36813
25.27055	39458
25.27868	37874
25.28680	40021
25.29493	39914
25.30305	41755
25.31117	44161
25.31930	46836
25.32742	53818
25.33555	49399
25.34367	48727
25.35178	44289
25.35992	42165
25.36803	40726
25.37617	39687
25.38428	38159
25.39240	33638
25.40053	32832
25.40865	34917
25.41677	36560
25.42490	37321
25.43302	35767
25.44115	38682
25.44927	34616
25.45738	35533
25.46552	33906
25.47363	37176
25.48177	39597
25.48988	40937
25.49800	41264
25.50613	43991
25.51425	42344
25.52237	39865
25.53050	38577
25.53862	35909
25.54675	35934
25.55487	35433
25.56298	34610
25.57112	33398
25.57923	31845
25.58737	30787
25.59548	34635
25.60360	32368
25.61173	35895
25.61985	36022
25.62798	40684
25.63610	44767
25.64422	54919
25.65235	63804
25.66047	63054
25.66858	63639
25.67672	55464
25.68483	49136
25.69297	44293
25.70108	45893
25.70920	44095
25.71733	36602
25.72545	39707
25.73358	37928
25.74170	44295
25.74982	43970
25.75795	41958
25.76607	43807
25.77418	38829
25.78232	37135
25.79043	42636
25.79857	35236
25.80668	39425
25.81480	41078
25.82293	43334
25.83105	48773
25.83918	50332
25.84730	56323
25.85542	51633
25.86355	48662
25.87167	46080
25.87980	43674
25.88792	46068
25.89603	37827
25.90417	34598
25.91228	33893
25.92040	34443
25.92853	36336
25.93665	34830
25.94478	32571
25.95290	33331
25.96102	29192
25.96915	31601
25.97727	34458
25.98540	31791
25.99352	27488
26.00163	33943
26.00977	34629
26.01788	33571
26.02602	28027
26.03413	30006
26.04225	32780
26.05038	33980
26.05850	27430
26.06662	34098
26.07475	31343
26.08287	27976
26.09100	37212
26.09912	35602
26.10723	33019
26.11537	35338
26.12348	36098
26.13162	37706
26.13973	40673
26.14785	46340
26.15598	41457
26.16410	43926
26.17223	47420
26.18035	46397
26.18847	41958
26.19660	40704
26.20472	37595
26.21283	36078
26.22097	37096
26.22908	33363
26.23722	34497
26.24533	35202
26.25345	32168
26.26158	32962
26.26970	31497
26.27783	32749
26.28595	32672
26.29407	34564
26.30220	31235
26.31032	33823
26.31843	31159
26.32657	34519
26.33468	36113
26.34282	34176
26.35093	34886
26.35905	33117
26.36718	31371
26.37530	30674
26.38343	33450
26.39155	31891
26.39967	31972
26.40780	32583
26.41592	32629
26.42405	31752
26.43217	31758
26.44028	31643
26.44842	30618
26.45653	29973
26.46465	29691
26.47278	30248
26.48090	34615
26.48903	29928
26.49715	34135
26.50527	29443
26.51340	29679
26.52152	30010
26.52965	33017
26.53777	31886
26.54588	30717
26.55402	30969
26.56213	28436
26.57025	33797
26.57838	29173
26.58650	30402
26.59463	31740
26.60275	31301
26.61087	30180
26.61900	27870
26.62712	29015
26.63525	28563
26.64337	31170
26.65148	29895
26.65962	35029
26.66773	36569
26.67587	33835
26.68398	36313
26.69210	34013
26.70023	34687
26.70835	33060
26.71647	34230
26.72460	35052
26.73272	27676
26.74085	33626
26.74897	31150
26.75708	29735
26.76522	29177
26.77333	32481
26.78147	35937
26.78958	32352
26.79770	32007
26.80583	36311
26.81395	32246
26.82208	36783
26.83020	36049
26.83832	36232
26.84645	37107
26.85457	33428
26.86268	32063
26.87082	37066
26.87893	41378
26.88707	36629
26.89518	35586
26.90330	34943
26.91143	34406
26.91955	32789
26.92768	31401
26.93580	34974
26.94392	30810
26.95205	33164
26.96017	34412
26.96828	42620
26.97642	40877
26.98453	49461
26.99267	80421
27.00078	132807
27.00890	209747
27.01703	302512
27.02515	414121
27.03328	506309
27.04140	539792
27.04952	516988
27.05765	475578
27.06577	385282
27.07390	312892
27.08202	256368
27.09013	204491
27.09827	171287
27.10638	141014
27.11450	128662
27.12263	118829
27.13075	106275
27.13888	96030
27.14700	92757
27.15512	92081
27.16325	83703
27.17137	81758
27.17950	80942
27.18762	77512
27.19573	69162
27.20387	75455
27.21198	72143
27.22012	66709
27.22823	65239
27.23635	60056
27.24448	66268
27.25260	65034
27.26072	58093
27.26885	56892
27.27697	55041
27.28510	53445
27.29322	49496
27.30133	53613
27.30947	53495
27.31758	50115
27.32572	49819
27.33383	50176
27.34195	49893
27.35008	52649
27.35820	46839
27.36632	46370
27.37445	45854
27.38257	46962
27.39070	47783
27.39882	50055
27.40693	48949
27.41507	45651
27.42318	44968
27.43132	48545
27.43943	44705
27.44755	46965
27.45568	40990
27.46380	40366
27.47193	46232
27.48005	44383
27.48817	42834
27.49630	45119
27.50442	38982
27.51253	42574
27.52067	42998
27.52878	39056
27.53692	44673
27.54503	47215
27.55315	40580
27.56128	42809
27.56940	41461
27.57753	41932
27.58565	42851
27.59377	46886
27.60190	41472
27.61002	42084
27.61813	40749
27.62627	40794
27.63438	39553
27.64252	41366
27.65063	37501
27.65875	39224
27.66688	40305
27.67500	33807
27.68313	38036
27.69125	36287
27.69937	37249
27.70750	36343
27.71562	34184
27.72375	33721
27.73187	34421
27.73998	33984
27.74812	33332
27.75623	36720
27.76435	32035
27.77248	32880
27.78060	34410
27.78873	37560
27.79685	38044
27.80497	32572
27.81310	32298
27.82122	34200
27.82935	42405
27.83747	39933
27.84558	42792
27.85372	42116
27.86183	35188
27.86997	41733
27.87808	35057
27.88620	42000
27.89433	32991
27.90245	42167
27.91057	35324
27.91870	41389
27.92682	34584
27.93495	34658
27.94307	34253
27.95118	35455
27.95932	36840
27.96743	32382
27.97557	31352
27.98368	33720
27.99180	35776
27.99993	32473
28.00805	35956
28.01617	36054
28.02430	32982
28.03242	34846
28.04055	36131
28.04867	32076
28.05678	36870
28.06492	30544
28.07303	36764
28.08117	40917
28.08928	30778
28.09740	33959
28.10553	34587
28.11365	35373
28.12178	35193
28.12990	32325
28.13802	33878
28.14615	33114
28.15427	30133
28.16238	33574
28.17052	31069
28.17863	35299
28.18677	37276
28.19488	41864
28.20300	47950
28.21113	65527
28.21925	82301
28.22738	90388
28.23550	88367
28.24362	87895
28.25175	82187
28.25987	69758
28.26800	61730
28.27612	52124
28.28423	47609
28.29237	44597
28.30048	46360
28.30860	40706
28.31673	40555
28.32485	47188
28.33298	51998
28.34110	55518
28.34922	63526
28.35735	73889
28.36547	96563
28.37360	104187
28.38172	117760
28.38983	117366
28.39797	124864
28.40608	122337
28.41420	130393
28.42233	118052
28.43045	108414
28.43858	105022
28.44670	102060
28.45482	90568
28.46295	87293
28.47107	78513
28.47920	72812
28.48732	65719
28.49543	65188
28.50357	62152
28.51168	64238
28.51982	59489
28.52793	54888
28.53605	54849
28.54418	49762
28.55230	50769
28.56042	54329
28.56855	53399
28.57667	48664
28.58480	46388
28.59292	48599
28.60103	46367
28.60917	47973
28.61728	48207
28.62542	51174
28.63353	57574
28.64165	64645
28.64978	72583
28.65790	84333
28.66603	91105
28.67415	98691
28.68227	94668
28.69040	90668
28.69852	74499
28.70663	66157
28.71477	56368
28.72288	50240
28.73102	46955
28.73913	45890
28.74725	47955
28.75538	44622
28.76350	48552
28.77163	45674
28.77975	57842
28.78787	63276
28.79600	59286
28.80412	57244
28.81223	55943
28.82037	44683
28.82848	45605
28.83662	46528
28.84473	40852
28.85285	41690
28.86098	42619
28.86910	42674
28.87723	41402
28.88535	38893
28.89347	38556
28.90160	35715
28.90972	37634
28.91785	34078
28.92597	36413
28.93408	33756
28.94222	41145
28.95033	43850
28.95845	45536
28.96658	45789
28.97470	45721
28.98283	47812
28.99095	44788
28.99907	41771
29.00720	43013
29.01532	38691
29.02345	39129
29.03157	36636
29.03968	37420
29.04782	36188
29.05593	36969
29.06405	37942
29.07218	35908
29.08030	41484
29.08843	39103
29.09655	38530
29.10467	38384
29.11280	41337
29.12092	38241
29.12905	36332
29.13717	37679
29.14528	38618
29.15342	33952
29.16153	39556
29.16967	38510
29.17778	42500
29.18590	36859
29.19403	37811
29.20215	40416
29.21027	37595
29.21840	40200
29.22652	37654
29.23465	38137
29.24277	38146
29.25088	34640
29.25902	34693
29.26713	40497
29.27527	38583
29.28338	36518
29.29150	37589
29.29963	36623
29.30775	35430
29.31588	36841
29.32400	35897
29.33212	33328
29.34025	36285
29.34837	37712
29.35648	39295
29.36462	37577
29.37273	36331
29.38087	39099
29.38898	44391
29.39710	43639
29.40523	42139
29.41335	49635
29.42148	54684
29.42960	53041
29.43772	57007
29.44585	53093
29.45397	53523
29.46208	49607
29.47022	43594
29.47833	43679
29.48647	42113
29.49458	45245
29.50270	46224
29.51083	41767
29.51895	40659
29.52708	45015
29.53520	44658
29.54332	39278
29.55145	38064
29.55957	36524
29.56770	35929
29.57582	37992
29.58393	33172
29.59207	33717
29.60018	32139
29.60830	37327
29.61643	34368
29.62455	36698
29.63268	33951
29.64080	40558
29.64892	37231
29.65705	34505
29.66517	35338
29.67330	34169
29.68142	34530
29.68953	32234
29.69767	36214
29.70578	34360
29.71392	38312
29.72203	37214
29.73015	36917
29.73828	37090
29.74640	37074
29.75452	40000
29.76265	37163
29.77077	36149
29.77890	35807
29.78702	32380
29.79513	33375
29.80327	33624
29.81138	35152
29.81952	32639
29.82763	34841
29.83575	35439
29.84388	35726
29.85200	37754
29.86012	47855
29.86825	72461
29.87637	137872
29.88450	280313
29.89262	483319
29.90073	763318
29.90887	1014096
29.91698	1086588
29.92512	900981
29.93323	634437
29.94135	401962
29.94948	231963
29.95760	138674
29.96573	94588
29.97385	73543
29.98197	74955
29.99010	74900
29.99822	76378
30.00633	84404
30.01447	93681
30.02258	94539
30.03072	95129
30.03883	103334
30.04695	106534
30.05508	107997
30.06320	103361
30.07133	102408
30.07945	94213
30.08757	106274
30.09570	97042
30.10382	97013
30.11193	89090
30.12007	88029
30.12818	86087
30.13632	80717
30.14443	77396
30.15255	76271
30.16068	71505
30.16880	67869
30.17693	68340
30.18505	69806
30.19317	67940
30.20130	60750
30.20942	57579
30.21755	59440
30.22567	54908
30.23378	53822
30.24192	52614
30.25003	49423
30.25815	49900
30.26628	45838
30.27440	50672
30.28253	49549
30.29065	49381
30.29877	46904
30.30690	45620
30.31502	49280
30.32315	44676
30.33127	46897
30.33938	46413
30.34752	41663
30.35563	45083
30.36377	46844
30.37188	41724
30.38000	44975
30.38813	43713
30.39625	44399
30.40437	46682
30.41250	42291
30.42062	42423
30.42875	38870
30.43687	47127
30.44498	39155
30.45312	39259
30.46123	41782
30.46937	41412
30.47748	37844
30.48560	40238
30.49373	46437
30.50185	42281
30.50997	40242
30.51810	38534
30.52622	39059
30.53435	43636
30.54247	38906
30.55058	37423
30.55872	38456
30.56683	40592
30.57497	35508
30.58308	42610
30.59120	35706
30.59933	40161
30.60745	39253
30.61558	38448
30.62370	38498
30.63182	36415
30.63995	35644
30.64807	39197
30.65618	40205
30.66432	38093
30.67243	39526
30.68057	37093
30.68868	36941
30.69680	37280
30.70493	37678
30.71305	34517
30.72118	35033
30.72930	34528
30.73742	35988
30.74555	38824
30.75367	35892
30.76180	40107
30.76992	44100
30.77803	65735
30.78617	119840
30.79428	204625
30.80240	337599
30.81053	493829
30.81865	633524
30.82678	677310
30.83490	593004
30.84302	438804
30.85115	280725
30.85927	176630
30.86740	117632
30.87552	88209
30.88363	72095
30.89177	62242
30.89988	52481
30.90800	51225
30.91613	51730
30.92425	50336
30.93238	49831
30.94050	52261
30.94862	49730
30.95675	47513
30.96487	52006
30.97300	43820
30.98112	48072
30.98923	45230
30.99737	43218
31.00548	43254
31.01362	48198
31.02173	47899
31.02985	47312
31.03798	56535
31.04610	58583
31.05422	51038
31.06235	57082
31.07047	55449
31.07860	55964
31.08672	71559
31.09483	87455
31.10297	114021
31.11108	140843
31.11922	152199
31.12733	150401
31.13545	133718
31.14358	104907
31.15170	77194
31.15982	66363
31.16795	52276
31.17607	51126
31.18420	48054
31.19232	50929
31.20043	52511
31.20857	61012
31.21668	69422
31.22482	76595
31.23293	77428
31.24105	79088
31.24918	74499
31.25730	72291
31.26543	58567
31.27355	55188
31.28167	44247
31.28980	43329
31.29792	43684
31.30603	44226
31.31417	40569
31.32228	45354
31.33042	37513
31.33853	38531
31.34665	39053
31.35478	42813
31.36290	39978
31.37103	47536
31.37915	52987
31.38727	54329
31.39540	56237
31.40352	55229
31.41165	55057
31.41977	53751
31.42788	46849
31.43602	47255
31.44413	45197
31.45225	47950
31.46038	44111
31.46850	42415
31.47663	41425
31.48475	44424
31.49287	45175
31.50100	38322
31.50912	45773
31.51725	40363
31.52537	39590
31.53348	39023
31.54162	38259
31.54973	36119
31.55787	37905
31.56598	44345
31.57410	37559
31.58223	42232
31.59035	40300
31.59847	39412
31.60660	38213
31.61472	40106
31.62285	39649
31.63097	39925
31.63908	36493
31.64722	39711
31.65533	41938
31.66347	37838
31.67158	43180
31.67970	40555
31.68783	38478
31.69595	35830
31.70407	37316
31.71220	43164
31.72032	37061
31.72845	35009
31.73657	40324
31.74468	38165
31.75282	39880
31.76093	35914
31.76907	33791
31.77718	40832
31.78530	40028
31.79343	41013
31.80155	39533
31.80968	36675
31.81780	42283
31.82592	40285
31.83405	39761
31.84217	44342
31.85028	39461
31.85842	39559
31.86653	47226
31.87467	44958
31.88278	48644
31.89090	47010
31.89903	48568
31.90715	44938
31.91528	49178
31.92340	50049
31.93152	53806
31.93965	62098
31.94777	66004
31.95588	67504
31.96402	71473
31.97213	77154
31.98027	82726
31.98838	80409
31.99650	86866
32.00463	89081
32.01275	84714
32.02088	84205
32.02900	83431
32.03712	83565
32.04525	78613
32.05337	68492
32.06150	68921
32.06962	59045
32.07773	67847
32.08587	62874
32.09398	62893
32.10210	70243
32.11023	56569
32.11835	53476
32.12648	52617
32.13460	48950
32.14272	52916
32.15085	48277
32.15897	48769
32.16710	47993
32.17522	45188
32.18333	44442
32.19147	43474
32.19958	44429
32.20772	39561
32.21583	41534
32.22395	38750
32.23208	41512
32.24020	41038
32.24832	42978
32.25645	43115
32.26457	44072
32.27270	44305
32.28082	48478
32.28893	43212
32.29707	45279
32.30518	45465
32.31332	48852
32.32143	43769
32.32955	44479
32.33768	43730
32.34580	49761
32.35392	57351
32.36205	53625
32.37017	54076
32.37830	55456
32.38642	47821
32.39453	50189
32.40267	46170
32.41078	42255
32.41892	41424
32.42703	41626
32.43515	38721
32.44328	44899
32.45140	37594
32.45953	37620
32.46765	40546
32.47577	41218
32.48390	38552
32.49202	38401
32.50013	36109
32.50827	37880
32.51638	39263
32.52452	44175
32.53263	36289
32.54075	38223
32.54888	33869
32.55700	38314
32.56513	39791
32.57325	36768
32.58137	37977
32.58950	44745
32.59762	39606
32.60575	33495
32.61387	37206
32.62198	38260
32.63012	37079
32.63823	36590
32.64635	36678
32.65448	38251
32.66260	39355
32.67073	43632
32.67885	47621
32.68697	49730
32.69510	58749
32.70322	49984
32.71135	48733
32.71947	44071
32.72758	44825
32.73572	44035
32.74383	39603
32.75195	46257
32.76008	39255
32.76820	34686
32.77633	36748
32.78445	38988
32.79257	32870
32.80070	33721
32.80882	35435
32.81695	36797
32.82507	34502
32.83318	36313
32.84132	32809
32.84943	35328
32.85757	37344
32.86568	37719
32.87380	32074
32.88193	35354
32.89005	42631
32.89817	35497
32.90630	38955
32.91442	36623
32.92255	36105
32.93067	38189
32.93878	37470
32.94692	36569
32.95503	36955
32.96317	36407
32.97128	37386
32.97940	35665
32.98753	35794
32.99565	33969
33.00377	32134
33.01190	35109
33.02002	37073
33.02815	37421
33.03627	34775
33.04438	37856
33.05252	37596
33.06063	32671
33.06877	36557
33.07688	39625
33.08500	46638
33.09313	66668
33.10125	104820
33.10938	175245
33.11750	310432
33.12562	417694
33.13375	477541
33.14187	445327
33.14998	344403
33.15812	223461
33.16623	138094
33.17437	84407
33.18248	62035
33.19060	53463
33.19873	52135
33.20685	48163
33.21498	47395
33.22310	49634
33.23122	54859
33.23935	48855
33.24747	45528
33.25560	45270
33.26372	45432
33.27183	41953
33.27997	43251
33.28808	43533
33.29620	42315
33.30433	43809
33.31245	42330
33.32058	43814
33.32870	42448
33.33682	41752
33.34495	43068
33.35307	41411
33.36120	42430
33.36932	43593
33.37743	45356
33.38557	36638
33.39368	36437
33.40180	40103
33.40993	41316
33.41805	39354
33.42618	40025
33.43430	37691
33.44242	36740
33.45055	39818
33.45867	39277
33.46680	36642
33.47492	39037
33.48303	34928
33.49117	37277
33.49928	38390
33.50742	34935
33.51553	37090
33.52365	36692
33.53178	36298
33.53990	35344
33.54802	38175
33.55615	36522
33.56427	38145
33.57240	38642
33.58052	39883
33.58863	43632
33.59677	37658
33.60488	43497
33.61302	42342
33.62113	43257
33.62925	40532
33.63738	47510
33.64550	41460
33.65363	41786
33.66175	38438
33.66987	36996
33.67800	41667
33.68612	40699
33.69423	39116
33.70237	34450
33.71048	41081
33.71862	39657
33.72673	36756
33.73485	38733
33.74298	37557
33.75110	36229
33.75923	38759
33.76735	37475
33.77547	34937
33.78360	36905
33.79172	35265
33.79983	40881
33.80797	35196
33.81608	39884
33.82422	36175
33.83233	39999
33.84045	43450
33.84858	39552
33.85670	43348
33.86483	40694
33.87295	43884
33.88107	41767
33.88920	40571
33.89732	44411
33.90545	45478
33.91357	40566
33.92168	40223
33.92982	37759
33.93793	38255
33.94605	37661
33.95418	44196
33.96230	38457
33.97043	40684
33.97855	43444
33.98667	39209
33.99480	38600
34.00292	35503
34.01105	40929
34.01917	40185
34.02728	36617
34.03542	38859
34.04353	38745
34.05167	37077
34.05978	36818
34.06790	37343
34.07603	44677
34.08415	34326
34.09227	38499
34.10040	35182
34.10852	36398
34.11665	36839
34.12477	39862
34.13288	37506
34.14102	38619
34.14913	34723
34.15727	37197
34.16538	35327
34.17350	38245
34.18163	34413
34.18975	36439
34.19787	38250
34.20600	37724
34.21412	39818
34.22225	38944
34.23037	38983
34.23848	40301
34.24662	40843
34.25473	45688
34.26287	48129
34.27098	45921
34.27910	47856
34.28723	45191
34.29535	43707
34.30348	43360
34.31160	39120
34.31972	39962
34.32785	42272
34.33597	38152
34.34408	44263
34.35222	40786
34.36033	40078
34.36847	37116
34.37658	41042
34.38470	39657
34.39283	38693
34.40095	42080
34.40908	41581
34.41720	36435
34.42532	35481
34.43345	38309
34.44157	35767
34.44968	38561
34.45782	40512
34.46593	38449
34.47407	39757
34.48218	38861
34.49030	34713
34.49843	36891
34.50655	37000
34.51468	40916
34.52280	40210
34.53092	43816
34.53905	47183
34.54717	55535
34.55530	60209
34.56342	64074
34.57153	71711
34.57967	75652
34.58778	69444
34.59590	69573
34.60403	70263
34.61215	59096
34.62028	57296
34.62840	64339
34.63652	52064
34.64465	54068
34.65277	55056
34.66090	49366
34.66902	54179
34.67713	46508
34.68527	46055
34.69338	47066
34.70152	41307
34.70963	41466
34.71775	46759
34.72588	42756
34.73400	46982
34.74212	39289
34.75025	41614
34.75837	40829
34.76650	39885
34.77462	45044
34.78273	39571
34.79087	42048
34.79898	43212
34.80712	41592
34.81523	42607
34.82335	40124
34.83148	43181
34.83960	38266
34.84772	42289
34.85585	40082
34.86397	42962
34.87210	37591
34.88022	40750
34.88833	39913
34.89647	44046
34.90458	43611
34.91272	39410
34.92083	43365
34.92895	45318
34.93708	47616
34.94520	52700
34.95333	73622
34.96145	106998
34.96957	160975
34.97770	229531
34.98582	285813
34.99393	304433
35.00207	263812
35.01018	203518
35.01832	133755
35.02643	90527
35.03455	68485
35.04268	63891
35.05080	57394
35.05893	53509
35.06705	50465
35.07517	53240
35.08330	56239
35.09142	51532
35.09955	56522
35.10767	49895
35.11578	48957
35.12392	46849
35.13203	47949
35.14015	55204
35.14828	46280
35.15640	50773
35.16453	45259
35.17265	48057
35.18077	48668
35.18890	47334
35.19702	43946
35.20515	49967
35.21327	44846
35.22138	43068
35.22952	47543
35.23763	48548
35.24575	46990
35.25388	47733
35.26200	47260
35.27013	47084
35.27825	50748
35.28637	46471
35.29450	47876
35.30262	46816
35.31075	44669
35.31887	45636
35.32698	46062
35.33512	40534
35.34323	45186
35.35137	41918
35.35948	44574
35.36760	43777
35.37573	41382
35.38385	40884
35.39197	42569
35.40010	40664
35.40822	40068
35.41635	44365
35.42447	41614
35.43258	43864
35.44072	44461
35.44883	41188
35.45697	48202
35.46508	45717
35.47320	46289
35.48133	47153
35.48945	45436
35.49757	45967
35.50570	44600
35.51382	53564
35.52195	47826
35.53007	42206
35.53818	43964
35.54632	45723
35.55443	46817
35.56257	47614
35.57068	45433
35.57880	49691
35.58693	50104
35.59505	47651
35.60318	51291
35.61130	51835
35.61942	49634
35.62755	48732
35.63567	48522
35.64378	46576
35.65192	44614
35.66003	45037
35.66817	44546
35.67628	45711
35.68440	47093
35.69253	46932
35.70065	47132
35.70878	48505
35.71690	50742
35.72502	45912
35.73315	48446
35.74127	46918
35.74940	46440
35.75752	46358
35.76563	45467
35.77377	44353
35.78188	41495
35.79000	45104
35.79813	44090
35.80625	50106
35.81438	46684
35.82250	44644
35.83062	46180
35.83875	47225
35.84687	42853
35.85500	43232
35.86312	49862
35.87123	41325
35.87937	45484
35.88748	45505
35.89560	41701
35.90373	47536
35.91185	44800
35.91998	43847
35.92810	44927
35.93622	44275
35.94435	43977
35.95247	41330
35.96060	45124
35.96872	39854
35.97683	45491
35.98497	46634
35.99308	40715
36.00122	43318
36.00933	41148
36.01745	44361
36.02558	45664
36.03370	45351
36.04182	47691
36.04995	47599
36.05807	45406
36.06620	44755
36.07432	47620
36.08243	44053
36.09057	44351
36.09868	48683
36.10682	45875
36.11493	44450
36.12305	41518
36.13118	42023
36.13930	46195
36.14743	39437
36.15555	42847
36.16367	44103
36.17180	45941
36.17992	47448
36.18803	44451
36.19617	44232
36.20428	38967
36.21242	45203
36.22053	49217
36.22865	41399
36.23678	46434
36.24490	39820
36.25303	42500
36.26115	36890
36.26927	40885
36.27740	40953
36.28552	47846
36.29363	41950
36.30177	45965
36.30988	48346
36.31802	50204
36.32613	49716
36.33425	53377
36.34238	51925
36.35050	51991
36.35863	50862
36.36675	50368
36.37487	48061
36.38300	45206
36.39112	42443
36.39925	44371
36.40737	42297
36.41548	45984
36.42362	46193
36.43173	42059
36.43985	46334
36.44798	42416
36.45610	42600
36.46423	45584
36.47235	41570
36.48047	42635
36.48860	44283
36.49672	47839
36.50485	44433
36.51297	43995
36.52108	47880
36.52922	43078
36.53733	44631
36.54545	46403
36.55358	41762
36.56170	41408
36.56983	43257
36.57795	42421
36.58607	43616
36.59420	43900
36.60232	45301
36.61045	45978
36.61857	42094
36.62668	48177
36.63482	43073
36.64293	44822
36.65107	45721
36.65918	45774
36.66730	43153
36.67543	45809
36.68355	46955
36.69167	46768
36.69980	45533
36.70792	43936
36.71605	46006
36.72417	48199
36.73228	44547
36.74042	44186
36.74853	47168
36.75667	46294
36.76478	46225
36.77290	50228
36.78103	43655
36.78915	47307
36.79728	42506
36.80540	42221
36.81352	44145
36.82165	48308
36.82977	43318
36.83788	44925
36.84602	39570
36.85413	45833
36.86227	44068
36.87038	47180
36.87850	43651
36.88663	46462
36.89475	45349
36.90288	51548
36.91100	42442
36.91912	48132
36.92725	46894
36.93537	45624
36.94350	46185
36.95162	47352
36.95973	44564
36.96787	43210
36.97598	41297
36.98410	45520
36.99223	47300
37.00035	42850
37.00848	42451
37.01660	44410
37.02472	47364
37.03285	44695
37.04097	43442
37.04910	46030
37.05722	41915
37.06533	49332
37.07347	46578
37.08158	44216
37.08970	44609
37.09783	43903
37.10595	45094
37.11408	39902
37.12220	43226
37.13032	41000
37.13845	44598
37.14657	43172
37.15470	46766
37.16282	44601
37.17093	47751
37.17907	53518
37.18718	46515
37.19532	47959
37.20343	51506
37.21155	52906
37.21968	46761
37.22780	50411
37.23592	46919
37.24405	50546
37.25217	49841
37.26030	52777
37.26842	48266
37.27653	49627
37.28467	46581
37.29278	47171
37.30092	48512
37.30903	50580
37.31715	47708
37.32528	49066
37.33340	52014
37.34152	51202
37.34965	54219
37.35777	57871
37.36590	64259
37.37402	65891
37.38213	68098
37.39027	67888
37.39838	59850
37.40652	62249
37.41463	63080
37.42275	64269
37.43088	57512
37.43900	58479
37.44713	59297
37.45525	52131
37.46337	54596
37.47150	57284
37.47962	55521
37.48773	54590
