C:\MassHunter\GCMS\1\data\JTB-E02\BACandBLUE\JTB-E18-020-10.D Tue Jul 09 14:27:50 2019
Start of data points
2.09527,70896
2.10338,75658
2.11152,76704
2.11963,74015
2.12777,75349
2.13588,72334
2.14400,74597
2.15213,68411
2.16025,74740
2.16837,74008
2.17650,75640
2.18462,73108
2.19275,67116
2.20087,65165
2.20898,70925
2.21712,67915
2.22523,70952
2.23337,64665
2.24148,67748
2.24960,69943
2.25773,66316
2.26585,72578
2.27398,196288
2.28210,1243858
2.29022,1626322
2.29835,628951
2.30647,313501
2.31458,248273
2.32272,215887
2.33083,191535
2.33897,234011
2.34708,260078
2.35520,179264
2.36333,156026
2.37145,146752
2.37958,137689
2.38770,139578
2.39582,135117
2.40395,129879
2.41207,125892
2.42018,113319
2.42832,122290
2.43643,120139
2.44457,117953
2.45268,118782
2.46080,117480
2.46893,108608
2.47705,105826
2.48518,106626
2.49330,112524
2.50142,165847
2.50955,145718
2.51767,120269
2.52580,115917
2.53392,110338
2.54203,107914
2.55017,109256
2.55828,132079
2.56640,191103
2.57453,179041
2.58265,134598
2.59078,117520
2.59890,108700
2.60702,123045
2.61515,205249
2.62327,286616
2.63140,224296
2.63952,175446
2.64763,138871
2.65577,128780
2.66388,120230
2.67202,112774
2.68013,104119
2.68825,109336
2.69638,110139
2.70450,101093
2.71262,106690
2.72075,102214
2.72887,98640
2.73700,100391
2.74512,96534
2.75323,95040
2.76137,99649
2.76948,91862
2.77762,95645
2.78573,132154
2.79385,237665
2.80198,210672
2.81010,144053
2.81822,149802
2.82635,179157
2.83447,212728
2.84260,256423
2.85072,210519
2.85883,147586
2.86697,134742
2.87508,124016
2.88322,116961
2.89133,111363
2.89945,104188
2.90758,101075
2.91570,104673
2.92383,98513
2.93195,97549
2.94007,98531
2.94820,96200
2.95632,100491
2.96443,95764
2.97257,91708
2.98068,94712
2.98882,98586
2.99693,91426
3.00505,98973
3.01318,93195
3.02130,97003
3.02943,93526
3.03755,92881
3.04567,89999
3.05380,89917
3.06192,103881
3.07005,131237
3.07817,126426
3.08628,117144
3.09442,180341
3.10253,487935
3.11065,1638972
3.11878,2809373
3.12690,2173980
3.13503,1262727
3.14315,899217
3.15127,720758
3.15940,591243
3.16752,511228
3.17565,528953
3.18377,570629
3.19188,948581
3.20002,1926184
3.20813,2050642
3.21625,1359976
3.22438,950364
3.23250,785024
3.24063,660414
3.24875,568580
3.25687,500613
3.26500,450549
3.27312,397017
3.28125,360706
3.28937,397155
3.29748,735948
3.30562,1932323
3.31373,3703113
3.32187,4439394
3.32998,3622848
3.33810,2569601
3.34623,1896835
3.35435,1530662
3.36247,1285145
3.37060,1103814
3.37872,988505
3.38685,870440
3.39497,792695
3.40308,725286
3.41122,677281
3.41933,628028
3.42747,592987
3.43558,572156
3.44370,544677
3.45183,523305
3.45995,498013
3.46807,477986
3.47620,477030
3.48432,467958
3.49245,465571
3.50057,442431
3.50868,423287
3.51682,404122
3.52493,393140
3.53307,386275
3.54118,399924
3.54930,418139
3.55743,401518
3.56555,368661
3.57368,362004
3.58180,342209
3.58992,341386
3.59805,336777
3.60617,324505
3.61428,316139
3.62242,332568
3.63053,370800
3.63867,445135
3.64678,524291
3.65490,488908
3.66303,500299
3.67115,1443374
3.67928,5115594
3.68740,9314361
3.69552,8426394
3.70365,5034421
3.71177,3085688
3.71990,2326921
3.72802,1915240
3.73613,1657109
3.74427,1471064
3.75238,1313004
3.76050,1205047
3.76863,1095780
3.77675,1021661
3.78488,969100
3.79300,910135
3.80112,888874
3.80925,1081408
3.81737,1678856
3.82550,2112959
3.83362,1810131
3.84173,1327212
3.84987,1066485
3.85798,939999
3.86610,861881
3.87423,792013
3.88235,733688
3.89048,697345
3.89860,666073
3.90672,641150
3.91485,648114
3.92297,734899
3.93110,956051
3.93922,1061974
3.94733,971011
3.95547,793235
3.96358,774620
3.97172,829942
3.97983,797916
3.98795,668964
3.99608,592068
4.00420,619996
4.01232,839618
4.02045,1105590
4.02857,1076050
4.03670,823600
4.04482,631227
4.05293,542320
4.06107,485197
4.06918,472154
4.07732,436366
4.08543,425349
4.09355,418740
4.10168,411836
4.10980,412936
4.11793,386822
4.12605,382593
4.13417,405876
4.14230,618950
4.15042,1139844
4.15853,1651853
4.16667,1570300
4.17478,1161752
4.18292,850167
4.19103,695185
4.19915,600401
4.20728,641428
4.21540,1635710
4.22353,5565676
4.23165,1.287626E+07
4.23977,1.850771E+07
4.24790,1.873785E+07
4.25602,1.341154E+07
4.26413,7659554
4.27227,5038902
4.28038,3664677
4.28852,2835407
4.29663,2257372
4.30475,1884428
4.31288,1616340
4.32100,1417457
4.32913,1260444
4.33725,1147675
4.34537,1073614
4.35350,1047116
4.36162,1049930
4.36975,1043521
4.37787,997843
4.38598,909384
4.39412,807119
4.40223,753890
4.41035,703705
4.41848,673945
4.42660,657764
4.43473,622356
4.44285,595814
4.45097,577800
4.45910,561279
4.46722,534939
4.47535,521106
4.48347,501823
4.49158,475819
4.49972,483117
4.50783,462009
4.51595,456179
4.52408,445323
4.53220,430595
4.54033,434737
4.54845,428452
4.55657,423029
4.56470,422038
4.57282,401884
4.58095,391126
4.58907,385078
4.59718,374758
4.60532,359532
4.61343,350242
4.62157,386961
4.62968,513054
4.63780,829145
4.64593,1202489
4.65405,1286976
4.66217,1041048
4.67030,751265
4.67842,580626
4.68655,523833
4.69467,456446
4.70278,435393
4.71092,399924
4.71903,374009
4.72717,346733
4.73528,346707
4.74340,333511
4.75153,329047
4.75965,313363
4.76778,315159
4.77590,306111
4.78402,299467
4.79215,309111
4.80027,365997
4.80838,422633
4.81652,452225
4.82463,422698
4.83277,399113
4.84088,388484
4.84900,405605
4.85713,408690
4.86525,380349
4.87338,344315
4.88150,324101
4.88962,309706
4.89775,302475
4.90587,295500
4.91398,289283
4.92212,292706
4.93023,302519
4.93837,398595
4.94648,626935
4.95460,1102331
4.96273,1589456
4.97085,1808366
4.97898,1680323
4.98710,1391048
4.99522,1107202
5.00335,917913
5.01147,788337
5.01960,734769
5.02772,790287
5.03583,1087303
5.04397,1524855
5.05208,1648179
5.06020,1412782
5.06833,1146648
5.07645,953221
5.08458,829277
5.09270,755957
5.10082,691433
5.10895,651946
5.11707,622232
5.12520,591117
5.13332,573523
5.14143,540562
5.14957,541731
5.15768,567612
5.16582,638753
5.17393,674866
5.18205,668334
5.19018,638203
5.19830,612266
5.20642,647813
5.21455,694114
5.22267,692446
5.23080,642569
5.23892,585310
5.24703,529727
5.25517,502496
5.26328,452797
5.27142,414700
5.27953,394414
5.28765,380088
5.29578,366088
5.30390,362068
5.31202,348109
5.32015,353391
5.32827,357381
5.33640,370492
5.34452,385965
5.35263,391804
5.36077,378505
5.36888,361761
5.37702,337007
5.38513,341501
5.39325,356678
5.40138,376316
5.40950,404775
5.41763,392017
5.42575,361413
5.43387,347135
5.44200,341982
5.45012,341879
5.45823,360011
5.46637,358746
5.47448,343020
5.48262,321849
5.49073,302142
5.49885,287160
5.50698,291238
5.51510,289781
5.52323,282809
5.53135,290911
5.53947,280526
5.54760,269244
5.55572,292856
5.56385,339522
5.57197,402001
5.58008,472986
5.58822,451948
5.59633,396504
5.60445,336489
5.61258,307027
5.62070,283507
5.62883,284352
5.63695,281098
5.64507,292775
5.65320,278170
5.66132,278791
5.66945,271887
5.67757,292230
5.68568,328135
5.69382,372842
5.70193,379876
5.71005,356061
5.71818,327501
5.72630,303273
5.73443,277694
5.74255,270027
5.75067,265139
5.75880,254209
5.76692,245133
5.77505,244964
5.78317,238261
5.79128,236941
5.79942,236120
5.80753,233135
5.81567,229869
5.82378,227417
5.83190,231172
5.84003,238827
5.84815,239489
5.85627,251040
5.86440,237840
5.87252,237525
5.88065,220351
5.88877,222555
5.89688,223275
5.90502,211018
5.91313,188331
5.92127,178603
5.92938,174700
5.93750,171812
5.94563,183265
5.95375,191117
5.96187,212959
5.97000,241601
5.97812,280771
5.98625,322551
5.99437,360482
6.00248,338581
6.01062,300437
6.01873,247713
6.02687,222035
6.03498,204273
6.04310,192221
6.05123,179306
6.05935,176928
6.06748,164846
6.07560,167750
6.08372,167858
6.09185,162133
6.09997,153267
6.10808,166645
6.11622,170931
6.12433,195825
6.13247,287595
6.14058,458734
6.14870,642979
6.15683,709225
6.16495,610847
6.17308,445385
6.18120,342294
6.18932,282372
6.19745,250767
6.20557,239878
6.21370,231173
6.22182,230417
6.22993,221643
6.23807,212456
6.24618,221197
6.25430,228537
6.26243,245088
6.27055,251190
6.27868,244793
6.28680,216899
6.29492,222420
6.30305,214695
6.31117,217671
6.31930,217386
6.32742,215896
6.33553,217297
6.34367,227605
6.35178,214661
6.35990,212398
6.36803,212103
6.37615,207867
6.38428,207747
6.39240,218294
6.40052,217304
6.40865,204119
6.41677,199890
6.42490,196495
6.43302,203851
6.44113,201182
6.44927,216651
6.45738,208193
6.46552,211311
6.47363,205479
6.48175,203579
6.48988,214734
6.49800,214709
6.50612,215158
6.51425,217683
6.52237,214521
6.53050,226582
6.53862,225532
6.54673,218039
6.55487,223200
6.56298,233723
6.57112,283142
6.57923,359472
6.58735,422689
6.59548,416870
6.60360,346972
6.61173,297783
6.61985,264307
6.62797,252312
6.63610,243439
6.64422,239277
6.65233,249126
6.66047,281878
6.66858,344874
6.67672,383054
6.68483,371112
6.69295,322594
6.70108,281495
6.70920,258952
6.71733,246931
6.72545,254304
6.73357,241459
6.74170,213354
6.74982,203235
6.75793,199268
6.76607,182138
6.77418,174058
6.78232,180284
6.79043,178378
6.79855,167161
6.80668,165952
6.81480,160504
6.82293,152369
6.83105,158613
6.83917,149988
6.84730,154908
6.85542,158422
6.86355,143964
6.87167,132701
6.87978,117769
6.88792,113295
6.89603,107891
6.90415,96754
6.91228,93044
6.92040,92353
6.92853,88684
6.93665,88981
6.94477,86269
6.95290,91456
6.96102,102318
6.96915,111308
6.97727,131458
6.98538,144902
6.99352,143224
7.00163,125046
7.00975,113015
7.01788,102237
7.02600,98065
7.03413,92780
7.04225,96943
7.05037,101634
7.05850,104239
7.06662,108622
7.07475,112082
7.08287,105248
7.09098,100493
7.09912,88470
7.10723,85695
7.11537,85979
7.12348,79396
7.13160,79660
7.13973,85860
7.14785,100279
7.15597,129789
7.16410,163657
7.17222,170773
7.18035,151649
7.18847,130574
7.19658,122146
7.20472,133568
7.21283,280597
7.22097,668866
7.22908,1292971
7.23720,1780175
7.24533,1765649
7.25345,1331291
7.26158,823304
7.26970,514961
7.27782,365210
7.28595,264064
7.29407,183511
7.30218,137118
7.31032,119604
7.31843,121589
7.32657,123648
7.33468,126845
7.34280,118072
7.35093,124133
7.35905,112000
7.36718,103593
7.37530,107625
7.38342,100479
7.39155,100724
7.39967,104046
7.40780,101970
7.41592,94021
7.42403,96748
7.43217,96879
7.44028,102506
7.44840,100997
7.45653,110346
7.46465,98594
7.47278,92795
7.48090,96687
7.48902,89568
7.49715,86872
7.50527,85552
7.51340,103553
7.52152,153375
7.52963,273443
7.53777,490858
7.54588,815161
7.55400,1176810
7.56213,1428569
7.57025,1442344
7.57838,1244144
7.58650,936575
7.59462,629599
7.60275,408863
7.61087,281239
7.61900,215525
7.62712,173939
7.63523,156829
7.64337,129760
7.65148,119613
7.65962,110947
7.66773,103281
7.67585,97402
7.68398,86942
7.69210,94397
7.70022,89198
7.70835,93066
7.71647,89938
7.72460,89787
7.73272,91868
7.74083,84493
7.74897,83245
7.75708,87929
7.76522,93356
7.77333,102243
7.78145,110780
7.78958,111785
7.79770,123310
7.80582,124933
7.81395,131655
7.82207,128340
7.83020,119095
7.83832,114880
7.84643,105212
7.85457,100437
7.86268,111211
7.87082,128151
7.87893,151583
7.88705,162494
7.89518,166253
7.90330,158931
7.91143,135016
7.91955,120800
7.92767,122910
7.93580,143600
7.94392,160512
7.95203,174889
7.96017,174189
7.96828,155323
7.97642,123207
7.98453,108295
7.99265,94272
8.00078,83645
8.00890,80193
8.01703,81432
8.02515,76156
8.03327,83633
8.04140,75310
8.04952,79534
8.05765,82678
8.06577,77043
8.07388,79080
8.08202,69584
8.09013,72730
8.09825,71492
8.10638,75842
8.11450,73797
8.12263,73859
8.13075,87949
8.13887,100730
8.14700,120369
8.15512,137352
8.16325,134159
8.17137,119601
8.17948,105811
8.18762,86106
8.19573,82297
8.20385,80304
8.21198,82451
8.22010,86604
8.22823,85295
8.23635,86259
8.24447,83240
8.25260,81155
8.26072,71129
8.26885,75172
8.27697,71403
8.28508,65927
8.29322,65775
8.30133,69034
8.30947,72124
8.31758,78420
8.32570,74941
8.33383,81715
8.34195,72912
8.35007,71421
8.35820,68133
8.36632,65865
8.37445,67768
8.38257,69953
8.39068,68513
8.39882,65840
8.40693,64801
8.41507,66487
8.42318,64844
8.43130,61746
8.43943,61833
8.44755,61962
8.45568,62936
8.46380,61556
8.47192,60521
8.48005,61648
8.48817,59587
8.49628,59877
8.50442,59454
8.51253,62955
8.52067,82341
8.52878,114871
8.53690,184317
8.54503,277638
8.55315,330910
8.56128,317677
8.56940,247239
8.57752,160903
8.58565,112551
8.59377,94805
8.60188,96411
8.61002,99273
8.61813,92190
8.62627,88472
8.63438,86406
8.64250,79137
8.65063,73540
8.65875,70547
8.66688,71154
8.67500,70895
8.68312,73531
8.69125,79292
8.69937,82612
8.70750,84704
8.71562,81565
8.72373,82784
8.73187,74835
8.73998,91193
8.74810,147143
8.75623,298698
8.76435,547587
8.77248,894476
8.78060,1136255
8.78872,1128113
8.79685,934719
8.80497,623510
8.81310,403244
8.82122,275914
8.82933,228209
8.83747,222661
8.84558,215441
8.85370,215286
8.86183,207265
8.86995,201953
8.87808,195264
8.88620,181812
8.89432,169693
8.90245,166216
8.91057,157717
8.91870,150254
8.92682,150989
8.93493,163147
8.94307,167053
8.95118,182848
8.95932,172936
8.96743,172869
8.97555,163148
8.98368,160261
8.99180,166660
8.99992,163007
9.00805,156904
9.01617,141407
9.02430,139023
9.03242,128543
9.04053,128817
9.04867,118214
9.05678,120157
9.06492,110281
9.07303,107543
9.08115,112681
9.08928,114781
9.09740,131021
9.10553,157735
9.11365,188179
9.12177,205947
9.12990,210348
9.13802,188904
9.14613,159209
9.15427,144355
9.16238,127618
9.17052,122558
9.17863,114017
9.18675,109223
9.19488,102611
9.20300,99800
9.21113,104454
9.21925,103007
9.22737,101156
9.23550,97238
9.24362,99391
9.25173,98455
9.25987,100142
9.26798,97512
9.27612,93880
9.28423,90910
9.29235,94970
9.30048,92901
9.30860,91602
9.31673,97248
9.32485,90072
9.33297,88809
9.34110,87588
9.34922,87956
9.35735,86862
9.36547,79863
9.37358,84945
9.38172,85187
9.38983,86250
9.39795,90972
9.40608,108837
9.41420,131298
9.42233,173226
9.43045,224204
9.43857,265905
9.44670,284738
9.45482,254169
9.46295,208196
9.47107,173249
9.47918,128834
9.48732,105203
9.49543,100971
9.50357,100531
9.51168,109281
9.51980,126068
9.52793,137564
9.53605,147323
9.54417,128828
9.55230,110213
9.56042,90880
9.56855,76326
9.57667,68822
9.58478,70702
9.59292,61896
9.60103,66650
9.60917,60655
9.61728,60264
9.62540,55318
9.63353,51232
9.64165,52449
9.64977,55146
9.65790,54375
9.66602,54427
9.67415,61005
9.68227,57534
9.69038,50996
9.69852,52080
9.70663,48504
9.71477,50440
9.72288,49985
9.73100,47761
9.73913,44948
9.74725,50294
9.75538,44393
9.76350,47574
9.77162,47349
9.77975,47448
9.78787,45904
9.79598,48631
9.80412,47452
9.81223,50524
9.82037,47420
9.82848,46934
9.83660,48030
9.84473,50233
9.85285,50137
9.86098,52126
9.86910,52628
9.87722,52410
9.88535,51741
9.89347,48206
9.90158,46873
9.90972,48118
9.91783,50326
9.92597,47767
9.93408,58478
9.94220,73999
9.95033,88891
9.95845,95879
9.96658,102437
9.97470,94262
9.98282,86238
9.99095,82044
9.99907,67341
10.00720,63387
10.01532,64175
10.02343,60133
10.03157,56793
10.03968,49303
10.04780,50840
10.05593,49782
10.06405,50718
10.07218,57743
10.08030,51454
10.08842,58228
10.09655,57314
10.10467,53322
10.11280,56479
10.12092,55757
10.12903,50261
10.13717,51190
10.14528,48474
10.15342,47596
10.16153,48909
10.16965,52376
10.17778,50824
10.18590,51019
10.19402,51218
10.20215,49049
10.21027,45650
10.21840,48106
10.22652,55188
10.23463,62628
10.24277,74397
10.25088,87701
10.25902,110944
10.26713,209462
10.27525,482629
10.28338,1025564
10.29150,1772691
10.29962,2688565
10.30775,3884064
10.31587,5586708
10.32400,8015659
10.33212,1.030864E+07
10.34023,1.126223E+07
10.34837,1.010902E+07
10.35648,7513146
10.36462,5215373
10.37273,3846887
10.38085,3089195
10.38898,2386335
10.39710,1690761
10.40523,1108107
10.41335,732499
10.42147,514238
10.42960,419833
10.43772,395446
10.44583,393029
10.45397,406389
10.46208,398355
10.47022,381271
10.47833,347367
10.48645,310968
10.49458,290902
10.50270,258762
10.51083,250224
10.51895,242893
10.52707,250242
10.53520,258024
10.54332,263711
10.55145,255780
10.55957,237739
10.56768,212963
10.57582,202140
10.58393,187006
10.59205,172962
10.60018,164258
10.60830,156778
10.61643,145536
10.62455,134475
10.63267,138480
10.64080,138815
10.64892,131631
10.65705,124566
10.66517,114325
10.67328,114410
10.68142,119578
10.68953,115120
10.69765,119675
10.70578,121769
10.71390,119559
10.72203,121418
10.73015,118300
10.73827,110624
10.74640,110629
10.75452,107473
10.76265,104079
10.77077,96942
10.77888,92491
10.78702,100432
10.79513,97792
10.80327,101955
10.81138,109261
10.81950,116890
10.82763,112542
10.83575,101842
10.84387,102819
10.85200,85024
10.86012,80289
10.86825,77683
10.87637,74647
10.88448,81909
10.89262,78282
10.90073,76919
10.90887,74144
10.91698,74768
10.92510,76308
10.93323,72913
10.94135,71209
10.94948,71934
10.95760,68207
10.96572,67658
10.97385,71870
10.98197,67956
10.99008,71532
10.99822,80489
11.00633,81043
11.01447,88565
11.02258,79680
11.03070,76978
11.03883,76887
11.04695,69849
11.05508,66937
11.06320,66470
11.07132,70588
11.07945,78939
11.08757,91094
11.09568,88225
11.10382,89027
11.11193,88169
11.12007,81765
11.12818,70239
11.13630,66271
11.14443,64071
11.15255,61556
11.16068,62514
11.16880,65261
11.17692,62075
11.18505,68095
11.19317,64073
11.20130,60113
11.20942,65018
11.21753,56587
11.22567,56456
11.23378,54212
11.24190,53737
11.25003,50411
11.25815,48775
11.26628,50131
11.27440,52360
11.28252,57283
11.29065,67571
11.29877,98809
11.30690,193995
11.31502,415670
11.32313,845770
11.33127,1501679
11.33938,2162756
11.34750,2525546
11.35563,2433078
11.36375,1999719
11.37188,1388265
11.38000,907740
11.38812,606293
11.39625,451306
11.40437,375615
11.41250,344636
11.42062,317443
11.42873,293171
11.43687,270758
11.44498,240948
11.45312,218197
11.46123,197893
11.46935,177899
11.47748,177119
11.48560,196009
11.49372,210703
11.50185,222312
11.50997,220443
11.51810,203459
11.52622,175381
11.53433,159963
11.54247,145882
11.55058,147771
11.55872,142894
11.56683,146450
11.57495,137773
11.58308,143395
11.59120,138228
11.59933,141434
11.60745,160015
11.61557,175093
11.62370,183763
11.63182,169032
11.63993,141426
11.64807,124506
11.65618,105453
11.66432,95938
11.67243,88587
11.68055,93946
11.68868,92743
11.69680,96913
11.70493,94025
11.71305,93328
11.72117,91297
11.72930,85210
11.73742,78042
11.74553,73885
11.75367,70349
11.76178,74332
11.76992,68880
11.77803,64335
11.78615,63393
11.79428,59171
11.80240,59079
11.81053,59680
11.81865,60796
11.82677,58862
11.83490,57205
11.84302,62876
11.85115,56298
11.85927,58133
11.86738,58343
11.87552,55778
11.88363,58529
11.89175,51183
11.89988,55485
11.90800,56278
11.91613,55849
11.92425,58494
11.93237,62519
11.94050,55504
11.94862,60692
11.95675,55766
11.96487,52837
11.97298,53407
11.98112,61990
11.98923,72659
11.99737,104237
12.00548,129967
12.01360,153554
12.02173,147889
12.02985,130240
12.03797,104424
12.04610,85173
12.05422,74288
12.06235,74350
12.07047,73184
12.07858,77454
12.08672,88071
12.09483,93911
12.10297,101110
12.11108,98025
12.11920,112268
12.12733,114776
12.13545,120248
12.14357,127742
12.15170,117260
12.15982,96770
12.16795,75391
12.17607,66818
12.18418,61010
12.19232,59536
12.20043,63671
12.20857,55297
12.21668,59088
12.22480,60080
12.23293,55094
12.24105,58617
12.24918,59759
12.25730,60274
12.26542,57336
12.27355,61913
12.28167,56532
12.28978,57378
12.29792,49843
12.30603,52326
12.31417,48826
12.32228,52158
12.33040,52277
12.33853,47140
12.34665,51729
12.35478,51267
12.36290,46942
12.37102,47414
12.37915,49351
12.38727,51472
12.39538,55354
12.40352,65179
12.41163,77178
12.41977,94408
12.42788,106771
12.43600,104603
12.44413,98322
12.45225,92490
12.46038,80181
12.46850,75399
12.47662,71945
12.48475,65542
12.49287,66373
12.50100,64758
12.50912,59265
12.51723,59316
12.52537,69516
12.53348,101172
12.54160,195639
12.54973,339613
12.55785,578592
12.56598,761836
12.57410,784818
12.58222,638967
12.59035,442926
12.59847,280199
12.60660,187013
12.61472,137817
12.62283,121473
12.63097,101423
12.63908,95609
12.64722,90614
12.65533,80800
12.66345,80479
12.67158,74654
12.67970,66477
12.68782,68666
12.69595,62526
12.70407,61678
12.71220,65791
12.72032,66553
12.72843,60131
12.73657,64910
12.74468,60269
12.75282,59581
12.76093,53144
12.76905,53331
12.77718,53515
12.78530,53126
12.79343,55078
12.80155,53147
12.80967,50350
12.81780,49135
12.82592,45798
12.83403,45440
12.84217,45788
12.85028,45754
12.85842,46313
12.86653,46330
12.87465,47189
12.88278,47474
12.89090,44037
12.89903,45031
12.90715,42620
12.91527,40617
12.92340,42168
12.93152,44443
12.93963,46356
12.94777,42531
12.95588,48879
12.96402,56140
12.97213,75114
12.98025,87420
12.98838,92747
12.99650,87681
13.00463,77460
13.01275,62274
13.02087,55407
13.02900,58192
13.03712,52691
13.04525,53442
13.05337,49046
13.06148,50423
13.06962,52632
13.07773,45799
13.08585,47078
13.09398,48957
13.10210,46298
13.11023,51070
13.11835,46912
13.12647,43741
13.13460,41276
13.14272,43015
13.15085,45226
13.15897,44850
13.16708,45397
13.17522,49215
13.18333,49783
13.19145,55254
13.19958,56651
13.20770,59515
13.21583,62733
13.22395,64706
13.23207,59300
13.24020,54275
13.24832,53870
13.25645,50967
13.26457,47491
13.27268,44836
13.28082,42751
13.28893,44469
13.29707,44366
13.30518,43615
13.31330,44248
13.32143,39312
13.32955,43029
13.33767,40514
13.34580,43195
13.35392,40060
13.36205,43126
13.37017,40480
13.37828,40357
13.38642,39653
13.39453,37869
13.40267,38216
13.41078,38162
13.41890,42089
13.42703,37220
13.43515,39573
13.44328,37864
13.45140,43163
13.45952,48209
13.46765,45062
13.47577,43129
13.48388,43236
13.49202,43029
13.50013,42589
13.50827,41047
13.51638,39514
13.52450,38687
13.53263,40186
13.54075,40933
13.54888,39598
13.55700,39629
13.56512,44863
13.57325,41905
13.58137,44305
13.58948,60468
13.59762,80220
13.60573,97485
13.61387,137739
13.62198,157237
13.63010,165296
13.63823,153745
13.64635,121152
13.65448,84426
13.66260,72546
13.67072,58781
13.67885,55061
13.68697,46548
13.69510,47517
13.70322,44667
13.71133,47832
13.71947,44704
13.72758,48314
13.73570,78229
13.74383,132255
13.75195,274686
13.76008,542705
13.76820,924432
13.77632,1257352
13.78445,1477093
13.79257,1318957
13.80070,1112898
13.80882,823756
13.81693,723048
13.82507,740507
13.83318,794968
13.84132,802430
13.84943,749290
13.85755,634371
13.86568,509189
13.87380,398853
13.88192,316645
13.89005,252860
13.89817,215620
13.90630,197755
13.91442,171464
13.92253,156937
13.93067,142903
13.93878,136760
13.94692,130861
13.95503,129280
13.96315,120103
13.97128,126758
13.97940,127317
13.98752,129753
13.99565,124567
14.00377,117700
14.01190,119439
14.02002,110985
14.02813,104662
14.03627,108275
14.04438,102956
14.05252,101290
14.06063,101696
14.06875,99528
14.07688,98108
14.08500,97330
14.09313,96453
14.10125,88877
14.10937,89696
14.11750,97250
14.12562,91019
14.13373,94505
14.14187,99149
14.14998,101681
14.15812,105050
14.16623,123171
14.17435,150058
14.18248,192077
14.19060,238023
14.19873,295268
14.20685,295231
14.21497,271638
14.22310,246919
14.23122,229051
14.23933,197005
14.24747,192915
14.25558,189714
14.26372,176193
14.27183,154009
14.27995,143859
14.28808,131878
14.29620,116538
14.30433,110165
14.31245,105781
14.32057,101177
14.32870,101018
14.33682,92542
14.34495,86081
14.35307,76490
14.36118,69542
14.36932,64756
14.37743,63559
14.38555,72985
14.39368,101291
14.40180,159774
14.40993,258523
14.41805,358176
14.42617,431311
14.43430,415122
14.44242,329627
14.45055,234065
14.45867,170367
14.46678,129411
14.47492,113670
14.48303,98395
14.49117,88576
14.49928,82900
14.50740,82183
14.51553,76796
14.52365,73708
14.53177,76409
14.53990,74521
14.54802,74166
14.55615,67503
14.56427,64650
14.57238,64027
14.58052,60161
14.58863,60345
14.59677,55498
14.60488,56247
14.61300,53212
14.62113,55783
14.62925,51143
14.63737,51628
14.64550,56145
14.65362,52748
14.66175,53161
14.66987,52210
14.67798,50743
14.68612,51522
14.69423,52560
14.70237,48058
14.71048,53585
14.71860,53666
14.72673,56021
14.73485,58517
14.74298,58708
14.75110,59972
14.75922,62966
14.76735,59511
14.77547,62427
14.78358,75971
14.79172,117447
14.79983,259422
14.80797,594330
14.81608,1259434
14.82420,2040586
14.83233,2668986
14.84045,2799191
14.84858,2366292
14.85670,1682478
14.86482,1070409
14.87295,664925
14.88107,453298
14.88920,341713
14.89732,279746
14.90543,234301
14.91357,213867
14.92168,193320
14.92980,184200
14.93793,167935
14.94605,168029
14.95418,148801
14.96230,142550
14.97042,134775
14.97855,135469
14.98667,124407
14.99480,121671
15.00292,118908
15.01103,114536
15.01917,105914
15.02728,106170
15.03540,105629
15.04353,104597
15.05165,103309
15.05978,97417
15.06790,96283
15.07602,88687
15.08415,84652
15.09227,78176
15.10040,82932
15.10852,77025
15.11663,78395
15.12477,85111
15.13288,90404
15.14102,88042
15.14913,87985
15.15725,93725
15.16538,79586
15.17350,72784
15.18162,65227
15.18975,62542
15.19787,63606
15.20600,56664
15.21412,61842
15.22223,57731
15.23037,53834
15.23848,54591
15.24662,52029
15.25473,51161
15.26285,53593
15.27098,48274
15.27910,51440
15.28722,46146
15.29535,47072
15.30347,49023
15.31160,52246
15.31972,48980
15.32783,47391
15.33597,43576
15.34408,40367
15.35222,46046
15.36033,47273
15.36845,44066
15.37658,46989
15.38470,45101
15.39283,51462
15.40095,51094
15.40907,58680
15.41720,62580
15.42532,63962
15.43343,66235
15.44157,57867
15.44968,55992
15.45782,63705
15.46593,92389
15.47405,128966
15.48218,204572
15.49030,309736
15.49843,417460
15.50655,474035
15.51467,483721
15.52280,430950
15.53092,349533
15.53905,279469
15.54717,219744
15.55528,183966
15.56342,142542
15.57153,126261
15.57965,109094
15.58778,98155
15.59590,82621
15.60403,78781
15.61215,77042
15.62027,74637
15.62840,68304
15.63652,66007
15.64465,67852
15.65277,62375
15.66088,60773
15.66902,62910
15.67713,61176
15.68525,58070
15.69338,51942
15.70150,55889
15.70963,47525
15.71775,50060
15.72587,50575
15.73400,48584
15.74212,54673
15.75025,60883
15.75837,80225
15.76648,115806
15.77462,171175
15.78273,235928
15.79087,275636
15.79898,287567
15.80710,240930
15.81523,184712
15.82335,137670
15.83147,102066
15.83960,90584
15.84772,79774
15.85585,77827
15.86397,74315
15.87208,73283
15.88022,68708
15.88833,69978
15.89647,77428
15.90458,64997
15.91270,65080
15.92083,65910
15.92895,61774
15.93708,61796
15.94520,65457
15.95332,71167
15.96145,81430
15.96957,87862
15.97768,101968
15.98582,112681
15.99393,95245
16.00207,95840
16.01018,81921
16.01830,77858
16.02643,75792
16.03455,74337
16.04268,71119
16.05080,66895
16.05892,69802
16.06705,62747
16.07517,59905
16.08328,57611
16.09142,54188
16.09953,53492
16.10767,56242
16.11578,59952
16.12390,61615
16.13203,70420
16.14015,71343
16.14828,77659
16.15640,75784
16.16452,72916
16.17265,66335
16.18077,63512
16.18890,57750
16.19702,57084
16.20513,57927
16.21327,57396
16.22138,54352
16.22950,54928
16.23763,51360
16.24575,52310
16.25388,50323
16.26200,53770
16.27012,54163
16.27825,53787
16.28637,58987
16.29450,66192
16.30262,71588
16.31073,70409
16.31887,68947
16.32698,63313
16.33512,64522
16.34323,59545
16.35135,61253
16.35948,66102
16.36760,76480
16.37572,83995
16.38385,81956
16.39197,79599
16.40010,70856
16.40822,64504
16.41633,55156
16.42447,57495
16.43258,54348
16.44072,61227
16.44883,71412
16.45695,91708
16.46508,138166
16.47320,192142
16.48132,245941
16.48945,260540
16.49757,236195
16.50570,184307
16.51382,127497
16.52193,102395
16.53007,83014
16.53818,66369
16.54632,67400
16.55443,66215
16.56255,63012
16.57068,66854
16.57880,66623
16.58693,68635
16.59505,73235
16.60317,81553
16.61130,94819
16.61942,94113
16.62753,93082
16.63567,89389
16.64378,76364
16.65192,68822
16.66003,62666
16.66815,55356
16.67628,55234
16.68440,55345
16.69253,56270
16.70065,51180
16.70877,51434
16.71690,54901
16.72502,48681
16.73313,54057
16.74127,53526
16.74938,54976
16.75752,54215
16.76563,52712
16.77375,55047
16.78188,52531
16.79000,51477
16.79813,49532
16.80625,52753
16.81437,47119
16.82250,48116
16.83062,44311
16.83875,46777
16.84687,44552
16.85498,43736
16.86312,43450
16.87123,39571
16.87935,39853
16.88748,46608
16.89560,43075
16.90373,42257
16.91185,42818
16.91997,45100
16.92810,44192
16.93622,42241
16.94435,44061
16.95247,44953
16.96058,42301
16.96872,43015
16.97683,44321
16.98497,42805
16.99308,47443
17.00120,44442
17.00933,51229
17.01745,44897
17.02557,52016
17.03370,51281
17.04182,56332
17.04995,62040
17.05807,66735
17.06618,64554
17.07432,73272
17.08243,77120
17.09057,86038
17.09868,100612
17.10680,124283
17.11493,140641
17.12305,148231
17.13117,145415
17.13930,142149
17.14742,129556
17.15555,108739
17.16367,103956
17.17178,99415
17.17992,84136
17.18803,71552
17.19617,72359
17.20428,59718
17.21240,59249
17.22053,56898
17.22865,51255
17.23678,55385
17.24490,50837
17.25302,53527
17.26115,52614
17.26927,54331
17.27738,50000
17.28552,50913
17.29363,43954
17.30177,44946
17.30988,43465
17.31800,49132
17.32613,60096
17.33425,64912
17.34238,73000
17.35050,78079
17.35862,75854
17.36675,77894
17.37487,77884
17.38300,68240
17.39112,70345
17.39923,66228
17.40737,69565
17.41548,69867
17.42360,74889
17.43173,70948
17.43985,70283
17.44798,72214
17.45610,66132
17.46422,61646
17.47235,57759
17.48047,55277
17.48860,50795
17.49672,48948
17.50483,48873
17.51297,46114
17.52108,44757
17.52920,45565
17.53733,51700
17.54545,48986
17.55358,56972
17.56170,79521
17.56982,119247
17.57795,199329
17.58607,331281
17.59420,527447
17.60232,728328
17.61043,866240
17.61857,871189
17.62668,737111
17.63482,561939
17.64293,394860
17.65105,294092
17.65918,221979
17.66730,185278
17.67542,159940
17.68355,143667
17.69167,135564
17.69980,121419
17.70792,108177
17.71603,102640
17.72417,103342
17.73228,97616
17.74042,99162
17.74853,94183
17.75665,85471
17.76478,83927
17.77290,72951
17.78102,73823
17.78915,74926
17.79727,72435
17.80540,66782
17.81352,70680
17.82163,68658
17.82977,71748
17.83788,75573
17.84602,80581
17.85413,88722
17.86225,95873
17.87038,91954
17.87850,100256
17.88663,85522
17.89475,73419
17.90287,70233
17.91100,56877
17.91912,54630
17.92723,58328
17.93537,55691
17.94348,59278
17.95162,52144
17.95973,56090
17.96785,55050
17.97598,51703
17.98410,51890
17.99223,48700
18.00035,53319
18.00847,56724
18.01660,65982
18.02472,75824
18.03285,90128
18.04097,93846
18.04908,97664
18.05722,91548
18.06533,84060
18.07345,82143
18.08158,87618
18.08970,104895
18.09783,112813
18.10595,118681
18.11407,124140
18.12220,119889
18.13032,123002
18.13845,116351
18.14657,112830
18.15468,111443
18.16282,104941
18.17093,104449
18.17907,93937
18.18718,88636
18.19530,87074
18.20343,86142
18.21155,84040
18.21967,78815
18.22780,77270
18.23592,72569
18.24405,67901
18.25217,67788
18.26028,65732
18.26842,64099
18.27653,62608
18.28467,63210
18.29278,53339
18.30090,52782
18.30903,45849
18.31715,50693
18.32527,48708
18.33340,48063
18.34152,46319
18.34965,47402
18.35777,47258
18.36588,49449
18.37402,49675
18.38213,51710
18.39027,58756
18.39838,61608
18.40650,82373
18.41463,94985
18.42275,110486
18.43088,129173
18.43900,142986
18.44712,157391
18.45525,179749
18.46337,208647
18.47148,240451
18.47962,287769
18.48773,281177
18.49587,266605
18.50398,232392
18.51210,187965
18.52023,151635
18.52835,118238
18.53648,107596
18.54460,92204
18.55272,74681
18.56085,73919
18.56897,69254
18.57708,66868
18.58522,76264
18.59333,96818
18.60147,116606
18.60958,160781
18.61770,192756
18.62583,211537
18.63395,226798
18.64208,236269
18.65020,236293
18.65832,218659
18.66645,218285
18.67457,208806
18.68270,217840
18.69082,201261
18.69893,207388
18.70707,206223
18.71518,206514
18.72330,207864
18.73143,207239
18.73955,199801
18.74768,200653
18.75580,194180
18.76392,203412
18.77205,193222
18.78017,194638
18.78830,195575
18.79642,195176
18.80453,188379
18.81267,192233
18.82078,187758
18.82892,185250
18.83703,182786
18.84515,184443
18.85328,176099
18.86140,183144
18.86952,184745
18.87765,191627
18.88577,188389
18.89390,181671
18.90202,181887
18.91013,178362
18.91827,180225
18.92638,178882
18.93452,173948
18.94263,186514
18.95075,179690
18.95888,184507
18.96700,178171
18.97512,175869
18.98325,174611
18.99137,170406
18.99950,168355
19.00762,165804
19.01573,164952
19.02387,159625
19.03198,161592
19.04012,157142
19.04823,154819
19.05635,163970
19.06448,165622
19.07260,196512
19.08073,241290
19.08885,328886
19.09697,428088
19.10510,505036
19.11322,512623
19.12133,474164
19.12947,386884
19.13758,307528
19.14572,251458
19.15383,216458
19.16195,197085
19.17008,178873
19.17820,161304
19.18633,167078
19.19445,153119
19.20257,153430
19.21070,153996
19.21882,146498
19.22695,143658
19.23507,142768
19.24318,134885
19.25132,134956
19.25943,132055
19.26755,138565
19.27568,135178
19.28380,133450
19.29193,143979
19.30005,143264
19.30817,149350
19.31630,145390
19.32442,135380
19.33255,135333
19.34067,139005
19.34878,142918
19.35692,161600
19.36503,181898
19.37315,203239
19.38128,202698
19.38940,202046
19.39753,171105
19.40565,167281
19.41377,147516
19.42190,133157
19.43002,127440
19.43815,132534
19.44627,130571
19.45438,128642
19.46252,130031
19.47063,149713
19.47877,181523
19.48688,221232
19.49500,267171
19.50313,286830
19.51125,273398
19.51937,258065
19.52750,220042
19.53562,192373
19.54375,171332
19.55187,155614
19.55998,149837
19.56812,134157
19.57623,127035
19.58437,122488
19.59248,117555
19.60060,109363
19.60873,112471
19.61685,106997
19.62497,109141
19.63310,122794
19.64122,136655
19.64935,169786
19.65747,216924
19.66558,263104
19.67372,292780
19.68183,316980
19.68997,312556
19.69808,288970
19.70620,250218
19.71433,228680
19.72245,206138
19.73058,186514
19.73870,167825
19.74682,155842
19.75495,147970
19.76307,139356
19.77118,148472
19.77932,168341
19.78743,194593
19.79557,216840
19.80368,232358
19.81180,228748
19.81993,217152
19.82805,191708
19.83618,164131
19.84430,137698
19.85242,127327
19.86055,123286
19.86867,141878
19.87680,176091
19.88492,248384
19.89303,342015
19.90117,436570
19.90928,509154
19.91740,531233
19.92553,538506
19.93365,504481
19.94178,468606
19.94990,450360
19.95802,422972
19.96615,402303
19.97427,379158
19.98240,371866
19.99052,357595
19.99863,342898
20.00677,335880
20.01488,330233
20.02300,320712
20.03113,300285
20.03925,282538
20.04738,278079
20.05550,260924
20.06362,258826
20.07175,279438
20.07987,304371
20.08800,317929
20.09612,311049
20.10423,293784
20.11237,253638
20.12048,213230
20.12862,187508
20.13673,180350
20.14485,185184
20.15298,215852
20.16110,303336
20.16922,436960
20.17735,571128
20.18547,752709
20.19360,874568
20.20172,924283
20.20983,919260
20.21797,804427
20.22608,679422
20.23422,559283
20.24233,509702
20.25045,514669
20.25858,563866
20.26670,644917
20.27483,709171
20.28295,751075
20.29107,714057
20.29920,610768
20.30732,506118
20.31543,406780
20.32357,316992
20.33168,243876
20.33982,202853
20.34793,172125
20.35605,141279
20.36418,130861
20.37230,116441
20.38043,101578
20.38855,103681
20.39667,95660
20.40480,94483
20.41292,98399
20.42103,96356
20.42917,104764
20.43728,110370
20.44542,106391
20.45353,104211
20.46165,104743
20.46978,98782
20.47790,95464
20.48603,90412
20.49415,84101
20.50227,84313
20.51040,83086
20.51852,79392
20.52665,74448
20.53477,77604
20.54288,77512
20.55102,76540
20.55913,73172
20.56725,71516
20.57538,69838
20.58350,76710
20.59163,71116
20.59975,70195
20.60787,73508
20.61600,74275
20.62412,72879
20.63225,77904
20.64037,80782
20.64848,83708
20.65662,82950
20.66473,84550
20.67287,79217
20.68098,78597
20.68910,73898
20.69723,73675
20.70535,67442
20.71347,72893
20.72160,67032
20.72972,68750
20.73785,67166
20.74597,70543
20.75408,72317
20.76222,73950
20.77033,89049
20.77847,103412
20.78658,146043
20.79470,233099
20.80283,359113
20.81095,520500
20.81907,641670
20.82720,666144
20.83532,585338
20.84345,428874
20.85157,301655
20.85968,196313
20.86782,147598
20.87593,122525
20.88407,108663
20.89218,105220
20.90030,100883
20.90843,102916
20.91655,105558
20.92468,106194
20.93280,111513
20.94092,109470
20.94905,112130
20.95717,105822
20.96528,97381
20.97342,89496
20.98153,85137
20.98967,85546
20.99778,79035
21.00590,77433
21.01403,72154
21.02215,78722
21.03028,85239
21.03840,78089
21.04652,74422
21.05465,76454
21.06277,74477
21.07088,70452
21.07902,70013
21.08713,68520
21.09527,67525
21.10338,69306
21.11150,66362
21.11963,68903
21.12775,74182
21.13588,90893
21.14400,106499
21.15212,137470
21.16025,165183
21.16837,166500
21.17650,164701
21.18462,143512
21.19273,116446
21.20087,102406
21.20898,89383
21.21710,85325
21.22523,74352
21.23335,81591
21.24148,77951
21.24960,67106
21.25772,72082
21.26585,69544
21.27397,68297
21.28210,69405
21.29022,65803
21.29833,68856
21.30647,67340
21.31458,63846
21.32272,63051
21.33083,62609
21.33895,57941
21.34708,61200
21.35520,65440
21.36332,64990
21.37145,62643
21.37957,60837
21.38770,63377
21.39582,69125
21.40393,65425
21.41207,74662
21.42018,74680
21.42832,69983
21.43643,69913
21.44455,68302
21.45268,64207
21.46080,60943
21.46892,61704
21.47705,60656
21.48517,59894
21.49330,56943
21.50142,53241
21.50953,60499
21.51767,56721
21.52578,57782
21.53392,60667
21.54203,56822
21.55015,58168
21.55828,55416
21.56640,55427
21.57453,61724
21.58265,69662
21.59077,79309
21.59890,84467
21.60702,83150
21.61513,88675
21.62327,91049
21.63138,90766
21.63952,98014
21.64763,93336
21.65575,96511
21.66388,98184
21.67200,98001
21.68013,102327
21.68825,104182
21.69637,98440
21.70450,87149
21.71262,78529
21.72075,73491
21.72887,67481
21.73698,61817
21.74512,62996
21.75323,63862
21.76135,61974
21.76948,59366
21.77760,60515
21.78573,58925
21.79385,63622
21.80197,66477
21.81010,72243
21.81822,75693
21.82635,81069
21.83447,74566
21.84258,84285
21.85072,76838
21.85883,75184
21.86695,68362
21.87508,67880
21.88320,64975
21.89133,67036
21.89945,63097
21.90757,59665
21.91570,62258
21.92382,57346
21.93195,55956
21.94007,54736
21.94818,57869
21.95632,52085
21.96443,49537
21.97257,48820
21.98068,51394
21.98880,48444
21.99693,51108
22.00505,52647
22.01317,50085
22.02130,53738
22.02942,55166
22.03755,53942
22.04567,54009
22.05378,52992
22.06192,51804
22.07003,50792
22.07817,47149
22.08628,50839
22.09440,51593
22.10253,50893
22.11065,48420
22.11877,51426
22.12690,50479
22.13502,51731
22.14315,50389
22.15127,51237
22.15938,50767
22.16752,47264
22.17563,45796
22.18377,44304
22.19188,49385
22.20000,46172
22.20813,48064
22.21625,56558
22.22438,62453
22.23250,63356
22.24062,70138
22.24875,69560
22.25687,71152
22.26498,75672
22.27312,78415
22.28123,82754
22.28937,88903
22.29748,93210
22.30560,96723
22.31373,95933
22.32185,95986
22.32998,92650
22.33810,91752
22.34622,87693
22.35435,84083
22.36247,82980
22.37060,82206
22.37872,87660
22.38683,96941
22.39497,113035
22.40308,138676
22.41120,175182
22.41933,198938
22.42745,204446
22.43558,189784
22.44370,161015
22.45182,133913
22.45995,111218
22.46807,100537
22.47620,98512
22.48432,101097
22.49243,125517
22.50057,134289
22.50868,146160
22.51680,143237
22.52493,138963
22.53305,121149
22.54118,109618
22.54930,95413
22.55742,84981
22.56555,80411
22.57367,75170
22.58180,69777
22.58992,66523
22.59803,61046
22.60617,56771
22.61428,56229
22.62242,53846
22.63053,53707
22.63865,54818
22.64678,55436
22.65490,56686
22.66302,57167
22.67115,59585
22.67927,57233
22.68740,61559
22.69552,62591
22.70363,64819
22.71177,71243
22.71988,77892
22.72802,87034
22.73613,97209
22.74425,99216
22.75238,101448
22.76050,104184
22.76863,108361
22.77675,111750
22.78487,114502
22.79300,134173
22.80112,133671
22.80923,141156
22.81737,148825
22.82548,148260
22.83362,137419
22.84173,138060
22.84985,136375
22.85798,139529
22.86610,153469
22.87423,168848
22.88235,189303
22.89047,217316
22.89860,234544
22.90672,261962
22.91483,274945
22.92297,293208
22.93108,293306
22.93922,260362
22.94733,226817
22.95545,198500
22.96358,172403
22.97170,155875
22.97983,143292
22.98795,143605
22.99607,129922
23.00420,132375
23.01232,120125
23.02045,119723
23.02857,114722
23.03668,112979
23.04482,115426
23.05293,114296
23.06105,119779
23.06918,117279
23.07730,111793
23.08543,113013
23.09355,111819
23.10167,105385
23.10980,100743
23.11792,105221
23.12605,99797
23.13417,100186
23.14228,101718
23.15042,101304
23.15853,94739
23.16667,91095
23.17478,95743
23.18290,93614
23.19103,95826
23.19915,89704
23.20727,97273
23.21540,94092
23.22352,93248
23.23165,91024
23.23977,95445
23.24788,96875
23.25602,99998
23.26413,108385
23.27227,101675
23.28038,108611
23.28850,96460
23.29663,96608
23.30475,91833
23.31287,93461
23.32100,101152
23.32912,108487
23.33725,118356
23.34537,132818
23.35348,153719
23.36162,174809
23.36973,179200
23.37787,180187
23.38598,171064
23.39410,147433
23.40223,130789
23.41035,123404
23.41848,104264
23.42660,97732
23.43472,92987
23.44285,86053
23.45097,90474
23.45908,85215
23.46722,84221
23.47533,84257
23.48347,82975
23.49158,83781
23.49970,82821
23.50783,77150
23.51595,81114
23.52408,81409
23.53220,81819
23.54032,82197
23.54845,83236
23.55657,93009
23.56470,103532
23.57282,138338
23.58093,168957
23.58907,238727
23.59718,283482
23.60530,313117
23.61343,317220
23.62155,283130
23.62968,236571
23.63780,193700
23.64592,170452
23.65405,161395
23.66217,158260
23.67030,156337
23.67842,149170
23.68653,136377
23.69467,115854
23.70278,105791
23.71090,94594
23.71903,87786
23.72715,89612
23.73528,97448
23.74340,122844
23.75152,198799
23.75965,396426
23.76777,790898
23.77590,1417172
23.78402,2056703
23.79213,2515829
23.80027,2558616
23.80838,2432748
23.81652,2066368
23.82463,1607114
23.83275,1232576
23.84088,972884
23.84900,762474
23.85712,623308
23.86525,521502
23.87337,441082
23.88150,379734
23.88962,353089
23.89773,337782
23.90587,312834
23.91398,295820
23.92212,279365
23.93023,259312
23.93835,240488
23.94648,216357
23.95460,199871
23.96272,186099
23.97085,175112
23.97897,171497
23.98710,159954
23.99522,157929
24.00333,177989
24.01147,201893
24.01958,244092
24.02772,306435
24.03583,335522
24.04395,338509
24.05208,295964
24.06020,237863
24.06833,183971
24.07645,144790
24.08457,134888
24.09270,126081
24.10082,113418
24.10893,117791
24.11707,113431
24.12518,117590
24.13332,122381
24.14143,126541
24.14955,130117
24.15768,136783
24.16580,134580
24.17393,138178
24.18205,134288
24.19017,139273
24.19830,141194
24.20642,135605
24.21455,132514
24.22267,120373
24.23078,107965
24.23892,101305
24.24703,95993
24.25515,88110
24.26328,84690
24.27140,86474
24.27953,85629
24.28765,83428
24.29577,77593
24.30390,81497
24.31202,82808
24.32015,79534
24.32827,80271
24.33638,81128
24.34452,84140
24.35263,81467
24.36075,90547
24.36888,105879
24.37700,131392
24.38513,143339
24.39325,152189
24.40137,135917
24.40950,117793
24.41762,94157
24.42575,85589
24.43387,75725
24.44198,73722
24.45012,72173
24.45823,75713
24.46637,73465
24.47448,75251
24.48260,85663
24.49073,91618
24.49885,91956
24.50697,98042
24.51510,115975
24.52322,134242
24.53135,179944
24.53947,217367
24.54758,267080
24.55572,302742
24.56383,315796
24.57197,305817
24.58008,273221
24.58820,245351
24.59633,210393
24.60445,203325
24.61258,186246
24.62070,181734
24.62882,175782
24.63695,181154
24.64507,178786
24.65318,182228
24.66132,187821
24.66943,191782
24.67757,204827
24.68568,200845
24.69380,193690
24.70193,198926
24.71005,191964
24.71818,197238
24.72630,202127
24.73442,188825
24.74255,199123
24.75067,193374
24.75878,203611
24.76692,200759
24.77503,199687
24.78317,211063
24.79128,207098
24.79940,204806
24.80753,209079
24.81565,206287
24.82378,215410
24.83190,227991
24.84002,252331
24.84815,283107
24.85627,321052
24.86440,404695
24.87252,497220
24.88063,626454
24.88877,701559
24.89688,749822
24.90500,691600
24.91313,602109
24.92125,470043
24.92938,369377
24.93750,283021
24.94562,234324
24.95375,204324
24.96187,186740
24.97000,177940
24.97812,162725
24.98623,165846
24.99437,160192
25.00248,153980
25.01060,150601
25.01873,149685
25.02685,141070
25.03498,144225
25.04310,139026
25.05122,127149
25.05935,120876
25.06747,110548
25.07560,104247
25.08372,99827
25.09183,123885
25.09997,182664
25.10808,337896
25.11622,674881
25.12433,1303063
25.13245,2154397
25.14058,3031623
25.14870,3446017
25.15682,3301357
25.16495,2666748
25.17307,1919048
25.18120,1212257
25.18932,738127
25.19743,452341
25.20557,290055
25.21368,203459
25.22182,169609
25.22993,156947
25.23805,171576
25.24618,196824
25.25430,246448
25.26243,299656
25.27055,327919
25.27867,352789
25.28680,316078
25.29492,270091
25.30303,221100
25.31117,170272
25.31928,131799
25.32742,116474
25.33553,96946
25.34365,90372
25.35178,86424
25.35990,85857
25.36803,83440
25.37615,76310
25.38427,72637
25.39240,75194
25.40052,73305
25.40863,75884
25.41677,70399
25.42488,66933
25.43302,66269
25.44113,69236
25.44925,72952
25.45738,76151
25.46550,89637
25.47363,104747
25.48175,143514
25.48987,175598
25.49800,203582
25.50612,221265
25.51425,235014
25.52237,243159
25.53048,244488
25.53862,247135
25.54673,249345
25.55485,259432
25.56298,265554
25.57110,269508
25.57923,260256
25.58735,259408
25.59547,266540
25.60360,264183
25.61172,256719
25.61985,262329
25.62797,258907
25.63608,261487
25.64422,256798
25.65233,254789
25.66047,258253
25.66858,248594
25.67670,245599
25.68483,243577
25.69295,245953
25.70107,244184
25.70920,237929
25.71732,235706
25.72545,235894
25.73357,234200
25.74168,229974
25.74982,227988
25.75793,224652
25.76607,222982
25.77418,234636
25.78230,221483
25.79043,224819
25.79855,229666
25.80667,230729
25.81480,220956
25.82292,226272
25.83105,216557
25.83917,216045
25.84728,209083
25.85542,219870
25.86353,215337
25.87167,200850
25.87978,199014
25.88790,200599
25.89603,198724
25.90415,190620
25.91228,188957
25.92040,192782
25.92852,190384
25.93665,181683
25.94477,182125
25.95288,181189
25.96102,182989
25.96913,171299
25.97727,172719
25.98538,164009
25.99350,177550
26.00163,165139
26.00975,170557
26.01788,165982
26.02600,162483
26.03412,152847
26.04225,151455
26.05037,152032
26.05850,152987
26.06662,150376
26.07473,153932
26.08287,155203
26.09098,158019
26.09910,162815
26.10723,152897
26.11535,150494
26.12348,151239
26.13160,151716
26.13972,151642
26.14785,147651
26.15597,156481
26.16410,155099
26.17222,148826
26.18033,148264
26.18847,145266
26.19658,141672
26.20470,139061
26.21283,133161
26.22095,128877
26.22908,125372
26.23720,121200
26.24532,124569
26.25345,119835
26.26157,120241
26.26970,114843
26.27782,117474
26.28593,117455
26.29407,115399
26.30218,106376
26.31032,114715
26.31843,109904
26.32655,114295
26.33468,109332
26.34280,111374
26.35092,116408
26.35905,121496
26.36717,144278
26.37530,180527
26.38342,224425
26.39153,261822
26.39967,282890
26.40778,294412
26.41592,267774
26.42403,239470
26.43215,187645
26.44028,156368
26.44840,134400
26.45652,123283
26.46465,112664
26.47277,107558
26.48090,102008
26.48902,100411
26.49713,104991
26.50527,93402
26.51338,92166
26.52152,87311
26.52963,89101
26.53775,88015
26.54588,79773
26.55400,79067
26.56213,80135
26.57025,87200
26.57837,86942
26.58650,82516
26.59462,75497
26.60273,80643
26.61087,77082
26.61898,83368
26.62712,78622
26.63523,76403
26.64335,81245
26.65148,84292
26.65960,81837
26.66773,83082
26.67585,80652
26.68397,77532
26.69210,79439
26.70022,78240
26.70835,77804
26.71647,74795
26.72458,75616
26.73272,76922
26.74083,73772
26.74895,74246
26.75708,74700
26.76520,71711
26.77333,73128
26.78145,75756
26.78957,78651
26.79770,83178
26.80582,86328
26.81395,81502
26.82207,79887
26.83018,75653
26.83832,75250
26.84643,75451
26.85455,71658
26.86268,69862
26.87080,69994
26.87893,72066
26.88705,64320
26.89517,65531
26.90330,65085
26.91142,62467
26.91955,62070
26.92767,62209
26.93578,59566
26.94392,62628
26.95203,71156
26.96017,69198
26.96828,83606
26.97640,102941
26.98453,153179
26.99265,208484
27.00077,317920
27.00890,422641
27.01702,526830
27.02515,597313
27.03327,638908
27.04138,618539
27.04952,574700
27.05763,492797
27.06577,402678
27.07388,333353
27.08200,291005
27.09013,245650
27.09825,213859
27.10638,191515
27.11450,175595
27.12262,162306
27.13075,154270
27.13887,144770
27.14698,141145
27.15512,137152
27.16323,143496
27.17137,147769
27.17948,148681
27.18760,155210
27.19573,148371
27.20385,147742
27.21198,127673
27.22010,122952
27.22822,115259
27.23635,103425
27.24447,103502
27.25258,99088
27.26072,97025
27.26883,90099
27.27697,81339
27.28508,83276
27.29320,88276
27.30133,85308
27.30945,84902
27.31758,82669
27.32570,81747
27.33382,85670
27.34195,81286
27.35007,88401
27.35820,80574
27.36632,83715
27.37443,84012
27.38257,78311
27.39068,77224
27.39880,78189
27.40693,72607
27.41505,72261
27.42318,72367
27.43130,72155
27.43942,74848
27.44755,71217
27.45567,68581
27.46380,69010
27.47192,65227
27.48003,66919
27.48817,66325
27.49628,66540
27.50440,72872
27.51253,74951
27.52065,77316
27.52878,75884
27.53690,73277
27.54502,71164
27.55315,66501
27.56127,71675
27.56940,71669
27.57752,78080
27.58563,87796
27.59377,88195
27.60188,99180
27.61002,96262
27.61813,93639
27.62625,81151
27.63438,78621
27.64250,73252
27.65062,69970
27.65875,75146
27.66687,80606
27.67500,86555
27.68312,99122
27.69123,107895
27.69937,108426
27.70748,98479
27.71562,91144
27.72373,83004
27.73185,68141
27.73998,65275
27.74810,57720
27.75623,59936
27.76435,65137
27.77247,61281
27.78060,62461
27.78872,64879
27.79683,59362
27.80497,57910
27.81308,60183
27.82122,61191
27.82933,60515
27.83745,60081
27.84558,58393
27.85370,58838
27.86183,56232
27.86995,56548
27.87807,57449
27.88620,55116
27.89432,61641
27.90245,53710
27.91057,52984
27.91868,52638
27.92682,51187
27.93493,55293
27.94305,54792
27.95118,51717
27.95930,51270
27.96743,51419
27.97555,54061
27.98367,55937
27.99180,59051
27.99992,63797
28.00805,70308
28.01617,85862
28.02428,113692
28.03242,152553
28.04053,195237
28.04865,211463
28.05678,218982
28.06490,197305
28.07303,168031
28.08115,138360
28.08927,109368
28.09740,85091
28.10552,72984
28.11365,65151
28.12177,65410
28.12988,62613
28.13802,63524
28.14613,60134
28.15427,60513
28.16238,58019
28.17050,65041
28.17863,66804
28.18675,75486
28.19487,73404
28.20300,86991
28.21112,86712
28.21925,99677
28.22737,94685
28.23548,87655
28.24362,77796
28.25173,73605
28.25987,68612
28.26798,64427
28.27610,57229
28.28423,58029
28.29235,65804
28.30047,71518
28.30860,79415
28.31672,92449
28.32485,109524
28.33297,123555
28.34108,126911
28.34922,152550
28.35733,170332
28.36547,184094
28.37358,193679
28.38170,199940
28.38983,203975
28.39795,209042
28.40608,221860
28.41420,204453
28.42232,197275
28.43045,189100
28.43857,178253
28.44668,164613
28.45482,157985
28.46293,152014
28.47107,142009
28.47918,135431
28.48730,132029
28.49543,125327
28.50355,122467
28.51168,121619
28.51980,112477
28.52792,107924
28.53605,94391
28.54417,94656
28.55230,88832
28.56042,86940
28.56853,83788
28.57667,75543
28.58478,82736
28.59290,74331
28.60103,80596
28.60915,78160
28.61728,75901
28.62540,82436
28.63352,82289
28.64165,84622
28.64977,83086
28.65790,85264
28.66602,81674
28.67413,75759
28.68227,75626
28.69038,72779
28.69850,72673
28.70663,66351
28.71475,68038
28.72288,64516
28.73100,69164
28.73912,71387
28.74725,82999
28.75537,88531
28.76350,94214
28.77162,92117
28.77973,87601
28.78787,76673
28.79598,77580
28.80412,73694
28.81223,73602
28.82035,74017
28.82848,73017
28.83660,68794
28.84472,66490
28.85285,65418
28.86097,71432
28.86910,69796
28.87722,77524
28.88533,80036
28.89347,80090
28.90158,84422
28.90972,85630
28.91783,81085
28.92595,80945
28.93408,71325
28.94220,70608
28.95033,68955
28.95845,74510
28.96657,70067
28.97470,61465
28.98282,59640
28.99093,61147
28.99907,60790
29.00718,55705
29.01532,56211
29.02343,58726
29.03155,58283
29.03968,55703
29.04780,56935
29.05593,54344
29.06405,58508
29.07217,61784
29.08030,58086
29.08842,64134
29.09653,60682
29.10467,59561
29.11278,59570
29.12092,56980
29.12903,56075
29.13715,55657
29.14528,52062
29.15340,57617
29.16153,55259
29.16965,62606
29.17777,59901
29.18590,66392
29.19402,79147
29.20215,96979
29.21027,102395
29.21838,109759
29.22652,107556
29.23463,104784
29.24275,115019
29.25088,115659
29.25900,127009
29.26713,128662
29.27525,119833
29.28337,112275
29.29150,96109
29.29962,82261
29.30775,74457
29.31587,66984
29.32398,63231
29.33212,60353
29.34023,57880
29.34835,52871
29.35648,53155
29.36460,55911
29.37273,56855
29.38085,55945
29.38897,50625
29.39710,51023
29.40522,53700
29.41335,61725
29.42147,57454
29.42958,56505
29.43772,56139
29.44583,50404
29.45397,58090
29.46208,51736
29.47020,56429
29.47833,57930
29.48645,57474
29.49457,55122
29.50270,54615
29.51082,58511
29.51895,58107
29.52707,56258
29.53518,53480
29.54332,52120
29.55143,54085
29.55957,49146
29.56768,50720
29.57580,51788
29.58393,43450
29.59205,47453
29.60018,44297
29.60830,50717
29.61642,48131
29.62455,49888
29.63267,45740
29.64078,50863
29.64892,47602
29.65703,47558
29.66517,47745
29.67328,50840
29.68140,55045
29.68953,63217
29.69765,54862
29.70578,58484
29.71390,58924
29.72202,57400
29.73015,60510
29.73827,54810
29.74638,56459
29.75452,54440
29.76263,50160
29.77077,51857
29.77888,49107
29.78700,47502
29.79513,48416
29.80325,46696
29.81138,46688
29.81950,49437
29.82762,42084
29.83575,45603
29.84387,41732
29.85200,47881
29.86012,51100
29.86823,57209
29.87637,75552
29.88448,98671
29.89260,130369
29.90073,143456
29.90885,146456
29.91698,126889
29.92510,104604
29.93322,87950
29.94135,73652
29.94947,70537
29.95760,74683
29.96572,81024
29.97383,92675
29.98197,110518
29.99008,126001
29.99822,123200
30.00633,143195
30.01445,144659
30.02258,142936
30.03070,143245
30.03882,133956
30.04695,129600
30.05507,130315
30.06320,124473
30.07132,129513
30.07943,123582
30.08757,119595
30.09568,119801
30.10382,115929
30.11193,108965
30.12005,108698
30.12818,113258
30.13630,110727
30.14442,104588
30.15255,100190
30.16067,93150
30.16880,88839
30.17692,89373
30.18503,90667
30.19317,96899
30.20128,100768
30.20942,92168
30.21753,90606
30.22565,86941
30.23378,80719
30.24190,73840
30.25003,71377
30.25815,63951
30.26627,64372
30.27440,64175
30.28252,64370
30.29063,58126
30.29877,58335
30.30688,58177
30.31502,53879
30.32313,58140
30.33125,59222
30.33938,58576
30.34750,59398
30.35563,59926
30.36375,57395
30.37187,60524
30.38000,59238
30.38812,56440
30.39625,56148
30.40437,53779
30.41248,49453
30.42062,54978
30.42873,53207
30.43685,54928
30.44498,52707
30.45310,51860
30.46123,54015
30.46935,52376
30.47747,48911
30.48560,51264
30.49372,51797
30.50185,51219
30.50997,47482
30.51808,48683
30.52622,51020
30.53433,54340
30.54245,51299
30.55058,49028
30.55870,53931
30.56683,55280
30.57495,51477
30.58307,52636
30.59120,56742
30.59932,54048
30.60745,46988
30.61557,52150
30.62368,51596
30.63182,49963
30.63993,50588
30.64807,48934
30.65618,50140
30.66430,45192
30.67243,47670
30.68055,46989
30.68867,48657
30.69680,46756
30.70492,44759
30.71305,46038
30.72117,46113
30.72928,46590
30.73742,46543
30.74553,45360
30.75367,48200
30.76178,45378
30.76990,54228
30.77803,61695
30.78615,69170
30.79427,74450
30.80240,90815
30.81052,94907
30.81865,93362
30.82677,96952
30.83488,76874
30.84302,67364
30.85113,61019
30.85927,57105
30.86738,57957
30.87550,60025
30.88363,55441
30.89175,56654
30.89988,50181
30.90800,53287
30.91612,52168
30.92425,46287
30.93237,44696
30.94048,47950
30.94862,44489
30.95673,44514
30.96487,48645
30.97298,45557
30.98110,43818
30.98923,45039
30.99735,46594
31.00548,43728
31.01360,48840
31.02172,44308
31.02985,47145
31.03797,50792
31.04610,52046
31.05422,52215
31.06233,58524
31.07047,57529
31.07858,61321
31.08670,65562
31.09483,76761
31.10295,77960
31.11108,78409
31.11920,78739
31.12732,76477
31.13545,69395
31.14357,73328
31.15170,69806
31.15982,63231
31.16793,69676
31.17607,77471
31.18418,92025
31.19230,109805
31.20043,140228
31.20855,173964
31.21668,211849
31.22480,233104
31.23292,243029
31.24105,216897
31.24917,174007
31.25730,134149
31.26542,105293
31.27353,85612
31.28167,74339
31.28978,72412
31.29792,67017
31.30603,63587
31.31415,69262
31.32228,64559
31.33040,68123
31.33852,66312
31.34665,64209
31.35477,63877
31.36290,61432
31.37102,60992
31.37913,70526
31.38727,65377
31.39538,64199
31.40352,66917
31.41163,66252
31.41975,64339
31.42788,59574
31.43600,59829
31.44413,58644
31.45225,55914
31.46037,57844
31.46850,56341
31.47662,62856
31.48473,59065
31.49287,62086
31.50098,62870
31.50912,64061
31.51723,60574
31.52535,62542
31.53348,70780
31.54160,62629
31.54973,65846
31.55785,67682
31.56597,61423
31.57410,62204
31.58222,61394
31.59033,58000
31.59847,61479
31.60658,55966
31.61472,55844
31.62283,61624
31.63095,57890
31.63908,53657
31.64720,52259
31.65533,57190
31.66345,60442
31.67157,57843
31.67970,61164
31.68782,62054
31.69595,58103
31.70407,55735
31.71218,56452
31.72032,51629
31.72843,52145
31.73655,50786
31.74468,52480
31.75280,53284
31.76093,51052
31.76905,52236
31.77717,52305
31.78530,51184
31.79342,48176
31.80155,53869
31.80967,51998
31.81778,52616
31.82592,52284
31.83403,51996
31.84215,54117
31.85028,53042
31.85840,51420
31.86653,52550
31.87465,54347
31.88277,63972
31.89090,61276
31.89902,64574
31.90715,72386
31.91527,82784
31.92338,84437
31.93152,84998
31.93963,88641
31.94777,95005
31.95588,99599
31.96400,110785
31.97213,106856
31.98025,109012
31.98837,115618
31.99650,105978
32.00462,105198
32.01275,107735
32.02087,105779
32.02898,105132
32.03712,94356
32.04523,96988
32.05337,92819
32.06148,92721
32.06960,89962
32.07773,84942
32.08585,79591
32.09398,73747
32.10210,75317
32.11022,74620
32.11835,68505
32.12647,72729
32.13458,64542
32.14272,63970
32.15083,63655
32.15897,61049
32.16708,60469
32.17520,61165
32.18333,61817
32.19145,60438
32.19958,59038
32.20770,60141
32.21582,59526
32.22395,53357
32.23207,59680
32.24018,59445
32.24832,55453
32.25643,59541
32.26457,60202
32.27268,61957
32.28080,55302
32.28893,65053
32.29705,54277
32.30518,52558
32.31330,54956
32.32142,56414
32.32955,54763
32.33767,54240
32.34580,55182
32.35392,59413
32.36203,56577
32.37017,59744
32.37828,54041
32.38640,53798
32.39453,54172
32.40265,50852
32.41078,50701
32.41890,51623
32.42702,52098
32.43515,52698
32.44327,49516
32.45140,48118
32.45952,48997
32.46763,48271
32.47577,46425
32.48388,47130
32.49202,52211
32.50013,53877
32.50825,48171
32.51638,49749
32.52450,48261
32.53262,48354
32.54075,48602
32.54887,50402
32.55700,50976
32.56512,48081
32.57323,46068
32.58137,49947
32.58948,48564
32.59762,46191
32.60573,48281
32.61385,48544
32.62198,51605
32.63010,54566
32.63822,59052
32.64635,61996
32.65447,62274
32.66260,62377
32.67072,62854
32.67883,54849
32.68697,55029
32.69508,54742
32.70322,51586
32.71133,51787
32.71945,52853
32.72758,51990
32.73570,50992
32.74383,48961
32.75195,47728
32.76007,45631
32.76820,47047
32.77632,45137
32.78443,41769
32.79257,42373
32.80068,44995
32.80882,42425
32.81693,44342
32.82505,43750
32.83318,48333
32.84130,45432
32.84943,48200
32.85755,47979
32.86567,46671
32.87380,50812
32.88192,54983
32.89003,61176
32.89817,62829
32.90628,68113
32.91442,68158
32.92253,67531
32.93065,59853
32.93878,63127
32.94690,51729
32.95503,48616
32.96315,50211
32.97127,48905
32.97940,58968
32.98752,64840
32.99565,66381
33.00377,67954
33.01188,67720
33.02002,63383
33.02813,61465
33.03625,58464
33.04438,52827
33.05250,55213
33.06063,55863
33.06875,60607
33.07687,67310
33.08500,73995
33.09312,77515
33.10125,80487
33.10937,86324
33.11748,81295
33.12562,77259
33.13373,75841
33.14187,66425
33.14998,64110
33.15810,59500
33.16623,58917
33.17435,52667
33.18247,55429
33.19060,54498
33.19872,50305
33.20685,52539
33.21497,53365
33.22308,49467
33.23122,51655
33.23933,50867
33.24747,52107
33.25558,54743
33.26370,53191
33.27183,49585
33.27995,45558
33.28808,49973
33.29620,54139
33.30432,53408
33.31245,48374
33.32057,51029
33.32868,50694
33.33682,48458
33.34493,55108
33.35307,57120
33.36118,59002
33.36930,56571
33.37743,53169
33.38555,53221
33.39368,49858
33.40180,49690
33.40992,48124
33.41805,44350
33.42617,46063
33.43428,45306
33.44242,44261
33.45053,44455
33.45867,47113
33.46678,46353
33.47490,48225
33.48303,44805
33.49115,42773
33.49928,43812
33.50740,44819
33.51552,44549
33.52365,48875
33.53177,48941
33.53990,52193
33.54802,54405
33.55613,49523
33.56427,51773
33.57238,48421
33.58050,50246
33.58863,46588
33.59675,48091
33.60488,43637
33.61300,49133
33.62112,47631
33.62925,49184
33.63737,47979
33.64550,49393
33.65362,52579
33.66173,48591
33.66987,51365
33.67798,48937
33.68610,48685
33.69423,45058
33.70235,44724
33.71048,49811
33.71860,48914
33.72672,46678
33.73485,48388
33.74297,42578
33.75110,46080
33.75922,45604
33.76733,46306
33.77547,46787
33.78358,45559
33.79172,47675
33.79983,43620
33.80795,47796
33.81608,43105
33.82420,42768
33.83232,45526
33.84045,50129
33.84857,48700
33.85670,45694
33.86482,48910
33.87293,47538
33.88107,49712
33.88918,49712
33.89732,56483
33.90543,58360
33.91355,56960
33.92168,56960
33.92980,51763
33.93793,49303
33.94605,47881
33.95417,45646
33.96230,45131
33.97042,48886
33.97853,47448
33.98667,49542
33.99478,50340
34.00292,45103
34.01103,46282
34.01915,42108
34.02728,50984
34.03540,49781
34.04353,49349
34.05165,49666
34.05977,47585
34.06790,50961
34.07602,50102
34.08413,53986
34.09227,52519
34.10038,54016
34.10852,48414
34.11663,52415
34.12475,52189
34.13288,55809
34.14100,51450
34.14913,55723
34.15725,54056
34.16537,53612
34.17350,51038
34.18162,51426
34.18975,57998
34.19787,50681
34.20598,49026
34.21412,50210
34.22223,52854
34.23035,50383
34.23848,43846
34.24660,48446
34.25473,49592
34.26285,52638
34.27097,50181
34.27910,43700
34.28722,49985
34.29535,47979
34.30347,49972
34.31158,47771
34.31972,49741
34.32783,47358
34.33597,49103
34.34408,50146
34.35220,46719
34.36033,48459
34.36845,49992
34.37657,52184
34.38470,48752
34.39282,45966
34.40095,49287
34.40907,48435
34.41718,53404
34.42532,48591
34.43343,48451
34.44157,47969
34.44968,48971
34.45780,44636
34.46593,47678
34.47405,46814
34.48217,49351
34.49030,52551
34.49842,61048
34.50655,69211
34.51467,77012
34.52278,84113
34.53092,98096
34.53903,103371
34.54717,102010
34.55528,108184
34.56340,109894
34.57153,95821
34.57965,91339
34.58778,92810
34.59590,80610
34.60402,74446
34.61215,72876
34.62027,69565
34.62838,70789
34.63652,65522
34.64463,66223
34.65277,68093
34.66088,61816
34.66900,59676
34.67713,58061
34.68525,55384
34.69338,59315
34.70150,58626
34.70962,56127
34.71775,57241
34.72587,56565
34.73398,57252
34.74212,55889
34.75023,54192
34.75837,58582
34.76648,59390
34.77460,62698
34.78273,62691
34.79085,59330
34.79898,65080
34.80710,60144
34.81522,59865
34.82335,56297
34.83147,58434
34.83960,58012
34.84772,68541
34.85583,60686
34.86397,60317
34.87208,63307
34.88020,61656
34.88833,63052
34.89645,54739
34.90458,56741
34.91270,58982
34.92082,59256
34.92895,64488
34.93707,61551
34.94520,60074
34.95332,61551
34.96143,60033
34.96957,61088
34.97768,59266
34.98582,60875
34.99393,56646
35.00205,59563
35.01018,57287
35.01830,53177
35.02642,51615
35.03455,52821
35.04267,49270
35.05080,54355
35.05892,51082
35.06703,47572
35.07517,47002
35.08328,53495
35.09142,52710
35.09953,52800
35.10765,46674
35.11578,50037
35.12390,52512
35.13202,48572
35.14015,52925
35.14827,48046
35.15640,52580
35.16452,53382
35.17263,53609
35.18077,53299
35.18888,52163
35.19702,50253
35.20513,49762
35.21325,48779
35.22138,49428
35.22950,50117
35.23763,49560
35.24575,47477
35.25387,50107
35.26200,51321
35.27012,50307
35.27823,51921
35.28637,49566
35.29448,47034
35.30262,50138
35.31073,48463
35.31885,51863
35.32698,48299
35.33510,49052
35.34323,49848
35.35135,50622
35.35947,48655
35.36760,50126
35.37572,48561
35.38385,53987
35.39197,59572
35.40008,63612
35.40822,77812
35.41633,87075
35.42445,94172
35.43258,97447
35.44070,92455
35.44883,84066
35.45695,73669
35.46507,67809
35.47320,63296
35.48132,58832
35.48945,55466
35.49757,60247
35.50568,55487
35.51382,55661
35.52193,57484
35.53005,55981
35.53818,52316
35.54630,51321
35.55443,49106
35.56255,50537
35.57067,50682
35.57880,53162
35.58692,52719
35.59505,48148
35.60317,50803
35.61128,47722
35.61942,47123
35.62753,49774
35.63567,50946
35.64378,54937
35.65190,53031
35.66003,55915
35.66815,56303
35.67627,54429
35.68440,51107
35.69252,53023
35.70065,53133
35.70877,54088
35.71688,53481
35.72502,54310
35.73313,52206
35.74127,54305
35.74938,58136
35.75750,59714
35.76563,66508
35.77375,57773
35.78187,59813
35.79000,57245
35.79812,52133
35.80625,53892
35.81437,50010
35.82248,50686
35.83062,49783
35.83873,51972
35.84687,46783
35.85498,51763
35.86310,50593
35.87123,54361
35.87935,52326
35.88748,47154
35.89560,53373
35.90372,50793
35.91185,51457
35.91997,50605
35.92808,49815
35.93622,48427
35.94433,48309
35.95247,50179
35.96058,51176
35.96870,54089
35.97683,55814
35.98495,53305
35.99308,54337
36.00120,53028
36.00932,50843
36.01745,52307
36.02557,52428
36.03370,48917
36.04182,55778
36.04993,56697
36.05807,53481
36.06618,52037
36.07430,51035
36.08243,54882
36.09055,51318
36.09868,53039
36.10680,51740
36.11492,53744
36.12305,52387
36.13117,56327
36.13930,55624
36.14742,55896
36.15553,69055
36.16367,56466
36.17178,54812
36.17990,55156
36.18803,50562
36.19615,50720
36.20428,52675
36.21240,51116
36.22052,52863
36.22865,51512
36.23677,49597
36.24490,50257
36.25302,54479
36.26113,54790
36.26927,51616
36.27738,57600
36.28552,61508
36.29363,69151
36.30175,71423
36.30988,67700
36.31800,66805
36.32612,62185
36.33425,55958
36.34237,52664
36.35050,50900
36.35862,53614
36.36673,54130
36.37487,51903
36.38298,53413
36.39112,55558
36.39923,55744
36.40735,54221
36.41548,55953
36.42360,56825
36.43173,54347
36.43985,50525
36.44797,52592
36.45610,53645
36.46422,52655
36.47233,49772
36.48047,53689
36.48858,51672
36.49672,53172
36.50483,48786
36.51295,51573
36.52108,54202
36.52920,52261
36.53733,51097
36.54545,53815
36.55357,59514
36.56170,51871
36.56982,54839
36.57793,54754
36.58607,54317
36.59418,56759
36.60232,59273
36.61043,60615
36.61855,61549
36.62668,59076
36.63480,59167
36.64293,60377
36.65105,60554
36.65917,61731
36.66730,58105
36.67542,58032
36.68355,57638
36.69167,61056
36.69978,62734
36.70792,60200
36.71603,58238
36.72415,59878
36.73228,64847
36.74040,58467
36.74853,58996
36.75665,59591
36.76477,63011
36.77290,57912
36.78102,57712
36.78915,59621
36.79727,59926
36.80538,56371
36.81352,60732
36.82163,60707
36.82977,57516
36.83788,57615
36.84600,59057
36.85413,60960
36.86225,56221
36.87037,61040
36.87850,55195
36.88662,56124
36.89475,62593
36.90287,58018
36.91098,55769
36.91912,61000
36.92723,62196
36.93537,63348
36.94348,64331
36.95160,68867
36.95973,71585
36.96785,77472
36.97597,77446
36.98410,71066
36.99222,69746
37.00035,71488
37.00847,61688
37.01658,61208
37.02472,59034
37.03283,61440
37.04097,58480
37.04908,58051
37.05720,57095
37.06533,62224
37.07345,58445
37.08158,60516
37.08970,61751
37.09782,60994
37.10595,60581
37.11407,60388
37.12218,59563
37.13032,60355
37.13843,56058
37.14657,55627
37.15468,57676
37.16280,57109
37.17093,61076
37.17905,63057
37.18718,57080
37.19530,60928
37.20342,62652
37.21155,58312
37.21967,61671
37.22778,60295
37.23592,58554
37.24403,59009
37.25217,58994
37.26028,58026
37.26840,55471
37.27653,56375
37.28465,57789
37.29278,61322
37.30090,68624
37.30902,70722
37.31715,79298
37.32527,98895
37.33340,98020
37.34152,106710
37.34963,96655
37.35777,94729
37.36588,97443
37.37400,90112
37.38213,89433
37.39025,79454
37.39838,82271
37.40650,75432
37.41462,77114
37.42275,79322
37.43087,74676
37.43900,75332
37.44712,71007
37.45523,72110
37.46337,77009
37.47148,73073
37.47962,75703
37.48773,70356
