Z:\data\JTB-E02\BACandBLUE\JTB-E02-190-10.D Tue Dec 11 13:38:42 2018
Start of data points
2.09530	93133
2.10342	98380
2.11155	89886
2.11967	89492
2.12780	88746
2.13592	93120
2.14403	90377
2.15217	88266
2.16028	95748
2.16840	93544
2.17653	90172
2.18465	95968
2.19278	87298
2.20090	93663
2.20902	85579
2.21715	83737
2.22527	83238
2.23340	80149
2.24152	82742
2.24963	79933
2.25777	75301
2.26588	77017
2.27400	72746
2.28213	95050
2.29025	282071
2.29838	452702
2.30650	317139
2.31462	227035
2.32275	197418
2.33087	175773
2.33900	158835
2.34712	153507
2.35523	146823
2.36337	135894
2.37148	129668
2.37962	124705
2.38773	120341
2.39585	116424
2.40398	111590
2.41210	107772
2.42022	106209
2.42835	108867
2.43647	104037
2.44460	104510
2.45272	105296
2.46083	96487
2.46897	102454
2.47708	93427
2.48522	97985
2.49333	95633
2.50145	94458
2.50958	94869
2.51770	95810
2.52583	92105
2.53395	91830
2.54207	96944
2.55020	93145
2.55832	88563
2.56643	89954
2.57457	100403
2.58268	101487
2.59082	90950
2.59893	96966
2.60705	89797
2.61518	91890
2.62330	127130
2.63143	187153
2.63955	180204
2.64767	147001
2.65580	128761
2.66392	119666
2.67203	109938
2.68017	111395
2.68828	103425
2.69642	97635
2.70453	99549
2.71265	99480
2.72078	96063
2.72890	97412
2.73703	87357
2.74515	91577
2.75327	90012
2.76140	86833
2.76952	86620
2.77765	89099
2.78577	101701
2.79388	397919
2.80202	1299242
2.81013	1382932
2.81825	824673
2.82638	558689
2.83450	492652
2.84263	421102
2.85075	358784
2.85887	322044
2.86700	286264
2.87512	260784
2.88325	246111
2.89137	215209
2.89948	207827
2.90762	198473
2.91573	189530
2.92387	182799
2.93198	171369
2.94010	161274
2.94823	149570
2.95635	149744
2.96447	152038
2.97260	141487
2.98072	142883
2.98885	143147
2.99697	131354
3.00508	132400
3.01322	133891
3.02133	123288
3.02947	121319
3.03758	125248
3.04570	119040
3.05383	116873
3.06195	114015
3.07007	110970
3.07820	111466
3.08632	109304
3.09445	122362
3.10257	205463
3.11068	441364
3.11882	957868
3.12693	1730536
3.13507	1651439
3.14318	1113798
3.15130	834367
3.15943	683876
3.16755	589000
3.17568	536027
3.18380	521250
3.19192	534115
3.20005	843598
3.20817	1832752
3.21628	2304381
3.22442	1759105
3.23253	1299716
3.24067	1063359
3.24878	913891
3.25690	808606
3.26503	741160
3.27315	667484
3.28128	603648
3.28940	583617
3.29752	541216
3.30565	564471
3.31377	758002
3.32190	1176161
3.33002	1420039
3.33813	1306292
3.34627	1029186
3.35438	815450
3.36250	683593
3.37063	630445
3.37875	577065
3.38688	538938
3.39500	485585
3.40312	461650
3.41125	435869
3.41937	412116
3.42750	402468
3.43562	382482
3.44373	371435
3.45187	375921
3.45998	373498
3.46810	348168
3.47623	360398
3.48435	454974
3.49248	520360
3.50060	483023
3.50872	416443
3.51685	342286
3.52497	324714
3.53310	309970
3.54122	295974
3.54933	313044
3.55747	327102
3.56558	318880
3.57372	293068
3.58183	273932
3.58995	253544
3.59808	255408
3.60620	241205
3.61432	235556
3.62245	224865
3.63057	220109
3.63870	214682
3.64682	227732
3.65493	223760
3.66307	223734
3.67118	354426
3.67932	2221773
3.68743	1.06101E+07
3.69555	2.240726E+07
3.70368	2.446643E+07
3.71180	1.740218E+07
3.71992	1.103117E+07
3.72805	8138211
3.73617	6596810
3.74430	5637327
3.75242	4881547
3.76053	4340144
3.76867	3894301
3.77678	3495078
3.78492	3212285
3.79303	2926311
3.80115	2736548
3.80928	2571454
3.81740	2446886
3.82553	2470011
3.83365	2558673
3.84177	2475626
3.84990	2211488
3.85802	2059261
3.86613	1898898
3.87427	1828776
3.88238	1741732
3.89052	1645348
3.89863	1609132
3.90675	1550085
3.91488	1478275
3.92300	1451339
3.93113	1453529
3.93925	1625792
3.94737	1797527
3.95550	1765084
3.96362	1592894
3.97175	1497004
3.97987	1499639
3.98798	1487909
3.99612	1381443
4.00423	1288292
4.01235	1242093
4.02048	1275592
4.02860	1404945
4.03673	1453497
4.04485	1336094
4.05297	1205259
4.06110	1095057
4.06922	1036044
4.07735	1002419
4.08547	952934
4.09358	925515
4.10172	918295
4.10983	907445
4.11795	880960
4.12608	862050
4.13420	830811
4.14233	819954
4.15045	786587
4.15857	804416
4.16670	833738
4.17482	810976
4.18295	800095
4.19107	778546
4.19918	767875
4.20732	741853
4.21543	745115
4.22357	1083645
4.23168	3154514
4.23980	8760180
4.24793	1.670155E+07
4.25605	2.180199E+07
4.26417	2.175596E+07
4.27230	1.716894E+07
4.28042	1.235921E+07
4.28855	9546500
4.29667	7877012
4.30478	6629659
4.31292	5623310
4.32103	4921139
4.32917	4248135
4.33728	3803269
4.34540	3402777
4.35353	3051761
4.36165	2747590
4.36978	2560445
4.37790	2474268
4.38602	2377820
4.39415	2226387
4.40227	2003811
4.41038	1826350
4.41852	1690942
4.42663	1584912
4.43477	1478525
4.44288	1386356
4.45100	1338135
4.45913	1258324
4.46725	1203834
4.47538	1139220
4.48350	1087187
4.49162	1063782
4.49975	1026574
4.50787	988061
4.51598	958135
4.52412	925399
4.53223	892551
4.54037	887672
4.54848	833313
4.55660	843649
4.56473	840451
4.57285	818430
4.58098	784239
4.58910	762903
4.59722	732922
4.60535	705783
4.61347	690562
4.62160	671085
4.62972	682148
4.63783	718272
4.64597	891378
4.65408	1187722
4.66220	1419202
4.67033	1301204
4.67845	1093876
4.68658	942354
4.69470	841407
4.70282	789175
4.71095	732027
4.71907	687631
4.72720	647604
4.73532	620113
4.74343	600159
4.75157	592823
4.75968	572650
4.76780	561340
4.77593	537873
4.78405	523698
4.79218	514488
4.80030	508186
4.80842	532585
4.81655	589258
4.82467	625071
4.83280	609900
4.84092	552238
4.84903	538306
4.85717	554879
4.86528	600733
4.87342	599088
4.88153	555695
4.88965	510433
4.89778	483016
4.90590	466394
4.91402	454192
4.92215	440987
4.93027	431324
4.93840	423640
4.94652	425337
4.95463	430548
4.96277	489508
4.97088	587684
4.97902	700031
4.98713	720292
4.99525	686547
5.00338	607239
5.01150	543627
5.01963	497624
5.02775	484993
5.03587	497947
5.04400	617964
5.05212	786868
5.06023	890659
5.06837	843410
5.07648	723996
5.08462	623092
5.09273	561303
5.10085	522827
5.10898	499140
5.11710	489466
5.12523	464205
5.13335	459791
5.14147	452137
5.14960	432387
5.15772	433629
5.16585	467464
5.17397	577815
5.18208	676690
5.19022	701454
5.19833	665099
5.20645	596760
5.21458	605192
5.22270	652464
5.23083	679869
5.23895	652101
5.24707	582767
5.25520	544257
5.26332	501044
5.27145	466537
5.27957	439151
5.28768	428447
5.29582	409719
5.30393	397269
5.31205	366197
5.32018	359304
5.32830	351846
5.33643	351542
5.34455	345715
5.35267	352925
5.36080	353326
5.36892	357219
5.37705	334666
5.38517	330231
5.39328	337876
5.40142	323805
5.40953	351977
5.41767	373963
5.42578	368502
5.43390	355615
5.44203	325306
5.45015	326540
5.45827	328067
5.46640	355438
5.47452	389522
5.48265	390815
5.49077	358343
5.49888	322174
5.50702	309957
5.51513	293226
5.52327	287519
5.53138	287865
5.53950	278951
5.54763	278133
5.55575	284508
5.56387	297385
5.57200	387898
5.58012	559286
5.58825	751555
5.59637	841793
5.60448	764319
5.61262	602105
5.62073	465895
5.62887	396877
5.63698	356371
5.64510	327456
5.65323	309083
5.66135	288661
5.66948	295030
5.67760	278039
5.68572	277619
5.69385	287561
5.70197	299559
5.71008	332119
5.71822	334478
5.72633	317608
5.73447	298532
5.74258	281330
5.75070	266260
5.75883	268352
5.76695	255543
5.77508	245522
5.78320	240993
5.79132	242299
5.79945	236081
5.80757	237236
5.81570	230931
5.82382	231424
5.83193	229137
5.84007	217415
5.84818	225882
5.85630	223155
5.86443	220293
5.87255	221267
5.88068	213558
5.88880	209430
5.89692	208189
5.90505	202223
5.91317	208486
5.92130	217772
5.92942	223017
5.93753	242787
5.94567	246191
5.95378	241114
5.96190	246148
5.97003	281518
5.97815	323034
5.98628	352189
5.99440	442357
6.00252	521698
6.01065	550098
6.01877	509284
6.02690	423999
6.03502	378191
6.04313	319808
6.05127	289089
6.05938	274631
6.06752	259292
6.07563	250131
6.08375	243627
6.09188	242010
6.10000	232901
6.10812	233154
6.11625	221245
6.12437	214564
6.13250	234876
6.14062	314767
6.14873	520014
6.15687	777644
6.16498	953187
6.17312	872914
6.18123	647097
6.18935	477344
6.19748	371408
6.20560	317641
6.21373	274849
6.22185	239010
6.22997	216063
6.23810	203191
6.24622	198240
6.25433	209682
6.26247	215622
6.27058	237303
6.27872	259933
6.28683	271145
6.29495	251008
6.30308	234454
6.31120	208344
6.31933	214716
6.32745	200347
6.33557	213762
6.34370	218962
6.35182	226010
6.35993	222933
6.36807	227835
6.37618	218454
6.38432	204007
6.39243	203471
6.40055	205118
6.40868	217422
6.41680	209918
6.42493	204608
6.43305	211653
6.44117	208700
6.44930	207343
6.45742	211900
6.46555	220391
6.47367	227175
6.48178	230866
6.48992	222228
6.49803	222414
6.50615	225209
6.51428	194902
6.52240	167707
6.53053	161904
6.53865	161766
6.54677	153208
6.55490	154497
6.56302	141767
6.57115	144324
6.57927	180469
6.58738	259914
6.59552	411368
6.60363	595627
6.61175	655110
6.61988	581793
6.62800	443690
6.63613	318593
6.64425	241659
6.65237	203343
6.66050	175421
6.66862	161488
6.67675	151643
6.68487	154298
6.69298	153174
6.70112	156772
6.70923	149127
6.71737	143848
6.72548	128917
6.73360	125986
6.74173	115678
6.74985	111685
6.75797	119380
6.76610	121851
6.77422	118145
6.78235	121225
6.79047	116227
6.79858	117480
6.80672	121846
6.81483	120840
6.82297	123004
6.83108	116144
6.83920	109119
6.84733	109124
6.85545	105885
6.86358	114374
6.87170	109649
6.87982	114751
6.88795	121876
6.89607	127635
6.90418	129981
6.91232	137073
6.92043	123230
6.92857	115826
6.93668	101141
6.94480	99726
6.95293	96749
6.96105	101163
6.96918	98642
6.97730	102917
6.98542	109524
6.99355	109816
7.00167	122722
7.00978	116100
7.01792	116293
7.02603	112552
7.03417	104932
7.04228	112832
7.05040	106353
7.05853	103325
7.06665	100669
7.07478	91402
7.08290	92391
7.09102	94569
7.09915	105519
7.10727	116286
7.11540	152987
7.12352	173568
7.13163	199617
7.13977	193772
7.14788	221030
7.15600	398671
7.16413	1046419
7.17225	2435075
7.18038	4218583
7.18850	5421105
7.19662	5000414
7.20475	3394118
7.21287	1751235
7.22100	815932
7.22912	452494
7.23723	332957
7.24537	276818
7.25348	256382
7.26162	238565
7.26973	217582
7.27785	206491
7.28598	195315
7.29410	185411
7.30222	173131
7.31035	168259
7.31847	160508
7.32660	152630
7.33472	149576
7.34283	145923
7.35097	147118
7.35908	137506
7.36722	139880
7.37533	138336
7.38345	151254
7.39158	163896
7.39970	167456
7.40782	174474
7.41595	169974
7.42407	157328
7.43220	135374
7.44032	124806
7.44843	116209
7.45657	114963
7.46468	101374
7.47282	108639
7.48093	118953
7.48905	117295
7.49718	123730
7.50530	116942
7.51343	120895
7.52155	107950
7.52967	105752
7.53780	103093
7.54592	103516
7.55403	99309
7.56217	117330
7.57028	137366
7.57842	199308
7.58653	348589
7.59465	681869
7.60278	1241169
7.61090	1907438
7.61903	2459457
7.62715	2638531
7.63527	2432144
7.64340	1919857
7.65152	1340291
7.65965	867599
7.66777	580277
7.67588	418989
7.68402	357785
7.69213	380504
7.70025	451325
7.70838	508512
7.71650	535449
7.72463	540755
7.73275	522359
7.74087	479709
7.74900	444355
7.75712	416488
7.76525	394291
7.77337	358455
7.78148	339228
7.78962	324152
7.79773	296468
7.80585	275923
7.81398	267100
7.82210	268925
7.83023	285692
7.83835	287393
7.84647	293186
7.85460	279387
7.86272	236430
7.87085	226758
7.87897	211228
7.88708	213992
7.89522	218498
7.90333	237397
7.91147	247805
7.91958	280885
7.92770	283910
7.93583	292429
7.94395	259743
7.95207	251678
7.96020	246341
7.96832	245516
7.97645	226685
7.98457	214980
7.99268	190683
8.00082	176622
8.00893	158645
8.01707	152564
8.02518	144285
8.03330	132389
8.04143	142440
8.04955	133609
8.05767	127756
8.06580	118142
8.07392	114045
8.08205	117345
8.09017	116417
8.09828	105986
8.10642	105577
8.11453	110917
8.12267	103698
8.13078	100734
8.13890	117358
8.14703	132892
8.15515	160356
8.16328	201413
8.17140	226080
8.17952	208515
8.18765	190989
8.19577	157692
8.20388	134053
8.21202	125628
8.22013	111777
8.22827	112372
8.23638	104815
8.24450	97448
8.25263	98324
8.26075	94912
8.26888	93850
8.27700	89167
8.28512	86604
8.29325	86023
8.30137	87758
8.30950	83573
8.31762	80054
8.32573	83059
8.33387	84150
8.34198	84881
8.35010	83907
8.35823	93455
8.36635	99020
8.37448	98123
8.38260	89669
8.39072	87885
8.39885	86951
8.40697	81328
8.41510	80680
8.42322	78365
8.43133	73473
8.43947	79455
8.44758	74710
8.45570	73745
8.46383	73036
8.47195	66687
8.48008	77192
8.48820	71668
8.49632	75440
8.50445	80850
8.51257	100826
8.52070	115044
8.52882	150353
8.53693	152251
8.54507	151797
8.55318	113814
8.56132	91969
8.56943	83215
8.57755	79535
8.58568	73899
8.59380	69648
8.60192	69469
8.61005	71776
8.61817	76711
8.62630	70687
8.63442	79208
8.64253	73855
8.65067	82743
8.65878	90130
8.66692	99124
8.67503	100378
8.68315	108938
8.69128	98501
8.69940	90261
8.70753	72747
8.71565	76537
8.72377	74175
8.73190	72973
8.74002	71601
8.74813	82781
8.75627	72183
8.76438	70925
8.77252	66836
8.78063	78968
8.78875	98038
8.79688	153913
8.80500	236717
8.81313	337954
8.82125	390372
8.82937	373039
8.83750	311911
8.84562	252764
8.85373	209351
8.86187	175431
8.86998	154914
8.87812	138293
8.88623	128459
8.89435	122491
8.90248	120088
8.91060	111286
8.91873	128261
8.92685	156870
8.93497	188879
8.94310	206462
8.95122	193456
8.95935	160176
8.96747	140294
8.97558	109380
8.98372	111507
8.99183	118047
8.99995	144680
9.00808	159363
9.01620	170877
9.02433	159714
9.03245	138201
9.04057	121533
9.04870	103392
9.05682	94248
9.06495	87383
9.07307	87214
9.08118	78284
9.08932	78324
9.09743	77254
9.10555	81343
9.11368	93643
9.12180	115784
9.12993	167821
9.13805	204015
9.14617	228962
9.15430	221708
9.16242	185236
9.17055	149889
9.17867	121479
9.18678	101241
9.19492	96065
9.20303	87370
9.21117	84480
9.21928	76569
9.22740	87901
9.23553	78737
9.24365	73473
9.25177	75140
9.25990	73851
9.26802	69011
9.27615	67110
9.28427	70157
9.29238	65527
9.30052	65492
9.30863	67116
9.31677	64667
9.32488	63367
9.33300	66114
9.34113	61681
9.34925	59437
9.35738	63420
9.36550	60115
9.37362	65949
9.38175	63487
9.38987	57966
9.39798	62736
9.40612	56497
9.41423	56443
9.42237	66948
9.43048	79658
9.43860	104024
9.44673	142457
9.45485	191085
9.46298	231750
9.47110	255306
9.47922	263779
9.48735	232152
9.49547	195023
9.50358	177058
9.51172	155226
9.51983	143826
9.52797	138989
9.53608	131148
9.54420	139877
9.55233	134634
9.56045	132561
9.56858	124571
9.57670	109933
9.58482	98693
9.59295	91503
9.60107	80988
9.60920	79222
9.61732	73682
9.62543	72450
9.63357	68214
9.64168	70927
9.64980	63169
9.65793	65051
9.66605	71608
9.67418	56698
9.68230	65172
9.69042	57767
9.69855	63558
9.70667	62184
9.71480	69831
9.72292	69648
9.73103	65404
9.73917	67410
9.74728	60844
9.75542	56459
9.76353	55774
9.77165	58573
9.77978	57883
9.78790	53222
9.79602	56358
9.80415	56698
9.81227	54032
9.82040	50659
9.82852	55453
9.83663	49851
9.84477	56305
9.85288	58851
9.86102	57161
9.86913	54166
9.87725	54005
9.88538	56046
9.89350	54355
9.90162	55320
9.90975	53952
9.91787	53541
9.92600	52322
9.93412	50578
9.94223	57137
9.95037	57118
9.95848	66885
9.96662	71724
9.97473	97990
9.98285	133696
9.99098	195044
9.99910	262419
10.00723	287219
10.01535	282177
10.02347	247721
10.03160	203060
10.03972	167632
10.04783	141541
10.05597	127104
10.06408	116735
10.07222	107309
10.08033	94612
10.08845	90733
10.09658	77126
10.10470	72507
10.11283	72949
10.12095	72738
10.12907	65851
10.13720	65340
10.14532	67243
10.15343	63546
10.16157	63734
10.16968	60393
10.17782	61646
10.18593	59846
10.19405	57857
10.20218	56264
10.21030	53732
10.21843	62732
10.22655	56572
10.23467	59232
10.24280	60808
10.25092	65496
10.25905	116664
10.26717	290437
10.27528	747466
10.28342	1669850
10.29153	3037251
10.29965	4651364
10.30778	6610583
10.31590	9215140
10.32403	1.312021E+07
10.33215	1.825552E+07
10.34027	2.2796E+07
10.34840	2.438626E+07
10.35652	2.133418E+07
10.36465	1.489841E+07
10.37277	8863798
10.38088	5570652
10.38902	4349364
10.39713	4041271
10.40527	3902684
10.41338	3633461
10.42150	3178402
10.42963	2690383
10.43775	2210087
10.44587	1916646
10.45400	1659228
10.46212	1457240
10.47025	1251075
10.47837	1099847
10.48648	980012
10.49462	855260
10.50273	796659
10.51087	735887
10.51898	688085
10.52710	630526
10.53523	589172
10.54335	569455
10.55148	536337
10.55960	516668
10.56772	491834
10.57585	472829
10.58397	465721
10.59208	445450
10.60022	427327
10.60833	402707
10.61647	369915
10.62458	360822
10.63270	353045
10.64083	334037
10.64895	314449
10.65708	312804
10.66520	294123
10.67332	287241
10.68145	277364
10.68957	263413
10.69768	260460
10.70582	248940
10.71393	256993
10.72207	255280
10.73018	248116
10.73830	245925
10.74643	255434
10.75455	241468
10.76268	243559
10.77080	223882
10.77892	213992
10.78705	209560
10.79517	202660
10.80330	196778
10.81142	195105
10.81953	196428
10.82767	205151
10.83578	215021
10.84390	214079
10.85203	209520
10.86015	197071
10.86828	186242
10.87640	175766
10.88452	170233
10.89265	161132
10.90077	155584
10.90890	151418
10.91702	147398
10.92513	145026
10.93327	145509
10.94138	140904
10.94950	137584
10.95763	145191
10.96575	135743
10.97388	131636
10.98200	131057
10.99012	123079
10.99825	131202
11.00637	129864
11.01450	130137
11.02262	131353
11.03073	130819
11.03887	135728
11.04698	139609
11.05512	137793
11.06323	140746
11.07135	132430
11.07948	136475
11.08760	143997
11.09572	138561
11.10385	135246
11.11197	151043
11.12010	149404
11.12822	152969
11.13633	142241
11.14447	137785
11.15258	118466
11.16072	111884
11.16883	110346
11.17695	99495
11.18508	97520
11.19320	92439
11.20133	87656
11.20945	85160
11.21757	84249
11.22570	77319
11.23382	74174
11.24193	73857
11.25007	70590
11.25818	71250
11.26632	70939
11.27443	64679
11.28255	61240
11.29068	66114
11.29880	58064
11.30693	57960
11.31505	65650
11.32317	82855
11.33130	131286
11.33942	266508
11.34753	535319
11.35567	977746
11.36378	1491605
11.37192	1914140
11.38003	2110482
11.38815	2005304
11.39628	1717235
11.40440	1375581
11.41253	1050334
11.42065	794304
11.42877	595846
11.43690	472568
11.44502	399847
11.45315	329970
11.46127	294005
11.46938	249180
11.47752	224862
11.48563	213314
11.49375	206772
11.50188	202339
11.51000	207332
11.51813	218690
11.52625	230074
11.53437	257209
11.54250	274076
11.55062	275665
11.55875	257958
11.56687	232841
11.57498	201230
11.58312	196988
11.59123	196478
11.59937	213601
11.60748	261457
11.61560	337561
11.62373	396814
11.63185	416996
11.63997	386143
11.64810	319838
11.65622	253045
11.66435	203408
11.67247	170265
11.68058	141848
11.68872	138122
11.69683	122732
11.70497	120646
11.71308	127828
11.72120	124320
11.72933	126514
11.73745	130969
11.74557	124186
11.75370	116348
11.76182	104067
11.76995	99589
11.77807	98389
11.78618	92953
11.79432	85426
11.80243	89872
11.81057	85899
11.81868	84891
11.82680	81570
11.83493	76039
11.84305	78434
11.85118	81639
11.85930	77868
11.86742	78203
11.87555	71518
11.88367	74431
11.89178	80787
11.89992	71626
11.90803	75023
11.91617	71584
11.92428	70880
11.93240	81351
11.94053	72085
11.94865	74967
11.95678	75511
11.96490	69707
11.97302	66798
11.98115	69565
11.98927	66419
11.99738	62941
12.00552	65073
12.01363	63410
12.02177	62541
12.02988	60314
12.03800	59123
12.04613	63292
12.05425	59621
12.06238	58121
12.07050	66599
12.07862	69811
12.08675	64978
12.09487	65896
12.10300	63564
12.11112	67136
12.11923	85114
12.12737	110402
12.13548	180139
12.14360	315434
12.15173	538208
12.15985	770903
12.16798	954341
12.17610	1049549
12.18422	951224
12.19235	759101
12.20047	578889
12.20860	414528
12.21672	305895
12.22483	220867
12.23297	182212
12.24108	147360
12.24922	138337
12.25733	119132
12.26545	113077
12.27358	101156
12.28170	104066
12.28982	96270
12.29795	96234
12.30607	90902
12.31420	81751
12.32232	82586
12.33043	79903
12.33857	74252
12.34668	68614
12.35482	71196
12.36293	68121
12.37105	71594
12.37918	66142
12.38730	71042
12.39542	67464
12.40355	78436
12.41167	98427
12.41980	122247
12.42792	158511
12.43603	179230
12.44417	182338
12.45228	161065
12.46042	135964
12.46853	114289
12.47665	99717
12.48478	88438
12.49290	87747
12.50103	81532
12.50915	82123
12.51727	73283
12.52540	76707
12.53352	81577
12.54163	79662
12.54977	94152
12.55788	119237
12.56602	150949
12.57413	181195
12.58225	181177
12.59038	170104
12.59850	144826
12.60663	135444
12.61475	113622
12.62287	100663
12.63100	87493
12.63912	78124
12.64725	82222
12.65537	78131
12.66348	71506
12.67162	76098
12.67973	70682
12.68785	65639
12.69598	67522
12.70410	62721
12.71223	64013
12.72035	63821
12.72847	64067
12.73660	60799
12.74472	65460
12.75285	69275
12.76097	69056
12.76908	66225
12.77722	61912
12.78533	58586
12.79345	57873
12.80158	56799
12.80970	54604
12.81783	51352
12.82595	51213
12.83407	56217
12.84220	49073
12.85032	47910
12.85845	43697
12.86657	49527
12.87468	51426
12.88282	48707
12.89093	44200
12.89907	46690
12.90718	44515
12.91530	46034
12.92343	44194
12.93155	44978
12.93967	43785
12.94780	47973
12.95592	46110
12.96405	49208
12.97217	56624
12.98028	48879
12.98842	55080
12.99653	59310
13.00467	53615
13.01278	51727
13.02090	46788
13.02903	50296
13.03715	50903
13.04528	48795
13.05340	46128
13.06152	50597
13.06965	47565
13.07777	44574
13.08588	53097
13.09402	49745
13.10213	53292
13.11027	50562
13.11838	48936
13.12650	48130
13.13463	50342
13.14275	47981
13.15088	47680
13.15900	44274
13.16712	43565
13.17525	50639
13.18337	51965
13.19148	51424
13.19962	52374
13.20773	52603
13.21587	45103
13.22398	50538
13.23210	49826
13.24023	51097
13.24835	54457
13.25648	60597
13.26460	56845
13.27272	60727
13.28085	58650
13.28897	57280
13.29710	55911
13.30522	54844
13.31333	45940
13.32147	42626
13.32958	41090
13.33770	43375
13.34583	46987
13.35395	45215
13.36208	41814
13.37020	43591
13.37832	46108
13.38645	39674
13.39457	43079
13.40270	41287
13.41082	44496
13.41893	45135
13.42707	39682
13.43518	40588
13.44330	38274
13.45143	45481
13.45955	42444
13.46768	44656
13.47580	41134
13.48392	50247
13.49205	43392
13.50017	47619
13.50830	49226
13.51642	48820
13.52453	52396
13.53267	55712
13.54078	54326
13.54892	55413
13.55703	46984
13.56515	51540
13.57328	41206
13.58140	43990
13.58952	43925
13.59765	52388
13.60577	58968
13.61390	71154
13.62202	81141
13.63013	84240
13.63827	95653
13.64638	86740
13.65452	77524
13.66263	63505
13.67075	57034
13.67888	52680
13.68700	49136
13.69513	49866
13.70325	50224
13.71137	47394
13.71950	45673
13.72762	44234
13.73573	46729
13.74387	43290
13.75198	46190
13.76012	53343
13.76823	70258
13.77635	82823
13.78448	111584
13.79260	147302
13.80073	205776
13.80885	254382
13.81697	286002
13.82510	316401
13.83322	310870
13.84133	369520
13.84947	452195
13.85758	528621
13.86572	562822
13.87383	552080
13.88195	475751
13.89008	397154
13.89820	301622
13.90633	238124
13.91445	191214
13.92257	158369
13.93070	140283
13.93882	120667
13.94695	114089
13.95507	104069
13.96318	101374
13.97132	91656
13.97943	89998
13.98755	87380
13.99568	80126
14.00380	79496
14.01193	82954
14.02005	78492
14.02817	78694
14.03630	74086
14.04442	73001
14.05255	69265
14.06067	77494
14.06878	65379
14.07692	63925
14.08503	61877
14.09317	63460
14.10128	57904
14.10940	61421
14.11753	62001
14.12565	58713
14.13377	57092
14.14190	66740
14.15002	61240
14.15815	62085
14.16627	60629
14.17438	68571
14.18252	70899
14.19063	75959
14.19877	83734
14.20688	82934
14.21500	83162
14.22313	75387
14.23125	78837
14.23937	79734
14.24750	84336
14.25562	97025
14.26375	104180
14.27187	123119
14.27998	129206
14.28812	129303
14.29623	113475
14.30437	94244
14.31248	81941
14.32060	70420
14.32873	56189
14.33685	57653
14.34498	57234
14.35310	58221
14.36122	57627
14.36935	57289
14.37747	58223
14.38558	54496
14.39372	58296
14.40183	56802
14.40997	66039
14.41808	88655
14.42620	107708
14.43433	122034
14.44245	128740
14.45058	122846
14.45870	110676
14.46682	88947
14.47495	74799
14.48307	73810
14.49118	73956
14.49932	72614
14.50743	79760
14.51557	76923
14.52368	75542
14.53180	75612
14.53993	67264
14.54805	66524
14.55618	63310
14.56430	61265
14.57242	58771
14.58055	54425
14.58867	55091
14.59680	55284
14.60492	52617
14.61303	50172
14.62117	50750
14.62928	51172
14.63740	46247
14.64553	45448
14.65365	51388
14.66178	52343
14.66990	43420
14.67802	47091
14.68615	45551
14.69427	41175
14.70240	45085
14.71052	48128
14.71863	43051
14.72677	44607
14.73488	47803
14.74302	48358
14.75113	41488
14.75925	44972
14.76738	49052
14.77550	53959
14.78362	54317
14.79175	70050
14.79987	122482
14.80800	325423
14.81612	941167
14.82423	2300063
14.83237	4649972
14.84048	7411794
14.84862	1.012939E+07
14.85673	1.144359E+07
14.86485	1.028518E+07
14.87298	7490487
14.88110	4595800
14.88922	2604659
14.89735	1556847
14.90547	1035890
14.91360	769885
14.92172	635639
14.92983	535448
14.93797	477798
14.94608	433787
14.95422	385441
14.96233	365688
14.97045	347090
14.97858	316773
14.98670	298494
14.99483	282809
15.00295	269870
15.01107	247297
15.01920	236670
15.02732	232898
15.03543	224969
15.04357	207950
15.05168	203563
15.05982	188705
15.06793	189369
15.07605	180325
15.08418	170684
15.09230	164936
15.10043	161500
15.10855	151311
15.11667	141953
15.12480	144426
15.13292	149885
15.14105	174670
15.14917	191037
15.15728	218971
15.16542	222556
15.17353	211767
15.18165	171455
15.18978	133075
15.19790	115030
15.20603	86628
15.21415	76708
15.22227	78323
15.23040	73441
15.23852	67769
15.24665	70135
15.25477	66567
15.26288	61150
15.27102	60792
15.27913	61709
15.28725	65903
15.29538	59665
15.30350	63189
15.31163	57978
15.31975	58484
15.32787	54220
15.33600	57466
15.34412	53718
15.35225	52994
15.36037	52807
15.36848	57651
15.37662	55914
15.38473	57714
15.39287	58373
15.40098	59723
15.40910	57974
15.41723	61768
15.42535	60736
15.43347	56908
15.44160	53451
15.44972	55891
15.45785	56402
15.46597	53800
15.47408	52460
15.48222	60200
15.49033	80202
15.49847	113084
15.50658	164439
15.51470	237240
15.52283	298727
15.53095	349162
15.53908	355078
15.54720	317802
15.55532	263534
15.56345	199686
15.57157	150052
15.57968	120704
15.58782	98116
15.59593	86014
15.60407	80157
15.61218	73563
15.62030	68360
15.62843	69991
15.63655	67826
15.64468	62340
15.65280	63057
15.66092	62798
15.66905	59879
15.67717	64875
15.68528	60709
15.69342	54588
15.70153	58490
15.70967	59279
15.71778	59256
15.72590	53319
15.73403	50064
15.74215	51936
15.75028	59179
15.75840	65876
15.76652	90107
15.77465	163691
15.78277	309251
15.79090	538720
15.79902	771076
15.80713	911786
15.81527	874548
15.82338	703716
15.83150	462633
15.83963	302515
15.84775	195346
15.85588	137448
15.86400	117839
15.87212	106757
15.88025	99830
15.88837	92239
15.89650	80449
15.90462	83511
15.91273	73741
15.92087	75946
15.92898	78090
15.93712	71230
15.94523	72797
15.95335	75099
15.96148	68318
15.96960	64541
15.97772	69734
15.98585	65891
15.99397	65620
16.00210	60060
16.01022	62192
16.01833	63220
16.02647	65214
16.03458	70137
16.04272	65345
16.05083	69783
16.05895	69512
16.06708	63126
16.07520	63056
16.08332	60353
16.09145	56123
16.09957	51295
16.10770	47347
16.11582	48126
16.12393	58174
16.13207	55307
16.14018	59605
16.14832	65499
16.15643	67467
16.16455	80990
16.17268	86283
16.18080	85055
16.18893	79084
16.19705	73899
16.20517	72406
16.21330	62580
16.22142	65455
16.22953	66238
16.23767	62625
16.24578	65443
16.25392	62374
16.26203	58413
16.27015	59180
16.27828	56441
16.28640	51528
16.29453	58413
16.30265	56528
16.31077	67026
16.31890	78436
16.32702	78461
16.33513	78972
16.34327	76328
16.35138	71592
16.35952	64338
16.36763	64526
16.37575	59146
16.38388	61433
16.39200	56169
16.40013	55352
16.40825	52772
16.41637	58808
16.42450	52750
16.43262	52380
16.44075	63158
16.44887	74558
16.45698	108979
16.46512	235213
16.47323	543510
16.48135	1140732
16.48948	1932016
16.49760	2639328
16.50573	2836852
16.51385	2558583
16.52197	1855953
16.53010	1124114
16.53822	660396
16.54635	380197
16.55447	267283
16.56258	203180
16.57072	173596
16.57883	159234
16.58697	142216
16.59508	138735
16.60320	133243
16.61133	124697
16.61945	113212
16.62757	108964
16.63570	105839
16.64382	98864
16.65195	89482
16.66007	93947
16.66818	87621
16.67632	86409
16.68443	85442
16.69257	81862
16.70068	82138
16.70880	80964
16.71693	73530
16.72505	77179
16.73317	66812
16.74130	64847
16.74942	63765
16.75755	69920
16.76567	77012
16.77378	86117
16.78192	100910
16.79003	102400
16.79817	92963
16.80628	84017
16.81440	75338
16.82253	59611
16.83065	53067
16.83878	53361
16.84690	55578
16.85502	53682
16.86315	54772
16.87127	48341
16.87938	50504
16.88752	46272
16.89563	47242
16.90377	50582
16.91188	49328
16.92000	45388
16.92813	50242
16.93625	46485
16.94438	52411
16.95250	47210
16.96062	51546
16.96875	47860
16.97687	46983
16.98500	48028
16.99312	46966
17.00123	51543
17.00937	47533
17.01748	50690
17.02560	48028
17.03373	51621
17.04185	59058
17.04998	57923
17.05810	70790
17.06622	80750
17.07435	88309
17.08247	95808
17.09060	83346
17.09872	73589
17.10683	63287
17.11497	62204
17.12308	58807
17.13120	54079
17.13933	59785
17.14745	68557
17.15558	61026
17.16370	65553
17.17182	63770
17.17995	60190
17.18807	58774
17.19620	57704
17.20432	54285
17.21243	52526
17.22057	53689
17.22868	51150
17.23682	47411
17.24493	51099
17.25305	56082
17.26118	49340
17.26930	55169
17.27742	49651
17.28555	49114
17.29367	55640
17.30180	49323
17.30992	49296
17.31803	46051
17.32617	49579
17.33428	59524
17.34242	75246
17.35053	86970
17.35865	113407
17.36678	124670
17.37490	138120
17.38302	116921
17.39115	104518
17.39927	87257
17.40740	75491
17.41552	71480
17.42363	60567
17.43177	61613
17.43988	63745
17.44802	67457
17.45613	72575
17.46425	68478
17.47238	69492
17.48050	62429
17.48863	55737
17.49675	62045
17.50487	52341
17.51300	52619
17.52112	51961
17.52923	46306
17.53737	48109
17.54548	48734
17.55362	46615
17.56173	53089
17.56985	64200
17.57798	92060
17.58610	190351
17.59423	375942
17.60235	736112
17.61047	1257648
17.61860	1778629
17.62672	2100222
17.63485	2017320
17.64297	1734204
17.65108	1317379
17.65922	908034
17.66733	634947
17.67545	448809
17.68358	346764
17.69170	279513
17.69983	242919
17.70795	206259
17.71607	190666
17.72420	170567
17.73232	168090
17.74045	154357
17.74857	147797
17.75668	134829
17.76482	133423
17.77293	126107
17.78105	119313
17.78918	114545
17.79730	108370
17.80543	103192
17.81355	92218
17.82167	86118
17.82980	84539
17.83792	78723
17.84605	81124
17.85417	85180
17.86228	98492
17.87042	123595
17.87853	152834
17.88667	167906
17.89478	160269
17.90290	145144
17.91103	114033
17.91915	91910
17.92727	77290
17.93540	67996
17.94352	64754
17.95165	61518
17.95977	54611
17.96788	60642
17.97602	57353
17.98413	59436
17.99227	55270
18.00038	55520
18.00850	54608
18.01663	61181
18.02475	72868
18.03288	89880
18.04100	127250
18.04912	163488
18.05725	213988
18.06537	272455
18.07348	426229
18.08162	806925
18.08973	1559027
18.09787	2718363
18.10598	3774102
18.11410	4356893
18.12223	4051983
18.13035	3181524
18.13848	2160408
18.14660	1355898
18.15472	917005
18.16285	667401
18.17097	559229
18.17908	460303
18.18722	419207
18.19533	378327
18.20347	331329
18.21158	295227
18.21970	282674
18.22783	257963
18.23595	243595
18.24408	225147
18.25220	211008
18.26032	211063
18.26845	203846
18.27657	188074
18.28470	170006
18.29282	153938
18.30093	127924
18.30907	107266
18.31718	89593
18.32530	81670
18.33343	73380
18.34155	71084
18.34968	66719
18.35780	65881
18.36592	62238
18.37405	68468
18.38217	60840
18.39030	60312
18.39842	61128
18.40653	60327
18.41467	59136
18.42278	64501
18.43092	78057
18.43903	75617
18.44715	97064
18.45528	121429
18.46340	161912
18.47152	232507
18.47965	358555
18.48777	508096
18.49590	653773
18.50402	751178
18.51213	739827
18.52027	610297
18.52838	476584
18.53652	338002
18.54463	246784
18.55275	186682
18.56088	147773
18.56900	130957
18.57712	119635
18.58525	110614
18.59337	94655
18.60150	92570
18.60962	86255
18.61773	92689
18.62587	85153
18.63398	90555
18.64212	98562
18.65023	100312
18.65835	94153
18.66648	88325
18.67460	84640
18.68273	73925
18.69085	64680
18.69897	62383
18.70710	60815
18.71522	58961
18.72333	56242
18.73147	57161
18.73958	57441
18.74772	57092
18.75583	53543
18.76395	49394
18.77208	53371
18.78020	55892
18.78833	49993
18.79645	51738
18.80457	49278
18.81270	44836
18.82082	58206
18.82893	48122
18.83707	53186
18.84518	56663
18.85332	54062
18.86143	56110
18.86955	56685
18.87768	57701
18.88580	60570
18.89393	59577
18.90205	70788
18.91017	68838
18.91830	63746
18.92642	64475
18.93455	69838
18.94267	71438
18.95078	65186
18.95892	77284
18.96703	78519
18.97515	74716
18.98328	73535
18.99140	75637
18.99953	71073
19.00765	62501
19.01577	58307
19.02390	59141
19.03202	52431
19.04015	51766
19.04827	51350
19.05638	49790
19.06452	50649
19.07263	52245
19.08077	55056
19.08888	53516
19.09700	52450
19.10513	64062
19.11325	74743
19.12137	93462
19.12950	89845
19.13762	88199
19.14575	79328
19.15387	69307
19.16198	56472
19.17012	50463
19.17823	52410
19.18637	49890
19.19448	47950
19.20260	46859
19.21073	46511
19.21885	49774
19.22697	44689
19.23510	47988
19.24322	48299
19.25135	48107
19.25947	48765
19.26758	46248
19.27572	46646
19.28383	44995
19.29197	46908
19.30008	53919
19.30820	57621
19.31633	59632
19.32445	58203
19.33258	60773
19.34070	51988
19.34882	54504
19.35695	63061
19.36507	81795
19.37318	97705
19.38132	149356
19.38943	187165
19.39757	208031
19.40568	200965
19.41380	173113
19.42193	122313
19.43005	93898
19.43818	81119
19.44630	63496
19.45442	55365
19.46255	60649
19.47067	53625
19.47880	56296
19.48692	57956
19.49503	52892
19.50317	62500
19.51128	67471
19.51940	69708
19.52753	69303
19.53565	77522
19.54378	82042
19.55190	78971
19.56002	79197
19.56815	82578
19.57627	80207
19.58440	70777
19.59252	66340
19.60063	60855
19.60877	56666
19.61688	52292
19.62500	51423
19.63313	56199
19.64125	56597
19.64938	52613
19.65750	57705
19.66562	61192
19.67375	77365
19.68187	102064
19.69000	122913
19.69812	156152
19.70623	161933
19.71437	171376
19.72248	176792
19.73062	172657
19.73873	149288
19.74685	138600
19.75498	122232
19.76310	104321
19.77122	95892
19.77935	84802
19.78747	93306
19.79560	100753
19.80372	115941
19.81183	145605
19.81997	166848
19.82808	187173
19.83622	170756
19.84433	145251
19.85245	123519
19.86058	106094
19.86870	91873
19.87682	82498
19.88495	108784
19.89307	153684
19.90120	232064
19.90932	322538
19.91743	393272
19.92557	396392
19.93368	369423
19.94182	271772
19.94993	195110
19.95805	143657
19.96618	101911
19.97430	80572
19.98243	76037
19.99055	71283
19.99867	67962
20.00680	65789
20.01492	62277
20.02303	70035
20.03117	64474
20.03928	68815
20.04742	65373
20.05553	67501
20.06365	69212
20.07178	71058
20.07990	89662
20.08803	111799
20.09615	128938
20.10427	152196
20.11240	163531
20.12052	169333
20.12865	161093
20.13677	150932
20.14488	145667
20.15302	144205
20.16113	147776
20.16925	170377
20.17738	228338
20.18550	329070
20.19363	453396
20.20175	609796
20.20987	754720
20.21800	823212
20.22612	813427
20.23425	726567
20.24237	580494
20.25048	494922
20.25862	442327
20.26673	454360
20.27485	519318
20.28298	594612
20.29110	703979
20.29923	736773
20.30735	740914
20.31547	676514
20.32360	582823
20.33172	462997
20.33985	368376
20.34797	299138
20.35608	247549
20.36422	220701
20.37233	190556
20.38047	175874
20.38858	169861
20.39670	168729
20.40483	159770
20.41295	147615
20.42107	155272
20.42920	135140
20.43732	139492
20.44545	135488
20.45357	137163
20.46168	141116
20.46982	141465
20.47793	140251
20.48607	141266
20.49418	137657
20.50230	135587
20.51043	122559
20.51855	116266
20.52668	113997
20.53480	116881
20.54292	124460
20.55105	123585
20.55917	122496
20.56728	122596
20.57542	125009
20.58353	124458
20.59167	124421
20.59978	118722
20.60790	107968
20.61603	112654
20.62415	116252
20.63228	112020
20.64040	101024
20.64852	112468
20.65665	114714
20.66477	117974
20.67288	127501
20.68102	120315
20.68913	118960
20.69727	118377
20.70538	115379
20.71350	110551
20.72163	109775
20.72975	104806
20.73788	106404
20.74600	102253
20.75412	100324
20.76225	111209
20.77037	120027
20.77850	124641
20.78662	125667
20.79473	146488
20.80287	202425
20.81098	298400
20.81910	467754
20.82723	705942
20.83535	889178
20.84348	971168
20.85160	903143
20.85972	700504
20.86785	490014
20.87597	326998
20.88410	233862
20.89222	172106
20.90033	153883
20.90847	138620
20.91658	137446
20.92470	136080
20.93283	137064
20.94095	145779
20.94908	151608
20.95720	155449
20.96532	147386
20.97345	152640
20.98157	142554
20.98970	132981
20.99782	122353
21.00593	116351
21.01407	109115
21.02218	106368
21.03032	104514
21.03843	107023
21.04655	105121
21.05468	111451
21.06280	103229
21.07092	111724
21.07905	102674
21.08717	104553
21.09530	104529
21.10342	101865
21.11153	97338
21.11967	95504
21.12778	96715
21.13592	92189
21.14403	115064
21.15215	133724
21.16028	169691
21.16840	231808
21.17653	278643
21.18465	315174
21.19277	310004
21.20090	260783
21.20902	215424
21.21713	168544
21.22527	138418
21.23338	124370
21.24152	115073
21.24963	108306
21.25775	101487
21.26588	95061
21.27400	92021
21.28213	90166
21.29025	87468
21.29837	90498
21.30650	86501
21.31462	86931
21.32275	91122
21.33087	85289
21.33898	91284
21.34712	85478
21.35523	85705
21.36335	87523
21.37148	86710
21.37960	88151
21.38773	91605
21.39585	96835
21.40397	117368
21.41210	141912
21.42022	166230
21.42835	189137
21.43647	202302
21.44458	185184
21.45272	166010
21.46083	140440
21.46895	122643
21.47708	105098
21.48520	102952
21.49333	93425
21.50145	92683
21.50957	92308
21.51770	92687
21.52582	88938
21.53395	79570
21.54207	82402
21.55018	82186
21.55832	83119
21.56643	87426
21.57457	82634
21.58268	88893
21.59080	98514
21.59893	109483
21.60705	121547
21.61517	132293
21.62330	124115
21.63142	118674
21.63955	102026
21.64767	100894
21.65578	101542
21.66392	100709
21.67203	107670
21.68017	123643
21.68828	139350
21.69640	147105
21.70453	154974
21.71265	150844
21.72077	134972
21.72890	124422
21.73702	109021
21.74515	98427
21.75327	89141
21.76138	86218
21.76952	87587
21.77763	85044
21.78577	78494
21.79388	78011
21.80200	73304
21.81013	79677
21.81825	81564
21.82638	82549
21.83450	81857
21.84262	85614
21.85075	81448
21.85887	86262
21.86698	81972
21.87512	90724
21.88323	93857
21.89137	85950
21.89948	89634
21.90760	94558
21.91573	83501
21.92385	87331
21.93198	87789
21.94010	87083
21.94822	79992
21.95635	77619
21.96447	73504
21.97260	74337
21.98072	65726
21.98883	65034
21.99697	69626
22.00508	66587
22.01320	67503
22.02133	71453
22.02945	66565
22.03758	71953
22.04570	78223
22.05382	83864
22.06195	86770
22.07007	87210
22.07820	87413
22.08632	80195
22.09443	74844
22.10257	76681
22.11068	74709
22.11880	70682
22.12693	67913
22.13505	63135
22.14318	64965
22.15130	65512
22.15942	65613
22.16755	71751
22.17567	60476
22.18380	64794
22.19192	56849
22.20003	62464
22.20817	64289
22.21628	67045
22.22442	59698
22.23253	63525
22.24065	67450
22.24878	66330
22.25690	64090
22.26502	69751
22.27315	62581
22.28127	67773
22.28940	72048
22.29752	81306
22.30563	82248
22.31377	83986
22.32188	89346
22.33002	83917
22.33813	80756
22.34625	74968
22.35438	76159
22.36250	71479
22.37063	72963
22.37875	68246
22.38687	72534
22.39500	76185
22.40312	83204
22.41123	108279
22.41937	151248
22.42748	207032
22.43562	257661
22.44373	280331
22.45185	276929
22.45998	225521
22.46810	184511
22.47623	145583
22.48435	111321
22.49247	103749
22.50060	106339
22.50872	117105
22.51683	140320
22.52497	154389
22.53308	161406
22.54122	150108
22.54933	143086
22.55745	127817
22.56558	112737
22.57370	98967
22.58183	88645
22.58995	82332
22.59807	69905
22.60620	68021
22.61432	66049
22.62245	66091
22.63057	60805
22.63868	65385
22.64682	62611
22.65493	60831
22.66305	67467
22.67118	67864
22.67930	68687
22.68743	72137
22.69555	73515
22.70367	84075
22.71180	106400
22.71992	118478
22.72805	139987
22.73617	166258
22.74428	169361
22.75242	159147
22.76053	139153
22.76865	119816
22.77678	97822
22.78490	100821
22.79303	103413
22.80115	123313
22.80927	166371
22.81740	225939
22.82552	276872
22.83365	293531
22.84177	291042
22.84988	258119
22.85802	201502
22.86613	155317
22.87427	128015
22.88238	129930
22.89050	130519
22.89863	141744
22.90675	152864
22.91487	165321
22.92300	175543
22.93112	175905
22.93925	193758
22.94737	207061
22.95548	198273
22.96362	169691
22.97173	150680
22.97987	127730
22.98798	105954
22.99610	80768
23.00423	72040
23.01235	69370
23.02048	61107
23.02860	65547
23.03672	57654
23.04485	60599
23.05297	57815
23.06108	60674
23.06922	66607
23.07733	63180
23.08547	63424
23.09358	73387
23.10170	78368
23.10983	66314
23.11795	67253
23.12608	64224
23.13420	66754
23.14232	59513
23.15045	59652
23.15857	53965
23.16668	56270
23.17482	58082
23.18293	57893
23.19107	50802
23.19918	56252
23.20730	55925
23.21543	54129
23.22355	57076
23.23168	51778
23.23980	54754
23.24792	55200
23.25605	59880
23.26417	68605
23.27230	77706
23.28042	85414
23.28853	103297
23.29667	95222
23.30478	90928
23.31290	83292
23.32103	72346
23.32915	66114
23.33728	64925
23.34540	68985
23.35352	82915
23.36165	99799
23.36977	136716
23.37790	156704
23.38602	174634
23.39413	182755
23.40227	174464
23.41038	162713
23.41852	140274
23.42663	116707
23.43475	105734
23.44288	94047
23.45100	86487
23.45912	77095
23.46725	77271
23.47537	65452
23.48350	64668
23.49162	60779
23.49973	64943
23.50787	59806
23.51598	65449
23.52412	56949
23.53223	61079
23.54035	60010
23.54848	59349
23.55660	61463
23.56472	66779
23.57285	67725
23.58097	75615
23.58910	88582
23.59722	109993
23.60533	138862
23.61347	170934
23.62158	192533
23.62972	194644
23.63783	187476
23.64595	150498
23.65408	127698
23.66220	97134
23.67033	89149
23.67845	88294
23.68657	84944
23.69470	74916
23.70282	73045
23.71093	72592
23.71907	63079
23.72718	56762
23.73532	57156
23.74343	60363
23.75155	58648
23.75968	54399
23.76780	56690
23.77593	68390
23.78405	95357
23.79217	141547
23.80030	217100
23.80842	308289
23.81653	367188
23.82467	391254
23.83278	371689
23.84092	320712
23.84903	271827
23.85715	215869
23.86528	178693
23.87340	155339
23.88153	139152
23.88965	122026
23.89777	117516
23.90590	118283
23.91402	130082
23.92215	149131
23.93027	169383
23.93838	192560
23.94652	185246
23.95463	170425
23.96275	145488
23.97088	129171
23.97900	105334
23.98713	89251
23.99525	87468
24.00337	79928
24.01150	73414
24.01962	78425
24.02775	78141
24.03587	78723
24.04398	83029
24.05212	86486
24.06023	83135
24.06837	81181
24.07648	74768
24.08460	69176
24.09273	70158
24.10085	64341
24.10897	66985
24.11710	63130
24.12522	62134
24.13335	62822
24.14147	65312
24.14958	67974
24.15772	74934
24.16583	84001
24.17397	89041
24.18208	100899
24.19020	100569
24.19833	100857
24.20645	109252
24.21457	103167
24.22270	102239
24.23082	95421
24.23895	89573
24.24707	75309
24.25518	70787
24.26332	67885
24.27143	62968
24.27957	63874
24.28768	62202
24.29580	63054
24.30393	64512
24.31205	64062
24.32018	64481
24.32830	66827
24.33642	68528
24.34455	70118
24.35267	75140
24.36078	68590
24.36892	66838
24.37703	64293
24.38517	59557
24.39328	61081
24.40140	53721
24.40953	61109
24.41765	54726
24.42578	55290
24.43390	64161
24.44202	63250
24.45015	57198
24.45827	58357
24.46640	63440
24.47452	58591
24.48263	55048
24.49077	57521
24.49888	58995
24.50700	54986
24.51513	52456
24.52325	55503
24.53138	63804
24.53950	64678
24.54762	67720
24.55575	84760
24.56387	98872
24.57200	111951
24.58012	117608
24.58823	120778
24.59637	122980
24.60448	102534
24.61260	91647
24.62073	76209
24.62885	74061
24.63698	70052
24.64510	65526
24.65322	66232
24.66135	59631
24.66947	54947
24.67760	58556
24.68572	58896
24.69383	56749
24.70197	57488
24.71008	54542
24.71822	57394
24.72633	55678
24.73445	61561
24.74258	57920
24.75070	60074
24.75882	59962
24.76695	54997
24.77507	65448
24.78320	69791
24.79132	73433
24.79943	76416
24.80757	78792
24.81568	85588
24.82382	83772
24.83193	91232
24.84005	92507
24.84818	108792
24.85630	133953
24.86443	182159
24.87255	254799
24.88067	382354
24.88880	543478
24.89692	759000
24.90503	963257
24.91317	1138314
24.92128	1141780
24.92942	1022747
24.93753	781616
24.94565	536413
24.95378	356216
24.96190	239955
24.97003	160251
24.97815	120538
24.98627	95193
24.99440	80720
25.00252	72470
25.01063	71053
25.01877	70818
25.02688	65202
25.03502	63021
25.04313	60583
25.05125	68493
25.05938	60671
25.06750	64240
25.07563	71927
25.08375	65513
25.09187	72299
25.10000	73930
25.10812	91429
25.11625	155354
25.12437	364631
25.13248	819198
25.14062	1691215
25.14873	3108195
25.15685	4681778
25.16498	5706210
25.17310	6018774
25.18123	5225300
25.18935	3816240
25.19747	2483986
25.20560	1425129
25.21372	793405
25.22185	456725
25.22997	286311
25.23808	205066
25.24622	166727
25.25433	163173
25.26245	195347
25.27058	243422
25.27870	313441
25.28683	375258
25.29495	397957
25.30307	381043
25.31120	326246
25.31932	254464
25.32745	184204
25.33557	147827
25.34368	116610
25.35182	103219
25.35993	85842
25.36807	79028
25.37618	75724
25.38430	72367
25.39243	70108
25.40055	68805
25.40867	60898
25.41680	61517
25.42492	66163
25.43305	66627
25.44117	64883
25.44928	63619
25.45742	62443
25.46553	57669
25.47367	62597
25.48178	59182
25.48990	62684
25.49803	59871
25.50615	66204
25.51428	63432
25.52240	58588
25.53052	54739
25.53865	52944
25.54677	54077
25.55488	53704
25.56302	58125
25.57113	53200
25.57927	54611
25.58738	55832
25.59550	57364
25.60363	52586
25.61175	55796
25.61988	57305
25.62800	57888
25.63612	54970
25.64425	59642
25.65237	52863
25.66048	54998
25.66862	53663
25.67673	54062
25.68487	56296
25.69298	58517
25.70110	61504
25.70923	68632
25.71735	71605
25.72548	59901
25.73360	66154
25.74172	59343
25.74985	63455
25.75797	57445
25.76610	57120
25.77422	50829
25.78233	51203
25.79047	57742
25.79858	52065
25.80670	51366
25.81483	48131
25.82295	50853
25.83108	54561
25.83920	47490
25.84732	52968
25.85545	48925
25.86357	51674
25.87170	47946
25.87982	49842
25.88793	50998
25.89607	47071
25.90418	56104
25.91232	54071
25.92043	57389
25.92855	54133
25.93668	52033
25.94480	51636
25.95292	51429
25.96105	51754
25.96917	46839
25.97730	56939
25.98542	48026
25.99353	52482
26.00167	48105
26.00978	48855
26.01792	52088
26.02603	46580
26.03415	48342
26.04228	46483
26.05040	50836
26.05852	48921
26.06665	51847
26.07477	53607
26.08290	55037
26.09102	54318
26.09913	55853
26.10727	57756
26.11538	59445
26.12352	57447
26.13163	56866
26.13975	51132
26.14788	50882
26.15600	55535
26.16413	53573
26.17225	56199
26.18037	60171
26.18850	60260
26.19662	57580
26.20473	62022
26.21287	56583
26.22098	57464
26.22912	57430
26.23723	55924
26.24535	55003
26.25348	50329
26.26160	52966
26.26973	54267
26.27785	53443
26.28597	48276
26.29410	50362
26.30222	49501
26.31033	49509
26.31847	56568
26.32658	54582
26.33472	55880
26.34283	57198
26.35095	61367
26.35908	60804
26.36720	74595
26.37533	114194
26.38345	168319
26.39157	261483
26.39970	401521
26.40782	510217
26.41595	602802
26.42407	626723
26.43218	545258
26.44032	416352
26.44843	291596
26.45655	189288
26.46468	132847
26.47280	91880
26.48093	79467
26.48905	76112
26.49717	69340
26.50530	68709
26.51342	68058
26.52155	60029
26.52967	62123
26.53778	56039
26.54592	53301
26.55403	50175
26.56217	48021
26.57028	46826
26.57840	47220
26.58653	49194
26.59465	48231
26.60277	52375
26.61090	51342
26.61902	45688
26.62715	46956
26.63527	47385
26.64338	48838
26.65152	46449
26.65963	46775
26.66777	50346
26.67588	45293
26.68400	50701
26.69213	55681
26.70025	69621
26.70837	94478
26.71650	128187
26.72462	148528
26.73275	164872
26.74087	166056
26.74898	174553
26.75712	181849
26.76523	182466
26.77337	183747
26.78148	187943
26.78960	191704
26.79773	193547
26.80585	192484
26.81398	193463
26.82210	200539
26.83022	200477
26.83835	188296
26.84647	198883
26.85458	184762
26.86272	190881
26.87083	192971
26.87897	192136
26.88708	187635
26.89520	193014
26.90333	180662
26.91145	190777
26.91958	183119
26.92770	184234
26.93582	189538
26.94395	182495
26.95207	182367
26.96020	181161
26.96832	179087
26.97643	177962
26.98457	192748
26.99268	198677
27.00080	199506
27.00893	206828
27.01705	222456
27.02518	243577
27.03330	274718
27.04142	295745
27.04955	304873
27.05767	303516
27.06580	284668
27.07392	277226
27.08203	252301
27.09017	235040
27.09828	226920
27.10640	208970
27.11453	213297
27.12265	206373
27.13078	201213
27.13890	202409
27.14702	208181
27.15515	198340
27.16327	195248
27.17140	188956
27.17952	205955
27.18763	209261
27.19577	225324
27.20388	241819
27.21202	266657
27.22013	266078
27.22825	246196
27.23638	229742
27.24450	209534
27.25262	208369
27.26075	183860
27.26887	171009
27.27700	170295
27.28512	169903
27.29323	161199
27.30137	156214
27.30948	156462
27.31762	152412
27.32573	153908
27.33385	157414
27.34198	151241
27.35010	156809
27.35822	159799
27.36635	151529
27.37447	157900
27.38260	155463
27.39072	156141
27.39883	152194
27.40697	154625
27.41508	149444
27.42322	150585
27.43133	139060
27.43945	140298
27.44758	142429
27.45570	142571
27.46383	134585
27.47195	136569
27.48007	134125
27.48820	133080
27.49632	135525
27.50443	127694
27.51257	127801
27.52068	132406
27.52882	135805
27.53693	127010
27.54505	127027
27.55318	120224
27.56130	129062
27.56943	128379
27.57755	127814
27.58567	130091
27.59380	148768
27.60192	163974
27.61005	180636
27.61817	184240
27.62628	179593
27.63442	178247
27.64253	161165
27.65065	152389
27.65878	144951
27.66690	134021
27.67503	131144
27.68315	121771
27.69127	123335
27.69940	126384
27.70752	126761
27.71565	126763
27.72377	130455
27.73188	120365
27.74002	110012
27.74813	114597
27.75627	110089
27.76438	111745
27.77250	98882
27.78063	99822
27.78875	113128
27.79687	119370
27.80500	118933
27.81312	121349
27.82125	127502
27.82937	117413
27.83748	107180
27.84562	104130
27.85373	102891
27.86187	101347
27.86998	96362
27.87810	97775
27.88623	95748
27.89435	95015
27.90247	95199
27.91060	93857
27.91872	90543
27.92685	90097
27.93497	92530
27.94308	91787
27.95122	89660
27.95933	89003
27.96747	87234
27.97558	90064
27.98370	83679
27.99183	86060
27.99995	88858
28.00808	88136
28.01620	86839
28.02432	96653
28.03245	95788
28.04057	111967
28.04868	117029
28.05682	130999
28.06493	134813
28.07307	141997
28.08118	135663
28.08930	124865
28.09743	107887
28.10555	107355
28.11368	92817
28.12180	87661
28.12992	81875
28.13805	81884
28.14617	77262
28.15428	76877
28.16242	75402
28.17053	79793
28.17867	76021
28.18678	75415
28.19490	80271
28.20303	87776
28.21115	95389
28.21928	117142
28.22740	137153
28.23552	146623
28.24365	159798
28.25177	160358
28.25990	150110
28.26802	138014
28.27613	115287
28.28427	95075
28.29238	86857
28.30050	81804
28.30863	77965
28.31675	93132
28.32488	98836
28.33300	112559
28.34112	127243
28.34925	126870
28.35737	116244
28.36550	103204
28.37362	89073
28.38173	87014
28.38987	80726
28.39798	88434
28.40612	85750
28.41423	88460
28.42235	89865
28.43048	92684
28.43860	89053
28.44672	87202
28.45485	82784
28.46297	81362
28.47110	80383
28.47922	71693
28.48733	71842
28.49547	72827
28.50358	74945
28.51172	77874
28.51983	89507
28.52795	92080
28.53608	87181
28.54420	89594
28.55232	80238
28.56045	74781
28.56857	76360
28.57670	65804
28.58482	67928
28.59293	62691
28.60107	64684
28.60918	61331
28.61732	60165
28.62543	68369
28.63355	66143
28.64168	66710
28.64980	72196
28.65793	74613
28.66605	76059
28.67417	69148
28.68230	69322
28.69042	65281
28.69853	60205
28.70667	63359
28.71478	61176
28.72292	56327
28.73103	63093
28.73915	62794
28.74728	60631
28.75540	58685
28.76353	61149
28.77165	59851
28.77977	59886
28.78790	58225
28.79602	66008
28.80415	66338
28.81227	73103
28.82038	80640
28.82852	79989
28.83663	82340
28.84475	80130
28.85288	82160
28.86100	76451
28.86913	85713
28.87725	74807
28.88537	77875
28.89350	84220
28.90162	94660
28.90975	103784
28.91787	110006
28.92598	110582
28.93412	106366
28.94223	95102
28.95035	80155
28.95848	75722
28.96660	68281
28.97473	65744
28.98285	61883
28.99097	62199
28.99910	58033
29.00722	54796
29.01535	61653
29.02347	54126
29.03158	55132
29.03972	56511
29.04783	59093
29.05597	58223
29.06408	58555
29.07220	55741
29.08033	61182
29.08845	60542
29.09657	63446
29.10470	72581
29.11282	69659
29.12095	66240
29.12907	67744
29.13718	64881
29.14532	65551
29.15343	58342
29.16157	59083
29.16968	59260
29.17780	55463
29.18593	60028
29.19405	63477
29.20217	75022
29.21030	103312
29.21842	122612
29.22655	161194
29.23467	187841
29.24278	194424
29.25092	170988
29.25903	153456
29.26717	125323
29.27528	119667
29.28340	97695
29.29153	92036
29.29965	74163
29.30778	70528
29.31590	67378
29.32402	59227
29.33215	60251
29.34027	56253
29.34838	54644
29.35652	51307
29.36463	51948
29.37277	52636
29.38088	54998
29.38900	52278
29.39713	51223
29.40525	57095
29.41338	53711
29.42150	57085
29.42962	54179
29.43775	61396
29.44587	60099
29.45400	59703
29.46212	56133
29.47023	54050
29.47837	57386
29.48648	50166
29.49460	51352
29.50273	53331
29.51085	57149
29.51898	48998
29.52710	49041
29.53522	52317
29.54335	51667
29.55147	54134
29.55960	55718
29.56772	51571
29.57583	54664
29.58397	51095
29.59208	52335
29.60020	56341
29.60833	53726
29.61645	53643
29.62458	54581
29.63270	50504
29.64082	58228
29.64895	50906
29.65707	50778
29.66520	54073
29.67332	47806
29.68143	53048
29.68957	55896
29.69768	65406
29.70582	70250
29.71393	67033
29.72205	76674
29.73018	72435
29.73830	66862
29.74642	63023
29.75455	61029
29.76267	56573
29.77080	53932
29.77892	52598
29.78703	53948
29.79517	50368
29.80328	51204
29.81142	50869
29.81953	49414
29.82765	47510
29.83578	50865
29.84390	50551
29.85203	54928
29.86015	47222
29.86827	51340
29.87640	56230
29.88452	54329
29.89263	65555
29.90077	82729
29.90888	108722
29.91702	119037
29.92513	120688
29.93325	117149
29.94138	102564
29.94950	78349
29.95763	70039
29.96575	59774
29.97387	56320
29.98200	55154
29.99012	52193
29.99823	53000
30.00637	56198
30.01448	60523
30.02262	60737
30.03073	55094
30.03885	58925
30.04698	59108
30.05510	59336
30.06323	54433
30.07135	55322
30.07947	59160
30.08760	63579
30.09572	59710
30.10385	60683
30.11197	57163
30.12008	61839
30.12822	56587
30.13633	54728
30.14445	54397
30.15258	57258
30.16070	59082
30.16883	57710
30.17695	52844
30.18507	64914
30.19320	60712
30.20132	61036
30.20945	63825
30.21757	62351
30.22568	59609
30.23382	64056
30.24193	60624
30.25005	59003
30.25818	53769
30.26630	58388
30.27443	48320
30.28255	53148
30.29067	59352
30.29880	49877
30.30692	51119
30.31505	51991
30.32317	54120
30.33128	52097
30.33942	51290
30.34753	54135
30.35567	53615
30.36378	53543
30.37190	56852
30.38003	57917
30.38815	57081
30.39627	60618
30.40440	53073
30.41252	55022
30.42065	55081
30.42877	56651
30.43688	54585
30.44502	51695
30.45313	52228
30.46127	52544
30.46938	57877
30.47750	60912
30.48563	53263
30.49375	59754
30.50188	52646
30.51000	54379
30.51812	54957
30.52625	63152
30.53437	59596
30.54248	56335
30.55062	60197
30.55873	57641
30.56687	59167
30.57498	57111
30.58310	59678
30.59123	63874
30.59935	62967
30.60748	57298
30.61560	59204
30.62372	56296
30.63185	55819
30.63997	59177
30.64808	63930
30.65622	58445
30.66433	57673
30.67247	56818
30.68058	55705
30.68870	59034
30.69683	59879
30.70495	53773
30.71308	56479
30.72120	54632
30.72932	53231
30.73745	55234
30.74557	56681
30.75370	53842
30.76182	59246
30.76993	60148
30.77807	62710
30.78618	57346
30.79430	72076
30.80243	80405
30.81055	108743
30.81868	147988
30.82680	164029
30.83492	174735
30.84305	156015
30.85117	142942
30.85930	112689
30.86742	91272
30.87553	76290
30.88367	69396
30.89178	69581
30.89992	68695
30.90803	71862
30.91615	70702
30.92428	66892
30.93240	62933
30.94052	61151
30.94865	57483
30.95677	59261
30.96490	69245
30.97302	59454
30.98113	65470
30.98927	65736
30.99738	63457
31.00552	65544
31.01363	63513
31.02175	59362
31.02988	61868
31.03800	58630
31.04612	60776
31.05425	57697
31.06237	56348
31.07050	53569
31.07862	52489
31.08673	53272
31.09487	59075
31.10298	60791
31.11112	69033
31.11923	68453
31.12735	72569
31.13548	72955
31.14360	74855
31.15173	69493
31.15985	63494
31.16797	69614
31.17610	71272
31.18422	69023
31.19233	68820
31.20047	69887
31.20858	69046
31.21672	67685
31.22483	72601
31.23295	69143
31.24108	64786
31.24920	66250
31.25733	60736
31.26545	63489
31.27357	60857
31.28170	57802
31.28982	59274
31.29795	57164
31.30607	61297
31.31418	53878
31.32232	59224
31.33043	63451
31.33855	69344
31.34668	68640
31.35480	68127
31.36293	74153
31.37105	70583
31.37917	70136
31.38730	66307
31.39542	68115
31.40355	60001
31.41167	60383
31.41978	55830
31.42792	59103
31.43603	54755
31.44415	57127
31.45228	57535
31.46040	56978
31.46853	59957
31.47665	55676
31.48477	56484
31.49290	59324
31.50102	62201
31.50915	62268
31.51727	63596
31.52538	64731
31.53352	70446
31.54163	72046
31.54977	68885
31.55788	71413
31.56600	76625
31.57413	73498
31.58225	69255
31.59037	71220
31.59850	65716
31.60662	64676
31.61475	61762
31.62287	62038
31.63098	60402
31.63912	57191
31.64723	57345
31.65537	57901
31.66348	59082
31.67160	64215
31.67973	73244
31.68785	74787
31.69597	75470
31.70410	73236
31.71222	77716
31.72035	65002
31.72847	71934
31.73658	63753
31.74472	67943
31.75283	59323
31.76097	57452
31.76908	60817
31.77720	59450
31.78533	59418
31.79345	61646
31.80158	59931
31.80970	55370
31.81782	57540
31.82595	58390
31.83407	55907
31.84218	57342
31.85032	56115
31.85843	56547
31.86657	57376
31.87468	57183
31.88280	55602
31.89093	60111
31.89905	58900
31.90718	60940
31.91530	56924
31.92342	56884
31.93155	57500
31.93967	58731
31.94780	58070
31.95592	56344
31.96403	59363
31.97217	56467
31.98028	54453
31.98840	62112
31.99653	65149
32.00465	61524
32.01278	72689
32.02090	71975
32.02902	69516
32.03715	71601
32.04527	74998
32.05340	73626
32.06152	66476
32.06963	67729
32.07777	68453
32.08588	58465
32.09400	59977
32.10213	57220
32.11025	59899
32.11838	59516
32.12650	60985
32.13462	54248
32.14275	57447
32.15087	57984
32.15900	63130
32.16712	56078
32.17523	51984
32.18337	53623
32.19148	56304
32.19962	54377
32.20773	58033
32.21585	57088
32.22398	56395
32.23210	61054
32.24022	55245
32.24835	59058
32.25647	61160
32.26460	53243
32.27272	60517
32.28083	64236
32.28897	64575
32.29708	60088
32.30522	58229
32.31333	62084
32.32145	62837
32.32958	55797
32.33770	59202
32.34583	54695
32.35395	61373
32.36207	55671
32.37020	55255
32.37832	55227
32.38643	52029
32.39457	62153
32.40268	54347
32.41082	55710
32.41893	56304
32.42705	56611
32.43518	53215
32.44330	54446
32.45143	53457
32.45955	54334
32.46767	56797
32.47580	51930
32.48392	54694
32.49203	54554
32.50017	56793
32.50828	55579
32.51642	55888
32.52453	57156
32.53265	56157
32.54078	52816
32.54890	53626
32.55703	57019
32.56515	51860
32.57327	61005
32.58140	54555
32.58952	58857
32.59765	60835
32.60577	61316
32.61388	55406
32.62202	54997
32.63013	53572
32.63825	55697
32.64638	57886
32.65450	55624
32.66263	52570
32.67075	59046
32.67887	59333
32.68700	57328
32.69512	66919
32.70325	55891
32.71137	56247
32.71948	58310
32.72762	57467
32.73573	59376
32.74385	55828
32.75198	50628
32.76010	58797
32.76823	56764
32.77635	52863
32.78447	53897
32.79260	53551
32.80072	60269
32.80885	57053
32.81697	56164
32.82508	61329
32.83322	60400
32.84133	56266
32.84947	59307
32.85758	58866
32.86570	62413
32.87383	61430
32.88195	57529
32.89007	59860
32.89820	64095
32.90632	63581
32.91445	72508
32.92257	74153
32.93068	71916
32.93882	75860
32.94693	65571
32.95507	64066
32.96318	61217
32.97130	59754
32.97943	63057
32.98755	66266
32.99568	77207
33.00380	104897
33.01192	121979
33.02005	128816
33.02817	145673
33.03628	137417
33.04442	124586
33.05253	108450
33.06067	98945
33.06878	90680
33.07690	90000
33.08503	106018
33.09315	113265
33.10128	122643
33.10940	132497
33.11752	126297
33.12565	128154
33.13377	127928
33.14190	124417
33.15002	109101
33.15813	106940
33.16627	96682
33.17438	93520
33.18250	89555
33.19063	81451
33.19875	79768
33.20688	71071
33.21500	73688
33.22312	64164
33.23125	68748
33.23937	73970
33.24750	67475
33.25562	69132
33.26373	63794
33.27187	69504
33.27998	67928
33.28810	66108
33.29623	59565
33.30435	64225
33.31248	61862
33.32060	65595
33.32872	60622
33.33685	67364
33.34497	66263
33.35310	69886
33.36122	72764
33.36933	72992
33.37747	77375
33.38558	90592
33.39372	78723
33.40183	78746
33.40995	72820
33.41808	70726
33.42620	64623
33.43432	63634
33.44245	68434
33.45057	65060
33.45870	59125
33.46682	63594
33.47493	60404
33.48307	60736
33.49118	59487
33.49932	60635
33.50743	59058
33.51555	62021
33.52368	69411
33.53180	63183
33.53992	70664
33.54805	70382
33.55617	70008
33.56430	80779
33.57242	87414
33.58053	88976
33.58867	89577
33.59678	77423
33.60492	76606
33.61303	72404
33.62115	67661
33.62928	59404
33.63740	63877
33.64553	67928
33.65365	65472
33.66177	67177
33.66990	69448
33.67802	69070
33.68613	77032
33.69427	68525
33.70238	72047
33.71052	60490
33.71863	68196
33.72675	61829
33.73488	59085
33.74300	65116
33.75113	61931
33.75925	61181
33.76737	61163
33.77550	61220
33.78362	67352
33.79175	63335
33.79987	62673
33.80798	64844
33.81612	60436
33.82423	62131
33.83235	60322
33.84048	63950
33.84860	65223
33.85673	60197
33.86485	64054
33.87297	64600
33.88110	59405
33.88922	62517
33.89735	64660
33.90547	63725
33.91358	64849
33.92172	69722
33.92983	65009
33.93795	64043
33.94608	59017
33.95420	65257
33.96233	59893
33.97045	62436
33.97857	60478
33.98670	62758
33.99482	63100
34.00295	61095
34.01107	64463
34.01918	65342
34.02732	63822
34.03543	61661
34.04357	60689
34.05168	60059
34.05980	60499
34.06793	60044
34.07605	65447
34.08417	58084
34.09230	64265
34.10042	65715
34.10855	64806
34.11667	61320
34.12478	62105
34.13292	60920
34.14103	63000
34.14917	60423
34.15728	62993
34.16540	69004
34.17353	62935
34.18165	63867
34.18978	62775
34.19790	65983
34.20602	70961
34.21415	64630
34.22227	63174
34.23038	61051
34.23852	64105
34.24663	63629
34.25477	64676
34.26288	60207
34.27100	61131
34.27913	62468
34.28725	62263
34.29538	65159
34.30350	62353
34.31162	63506
34.31975	61650
34.32787	62861
34.33598	63076
34.34412	68691
34.35223	62841
34.36037	67345
34.36848	61085
34.37660	60487
34.38473	69912
34.39285	64888
34.40098	61568
34.40910	59878
34.41722	59456
34.42535	64879
34.43347	63701
34.44160	61496
34.44972	62215
34.45783	64430
34.46597	67965
34.47408	65095
34.48220	63972
34.49033	61234
34.49845	65785
34.50658	65399
34.51470	63401
34.52282	61683
34.53095	65668
34.53907	70652
34.54720	69659
34.55532	65518
34.56343	70425
34.57157	79244
34.57968	78261
34.58780	77687
34.59593	77592
34.60405	80358
34.61218	77165
34.62030	77126
34.62842	67950
34.63655	72444
34.64467	68518
34.65280	66507
34.66092	65486
34.66903	65951
34.67717	67171
34.68528	63510
34.69342	63330
34.70153	63198
34.70965	64480
34.71778	68188
34.72590	63193
34.73402	64397
34.74215	65934
34.75027	65303
34.75840	69604
34.76652	65637
34.77463	68489
34.78277	71154
34.79088	72336
34.79902	73288
34.80713	70647
34.81525	69566
34.82338	71393
34.83150	64614
34.83963	70295
34.84775	67679
34.85587	67757
34.86400	67907
34.87212	67851
34.88023	68507
34.88837	72901
34.89648	72936
34.90462	69494
34.91273	66578
34.92085	66636
34.92898	65845
34.93710	72142
34.94523	70256
34.95335	70895
34.96147	66048
34.96960	74121
34.97772	75298
34.98583	75978
34.99397	73621
35.00208	80113
35.01022	78550
35.01833	77076
35.02645	73715
35.03458	71251
35.04270	69819
35.05083	69744
35.05895	67809
35.06707	74983
35.07520	64151
35.08332	69903
35.09145	69724
35.09957	69429
35.10768	69237
35.11582	67347
35.12393	70388
35.13205	73404
35.14018	72441
35.14830	72838
35.15643	70803
35.16455	67446
35.17267	73027
35.18080	76616
35.18892	72002
35.19705	75236
35.20517	72193
35.21328	73625
35.22142	64238
35.22953	68482
35.23767	69971
35.24578	68012
35.25390	70325
35.26203	64567
35.27015	69085
35.27827	70426
35.28640	64217
35.29452	71809
35.30265	73471
35.31077	72862
35.31888	72027
35.32702	68205
35.33513	75050
35.34327	71067
35.35138	72815
35.35950	70040
35.36763	70126
35.37575	72763
35.38387	68113
35.39200	71585
35.40012	76732
35.40825	70065
35.41637	77828
35.42448	75130
35.43262	79082
35.44073	75150
35.44887	78446
35.45698	80223
35.46510	76187
35.47323	74399
35.48135	77310
35.48948	70537
35.49760	76379
35.50572	69926
35.51385	81514
35.52197	78401
35.53008	72131
35.53822	75786
35.54633	78598
35.55447	73404
35.56258	70410
35.57070	71509
35.57883	69753
35.58695	72742
35.59508	72218
35.60320	73410
35.61132	70339
35.61945	68839
35.62757	74486
35.63568	79919
35.64382	73447
35.65193	71568
35.66007	75703
35.66818	70502
35.67630	71099
35.68443	68636
35.69255	76352
35.70068	74529
35.70880	74900
35.71692	75541
35.72505	73683
35.73317	75347
35.74130	73204
35.74942	70684
35.75753	81240
35.76567	89514
35.77378	91901
35.78190	103404
35.79003	107771
35.79815	103074
35.80628	97914
35.81440	91854
35.82252	89407
35.83065	82255
35.83877	82337
35.84690	74989
35.85502	72593
35.86313	75849
35.87127	70132
35.87938	79087
35.88752	77047
35.89563	75808
35.90375	68051
35.91188	72074
35.92000	70880
35.92812	68837
35.93625	78758
35.94437	70553
35.95250	73260
35.96062	71518
35.96873	73823
35.97687	75200
35.98498	75210
35.99312	73730
36.00123	76891
36.00935	77499
36.01748	82403
36.02560	71188
36.03372	73560
36.04185	70944
36.04997	71401
36.05810	73826
36.06622	78389
36.07433	71698
36.08247	73435
36.09058	69702
36.09872	72277
36.10683	78576
36.11495	72964
36.12308	80564
36.13120	77203
36.13933	77904
36.14745	82573
36.15557	80438
36.16370	85988
36.17182	93890
36.17993	89283
36.18807	82309
36.19618	83051
36.20432	79704
36.21243	80314
36.22055	77724
36.22868	78538
36.23680	71823
36.24493	73754
36.25305	79124
36.26117	70361
36.26930	89842
36.27742	77825
36.28555	75810
36.29367	71538
36.30178	74308
36.30992	74499
36.31803	75610
36.32615	81508
36.33428	83762
36.34240	83066
36.35053	79966
36.35865	79678
36.36677	74907
36.37490	75912
36.38302	78274
36.39115	80263
36.39927	72376
36.40738	78365
36.41552	77149
36.42363	78143
36.43175	75743
36.43988	80777
36.44800	79781
36.45613	82604
36.46425	76316
36.47237	74369
36.48050	75877
36.48862	79873
36.49675	77416
36.50487	71631
36.51298	67969
36.52112	78074
36.52923	77517
36.53737	76996
36.54548	75559
36.55360	73783
36.56173	74735
36.56985	76346
36.57797	75546
36.58610	76463
36.59422	76886
36.60235	81003
36.61047	74072
36.61858	74355
36.62672	78198
36.63483	81344
36.64297	79421
36.65108	77487
36.65920	80239
36.66733	77781
36.67545	75094
36.68358	69670
36.69170	72752
36.69982	75063
36.70795	75403
36.71607	71929
36.72418	75228
36.73232	72964
36.74043	77871
36.74857	73788
36.75668	76883
36.76480	73027
36.77293	75817
36.78105	75754
36.78918	78596
36.79730	75921
36.80542	77264
36.81355	74241
36.82167	78228
36.82978	80133
36.83792	74454
36.84603	79439
36.85417	75311
36.86228	75373
36.87040	78891
36.87853	73945
36.88665	76601
36.89478	80328
36.90290	81856
36.91102	75615
36.91915	77314
36.92727	73467
36.93540	70275
36.94352	79444
36.95163	88557
36.95977	92308
36.96788	115032
36.97600	126694
36.98413	161895
36.99225	173763
37.00038	172426
37.00850	162676
37.01662	139529
37.02475	112923
37.03287	99241
37.04100	99721
37.04912	90484
37.05723	87980
37.06537	82570
37.07348	80761
37.08160	82387
37.08973	83757
37.09785	88825
37.10598	84343
37.11410	85870
37.12222	98972
37.13035	95274
37.13847	94178
37.14660	86129
37.15472	87314
37.16283	83891
37.17097	81424
37.17908	85453
37.18722	82023
37.19533	79892
37.20345	81867
37.21158	86296
37.21970	84940
37.22782	84854
37.23595	86853
37.24407	88706
37.25220	82048
37.26032	82400
37.26843	84992
37.27657	84850
37.28468	86558
37.29282	86865
37.30093	82365
37.30905	87138
37.31718	83984
37.32530	82036
37.33343	83228
37.34155	84158
37.34967	88305
37.35780	85371
37.36592	83613
37.37403	86039
37.38217	83249
37.39028	83893
37.39842	82781
37.40653	87481
37.41465	88795
37.42278	91838
37.43090	89229
37.43903	90404
37.44715	92631
37.45527	92409
37.46340	94432
37.47152	90698
37.47963	95996
37.48777	92851
