D:\MassHunter\GCMS\1\data\JTB-E02\BACandSTRAW\JTB-E02-208-23.D Thu Mar 14 12:28:55 2019
Start of data points
2.09523	125974
2.10337	127345
2.11148	121733
2.11962	124965
2.12773	132222
2.13585	122192
2.14398	122915
2.15210	138430
2.16023	119726
2.16835	118212
2.17647	115247
2.18460	113247
2.19272	104260
2.20083	104631
2.20897	104079
2.21708	100326
2.22522	98154
2.23333	90528
2.24145	94875
2.24958	92850
2.25770	95621
2.26583	109431
2.27395	88082
2.28207	112441
2.29020	88114
2.29832	88727
2.30645	87379
2.31457	89176
2.32268	103962
2.33082	86061
2.33893	82154
2.34705	87473
2.35518	83374
2.36330	87889
2.37143	80252
2.37955	82796
2.38767	81911
2.39580	162336
2.40392	2195294
2.41205	7884019
2.42017	6709631
2.42828	2788986
2.43642	1692668
2.44453	1374933
2.45267	1171231
2.46078	1030777
2.46890	944052
2.47703	874213
2.48515	777323
2.49327	701205
2.50140	672425
2.50952	638234
2.51765	600180
2.52577	579705
2.53388	567474
2.54202	548061
2.55013	529753
2.55827	504122
2.56638	510842
2.57450	487717
2.58263	476669
2.59075	462412
2.59887	462845
2.60700	448122
2.61512	440421
2.62325	419249
2.63137	419198
2.63948	422051
2.64762	429514
2.65573	403622
2.66387	403783
2.67198	399344
2.68010	392177
2.68823	394999
2.69635	395976
2.70448	402690
2.71260	423693
2.72072	404301
2.72885	394587
2.73697	394301
2.74508	379253
2.75322	478147
2.76133	1480856
2.76947	2784176
2.77758	2005080
2.78570	1131394
2.79383	827265
2.80195	682651
2.81008	568215
2.81820	511187
2.82632	462394
2.83445	423912
2.84257	406227
2.85070	398136
2.85882	379280
2.86693	368799
2.87507	361629
2.88318	356480
2.89130	348425
2.89943	336007
2.90755	341107
2.91568	337423
2.92380	333511
2.93192	340684
2.94005	422639
2.94817	797646
2.95630	942411
2.96442	623430
2.97253	459178
2.98067	411215
2.98878	374706
2.99692	361249
3.00503	350692
3.01315	337260
3.02128	326484
3.02940	319739
3.03752	319578
3.04565	311343
3.05377	299372
3.06190	305215
3.07002	295410
3.07813	302633
3.08627	298194
3.09438	285265
3.10252	285677
3.11063	277163
3.11875	276328
3.12688	282677
3.13500	280318
3.14312	280728
3.15125	280787
3.15937	279229
3.16750	277483
3.17562	287386
3.18373	299567
3.19187	286624
3.19998	267264
3.20812	262838
3.21623	267023
3.22435	245194
3.23248	258683
3.24060	262347
3.24873	252305
3.25685	306014
3.26497	679918
3.27310	2010660
3.28122	1.030649E+07
3.28933	2.652322E+07
3.29747	3.053241E+07
3.30558	2.537443E+07
3.31372	1.846893E+07
3.32183	1.474033E+07
3.32995	1.20809E+07
3.33808	9908891
3.34620	8177200
3.35433	7053638
3.36245	1.220375E+07
3.37057	3.326602E+07
3.37870	4.82656E+07
3.38682	4.744412E+07
3.39495	3.879295E+07
3.40307	3.286157E+07
3.41118	2.937581E+07
3.41932	2.637635E+07
3.42743	2.362601E+07
3.43555	2.138662E+07
3.44368	1.929236E+07
3.45180	1.753131E+07
3.45993	1.579657E+07
3.46805	1.452681E+07
3.47617	1.395892E+07
3.48430	1.388283E+07
3.49242	1.32094E+07
3.50055	1.180873E+07
3.50867	1.05939E+07
3.51678	9676923
3.52492	8896751
3.53303	8163722
3.54115	7547881
3.54928	6926570
3.55740	6521708
3.56553	6047097
3.57365	5674274
3.58177	5346794
3.58990	4995323
3.59802	4718944
3.60615	4435553
3.61427	4233010
3.62238	4032835
3.63052	3836725
3.63863	3615174
3.64677	3436832
3.65488	3305690
3.66300	3139342
3.67113	3006793
3.67925	2873512
3.68737	2767747
3.69550	2660427
3.70362	2568236
3.71175	2459178
3.71987	2378974
3.72798	2289537
3.73612	2211837
3.74423	2139703
3.75237	2047105
3.76048	2014272
3.76860	1921805
3.77673	1905877
3.78485	1838120
3.79298	1769966
3.80110	1708286
3.80922	1669303
3.81735	1601883
3.82547	1557335
3.83358	1514746
3.84172	1477594
3.84983	1461479
3.85797	1800160
3.86608	8728952
3.87420	3.635244E+07
3.88233	6.756076E+07
3.89045	7.993525E+07
3.89858	7.37387E+07
3.90670	5.537573E+07
3.91482	4.324195E+07
3.92295	3.68925E+07
3.93107	3.238428E+07
3.93918	2.895969E+07
3.94732	2.61559E+07
3.95543	2.386973E+07
3.96357	2.190863E+07
3.97168	2.033775E+07
3.97980	1.920097E+07
3.98793	2.288187E+07
3.99605	3.730382E+07
4.00418	5.178775E+07
4.01230	5.15294E+07
4.02042	3.810423E+07
4.02855	2.584642E+07
4.03667	1.969756E+07
4.04480	1.670399E+07
4.05292	1.462346E+07
4.06103	1.31881E+07
4.06917	1.213857E+07
4.07728	1.12863E+07
4.08540	1.155003E+07
4.09353	1.387087E+07
4.10165	1.579103E+07
4.10978	1.40561E+07
4.11790	1.144851E+07
4.12602	1.001607E+07
4.13415	9071371
4.14227	8475441
4.15040	8022747
4.15852	7573281
4.16663	7218496
4.17477	6952389
4.18288	6769495
4.19102	6541302
4.19913	6242341
4.20725	5944142
4.21538	5717124
4.22350	5497011
4.23162	5358860
4.23975	5244455
4.24787	5026864
4.25600	4872855
4.26412	4674255
4.27223	4517783
4.28037	4389618
4.28848	4309192
4.29662	4341123
4.30473	4628305
4.31285	4722396
4.32098	4391320
4.32910	4065754
4.33723	3773362
4.34535	3626643
4.35347	3522242
4.36160	3434788
4.36972	3411953
4.37783	3780593
4.38597	5183200
4.39408	6915429
4.40222	6822975
4.41033	5237978
4.41845	4010122
4.42658	3444482
4.43470	3167682
4.44283	3022054
4.45095	2955530
4.45907	3433685
4.46720	6590499
4.47532	1.324612E+07
4.48343	1.804587E+07
4.49157	1.740675E+07
4.49968	1.264978E+07
4.50782	8470324
4.51593	6396110
4.52405	5206540
4.53218	4416956
4.54030	3868062
4.54843	3474523
4.55655	3194705
4.56467	2952950
4.57280	2756017
4.58092	2641165
4.58905	2525121
4.59717	2430115
4.60528	2334254
4.61342	2276341
4.62153	2204980
4.62965	2133462
4.63778	2062123
4.64590	2024684
4.65403	1953204
4.66215	1933346
4.67027	1861332
4.67840	1844868
4.68652	1803118
4.69465	1781846
4.70277	1737848
4.71088	1718591
4.71902	1700998
4.72713	1684467
4.73527	1640201
4.74338	1625828
4.75150	1579035
4.75963	1611771
4.76775	1977301
4.77587	3545780
4.78400	6505282
4.79212	7918371
4.80025	6256380
4.80837	4078953
4.81648	2921524
4.82462	2491229
4.83273	2414683
4.84087	3104617
4.84898	4395500
4.85710	5066368
4.86523	4241019
4.87335	3055335
4.88147	2333183
4.88960	2101474
4.89772	2148846
4.90585	2295901
4.91397	2662123
4.92208	2918375
4.93022	2766770
4.93833	2246858
4.94647	1838014
4.95458	1609301
4.96270	1473125
4.97083	1440527
4.97895	1377959
4.98708	1354630
4.99520	1315096
5.00332	1279187
5.01145	1248049
5.01957	1223666
5.02768	1349665
5.03582	1979750
5.04393	3471155
5.05207	4798072
5.06018	4529488
5.06830	3331866
5.07643	2647605
5.08455	3714422
5.09268	6693382
5.10080	9133290
5.10892	8318252
5.11705	5721407
5.12517	3745272
5.13330	2898085
5.14142	2469773
5.14953	2309106
5.15767	2351162
5.16578	2574678
5.17390	2750527
5.18203	2674627
5.19015	2445140
5.19828	2375927
5.20640	4180053
5.21452	1.526986E+07
5.22265	4.312665E+07
5.23077	6.935568E+07
5.23890	8.250281E+07
5.24702	8.167342E+07
5.25513	6.528032E+07
5.26327	4.333087E+07
5.27138	3.051029E+07
5.27950	2.409971E+07
5.28763	2.020195E+07
5.29575	1.76342E+07
5.30388	1.535746E+07
5.31200	1.377079E+07
5.32012	1.254048E+07
5.32825	1.155356E+07
5.33637	1.055708E+07
5.34450	9895527
5.35262	9272852
5.36073	8800939
5.36887	8218020
5.37698	7848012
5.38512	7448199
5.39323	7068836
5.40135	6872104
5.40948	6463684
5.41760	6301166
5.42572	6062624
5.43385	5899459
5.44197	5629134
5.45010	5472396
5.45822	5217055
5.46633	5082127
5.47447	4895178
5.48258	4785334
5.49072	4615119
5.49883	4504356
5.50695	4376332
5.51508	4297647
5.52320	4124831
5.53133	4027846
5.53945	3939879
5.54757	3787579
5.55570	3709768
5.56382	3658433
5.57193	3554428
5.58007	3526752
5.58818	3438878
5.59632	3478851
5.60443	3685415
5.61255	3957416
5.62068	3999745
5.62880	3795214
5.63693	3779399
5.64505	5347171
5.65317	1.130274E+07
5.66130	2.220254E+07
5.66942	3.177906E+07
5.67755	3.347223E+07
5.68567	2.685638E+07
5.69378	1.848551E+07
5.70192	1.69316E+07
5.71003	2.888677E+07
5.71815	4.829122E+07
5.72628	6.649896E+07
5.73440	7.860494E+07
5.74253	8.41009E+07
5.75065	7.718482E+07
5.75877	5.381434E+07
5.76690	3.048008E+07
5.77502	2.020366E+07
5.78315	1.554995E+07
5.79127	1.289304E+07
5.79938	1.099456E+07
5.80752	9787259
5.81563	8966340
5.82375	9146574
5.83188	1.235341E+07
5.84000	1.906248E+07
5.84813	2.426712E+07
5.85625	2.247835E+07
5.86437	1.601768E+07
5.87250	1.031789E+07
5.88062	7437089
5.88875	6153596
5.89687	5432054
5.90498	5059484
5.91312	4652126
5.92123	4421379
5.92937	4169018
5.93748	3908715
5.94560	3820644
5.95373	3625727
5.96185	3508612
5.96997	3373918
5.97810	3304473
5.98622	3224916
5.99435	3167514
6.00247	3048783
6.01058	2975228
6.01872	2903733
6.02683	2792848
6.03497	2734686
6.04308	2626223
6.05120	2589984
6.05933	2519098
6.06745	2419107
6.07558	2373401
6.08370	2339055
6.09182	2269167
6.09995	2214714
6.10807	2178151
6.11618	2122896
6.12432	2119687
6.13243	2054801
6.14057	2058795
6.14868	1980350
6.15680	1985383
6.16493	2194695
6.17305	4256092
6.18118	1.318437E+07
6.18930	3.569094E+07
6.19742	6.390339E+07
6.20555	8.675479E+07
6.21367	1.007287E+08
6.22178	1.008374E+08
6.22992	7.85695E+07
6.23803	4.449987E+07
6.24617	2.490269E+07
6.25428	1.837077E+07
6.26240	1.616071E+07
6.27053	1.908658E+07
6.27865	3.284944E+07
6.28678	5.545306E+07
6.29490	7.541584E+07
6.30302	8.778083E+07
6.31115	8.590195E+07
6.31927	6.599796E+07
6.32740	3.712056E+07
6.33552	2.069222E+07
6.34363	1.533629E+07
6.35177	1.300113E+07
6.35988	1.145776E+07
6.36800	1.03426E+07
6.37613	9580574
6.38425	8917907
6.39238	8273582
6.40050	7721052
6.40862	7297904
6.41675	6932235
6.42487	6667018
6.43300	6336229
6.44112	6256031
6.44923	6096182
6.45737	5935454
6.46548	5651452
6.47362	5333892
6.48173	5127408
6.48985	4911273
6.49798	4721723
6.50610	4529473
6.51422	4383785
6.52235	4448793
6.53047	5364784
6.53860	8787195
6.54672	1.573626E+07
6.55483	2.335331E+07
6.56297	2.480766E+07
6.57108	1.879827E+07
6.57922	1.117636E+07
6.58733	6696636
6.59545	4916458
6.60358	4193889
6.61170	3842638
6.61982	3551455
6.62795	3384079
6.63607	3227805
6.64420	3149493
6.65232	3003765
6.66043	2923867
6.66857	2822112
6.67668	2729216
6.68482	2699038
6.69293	2635837
6.70105	2568933
6.70918	2502562
6.71730	2446028
6.72543	2391168
6.73355	2339951
6.74167	2276198
6.74980	2249103
6.75792	2188173
6.76603	2151372
6.77417	2115237
6.78228	2075479
6.79042	2026294
6.79853	2011658
6.80665	1963575
6.81478	1919025
6.82290	1909847
6.83103	1851337
6.83915	1826843
6.84727	1831000
6.85540	2133798
6.86352	3722543
6.87165	8448551
6.87977	1.585689E+07
6.88788	2.072527E+07
6.89602	1.827912E+07
6.90413	1.131401E+07
6.91225	6054323
6.92038	3752324
6.92850	2843457
6.93663	2490104
6.94475	2948078
6.95287	5718726
6.96100	1.229649E+07
6.96912	2.012644E+07
6.97725	2.362115E+07
6.98537	2.218574E+07
6.99348	1.990755E+07
7.00162	1.725105E+07
7.00973	1.251444E+07
7.01787	7483696
7.02598	4451083
7.03410	3228906
7.04223	2757457
7.05035	2487500
7.05847	2290199
7.06660	2108453
7.07472	2880127
7.08285	2747939
7.09097	2638849
7.09908	2527638
7.10722	2473929
7.11533	2398889
7.12347	2430918
7.13158	2637841
7.13970	3187462
7.14783	4101848
7.15595	4685363
7.16407	4484005
7.17220	3711049
7.18032	3038796
7.18845	2609766
7.19657	2272670
7.20468	2080523
7.21282	1958402
7.22093	1858464
7.22907	1836839
7.23718	1782001
7.24530	1715655
7.25343	1723708
7.26155	1764620
7.26968	1880164
7.27780	2117301
7.28592	2365381
7.29405	2387330
7.30217	2211464
7.31028	1950678
7.31842	1700872
7.32653	1594645
7.33467	1540862
7.34278	1523251
7.35090	1482260
7.35903	1449475
7.36715	1446893
7.37528	1485420
7.38340	1586123
7.39152	1775109
7.39965	1983236
7.40777	2048883
7.41590	1904652
7.42402	1678952
7.43213	1500130
7.44027	1394090
7.44838	1309641
7.45650	1296380
7.46463	1251023
7.47275	1235665
7.48088	1227230
7.48900	1220974
7.49712	1217535
7.50525	1200493
7.51337	1168223
7.52150	1164440
7.52962	1134081
7.53773	1156173
7.54587	1348049
7.55398	2133907
7.56210	4004469
7.57023	6320453
7.57835	7219802
7.58648	5895333
7.59460	3734205
7.60272	2343755
7.61085	1734667
7.61897	1472445
7.62710	1307395
7.63522	1139269
7.64333	1032203
7.65147	975294
7.65958	943534
7.66772	949697
7.67583	919522
7.68395	895281
7.69208	926350
7.70020	895952
7.70832	885840
7.71645	894359
7.72457	877160
7.73270	921783
7.74082	889338
7.74893	898718
7.75707	909354
7.76518	1020598
7.77332	1300990
7.78143	1867348
7.78955	2567848
7.79768	3031633
7.80580	2838625
7.81393	2281150
7.82205	1766516
7.83017	1513212
7.83830	1389567
7.84642	1255386
7.85453	1150157
7.86267	1048925
7.87078	986714
7.87892	964182
7.88703	932108
7.89515	911062
7.90328	909413
7.91140	910669
7.91953	953161
7.92765	1006398
7.93577	1015590
7.94390	1015545
7.95202	985967
7.96013	924699
7.96827	874593
7.97638	840141
7.98452	744727
7.99263	643118
8.00075	527338
8.00888	515560
8.01700	492651
8.02513	485791
8.03325	463035
8.04137	453666
8.04950	429522
8.05762	423991
8.06575	391559
8.07387	402023
8.08198	389002
8.09012	395857
8.09823	388056
8.10635	382716
8.11448	367781
8.12260	374690
8.13073	418297
8.13885	558581
8.14697	1227740
8.15510	3486665
8.16322	8516891
8.17135	1.623229E+07
8.17947	2.445536E+07
8.18758	2.989417E+07
8.19572	3.393397E+07
8.20383	3.843794E+07
8.21197	4.331702E+07
8.22008	4.507428E+07
8.22820	3.944992E+07
8.23633	2.654631E+07
8.24445	1.382176E+07
8.25257	6871935
8.26070	4083824
8.26882	3303316
8.27695	3131543
8.28507	2992507
8.29318	2576871
8.30132	1926782
8.30943	1445558
8.31757	1160395
8.32568	1049542
8.33380	1081350
8.34193	1196126
8.35005	1370302
8.35818	1521737
8.36630	1638784
8.37442	1631974
8.38255	1561652
8.39067	1484066
8.39878	1416185
8.40692	1409951
8.41503	1430237
8.42317	1574552
8.43128	1672218
8.43940	1705701
8.44753	1577662
8.45565	1359329
8.46378	1163437
8.47190	1038997
8.48002	948083
8.48815	911739
8.49627	902967
8.50438	882230
8.51252	824487
8.52063	814715
8.52877	837560
8.53688	936136
8.54500	1067821
8.55313	1160723
8.56125	1179405
8.56938	1096264
8.57750	1020198
8.58562	1006132
8.59375	998344
8.60187	878104
8.61000	761675
8.61812	642061
8.62623	588216
8.63437	555581
8.64248	561084
8.65060	593064
8.65873	686994
8.66685	779477
8.67498	808614
8.68310	811845
8.69122	738251
8.69935	739438
8.70747	804915
8.71560	847229
8.72372	841735
8.73183	728626
8.73997	617037
8.74808	552793
8.75622	537937
8.76433	644816
8.77245	878949
8.78058	1127791
8.78870	1311123
8.79682	1210103
8.80495	993821
8.81307	730869
8.82120	554479
8.82932	462829
8.83743	429219
8.84557	424501
8.85368	412322
8.86182	414105
8.86993	436667
8.87805	476464
8.88618	527767
8.89430	582762
8.90242	749138
8.91055	1187652
8.91867	1748745
8.92680	2015205
8.93492	1776457
8.94303	1214432
8.95117	778661
8.95928	514255
8.96742	422024
8.97553	402280
8.98365	387032
8.99178	354613
8.99990	366100
9.00803	414084
9.01615	556163
9.02427	797852
9.03240	1061015
9.04052	1206716
9.04863	1112323
9.05677	886243
9.06488	657998
9.07302	549789
9.08113	509588
9.08925	547449
9.09738	648771
9.10550	795323
9.11363	851451
9.12175	788714
9.12987	678989
9.13800	533342
9.14612	449317
9.15425	402571
9.16237	371711
9.17048	367266
9.17862	439399
9.18673	857987
9.19485	2400712
9.20298	6729537
9.21110	1.52485E+07
9.21923	2.617885E+07
9.22735	3.505097E+07
9.23547	3.88388E+07
9.24360	3.477578E+07
9.25172	2.474816E+07
9.25985	1.364659E+07
9.26797	6373987
9.27608	3141690
9.28422	1910083
9.29233	1328496
9.30045	1015050
9.30858	1081213
9.31670	1827296
9.32483	3387568
9.33295	5408706
9.34107	6772528
9.34920	6590193
9.35732	5208875
9.36545	3605423
9.37357	2551552
9.38168	2003524
9.38982	1709966
9.39793	1503182
9.40607	1403943
9.41418	1356791
9.42230	1325089
9.43043	1290566
9.43855	1250082
9.44667	1185110
9.45480	1149067
9.46292	1072461
9.47105	1062051
9.47917	1010168
9.48728	939155
9.49542	910706
9.50353	880559
9.51167	900494
9.51978	1007578
9.52790	1340333
9.53603	1844529
9.54415	2310758
9.55228	2459952
9.56040	2195580
9.56852	1642264
9.57665	1154001
9.58477	864259
9.59288	759717
9.60102	790288
9.60913	949028
9.61727	1311429
9.62538	1674604
9.63350	1849092
9.64163	1626104
9.64975	1273131
9.65788	937946
9.66600	737527
9.67412	649725
9.68225	660555
9.69037	940254
9.69850	1588110
9.70662	2818863
9.71473	4196258
9.72287	5174718
9.73098	5050489
9.73910	3914938
9.74723	2581949
9.75535	1571785
9.76348	1003335
9.77160	745053
9.77972	612261
9.78785	533076
9.79597	500670
9.80410	492867
9.81222	514479
9.82033	553671
9.82847	569557
9.83658	582220
9.84470	556764
9.85283	561160
9.86095	589330
9.86908	764434
9.87720	1093121
9.88532	1442851
9.89345	1629953
9.90157	1529323
9.90970	1171014
9.91782	822661
9.92593	596133
9.93407	491025
9.94218	442380
9.95032	432841
9.95843	423223
9.96655	439162
9.97468	545136
9.98280	1139372
9.99092	3491084
9.99905	1.013052E+07
10.00717	2.306326E+07
10.01530	3.946974E+07
10.02342	5.566423E+07
10.03153	6.695603E+07
10.03967	6.979566E+07
10.04778	6.00574E+07
10.05592	3.880266E+07
10.06403	1.782962E+07
10.07215	6998230
10.08028	3788104
10.08840	3591302
10.09653	4427041
10.10465	5633148
10.11277	6758980
10.12090	7467341
10.12902	8126018
10.13713	9199886
10.14527	1.032379E+07
10.15338	1.094334E+07
10.16152	1.033013E+07
10.16963	8407529
10.17775	6213020
10.18588	4593443
10.19400	3625098
10.20213	3125887
10.21025	2838558
10.21837	2785521
10.22650	2753190
10.23462	2780590
10.24273	2822612
10.25087	2792152
10.25898	2845428
10.26712	2770678
10.27523	2590290
10.28335	2455117
10.29148	2242936
10.29960	2106127
10.30773	2030387
10.31585	1958551
10.32397	1903150
10.33210	1841575
10.34022	1760876
10.34835	1701516
10.35647	1643200
10.36458	1560065
10.37272	1514896
10.38083	1463643
10.38895	1438244
10.39708	1382385
10.40520	1345305
10.41333	1341576
10.42145	1316998
10.42957	1328039
10.43770	1279647
10.44582	1259856
10.45395	1214457
10.46207	1196897
10.47018	1162987
10.47832	1116155
10.48643	1104076
10.49457	1074626
10.50268	1047100
10.51080	1037742
10.51893	1018433
10.52705	978617
10.53517	969072
10.54330	947485
10.55142	931810
10.55955	934131
10.56767	931515
10.57578	899869
10.58392	895116
10.59203	878746
10.60017	881604
10.60828	851694
10.61640	836969
10.62453	834859
10.63265	812035
10.64077	780333
10.64890	826803
10.65702	865226
10.66515	1107303
10.67327	1811259
10.68138	2938627
10.68952	4138498
10.69763	4693939
10.70577	4556896
10.71388	4840314
10.72200	6103490
10.73013	7543152
10.73825	7593751
10.74638	5856788
10.75450	3524203
10.76262	1894358
10.77075	1155000
10.77887	913147
10.78698	819407
10.79512	812396
10.80323	855095
10.81137	995997
10.81948	1182813
10.82760	1418206
10.83573	1512335
10.84385	1433549
10.85198	1278209
10.86010	1146777
10.86822	1079603
10.87635	960227
10.88447	890444
10.89260	793835
10.90072	722568
10.90883	677517
10.91697	688451
10.92508	701852
10.93320	858071
10.94133	1370045
10.94945	2613971
10.95758	4569795
10.96570	6714171
10.97382	7640807
10.98195	6875097
10.99007	4873755
10.99820	2758636
11.00632	1355349
11.01443	698791
11.02257	505645
11.03068	483996
11.03882	514702
11.04693	529553
11.05505	524752
11.06318	487637
11.07130	463798
11.07942	435381
11.08755	377968
11.09567	374937
11.10380	349460
11.11192	353483
11.12003	375559
11.12817	400755
11.13628	424905
11.14442	410625
11.15253	401145
11.16065	379748
11.16878	347574
11.17690	309018
11.18502	285369
11.19315	274501
11.20127	267868
11.20940	248987
11.21752	246331
11.22563	246118
11.23377	240399
11.24188	218539
11.25002	227130
11.25813	210580
11.26625	211107
11.27438	224012
11.28250	254624
11.29063	322499
11.29875	468320
11.30687	648300
11.31500	825623
11.32312	849139
11.33123	735133
11.33937	580802
11.34748	411351
11.35562	336700
11.36373	387319
11.37185	623517
11.37998	1296825
11.38810	2953532
11.39623	6700895
11.40435	1.348404E+07
11.41247	2.385351E+07
11.42060	3.801858E+07
11.42872	5.355699E+07
11.43685	6.7879E+07
11.44497	7.639E+07
11.45308	7.643314E+07
11.46122	6.838814E+07
11.46933	5.24037E+07
11.47745	3.08903E+07
11.48558	1.460623E+07
11.49370	8184523
11.50183	6754580
11.50995	6528854
11.51807	6430995
11.52620	6304591
11.53432	6197650
11.54245	5756041
11.55057	5081377
11.55868	4214663
11.56682	3544183
11.57493	3075508
11.58305	2867576
11.59118	2678778
11.59930	2458457
11.60743	2348135
11.61555	2233339
11.62367	2120249
11.63180	2022452
11.63992	1909095
11.64805	1844615
11.65617	1799436
11.66428	1674330
11.67242	1635252
11.68053	1594029
11.68867	1574817
11.69678	1569695
11.70490	1509716
11.71303	1464691
11.72115	1389750
11.72927	1316998
11.73740	1248253
11.74552	1215231
11.75365	1175749
11.76177	1127659
11.76988	1118970
11.77802	1112934
11.78613	1077022
11.79427	1044693
11.80238	1032281
11.81050	1056508
11.81863	1180875
11.82675	1397548
11.83488	1660411
11.84300	1853685
11.85112	1765209
11.85925	1518462
11.86737	1290927
11.87548	1206130
11.88362	1316337
11.89173	1657539
11.89987	2176258
11.90798	2690132
11.91610	2901743
11.92423	2701537
11.93235	2163432
11.94048	1599902
11.94860	1220609
11.95672	1046046
11.96485	954631
11.97297	926090
11.98108	885125
11.98922	831551
11.99733	822357
12.00547	805252
12.01358	843081
12.02170	911331
12.02983	1009124
12.03795	1096632
12.04608	1096572
12.05420	1089470
12.06232	1357362
12.07045	2199678
12.07857	3853031
12.08670	6013187
12.09482	7347329
12.10293	7046471
12.11107	5441231
12.11918	3529304
12.12730	2191340
12.13543	1507505
12.14355	1305393
12.15168	1222912
12.15980	1183720
12.16792	1086766
12.17605	979381
12.18417	873824
12.19230	747092
12.20042	699689
12.20853	635811
12.21667	606659
12.22478	566333
12.23292	546079
12.24103	540223
12.24915	503712
12.25728	469037
12.26540	451267
12.27352	442263
12.28165	422494
12.28977	409864
12.29790	396963
12.30602	380075
12.31413	392709
12.32227	415926
12.33038	470822
12.33852	610931
12.34663	803308
12.35475	1010004
12.36288	1167810
12.37100	1140341
12.37913	980985
12.38725	823252
12.39537	974869
12.40350	1745417
12.41162	3691272
12.41973	6736289
12.42787	1.007001E+07
12.43598	1.218774E+07
12.44412	1.149465E+07
12.45223	8715414
12.46035	5370338
12.46848	2985694
12.47660	1821806
12.48473	1419052
12.49285	1308728
12.50097	1238758
12.50910	1106197
12.51722	973451
12.52533	858353
12.53347	770841
12.54158	695554
12.54972	652379
12.55783	573283
12.56595	549444
12.57408	521168
12.58220	505884
12.59033	571205
12.59845	931099
12.60657	2263069
12.61470	5936506
12.62282	1.374692E+07
12.63095	2.597831E+07
12.63907	3.99282E+07
12.64718	5.227152E+07
12.65532	5.832717E+07
12.66343	5.557557E+07
12.67155	4.205868E+07
12.67968	2.363659E+07
12.68780	1.147915E+07
12.69593	6851948
12.70405	5353995
12.71217	4559242
12.72030	3867738
12.72842	3425680
12.73655	3064765
12.74467	2786160
12.75278	2528760
12.76092	2370943
12.76903	2171064
12.77717	2093718
12.78528	2039347
12.79340	2061187
12.80153	2088771
12.80965	2151172
12.81777	2148352
12.82590	2039552
12.83402	1830937
12.84215	1627432
12.85027	1458381
12.85838	1378852
12.86652	1286418
12.87463	1230678
12.88277	1220494
12.89088	1239452
12.89900	1205572
12.90713	1127563
12.91525	1068963
12.92337	1003473
12.93150	967542
12.93962	920021
12.94775	910046
12.95587	872557
12.96398	871362
12.97212	924879
12.98023	1228947
12.98837	2065222
12.99648	3558552
13.00460	5071042
13.01273	5795329
13.02085	5217741
13.02898	3739837
13.03710	2333566
13.04522	1438211
13.05335	1037907
13.06147	865114
13.06958	810588
13.07772	737383
13.08583	736422
13.09397	703462
13.10208	696683
13.11020	673493
13.11833	688631
13.12645	705831
13.13458	769393
13.14270	832751
13.15082	980142
13.15895	1124419
13.16707	1329978
13.17520	1649716
13.18332	1857688
13.19143	1816417
13.19957	1537703
13.20768	1162138
13.21580	819747
13.22393	603972
13.23205	469112
13.24018	406576
13.24830	329506
13.25642	296524
13.26455	266010
13.27267	271752
13.28080	239653
13.28892	234138
13.29703	219540
13.30517	209174
13.31328	210217
13.32140	253235
13.32953	350044
13.33765	520705
13.34578	750449
13.35390	941320
13.36202	1024919
13.37015	991624
13.37827	859494
13.38640	714196
13.39452	590923
13.40263	461679
13.41077	376166
13.41888	328964
13.42702	280667
13.43513	266022
13.44325	232452
13.45138	224586
13.45950	215707
13.46762	199916
13.47575	199618
13.48387	206939
13.49200	183560
13.50012	184051
13.50823	175406
13.51637	173891
13.52448	173659
13.53262	169079
13.54073	161508
13.54885	163866
13.55698	164584
13.56510	168431
13.57323	162432
13.58135	151052
13.58947	153211
13.59760	143055
13.60572	136569
13.61383	150444
13.62197	139101
13.63008	139926
13.63822	140696
13.64633	146570
13.65445	151359
13.66258	151588
13.67070	149227
13.67883	155492
13.68695	164104
13.69507	160869
13.70320	144671
13.71132	133608
13.71945	129878
13.72757	124940
13.73568	136065
13.74382	153908
13.75193	185665
13.76005	190369
13.76818	190845
13.77630	176299
13.78443	149266
13.79255	121050
13.80067	110486
13.80880	110626
13.81692	103961
13.82505	103443
13.83317	99266
13.84128	96837
13.84942	95966
13.85753	98232
13.86565	109227
13.87378	99258
13.88190	89788
13.89003	91393
13.89815	88869
13.90627	88123
13.91440	93769
13.92252	87842
13.93065	95877
13.93877	86107
13.94688	85965
13.95502	88211
13.96313	90479
13.97127	87262
13.97938	89338
13.98750	114518
13.99563	187097
14.00375	358823
14.01187	740245
14.02000	1350410
14.02812	2009793
14.03625	2277136
14.04437	2092387
14.05248	1572016
14.06062	979807
14.06873	591940
14.07687	416051
14.08498	368734
14.09310	422137
14.10123	517068
14.10935	585667
14.11748	564589
14.12560	473255
14.13372	354320
14.14185	267983
14.14997	207283
14.15808	171093
14.16622	151013
14.17433	153291
14.18247	156173
14.19058	191713
14.19870	276568
14.20683	422139
14.21495	584729
14.22308	718049
14.23120	740017
14.23932	651154
14.24745	486754
14.25557	362606
14.26368	267758
14.27182	200750
14.27993	165039
14.28807	143194
14.29618	150935
14.30430	172510
14.31243	201842
14.32055	245442
14.32868	267342
14.33680	244290
14.34492	213330
14.35305	181886
14.36117	134754
14.36930	114308
14.37742	100254
14.38553	103818
14.39367	99177
14.40178	117935
14.40990	104716
14.41803	100033
14.42615	103813
14.43428	106345
14.44240	94460
14.45052	99382
14.45865	106171
14.46677	114868
14.47490	147290
14.48302	193274
14.49113	221214
14.49927	240943
14.50738	235623
14.51552	213114
14.52363	210079
14.53175	225797
14.53988	315219
14.54800	466236
14.55612	763017
14.56425	1003375
14.57237	1114012
14.58050	998379
14.58862	715012
14.59673	481322
14.60487	319969
14.61298	235417
14.62112	201759
14.62923	164685
14.63735	151716
14.64548	152397
14.65360	161996
14.66173	182182
14.66985	194069
14.67797	177736
14.68610	148361
14.69422	131921
14.70233	113443
14.71047	106284
14.71858	130475
14.72672	179257
14.73483	274440
14.74295	426826
14.75108	555348
14.75920	591392
14.76733	542678
14.77545	440382
14.78357	339233
14.79170	254897
14.79982	212913
14.80793	194202
14.81607	182030
14.82418	171307
14.83232	164034
14.84043	166417
14.84855	152992
14.85668	143931
14.86480	136206
14.87293	125408
14.88105	110563
14.88917	113913
14.89730	139953
14.90542	216809
14.91355	346062
14.92167	552211
14.92978	760817
14.93792	814435
14.94603	723084
14.95415	520154
14.96228	351308
14.97040	234421
14.97853	186394
14.98665	184704
14.99477	239620
15.00290	303406
15.01102	367431
15.01915	403526
15.02727	382436
15.03538	323904
15.04352	235219
15.05163	176323
15.05977	138414
15.06788	120635
15.07600	106798
15.08413	97922
15.09225	89484
15.10037	87484
15.10850	91008
15.11662	90004
15.12475	91772
15.13287	104850
15.14098	148128
15.14912	260577
15.15723	576943
15.16537	1168416
15.17348	2085716
15.18160	2998871
15.18973	3386937
15.19785	3181558
15.20598	2555370
15.21410	1745893
15.22222	1147400
15.23035	908609
15.23847	1171117
15.24658	2445899
15.25472	5376914
15.26283	9686575
15.27097	1.389524E+07
15.27908	1.555952E+07
15.28720	1.380282E+07
15.29533	9544745
15.30345	5560291
15.31158	3015467
15.31970	1825504
15.32782	1299483
15.33595	1058962
15.34407	889824
15.35218	800336
15.36032	749645
15.36843	696932
15.37657	651952
15.38468	617518
15.39280	544417
15.40093	473018
15.40905	421996
15.41718	385817
15.42530	359626
15.43342	343136
15.44155	315568
15.44967	309074
15.45780	293680
15.46592	289147
15.47403	278279
15.48217	278597
15.49028	290009
15.49840	258958
15.50653	235623
15.51465	217661
15.52278	211372
15.53090	207543
15.53902	193196
15.54715	187609
15.55527	169684
15.56340	169056
15.57152	148555
15.57963	150023
15.58777	135844
15.59588	136353
15.60402	128853
15.61213	119756
15.62025	105085
15.62838	96162
15.63650	91614
15.64462	86989
15.65275	89979
15.66087	83726
15.66900	93075
15.67712	84303
15.68523	78437
15.69337	77782
15.70148	78916
15.70962	84163
15.71773	86112
15.72585	103722
15.73398	88778
15.74210	93619
15.75022	99357
15.75835	109282
15.76647	118154
15.77460	128283
15.78272	128618
15.79083	109759
15.79897	98751
15.80708	91889
15.81522	91610
15.82333	108614
15.83145	129507
15.83958	152322
15.84770	163417
15.85583	155711
15.86395	137365
15.87207	118451
15.88020	90705
15.88832	80214
15.89643	76251
15.90457	78004
15.91268	75187
15.92082	78527
15.92893	77080
15.93705	70944
15.94518	77328
15.95330	72983
15.96143	66095
15.96955	68790
15.97767	74803
15.98580	76661
15.99392	88778
16.00205	92249
16.01017	90227
16.01828	124107
16.02642	151902
16.03453	219230
16.04265	271942
16.05078	295825
16.05890	268704
16.06703	205884
16.07515	135002
16.08327	97391
16.09140	86781
16.09952	82597
16.10765	70576
16.11577	67054
16.12388	73224
16.13202	66437
16.14013	60602
16.14825	67938
16.15638	64502
16.16450	70757
16.17263	74371
16.18075	90525
16.18887	79780
16.19700	77909
16.20512	104203
16.21325	154098
16.22137	270371
16.22948	424564
16.23762	548741
16.24573	555602
16.25387	471392
16.26198	323891
16.27010	217672
16.27823	161181
16.28635	139524
16.29447	149690
16.30260	191613
16.31072	284533
16.31885	382329
16.32697	550321
16.33508	724909
16.34322	850989
16.35133	891105
16.35947	794962
16.36758	572528
16.37570	409905
16.38383	274258
16.39195	201615
16.40008	159132
16.40820	138099
16.41632	136271
16.42445	141870
16.43257	160361
16.44068	172538
16.44882	168582
16.45693	156312
16.46507	140714
16.47318	118740
16.48130	125417
16.48943	104058
16.49755	91390
16.50568	94945
16.51380	87997
16.52192	83614
16.53005	76692
16.53817	81497
16.54630	83069
16.55442	87216
16.56253	81607
16.57067	84270
16.57878	79027
16.58690	74077
16.59503	81915
16.60315	78809
16.61128	91022
16.61940	82574
16.62752	77867
16.63565	80545
16.64377	98588
16.65190	131053
16.66002	185274
16.66813	220787
16.67627	248045
16.68438	238105
16.69250	215792
16.70063	178704
16.70875	148383
16.71688	128026
16.72500	120179
16.73312	126604
16.74125	133536
16.74937	161102
16.75750	164672
16.76562	168140
16.77373	160070
16.78187	153919
16.78998	143609
16.79812	135472
16.80623	134929
16.81435	140029
16.82248	144407
16.83060	129617
16.83872	128799
16.84685	124095
16.85497	126191
16.86310	134365
16.87122	126874
16.87933	114321
16.88747	97596
16.89558	98235
16.90372	87406
16.91183	97524
16.91995	117214
16.92808	141647
16.93620	145136
16.94433	139680
16.95245	126748
16.96057	101238
16.96870	89580
16.97682	85953
16.98493	81779
16.99307	74945
17.00118	83858
17.00932	71349
17.01743	70918
17.02555	63593
17.03368	62750
17.04180	79697
17.04993	69724
17.05805	93147
17.06617	129401
17.07430	219964
17.08242	359833
17.09053	543433
17.09867	653437
17.10678	667108
17.11492	578518
17.12303	432789
17.13115	367942
17.13928	441571
17.14740	879210
17.15553	1924076
17.16365	3785172
17.17177	6296633
17.17990	8108346
17.18802	8700859
17.19615	7870872
17.20427	5756954
17.21238	3683312
17.22052	2193757
17.22863	1312978
17.23675	822507
17.24488	571165
17.25300	440200
17.26113	352140
17.26925	305722
17.27737	283377
17.28550	255956
17.29362	231136
17.30175	208112
17.30987	202436
17.31798	193594
17.32612	184854
17.33423	166038
17.34237	163992
17.35048	160925
17.35860	166281
17.36673	157758
17.37485	156279
17.38297	148203
17.39110	139453
17.39922	138258
17.40735	112416
17.41547	104637
17.42358	88885
17.43172	79736
17.43983	73207
17.44797	71657
17.45608	69691
17.46420	66331
17.47233	66011
17.48045	63275
17.48857	78377
17.49670	77093
17.50482	92631
17.51295	147119
17.52107	198385
17.52918	290136
17.53732	368915
17.54543	396696
17.55357	392026
17.56168	317499
17.56980	257870
17.57793	199745
17.58605	142291
17.59418	121023
17.60230	103368
17.61042	91481
17.61855	87609
17.62667	103701
17.63478	97979
17.64292	112263
17.65103	129885
17.65917	153311
17.66728	163157
17.67540	191678
17.68353	165465
17.69165	156387
17.69978	135740
17.70790	124874
17.71602	110423
17.72415	105039
17.73227	93663
17.74040	95739
17.74852	127963
17.75663	180176
17.76477	263376
17.77288	337761
17.78100	366945
17.78913	349796
17.79725	293013
17.80538	238693
17.81350	174456
17.82162	140529
17.82975	124315
17.83787	109750
17.84600	107112
17.85412	106529
17.86223	99051
17.87037	89264
17.87848	87012
17.88662	73477
17.89473	70090
17.90285	63017
17.91098	65729
17.91910	65657
17.92722	65631
17.93535	63189
17.94347	73272
17.95160	64000
17.95972	62394
17.96783	64353
17.97597	56189
17.98408	59120
17.99222	60939
18.00033	55048
18.00845	68512
18.01658	54482
18.02470	56846
18.03282	58033
18.04095	69312
18.04907	82328
18.05720	125521
18.06532	218959
18.07343	398907
18.08157	632902
18.08968	904832
18.09782	1044451
18.10593	967169
18.11405	808908
18.12218	587554
18.13030	410213
18.13843	264260
18.14655	197314
18.15467	148204
18.16280	124188
18.17092	112710
18.17903	107636
18.18717	94160
18.19528	93101
18.20342	86028
18.21153	80932
18.21965	80642
18.22778	78354
18.23590	76883
18.24403	78926
18.25215	79822
18.26027	90131
18.26840	77999
18.27652	72515
18.28465	71098
18.29277	75556
18.30088	71991
18.30902	70254
18.31713	70154
18.32525	70782
18.33338	65693
18.34150	61837
18.34963	56148
18.35775	57419
18.36587	65613
18.37400	59235
18.38212	57579
18.39025	73129
18.39837	64207
18.40648	59763
18.41462	65083
18.42273	57001
18.43085	59946
18.43898	57992
18.44710	60185
18.45523	59202
18.46335	63614
18.47147	67005
18.47960	81448
18.48772	108313
18.49585	176518
18.50397	282679
18.51208	463721
18.52022	677864
18.52833	880385
18.53647	965913
18.54458	858826
18.55270	725564
18.56083	579928
18.56895	492380
18.57707	450378
18.58520	502522
18.59332	516989
18.60145	481167
18.60957	479951
18.61768	440087
18.62582	408613
18.63393	390795
18.64207	359582
18.65018	348417
18.65830	341047
18.66643	327625
18.67455	321870
18.68268	307340
18.69080	312531
18.69892	325042
18.70705	317985
18.71517	290436
18.72328	287432
18.73142	254919
18.73953	231275
18.74767	210989
18.75578	196810
18.76390	184516
18.77203	177505
18.78015	177811
18.78828	163893
18.79640	168143
18.80452	164708
18.81265	155760
18.82077	152043
18.82888	147055
18.83702	149133
18.84513	149226
18.85327	147998
18.86138	137524
18.86950	135555
18.87763	130859
18.88575	134775
18.89388	124552
18.90200	113984
18.91012	117393
18.91825	126244
18.92637	113338
18.93450	124819
18.94262	122976
18.95073	135488
18.95887	131487
18.96698	130076
18.97510	129404
18.98323	140187
18.99135	179812
18.99948	295878
19.00760	592174
19.01572	1123982
19.02385	1945281
19.03197	2851210
19.04010	3398873
19.04822	3280574
19.05633	2596148
19.06447	1801259
19.07258	1088542
19.08072	652712
19.08883	391083
19.09695	262370
19.10508	211530
19.11320	182300
19.12132	165046
19.12945	149721
19.13757	135509
19.14570	134000
19.15382	135712
19.16193	119281
19.17007	118761
19.17818	114624
19.18632	108356
19.19443	109574
19.20255	118187
19.21068	133530
19.21880	140612
19.22693	136270
19.23505	127488
19.24317	106943
19.25130	97040
19.25942	93243
19.26753	84010
19.27567	76389
19.28378	80282
19.29192	91845
19.30003	79090
19.30815	75900
19.31628	71043
19.32440	72938
19.33253	75650
19.34065	73084
19.34877	74282
19.35690	74478
19.36502	88976
19.37313	89567
19.38127	94661
19.38938	95261
19.39752	87627
19.40563	81799
19.41375	82166
19.42188	83295
19.43000	90031
19.43813	100338
19.44625	88920
19.45437	96702
19.46250	89171
19.47062	70809
19.47875	69056
19.48687	69382
19.49498	63969
19.50312	58683
19.51123	58540
19.51935	65917
19.52748	68737
19.53560	81430
19.54373	94631
19.55185	107821
19.55997	124924
19.56810	134392
19.57622	140381
19.58435	137534
19.59247	124605
19.60058	107200
19.60872	106021
19.61683	102123
19.62497	106963
19.63308	96071
19.64120	93237
19.64933	94237
19.65745	88323
19.66557	83409
19.67370	73262
19.68182	73957
19.68995	70966
19.69807	72624
19.70618	74027
19.71432	93895
19.72243	86115
19.73057	90916
19.73868	89962
19.74680	84538
19.75493	90232
19.76305	78989
19.77117	94292
19.77930	101262
19.78742	118370
19.79555	148273
19.80367	169612
19.81178	180573
19.81992	184462
19.82803	177463
19.83617	138362
19.84428	113093
19.85240	95616
19.86053	86225
19.86865	71053
19.87678	67408
19.88490	74559
19.89302	69001
19.90115	62568
19.90927	74205
19.91738	63096
19.92552	61952
19.93363	61183
19.94177	72538
19.94988	66027
19.95800	78249
19.96613	68539
19.97425	64874
19.98238	65111
19.99050	69512
19.99862	72905
20.00675	77287
20.01487	90535
20.02300	128884
20.03112	172754
20.03923	253842
20.04737	357194
20.05548	450942
20.06360	483105
20.07173	469933
20.07985	372465
20.08798	275906
20.09610	215859
20.10422	174642
20.11235	145352
20.12047	129131
20.12860	106831
20.13672	98150
20.14483	89948
20.15297	86756
20.16108	86210
20.16920	94133
20.17733	109893
20.18545	133741
20.19358	183790
20.20170	253202
20.20982	310099
20.21795	319209
20.22607	280394
20.23420	219521
20.24232	160395
20.25043	113370
20.25857	92656
20.26668	81412
20.27482	80179
20.28293	78912
20.29105	79137
20.29918	85340
20.30730	78762
20.31542	86947
20.32355	73351
20.33167	67860
20.33980	76876
20.34792	84456
20.35603	86842
20.36417	98534
20.37228	107821
20.38042	128504
20.38853	126517
20.39665	123663
20.40478	115620
20.41290	111328
20.42103	101038
20.42915	99392
20.43727	99065
20.44540	99392
20.45352	101502
20.46163	94862
20.46977	100433
20.47788	93419
20.48602	88482
20.49413	89091
20.50225	82725
20.51038	78807
20.51850	75235
20.52663	69503
20.53475	67046
20.54287	61577
20.55100	59560
20.55912	71170
20.56725	68630
20.57537	82008
20.58348	92323
20.59162	118294
20.59973	158923
20.60785	212548
20.61598	272543
20.62410	309715
20.63223	314231
20.64035	293090
20.64847	245861
20.65660	196615
20.66472	154281
20.67285	127578
20.68097	107750
20.68908	107470
20.69722	83522
20.70533	81122
20.71345	78728
20.72158	68850
20.72970	66452
20.73783	64990
20.74595	65662
20.75407	72797
20.76220	78225
20.77032	90871
20.77845	104778
20.78657	131759
20.79468	127120
20.80282	126786
20.81093	112144
20.81907	108625
20.82718	97916
20.83530	129321
20.84343	148376
20.85155	205593
20.85967	264407
20.86780	295209
20.87592	285007
20.88405	251203
20.89217	199267
20.90028	139179
20.90842	106017
20.91653	82755
20.92467	73133
20.93278	71953
20.94090	66267
20.94903	65417
20.95715	61985
20.96528	63701
20.97340	59707
20.98152	65882
20.98965	63393
20.99777	62445
21.00588	72147
21.01402	66105
21.02213	81950
21.03027	111224
21.03838	157041
21.04650	194350
21.05463	208221
21.06275	192237
21.07088	154367
21.07900	137880
21.08712	118697
21.09525	94122
21.10337	81688
21.11148	85463
21.11962	71992
21.12773	78532
21.13587	75919
21.14398	75686
21.15210	72967
21.16023	75602
21.16835	82480
21.17648	81129
21.18460	67820
21.19272	70039
21.20085	66100
21.20897	69718
21.21710	64497
21.22522	88401
21.23333	140661
21.24147	275297
21.24958	509477
21.25770	849075
21.26583	1140734
21.27395	1252108
21.28208	1051807
21.29020	759851
21.29832	471833
21.30645	285978
21.31457	176672
21.32270	142680
21.33082	107491
21.33893	96018
21.34707	85557
21.35518	80665
21.36332	77116
21.37143	72118
21.37955	73997
21.38768	87836
21.39580	80653
21.40392	77734
21.41205	85900
21.42017	83743
21.42830	88642
21.43642	75787
21.44453	73303
21.45267	67964
21.46078	70556
21.46892	68890
21.47703	70578
21.48515	80089
21.49328	80127
21.50140	86701
21.50952	88438
21.51765	87516
21.52577	82190
21.53390	75722
21.54202	70290
21.55013	78589
21.55827	64875
21.56638	66359
21.57452	69811
21.58263	74298
21.59075	97405
21.59888	160785
21.60700	272862
21.61513	428692
21.62325	575315
21.63137	633902
21.63950	574249
21.64762	434377
21.65573	291615
21.66387	200333
21.67198	156160
21.68012	127271
21.68823	121497
21.69635	120226
21.70448	120590
21.71260	113402
21.72073	105620
21.72885	100512
21.73697	86806
21.74510	82252
21.75322	76704
21.76135	73282
21.76947	78253
21.77758	71790
21.78572	81520
21.79383	71932
21.80195	73617
21.81008	68585
21.81820	62119
21.82633	62386
21.83445	61535
21.84257	60221
21.85070	58587
21.85882	61166
21.86695	65880
21.87507	64452
21.88318	56353
21.89132	58857
21.89943	57395
21.90757	56535
21.91568	58269
21.92380	57827
21.93193	74718
21.94005	83543
21.94817	104017
21.95630	118351
21.96442	129532
21.97255	123988
21.98067	112280
21.98878	99467
21.99692	96064
22.00503	85011
22.01317	69788
22.02128	68101
22.02940	65771
22.03753	65878
22.04565	70919
22.05377	75346
22.06190	82754
22.07002	100741
22.07815	108289
22.08627	123352
22.09438	120086
22.10252	109051
22.11063	99960
22.11877	95414
22.12688	109819
22.13500	152571
22.14313	208292
22.15125	259446
22.15938	282451
22.16750	269410
22.17562	240342
22.18375	203680
22.19187	151814
22.19998	137237
22.20812	116105
22.21623	122793
22.22437	146374
22.23248	175816
22.24060	184903
22.24873	198722
22.25685	189304
22.26498	183421
22.27310	176421
22.28122	183944
22.28935	163824
22.29747	150933
22.30560	137719
22.31372	138113
22.32183	124326
22.32997	125900
22.33808	112221
22.34620	109641
22.35433	107771
22.36245	110954
22.37058	93549
22.37870	97047
22.38682	92551
22.39495	85031
22.40307	91312
22.41120	90860
22.41932	91639
22.42743	96145
22.43557	84667
22.44368	89552
22.45180	85483
22.45993	84254
22.46805	84573
22.47618	77080
22.48430	80258
22.49242	73558
22.50055	74723
22.50867	63718
22.51680	67096
22.52492	76134
22.53303	97623
22.54117	158285
22.54928	339208
22.55742	758919
22.56553	1621337
22.57365	2785625
22.58178	3829467
22.58990	4194214
22.59802	3795254
22.60615	2751890
22.61427	1766103
22.62240	1042028
22.63052	633052
22.63863	424049
22.64677	336257
22.65488	278603
22.66302	242336
22.67113	213073
22.67925	189307
22.68738	175611
22.69550	157323
22.70363	143589
22.71175	131725
22.71987	125263
22.72800	120491
22.73612	115683
22.74423	118175
22.75237	121189
22.76048	111777
22.76862	105079
22.77673	116819
22.78485	96452
22.79298	95575
22.80110	94378
22.80923	90385
22.81735	86761
22.82547	87371
22.83360	83187
22.84172	80742
22.84985	82133
22.85797	75025
22.86608	74543
22.87422	72721
22.88233	81493
22.89045	76278
22.89858	71073
22.90670	70699
22.91483	67776
22.92295	65988
22.93107	71093
22.93920	65183
22.94732	71311
22.95545	69836
22.96357	67010
22.97168	73053
22.97982	72333
22.98793	73799
22.99605	78556
23.00418	76849
23.01230	79788
23.02043	77159
23.02855	70483
23.03667	72444
23.04480	64928
23.05292	64956
23.06105	64473
23.06917	66112
23.07728	79260
23.08542	111473
23.09353	170675
23.10167	269348
23.10978	431710
23.11790	543586
23.12603	603860
23.13415	586877
23.14227	448773
23.15040	317952
23.15852	222839
23.16665	151280
23.17477	136025
23.18288	115834
23.19102	118241
23.19913	103114
23.20727	99848
23.21538	95793
23.22350	97139
23.23163	102762
23.23975	97824
23.24788	95339
23.25600	90261
23.26412	75199
23.27225	73778
23.28037	84937
23.28848	89897
23.29662	123872
23.30473	198013
23.31287	363529
23.32098	589634
23.32910	836285
23.33723	962199
23.34535	971383
23.35348	817138
23.36160	584056
23.36972	424035
23.37785	323665
23.38597	248878
23.39410	249864
23.40222	279362
23.41033	338339
23.41847	366688
23.42658	380481
23.43470	351864
23.44283	287945
23.45095	233606
23.45908	195984
23.46720	176031
23.47532	162211
23.48345	151594
23.49157	149598
23.49970	150575
23.50782	125725
23.51593	123192
23.52407	112285
23.53218	115078
23.54030	101031
23.54843	95544
23.55655	102299
23.56468	89026
23.57280	97915
23.58092	78216
23.58905	79973
23.59717	88086
23.60530	98065
23.61342	120816
23.62153	148553
23.62967	184551
23.63778	195928
23.64592	196366
23.65403	174736
23.66215	138981
23.67028	112244
23.67840	88350
23.68652	81321
23.69465	70295
23.70277	72801
23.71090	70335
23.71902	68043
23.72713	68760
23.73527	64202
23.74338	61210
23.75152	66738
23.75963	66303
23.76775	63727
23.77588	73751
23.78400	66602
23.79213	63554
23.80025	60664
23.80837	64384
23.81650	55993
23.82462	60000
23.83273	57393
23.84087	60820
23.84898	58108
23.85712	60519
23.86523	56319
23.87335	55048
23.88148	56528
23.88960	57187
23.89773	53728
23.90585	55517
23.91397	59321
23.92210	67572
23.93022	65267
23.93833	62206
23.94647	63995
23.95458	62250
23.96272	61676
23.97083	58933
23.97895	88489
23.98708	136915
23.99520	167135
24.00333	201751
24.01145	225542
24.01957	227957
24.02770	236393
24.03582	236155
24.04395	228133
24.05207	223866
24.06018	215449
24.06832	217423
24.07643	204284
24.08455	191548
24.09268	185933
24.10080	185510
24.10893	201658
24.11705	261282
24.12517	341530
24.13330	433395
24.14142	535168
24.14955	586892
24.15767	598657
24.16578	560256
24.17392	543118
24.18203	476010
24.19017	392472
24.19828	312641
24.20640	237249
24.21453	202180
24.22265	182259
24.23077	242032
24.23890	481396
24.24702	1172728
24.25515	2575658
24.26327	4681096
24.27138	6572355
24.27952	7351454
24.28763	7072644
24.29577	5880688
24.30388	4593948
24.31200	3469309
24.32013	2552452
24.32825	1945790
24.33637	1477330
24.34450	1130723
24.35262	923149
24.36075	768958
24.36887	645266
24.37698	570288
24.38512	539601
24.39323	505930
24.40137	466042
24.40948	450828
24.41760	393615
24.42573	329173
24.43385	286920
24.44198	250870
24.45010	241377
24.45822	217207
24.46635	204427
24.47447	193522
24.48258	173673
24.49072	168533
24.49883	160956
24.50697	158897
24.51508	145166
24.52320	136372
24.53133	143103
24.53945	143611
24.54758	138820
24.55570	130688
24.56382	116716
24.57195	111113
24.58007	115762
24.58820	104328
24.59632	105013
24.60443	115143
24.61257	120625
24.62068	131691
24.62880	135276
24.63693	143382
24.64505	138697
24.65318	161624
24.66130	180862
24.66942	223828
24.67755	272274
24.68567	292818
24.69380	283948
24.70192	273539
24.71003	247568
24.71817	205195
24.72628	183382
24.73442	144519
24.74253	130595
24.75065	118912
24.75878	115708
24.76690	113457
24.77502	110607
24.78315	113794
24.79127	105211
24.79940	103106
24.80752	105173
24.81563	111420
24.82377	109787
24.83188	111935
24.84002	102516
24.84813	94950
24.85625	85462
24.86438	81873
24.87250	81299
24.88062	75389
24.88875	78036
24.89687	75077
24.90500	71200
24.91312	73655
24.92123	73221
24.92937	74097
24.93748	72567
24.94562	73564
24.95373	88223
24.96185	95493
24.96998	103288
24.97810	120930
24.98623	131730
24.99435	118884
25.00247	113532
25.01060	91396
25.01872	89295
25.02683	80670
25.03497	73374
25.04308	74485
25.05122	72897
25.05933	76298
25.06745	76222
25.07558	73268
25.08370	73576
25.09183	74845
25.09995	80906
25.10807	85112
25.11620	89095
25.12432	100319
25.13245	104940
25.14057	101748
25.14868	109147
25.15682	90927
25.16493	86704
25.17305	80248
25.18118	86714
25.18930	75448
25.19743	73450
25.20555	72982
25.21367	80354
25.22180	94021
25.22992	135217
25.23805	177123
25.24617	207106
25.25428	225642
25.26242	217631
25.27053	215171
25.27865	213975
25.28678	201023
25.29490	197473
25.30303	184891
25.31115	169758
25.31927	159910
25.32740	146786
25.33552	138143
25.34365	135483
25.35177	127189
25.35988	129722
25.36802	123536
25.37613	114718
25.38427	108501
25.39238	108626
25.40050	116762
25.40863	118874
25.41675	120498
25.42487	112962
25.43300	110320
25.44112	116695
25.44925	124347
25.45737	129036
25.46548	140828
25.47362	131420
25.48173	109069
25.48987	95248
25.49798	85545
25.50610	81472
25.51423	77583
25.52235	74631
25.53048	76566
25.53860	78849
25.54672	75053
25.55485	85312
25.56297	76791
25.57108	73113
25.57922	75059
25.58733	81750
25.59547	86742
25.60358	111376
25.61170	147782
25.61983	179584
25.62795	216648
25.63608	223274
25.64420	234857
25.65232	223167
25.66045	205530
25.66857	180971
25.67668	143909
25.68482	123993
25.69293	114779
25.70107	110913
25.70918	107280
25.71730	98024
25.72543	98984
25.73355	85973
25.74168	78996
25.74980	75730
25.75792	68080
25.76605	84896
25.77417	75777
25.78230	75782
25.79042	75272
25.79853	83251
25.80667	89761
25.81478	91144
25.82290	100882
25.83103	105393
25.83915	114735
25.84728	125535
25.85540	161721
25.86352	195803
25.87165	259301
25.87977	290462
25.88790	293116
25.89602	257211
25.90413	194012
25.91227	137590
25.92038	116667
25.92852	97448
25.93663	87273
25.94475	78232
25.95288	83946
25.96100	84126
25.96912	76325
25.97725	73441
25.98537	65115
25.99350	66038
26.00162	68638
26.00973	67537
26.01787	68326
26.02598	66795
26.03412	69288
26.04223	80566
26.05035	63163
26.05848	66418
26.06660	77506
26.07473	66395
26.08285	72717
26.09097	62609
26.09910	62587
26.10722	63006
26.11533	61753
26.12347	73657
26.13158	62080
26.13972	66162
26.14783	59632
26.15595	61048
26.16408	69181
26.17220	57268
26.18033	61186
26.18845	62022
26.19657	63638
26.20470	67704
26.21282	59356
26.22093	71778
26.22907	64130
26.23718	61643
26.24532	61830
26.25343	63423
26.26155	67955
26.26968	70211
26.27780	73705
26.28593	71903
26.29405	75066
26.30217	86291
26.31030	73058
26.31842	83570
26.32655	102395
26.33467	128338
26.34278	159272
26.35092	202109
26.35903	243496
26.36715	281082
26.37528	278475
26.38340	233814
26.39153	198218
26.39965	167132
26.40777	152018
26.41590	185228
26.42402	227660
26.43215	265476
26.44027	278280
26.44838	243578
26.45652	193625
26.46463	144392
26.47277	114987
26.48088	81317
26.48900	70683
26.49713	66129
26.50525	60577
26.51337	60083
26.52150	62918
26.52962	60318
26.53775	62839
26.54587	61055
26.55398	62116
26.56212	63209
26.57023	66485
26.57837	63506
26.58648	65484
26.59460	59042
26.60273	61086
26.61085	62162
26.61897	58985
26.62710	74438
26.63522	67540
26.64335	74237
26.65147	85114
26.65958	92566
26.66772	115714
26.67583	122057
26.68397	118327
26.69208	112061
26.70020	112721
26.70833	97333
26.71645	85787
26.72458	76601
26.73270	73126
26.74082	65062
26.74895	63272
26.75707	70526
26.76518	63613
26.77332	72450
26.78143	63569
26.78957	61123
26.79768	60279
26.80580	59808
26.81393	61863
26.82205	58652
26.83018	59205
26.83830	58829
26.84642	57027
26.85455	56778
26.86267	55232
26.87080	58365
26.87892	55572
26.88703	59120
26.89517	60563
26.90328	58572
26.91140	61857
26.91953	56319
26.92765	51298
26.93578	56261
26.94390	55662
26.95202	55864
26.96015	55812
26.96827	55798
26.97640	58293
26.98452	65179
26.99263	66774
27.00077	67493
27.00888	67988
27.01700	75589
27.02513	69829
27.03325	69529
27.04138	60797
27.04950	58653
27.05762	67202
27.06575	69484
27.07387	57310
27.08200	60527
27.09012	63564
27.09823	66665
27.10637	71655
27.11448	91162
27.12262	99782
27.13073	113152
27.13885	121611
27.14698	123818
27.15510	118277
27.16322	106949
27.17135	84593
27.17947	78314
27.18760	72175
27.19572	63973
27.20383	70068
27.21197	67023
27.22008	69236
27.22822	72498
27.23633	73732
27.24445	74115
27.25258	74275
27.26070	74331
27.26883	74696
27.27695	72509
27.28507	74042
27.29320	70374
27.30132	76080
27.30943	68334
27.31757	66427
27.32568	66638
27.33382	71385
27.34193	66359
27.35005	65478
27.35818	65635
27.36630	63938
27.37443	64361
27.38255	66360
27.39067	65977
27.39880	71075
27.40692	90002
27.41505	120537
27.42317	205633
27.43128	377392
27.43942	650194
27.44753	1010340
27.45565	1350084
27.46378	1552329
27.47190	1648166
27.48003	1561962
27.48815	1401706
27.49627	1142710
27.50440	948690
27.51252	753373
27.52065	606426
27.52877	489367
27.53688	402460
27.54502	340298
27.55313	279384
27.56125	241602
27.56938	207026
27.57750	181274
27.58563	168830
27.59375	146265
27.60187	126246
27.61000	121090
27.61812	118827
27.62625	106353
27.63437	104880
27.64248	101533
27.65062	100117
27.65873	106407
27.66687	117069
27.67498	120485
27.68310	122687
27.69123	130450
27.69935	123029
27.70747	116417
27.71560	104805
27.72372	90961
27.73185	86110
27.73997	84390
27.74808	84596
27.75622	74386
27.76433	81436
27.77247	74798
27.78058	75152
27.78870	71909
27.79683	72663
27.80495	76174
27.81308	75762
27.82120	73873
27.82932	75820
27.83745	77239
27.84557	87157
27.85368	86772
27.86182	98970
27.86993	96383
27.87807	86529
27.88618	80338
27.89430	76844
27.90243	73725
27.91055	65755
27.91868	65688
27.92680	80861
27.93492	73731
27.94305	69123
27.95117	65867
27.95928	64641
27.96742	65994
27.97553	64706
27.98367	60926
27.99178	73989
27.99990	63740
28.00803	62587
28.01615	61580
28.02428	59515
28.03240	60792
28.04052	63182
28.04865	61540
28.05677	62206
28.06490	66349
28.07302	74138
28.08113	71074
28.08927	82076
28.09738	96915
28.10550	94910
28.11363	93208
28.12175	99734
28.12988	105091
28.13800	122633
28.14612	117778
28.15425	108211
28.16237	103408
28.17050	91215
28.17862	81991
28.18673	75601
28.19487	68932
28.20298	58194
28.21112	60856
28.21923	66118
28.22735	59394
28.23548	62081
28.24360	58425
28.25172	62538
28.25985	60076
28.26797	58905
28.27610	62519
28.28422	75167
28.29233	68038
28.30047	68485
28.30858	65131
28.31672	67502
28.32483	74781
28.33295	66081
28.34108	62768
28.34920	68719
28.35732	64056
28.36545	69082
28.37357	66496
28.38170	65648
28.38982	63940
28.39793	61898
28.40607	63527
28.41418	63639
28.42232	62670
28.43043	62207
28.43855	66920
28.44668	66482
28.45480	72184
28.46293	76547
28.47105	75114
28.47917	79746
28.48730	77270
28.49542	85115
28.50353	72174
28.51167	82256
28.51978	78998
28.52792	79212
28.53603	74965
28.54415	71525
28.55228	75243
28.56040	84716
28.56853	98627
28.57665	113090
28.58477	121622
28.59290	124568
28.60102	111726
28.60915	98401
28.61727	94104
28.62538	80832
28.63352	73487
28.64163	74835
28.64975	62383
28.65788	64953
28.66600	71374
28.67413	70434
28.68225	66610
28.69037	68766
28.69850	75861
28.70662	87654
28.71475	113101
28.72287	143184
28.73098	178251
28.73912	218686
28.74723	237607
28.75537	274532
28.76348	297360
28.77160	322257
28.77973	322569
28.78785	335447
28.79597	335159
28.80410	363564
28.81222	359642
28.82035	359510
28.82847	331888
28.83658	310355
28.84472	283865
28.85283	239169
28.86097	206892
28.86908	190835
28.87720	172554
28.88533	159998
28.89345	159883
28.90157	142423
28.90970	140078
28.91782	136411
28.92595	125200
28.93407	119101
28.94218	108652
28.95032	107169
28.95843	114264
28.96657	102672
28.97468	95256
28.98280	96150
28.99093	97127
28.99905	89246
29.00718	100716
29.01530	88628
29.02342	89329
29.03155	99235
29.03967	90523
29.04778	89990
29.05592	86757
29.06403	95033
29.07217	99086
29.08028	104187
29.08840	106463
29.09653	104669
29.10465	98520
29.11278	89227
29.12090	83129
29.12902	76052
29.13715	73061
29.14527	70548
29.15340	72079
29.16152	77527
29.16963	79650
29.17777	81563
29.18588	86117
29.19400	85837
29.20213	82041
29.21025	94023
29.21838	73147
29.22650	77568
29.23462	74868
29.24275	72786
29.25087	80499
29.25900	67194
29.26712	73261
29.27523	67755
29.28337	73982
29.29148	68056
29.29960	68870
29.30773	68492
29.31585	67831
29.32398	65738
29.33210	66480
29.34022	64918
29.34835	62910
29.35647	56938
29.36460	62488
29.37272	66324
29.38083	63518
29.38897	69619
29.39708	65234
29.40522	63835
29.41333	63403
29.42145	63046
29.42958	60112
29.43770	58239
29.44582	62301
29.45395	60686
29.46207	63272
29.47020	66098
29.47832	65770
29.48643	66154
29.49457	69673
29.50268	66954
29.51082	66122
29.51893	70089
29.52705	65729
29.53518	62422
29.54330	66758
29.55143	64352
29.55955	63846
29.56767	67660
29.57580	74805
29.58392	66187
29.59203	67713
29.60017	62858
29.60828	56914
29.61642	62356
29.62453	61124
29.63265	57364
29.64078	61106
29.64890	58757
29.65703	63873
29.66515	64447
29.67327	66083
29.68140	62587
29.68952	65576
29.69763	71851
29.70577	63931
29.71388	67220
29.72202	68461
29.73013	68893
29.73825	68908
29.74638	67352
29.75450	73891
29.76263	68117
29.77075	74974
29.77887	67505
29.78700	68873
29.79512	71382
29.80325	73003
29.81137	66100
29.81948	65707
29.82762	62496
29.83573	65142
29.84385	60524
29.85198	59774
29.86010	67312
29.86823	70147
29.87635	61697
29.88447	68913
29.89260	61284
29.90072	61201
29.90885	63078
29.91697	66413
29.92508	60787
29.93322	61252
29.94133	58658
29.94947	68003
29.95758	62970
29.96570	75629
29.97383	62648
29.98195	63748
29.99007	60208
29.99820	62195
30.00632	62757
30.01445	66524
30.02257	66352
30.03068	64973
30.03882	69479
30.04693	74016
30.05507	70415
30.06318	74870
30.07130	71021
30.07943	72973
30.08755	78154
30.09568	82411
30.10380	89958
30.11192	97105
30.12005	101979
30.12817	106792
30.13628	111912
30.14442	110776
30.15253	108532
30.16067	115116
30.16878	103415
30.17690	107803
30.18503	105656
30.19315	100668
30.20128	90812
30.20940	103678
30.21752	92018
30.22565	90752
30.23377	92519
30.24188	90088
30.25002	93321
30.25813	98748
30.26627	90142
30.27438	80061
30.28250	80220
30.29063	81674
30.29875	82419
30.30688	92771
30.31500	100696
30.32312	106051
30.33125	122013
30.33937	135743
30.34750	151124
30.35562	156466
30.36373	162927
30.37187	167133
30.37998	170729
30.38810	181772
30.39623	176377
30.40435	165668
30.41248	170798
30.42060	179099
30.42872	184384
30.43685	190477
30.44497	197342
30.45310	188544
30.46122	167488
30.46933	157503
30.47747	136037
30.48558	132704
30.49372	126321
30.50183	117933
30.50995	116266
30.51808	112008
30.52620	109803
30.53432	101161
30.54245	101950
30.55057	93960
30.55870	99950
30.56682	101013
30.57493	90045
30.58307	88471
30.59118	98894
30.59932	90187
30.60743	93559
30.61555	89281
30.62368	89525
30.63180	96828
30.63992	89533
30.64805	82226
30.65617	82508
30.66430	80962
30.67242	77151
30.68053	84256
30.68867	81075
30.69678	77793
30.70492	77587
30.71303	79093
30.72115	83501
30.72928	80393
30.73740	75062
30.74553	73471
30.75365	71869
30.76177	73804
30.76990	71992
30.77802	69403
30.78613	69798
30.79427	74297
30.80238	74643
30.81052	68878
30.81863	70528
30.82675	76860
30.83488	75864
30.84300	68698
30.85113	77623
30.85925	79280
30.86737	70199
30.87550	67938
30.88362	69603
30.89175	67234
30.89987	66377
30.90798	66161
30.91612	62493
30.92423	67563
30.93235	70685
30.94048	73268
30.94860	87932
30.95673	92913
30.96485	98195
30.97297	97174
30.98110	96485
30.98922	85331
30.99735	79523
31.00547	76845
31.01358	68701
31.02172	70286
31.02983	66690
31.03795	68755
31.04608	66559
31.05420	68635
31.06233	80278
31.07045	71514
31.07857	70528
31.08670	71264
31.09482	69332
31.10295	74004
31.11107	66519
31.11918	70581
31.12732	66664
31.13543	65130
31.14357	65253
31.15168	69244
31.15980	62628
31.16793	65445
31.17605	66119
31.18417	64806
31.19230	65413
31.20042	63771
31.20855	59644
31.21667	62786
31.22478	67380
31.23292	74548
31.24103	63957
31.24917	64154
31.25728	60759
31.26540	61518
31.27353	60566
31.28165	74068
31.28978	66245
31.29790	62895
31.30602	64387
31.31415	66062
31.32227	76338
31.33038	94435
31.33852	112267
31.34663	144629
31.35477	158679
31.36288	150818
31.37100	140840
31.37913	115348
31.38725	102244
31.39538	104561
31.40350	92888
31.41162	86566
31.41975	83619
31.42787	78256
31.43600	74398
31.44412	79400
31.45223	68929
31.46037	66311
31.46848	69792
31.47660	67987
31.48473	69134
31.49285	62872
31.50098	66879
31.50910	67760
31.51722	67548
31.52535	69549
31.53347	70004
31.54160	73909
31.54972	73591
31.55783	70599
31.56597	73105
31.57408	70293
31.58220	61663
31.59033	66518
31.59845	68571
31.60658	65243
31.61470	73156
31.62282	83844
31.63095	90047
31.63907	101630
31.64720	125393
31.65532	136088
31.66343	155036
31.67157	160694
31.67968	136625
31.68782	118332
31.69593	100558
31.70405	86919
31.71218	80589
31.72030	71968
31.72842	75090
31.73655	75531
31.74467	75330
31.75280	73818
31.76092	68123
31.76903	74428
31.77717	65672
31.78528	64416
31.79342	72893
31.80153	65149
31.80965	68058
31.81778	64824
31.82590	69459
31.83403	65454
31.84215	70127
31.85027	68050
31.85840	66709
31.86652	70885
31.87463	64091
31.88277	67046
31.89088	76105
31.89902	65324
31.90713	65710
31.91525	68063
31.92338	73860
31.93150	87136
31.93963	89958
31.94775	81215
31.95587	84790
31.96400	92513
31.97212	85223
31.98023	74868
31.98837	70022
31.99648	71604
32.00462	68460
32.01273	68472
32.02085	64744
32.02898	73951
32.03710	61284
32.04523	67773
32.05335	69772
32.06147	66634
32.06960	74935
32.07772	69344
32.08585	70520
32.09397	79481
32.10208	86946
32.11022	99412
32.11833	89222
32.12645	93752
32.13458	89515
32.14270	83401
32.15083	89129
32.15895	74254
32.16707	74815
32.17520	71887
32.18332	71424
32.19145	73551
32.19957	70242
32.20768	71591
32.21582	68644
32.22393	69947
32.23207	70966
32.24018	75227
32.24830	86881
32.25643	93065
32.26455	99361
32.27267	112033
32.28080	131774
32.28892	131101
32.29705	140690
32.30517	138979
32.31328	141033
32.32142	133809
32.32953	130678
32.33767	125508
32.34578	125835
32.35390	124328
32.36203	122093
32.37015	116978
32.37827	117016
32.38640	123532
32.39452	145658
32.40265	151784
32.41077	160883
32.41888	170528
32.42702	164929
32.43513	161094
32.44327	147552
32.45138	125921
32.45950	108692
32.46763	100279
32.47575	97530
32.48388	83470
32.49200	88305
32.50012	83703
32.50825	78379
32.51637	77933
32.52448	77880
32.53262	73293
32.54073	77932
32.54887	76012
32.55698	75282
32.56510	77723
32.57323	77750
32.58135	85096
32.58948	79047
32.59760	72750
32.60572	72720
32.61385	67984
32.62197	68577
32.63010	73036
32.63822	73176
32.64633	68715
32.65447	80544
32.66258	70931
32.67070	79016
32.67883	76671
32.68695	72545
32.69508	75794
32.70320	71481
32.71132	69050
32.71945	73910
32.72757	74145
32.73570	71192
32.74382	72109
32.75193	72727
32.76007	70753
32.76818	73818
32.77632	75927
32.78443	74265
32.79255	79429
32.80068	78505
32.80880	73896
32.81692	79813
32.82505	78673
32.83317	80700
32.84130	79255
32.84942	82468
32.85753	83702
32.86567	79632
32.87378	73061
32.88192	79903
32.89003	71752
32.89815	76805
32.90628	81086
32.91440	74330
32.92252	74853
32.93065	72636
32.93877	76762
32.94690	74494
32.95502	78841
32.96313	81658
32.97127	75239
32.97938	89255
32.98752	83432
32.99563	89039
33.00375	87873
33.01188	85570
33.02000	84506
33.02813	79309
33.03625	74453
33.04437	74107
33.05250	74394
33.06062	75255
33.06873	67336
33.07687	79005
33.08498	72062
33.09312	70118
33.10123	70376
33.10935	68319
33.11748	74013
33.12560	72219
33.13373	74907
33.14185	72761
33.14997	79909
33.15810	69345
33.16622	65525
33.17435	76683
33.18247	71216
33.19058	67860
33.19872	69817
33.20683	71696
33.21495	83402
33.22308	79654
33.23120	76844
33.23933	77492
33.24745	82837
33.25557	74647
33.26370	71696
33.27182	72385
33.27995	70851
33.28807	72652
33.29618	74605
33.30432	69276
33.31243	72527
33.32055	73347
33.32868	71112
33.33680	67392
33.34493	69115
33.35305	69101
33.36117	66511
33.36930	68985
33.37742	66809
33.38555	71462
33.39367	68680
33.40178	70459
33.40992	72234
33.41803	75982
33.42617	70945
33.43428	69194
33.44240	73433
33.45053	68681
33.45865	74474
33.46677	73928
33.47490	77330
33.48302	74913
33.49115	77483
33.49927	77607
33.50738	74545
33.51552	75056
33.52363	80939
33.53177	75397
33.53988	76204
33.54800	73108
33.55613	71992
33.56425	70656
33.57238	75694
33.58050	80000
33.58862	75202
33.59675	73881
33.60487	80236
33.61298	74924
33.62112	76781
33.62923	79167
33.63737	86495
33.64548	96983
33.65360	106300
33.66173	104238
33.66985	117678
33.67798	110294
33.68610	88436
33.69422	81463
33.70235	82361
33.71047	80613
33.71858	78783
33.72672	74682
33.73483	75347
33.74297	72059
33.75108	73479
33.75920	72753
33.76733	74832
33.77545	71352
33.78358	74940
33.79170	73243
33.79982	73477
33.80795	78576
33.81607	77651
33.82420	77341
33.83232	76305
33.84043	74226
33.84857	73495
33.85668	75371
33.86480	75097
33.87293	78009
33.88105	84698
33.88918	75642
33.89730	72226
33.90542	73892
33.91355	72587
33.92167	72520
33.92980	72950
33.93792	71327
33.94603	79333
33.95417	74120
33.96228	83742
33.97042	73948
33.97853	77341
33.98665	83352
33.99478	71745
34.00290	73951
34.01102	74742
34.01915	75423
34.02727	74879
34.03540	74906
34.04352	83488
34.05163	72976
34.05977	75867
34.06788	76900
34.07602	75385
34.08413	78805
34.09225	80130
34.10038	79202
34.10850	74813
34.11663	74226
34.12475	80273
34.13287	81497
34.14100	81923
34.14912	80505
34.15723	73417
34.16537	81932
34.17348	83421
34.18162	79694
34.18973	77874
34.19785	81640
34.20598	79570
34.21410	94596
34.22223	79638
34.23035	85296
34.23847	85802
34.24660	94334
34.25472	91495
34.26283	78950
34.27097	76433
34.27908	76321
34.28722	83140
34.29533	78598
34.30345	74587
34.31158	77005
34.31970	78528
34.32783	86726
34.33595	79335
34.34407	82463
34.35220	80021
34.36032	78723
34.36845	74325
34.37657	73049
34.38468	82991
34.39282	94749
34.40093	88952
34.40905	93094
34.41718	98633
34.42530	94966
34.43343	96980
34.44155	96210
34.44967	92480
34.45780	88454
34.46592	96652
34.47405	83504
34.48217	79610
34.49028	86751
34.49842	79983
34.50653	81664
34.51467	78293
34.52278	82003
34.53090	88581
34.53903	81817
34.54715	99324
34.55527	99196
34.56340	118553
34.57152	144375
34.57965	144559
34.58777	148346
34.59588	141856
34.60402	131406
34.61213	109098
34.62027	101406
34.62838	95245
34.63650	89216
34.64463	87759
34.65275	86220
34.66087	85142
34.66900	85531
34.67712	85000
34.68525	89815
34.69337	84621
34.70148	83126
34.70962	87473
34.71773	84223
34.72587	83701
34.73398	86936
34.74210	84509
34.75023	86493
34.75835	80786
34.76648	81951
34.77460	84397
34.78272	93817
34.79085	81150
34.79897	86727
34.80708	83079
34.81522	83301
34.82333	78055
34.83147	80442
34.83958	84715
34.84770	99421
34.85583	99656
34.86395	112578
34.87208	124755
34.88020	138028
34.88832	149796
34.89645	164537
34.90457	148580
34.91270	142662
34.92082	141191
34.92893	136956
34.93707	118170
34.94518	107311
34.95330	108580
34.96143	101297
34.96955	95833
34.97768	96590
34.98580	95400
34.99392	91568
35.00205	96023
35.01017	102665
35.01830	90625
35.02642	90002
35.03453	90181
35.04267	90956
35.05078	90890
35.05890	103231
35.06703	84507
35.07515	87116
35.08328	87180
35.09140	94988
35.09952	81379
35.10765	87261
35.11577	81943
35.12390	84340
35.13202	98138
35.14013	90635
35.14827	84583
35.15638	87754
35.16452	95498
35.17263	83350
35.18075	87965
35.18888	83579
35.19700	83893
35.20512	89753
35.21325	89577
35.22137	84975
35.22950	84462
35.23762	91827
35.24573	83730
35.25387	84396
35.26198	85160
35.27012	86363
35.27823	86911
35.28635	90260
35.29448	90723
35.30260	87591
35.31073	84693
35.31885	86300
35.32697	85988
35.33510	87836
35.34322	86050
35.35133	87611
35.35947	87692
35.36758	91875
35.37572	89720
35.38383	86696
35.39195	93407
35.40008	94731
35.40820	90722
35.41633	86939
35.42445	87849
35.43257	86681
35.44070	89991
35.44882	91439
35.45695	98265
35.46507	87541
35.47318	100506
35.48132	98856
35.48943	99893
35.49755	106596
35.50568	96921
35.51380	105149
35.52193	99291
35.53005	99576
35.53817	103612
35.54630	96655
35.55442	104576
35.56255	96869
35.57067	102175
35.57878	100574
35.58692	108330
35.59503	105118
35.60315	101688
35.61128	101831
35.61940	100784
35.62753	96260
35.63565	101365
35.64377	101280
35.65190	107692
35.66002	96474
35.66815	98246
35.67627	98340
35.68438	99572
35.69252	100219
35.70063	92676
35.70877	97774
35.71688	92386
35.72500	94318
35.73313	93574
35.74125	94604
35.74937	95405
35.75750	93562
35.76562	98838
35.77375	96276
35.78187	96888
35.78998	97998
35.79812	97185
35.80623	103758
35.81437	96230
35.82248	94896
35.83060	94291
35.83873	103228
35.84685	93168
35.85498	92871
35.86310	93801
35.87122	87385
35.87935	88735
35.88747	90788
35.89558	96868
35.90372	100649
35.91183	91107
35.91997	92225
35.92808	96268
35.93620	88691
35.94433	90177
35.95245	93391
35.96058	91797
35.96870	92377
35.97682	98266
35.98495	102570
35.99307	106269
36.00118	109998
36.00932	105570
36.01743	106938
36.02557	99447
36.03368	105995
36.04180	103825
36.04993	110279
36.05805	104203
36.06618	99972
36.07430	99428
36.08242	106328
36.09055	96551
36.09867	95592
36.10680	97485
36.11492	98285
36.12303	96945
36.13117	100935
36.13928	98060
36.14740	95273
36.15553	89424
36.16365	97350
36.17178	91274
36.17990	95241
36.18802	99001
36.19615	92780
36.20427	96427
36.21240	98217
36.22052	94217
36.22863	102016
36.23677	97541
36.24488	99368
36.25302	106772
36.26113	104736
36.26925	110838
36.27738	104766
36.28550	106221
36.29362	98205
36.30175	103504
36.30987	103375
36.31800	101726
36.32612	99816
36.33423	95636
36.34237	97384
36.35048	104531
36.35862	98696
36.36673	96994
36.37485	98541
36.38298	102607
36.39110	98419
36.39923	96227
36.40735	99692
36.41547	95365
36.42360	99976
36.43172	97569
36.43983	95947
36.44797	99291
36.45608	100901
36.46422	96301
36.47233	101752
36.48045	109911
36.48858	98790
36.49670	98697
36.50483	97043
36.51295	104584
36.52107	97316
36.52920	107345
36.53732	99672
36.54543	98032
36.55357	104079
36.56168	106725
36.56982	115083
36.57793	101925
36.58605	108896
36.59418	110124
36.60230	104437
36.61043	108554
36.61855	120989
36.62667	109355
36.63480	109422
36.64292	115962
36.65105	112655
36.65917	123757
36.66728	125797
36.67542	119389
36.68353	118060
36.69165	116293
36.69978	113279
36.70790	106832
36.71603	108799
36.72415	104724
36.73227	102472
36.74040	100334
36.74852	106054
36.75665	100697
36.76477	104211
36.77288	103973
36.78102	103889
36.78913	106028
36.79727	103455
36.80538	110185
36.81350	103762
36.82163	109431
36.82975	103665
36.83787	111978
36.84600	115463
36.85412	101885
36.86225	107732
36.87037	114093
36.87848	104322
36.88662	102290
36.89473	103303
36.90287	105852
36.91098	109756
36.91910	109379
36.92723	107118
36.93535	113074
36.94348	135529
36.95160	166083
36.95972	227439
36.96785	359446
36.97597	529861
36.98408	702282
36.99222	791776
37.00033	762255
37.00847	615719
37.01658	452334
37.02470	303291
37.03283	209854
37.04095	160251
37.04908	137795
37.05720	128423
37.06532	119655
37.07345	114209
37.08157	124386
37.08968	116424
37.09782	115242
37.10593	122993
37.11407	122435
37.12218	119955
37.13030	129781
37.13843	129472
37.14655	136299
37.15468	142691
37.16280	142008
37.17092	145630
37.17905	131988
37.18717	124803
37.19530	120806
37.20342	118199
37.21153	118218
37.21967	115563
37.22778	119534
37.23590	111777
37.24403	111309
37.25215	110436
37.26028	111528
37.26840	115180
37.27652	112583
37.28465	115610
37.29277	112975
37.30090	118130
37.30902	112074
37.31713	113914
37.32527	112215
37.33338	112899
37.34152	114072
37.34963	112255
37.35775	115864
37.36588	115842
37.37400	121223
37.38212	111921
37.39025	115722
37.39837	126856
37.40650	117447
37.41462	122600
37.42273	122153
37.43087	115798
37.43898	116249
37.44712	124332
37.45523	115583
37.46335	117027
37.47148	121797
37.47960	125262
37.48772	117343
