Z:\data\JTB-E02\BACandBLUE\JTB-E18-006-04.D Thu Apr 11 09:13:29 2019
Start of data points
2.09522,56231
2.10333,57913
2.11147,57473
2.11958,65907
2.12770,64823
2.13583,73365
2.14395,76632
2.15208,83406
2.16020,88910
2.16832,85417
2.17645,82753
2.18457,84702
2.19270,81957
2.20082,82752
2.20893,77263
2.21707,76961
2.22518,75210
2.23330,70990
2.24143,75771
2.24955,71733
2.25768,70258
2.26580,178810
2.27392,1780132
2.28205,4934489
2.29017,4203954
2.29830,1898313
2.30642,1049192
2.31453,772518
2.32267,658466
2.33078,562284
2.33890,487175
2.34703,438761
2.35515,389360
2.36328,353734
2.37140,322145
2.37952,301964
2.38765,299383
2.39577,281897
2.40390,267513
2.41202,268533
2.42013,259970
2.42827,259861
2.43638,246585
2.44452,231011
2.45263,237613
2.46075,228231
2.46888,214197
2.47700,205438
2.48512,192757
2.49325,191542
2.50137,191970
2.50950,183566
2.51762,171805
2.52573,169294
2.53387,170632
2.54198,164252
2.55012,164890
2.55823,167898
2.56635,174499
2.57448,169474
2.58260,155687
2.59072,155321
2.59885,148645
2.60697,156499
2.61510,182114
2.62322,204788
2.63133,189200
2.63947,167531
2.64758,161190
2.65572,152917
2.66383,150942
2.67195,142616
2.68008,143664
2.68820,143248
2.69633,134253
2.70445,139114
2.71257,137853
2.72070,132791
2.72882,133386
2.73693,127572
2.74507,120600
2.75318,124097
2.76132,131262
2.76943,125776
2.77755,126914
2.78568,123400
2.79380,128252
2.80193,124226
2.81005,124201
2.81817,126787
2.82630,121317
2.83442,123771
2.84255,123033
2.85067,122956
2.85878,117478
2.86692,119841
2.87503,120277
2.88315,125497
2.89128,116643
2.89940,116544
2.90753,119672
2.91565,117916
2.92377,114136
2.93190,114447
2.94002,109023
2.94815,112504
2.95627,116078
2.96438,112949
2.97252,123732
2.98063,124520
2.98875,124617
2.99688,118461
3.00500,119943
3.01313,115533
3.02125,112653
3.02937,114590
3.03750,105647
3.04562,106738
3.05375,109369
3.06187,110690
3.06998,108446
3.07812,105655
3.08623,112079
3.09437,107992
3.10248,114331
3.11060,126081
3.11873,136888
3.12685,133667
3.13497,128403
3.14310,115703
3.15122,120396
3.15935,118259
3.16747,117056
3.17558,111538
3.18372,114491
3.19183,110662
3.19997,105940
3.20808,105803
3.21620,109930
3.22433,108278
3.23245,107885
3.24058,112037
3.24870,102824
3.25682,108756
3.26495,103685
3.27307,104500
3.28118,110274
3.28932,170506
3.29743,659956
3.30557,2461573
3.31368,5775702
3.32180,8354171
3.32993,8643873
3.33805,7432062
3.34618,6109251
3.35430,5057340
3.36242,4271117
3.37055,3670631
3.37867,3240212
3.38678,2855451
3.39492,2524075
3.40303,2302620
3.41117,2092600
3.41928,1924124
3.42740,1762651
3.43553,1660873
3.44365,1524077
3.45178,1437071
3.45990,1366698
3.46802,1291779
3.47615,1214142
3.48427,1157333
3.49240,1118910
3.50052,1046464
3.50863,1005443
3.51677,955819
3.52488,919336
3.53300,876454
3.54113,862882
3.54925,813122
3.55738,791861
3.56550,759768
3.57362,731760
3.58175,723885
3.58987,700385
3.59800,696733
3.60612,657336
3.61423,657261
3.62237,634866
3.63048,609026
3.63860,595065
3.64673,577192
3.65485,569762
3.66298,537206
3.67110,536468
3.67922,525576
3.68735,507640
3.69547,503373
3.70360,498078
3.71172,481594
3.71983,483605
3.72797,472346
3.73608,459818
3.74422,442674
3.75233,451144
3.76045,426900
3.76858,428908
3.77670,431866
3.78482,426956
3.79295,403261
3.80107,402285
3.80920,392828
3.81732,390775
3.82543,385909
3.83357,382465
3.84168,378775
3.84982,377092
3.85793,373508
3.86605,354348
3.87418,352598
3.88230,348966
3.89043,357468
3.89855,342530
3.90667,340564
3.91480,333388
3.92292,335167
3.93103,326664
3.93917,321893
3.94728,320591
3.95542,322799
3.96353,313696
3.97165,317785
3.97978,309249
3.98790,313515
3.99603,309357
4.00415,297178
4.01227,295860
4.02040,291393
4.02852,297146
4.03663,290487
4.04477,293956
4.05288,279469
4.06102,286343
4.06913,280816
4.07725,270952
4.08538,272936
4.09350,276678
4.10163,267326
4.10975,266453
4.11787,268069
4.12600,262660
4.13412,257408
4.14225,287284
4.15037,315685
4.15848,336385
4.16662,335673
4.17473,321210
4.18285,309082
4.19098,290434
4.19910,293086
4.20723,287126
4.21535,270861
4.22347,282555
4.23160,293169
4.23972,311499
4.24785,302695
4.25597,299579
4.26408,289391
4.27222,276237
4.28033,269073
4.28847,277268
4.29658,275835
4.30470,265396
4.31283,265465
4.32095,257759
4.32907,268934
4.33720,274789
4.34532,268695
4.35345,266556
4.36157,273916
4.36968,259140
4.37782,265495
4.38593,264043
4.39407,259486
4.40218,253904
4.41030,259051
4.41843,250003
4.42655,253544
4.43467,251669
4.44280,246676
4.45092,243559
4.45905,252049
4.46717,251914
4.47528,236272
4.48342,244159
4.49153,241395
4.49967,241653
4.50778,241598
4.51590,234640
4.52403,243777
4.53215,233364
4.54028,237839
4.54840,242057
4.55652,238346
4.56465,229784
4.57277,229308
4.58088,227804
4.58902,227545
4.59713,228188
4.60527,225343
4.61338,232492
4.62150,220342
4.62963,216363
4.63775,219389
4.64588,222401
4.65400,219546
4.66212,219124
4.67025,233209
4.67837,218199
4.68650,221712
4.69462,217626
4.70273,217972
4.71087,222035
4.71898,216972
4.72710,213576
4.73523,210135
4.74335,217135
4.75148,221376
4.75960,218509
4.76772,215266
4.77585,214623
4.78397,212145
4.79210,206143
4.80022,217788
4.80833,202445
4.81647,215692
4.82458,216290
4.83270,210358
4.84083,212669
4.84895,206848
4.85708,211369
4.86520,207956
4.87332,204196
4.88145,209238
4.88957,203277
4.89770,206260
4.90582,206084
4.91393,206109
4.92207,204158
4.93018,213631
4.93832,248545
4.94643,411688
4.95455,860905
4.96268,1681229
4.97080,2690346
4.97892,3290647
4.98705,3308016
4.99517,2959764
5.00330,2467765
5.01142,2072948
5.01953,1778631
5.02767,1571686
5.03578,1401873
5.04392,1273572
5.05203,1174701
5.06015,1086134
5.06828,1037701
5.07640,965807
5.08452,922098
5.09265,844118
5.10077,819517
5.10890,783914
5.11702,750028
5.12513,733756
5.13327,702438
5.14138,692274
5.14952,658049
5.15763,621741
5.16575,616183
5.17388,593763
5.18200,592545
5.19013,571081
5.19825,567061
5.20637,542039
5.21450,546452
5.22262,526640
5.23073,518194
5.23887,523975
5.24698,519695
5.25512,501494
5.26323,498528
5.27135,472275
5.27948,456824
5.28760,443561
5.29573,433715
5.30385,430487
5.31197,421949
5.32010,412355
5.32822,412832
5.33635,398709
5.34447,402474
5.35258,394737
5.36072,390119
5.36883,382695
5.37695,377578
5.38508,369152
5.39320,371481
5.40133,369785
5.40945,358646
5.41757,362294
5.42570,357127
5.43382,340507
5.44195,340946
5.45007,337777
5.45818,339414
5.46632,325101
5.47443,332554
5.48255,337064
5.49068,326939
5.49880,323038
5.50693,322748
5.51505,322815
5.52317,308062
5.53130,315224
5.53942,317599
5.54755,301554
5.55567,309613
5.56378,304725
5.57192,313621
5.58003,310863
5.58817,301359
5.59628,304492
5.60440,302880
5.61253,295371
5.62065,300590
5.62877,302441
5.63690,291862
5.64502,297187
5.65315,302657
5.66127,296305
5.66938,295153
5.67752,297509
5.68563,311764
5.69377,351117
5.70188,365858
5.71000,355535
5.71813,328311
5.72625,318379
5.73438,296505
5.74250,297421
5.75062,281108
5.75875,274496
5.76687,281716
5.77498,269392
5.78312,271525
5.79123,270480
5.79937,264730
5.80748,261989
5.81560,266632
5.82373,259371
5.83185,252230
5.83998,258674
5.84810,259831
5.85622,247832
5.86435,254945
5.87247,246440
5.88058,251613
5.88872,258683
5.89683,249143
5.90497,242108
5.91308,217673
5.92120,197638
5.92933,175753
5.93745,177416
5.94558,168419
5.95370,168281
5.96182,170082
5.96995,161281
5.97807,161211
5.98620,168426
5.99432,176038
6.00243,164748
6.01057,164950
6.01868,173846
6.02680,172908
6.03493,164447
6.04305,164089
6.05118,162656
6.05930,170408
6.06742,163683
6.07555,161443
6.08367,162693
6.09180,155662
6.09992,161673
6.10803,155516
6.11617,159291
6.12428,156387
6.13240,158175
6.14053,161829
6.14865,159405
6.15678,160655
6.16490,160277
6.17302,164962
6.18115,157703
6.18927,161035
6.19740,157184
6.20552,164121
6.21363,158348
6.22177,152735
6.22988,161020
6.23802,155476
6.24613,158665
6.25425,153964
6.26238,158727
6.27050,154814
6.27862,147013
6.28675,156210
6.29487,157822
6.30300,153022
6.31112,156885
6.31923,156339
6.32737,147040
6.33548,151468
6.34362,162536
6.35173,155662
6.35985,151467
6.36798,150506
6.37610,152699
6.38423,157085
6.39235,155361
6.40047,147977
6.40860,150934
6.41672,148433
6.42483,155501
6.43297,156637
6.44108,152867
6.44922,161270
6.45733,157031
6.46545,156864
6.47358,155373
6.48170,161264
6.48983,157505
6.49795,149217
6.50607,155947
6.51420,155842
6.52232,148223
6.53045,153431
6.53857,157373
6.54668,155973
6.55482,154838
6.56293,148886
6.57105,145503
6.57918,145011
6.58730,143403
6.59543,144104
6.60355,143324
6.61167,144728
6.61980,143187
6.62792,134747
6.63605,136504
6.64417,143377
6.65228,138893
6.66042,134348
6.66853,135584
6.67665,137359
6.68478,130351
6.69290,132246
6.70103,134037
6.70915,125851
6.71727,126032
6.72540,129550
6.73352,133658
6.74165,136411
6.74977,129189
6.75788,129192
6.76602,128294
6.77413,126654
6.78227,135239
6.79038,126388
6.79850,126788
6.80663,127787
6.81475,131754
6.82287,129137
6.83100,123459
6.83912,127290
6.84725,123814
6.85537,115150
6.86348,99348
6.87162,86465
6.87973,78206
6.88787,70971
6.89598,71082
6.90410,71420
6.91223,68335
6.92035,72012
6.92847,71343
6.93660,66013
6.94472,66985
6.95285,64571
6.96097,66842
6.96908,61597
6.97722,63788
6.98533,64705
6.99347,63987
7.00158,58375
7.00970,61182
7.01783,64060
7.02595,70604
7.03408,58702
7.04220,63554
7.05032,63488
7.05845,57656
7.06657,59520
7.07468,62054
7.08282,61451
7.09093,62089
7.09907,60723
7.10718,62439
7.11530,63670
7.12343,60132
7.13155,59747
7.13968,58417
7.14780,59798
7.15592,61603
7.16405,65050
7.17217,64767
7.18030,65876
7.18842,68626
7.19653,62646
7.20467,61388
7.21278,66333
7.22090,61680
7.22903,59695
7.23715,60612
7.24528,61415
7.25340,60373
7.26152,65972
7.26965,58469
7.27777,60289
7.28590,54261
7.29402,59532
7.30213,60163
7.31027,61076
7.31838,57315
7.32650,63439
7.33463,54956
7.34275,56988
7.35088,61762
7.35900,58998
7.36712,59716
7.37525,61445
7.38337,59222
7.39150,62102
7.39962,59992
7.40773,68263
7.41587,66949
7.42398,67764
7.43212,64236
7.44023,67579
7.44835,69714
7.45648,68933
7.46460,64519
7.47272,68392
7.48085,69075
7.48897,65807
7.49710,68208
7.50522,68475
7.51333,68214
7.52147,65261
7.52958,64681
7.53772,68477
7.54583,65037
7.55395,69850
7.56208,67284
7.57020,67087
7.57833,61745
7.58645,64850
7.59457,67853
7.60270,70904
7.61082,69822
7.61893,69420
7.62707,67378
7.63518,71138
7.64332,69960
7.65143,68766
7.65955,70107
7.66768,71324
7.67580,70562
7.68393,74825
7.69205,72320
7.70017,72422
7.70830,69137
7.71642,72710
7.72453,72281
7.73267,68501
7.74078,65433
7.74892,67451
7.75703,71453
7.76515,70654
7.77328,70753
7.78140,66308
7.78953,69820
7.79765,69531
7.80577,71772
7.81390,69732
7.82202,71364
7.83015,69670
7.83827,67367
7.84638,65710
7.85452,67383
7.86263,70937
7.87075,67201
7.87888,64510
7.88700,63916
7.89513,67450
7.90325,60359
7.91137,65638
7.91950,63002
7.92762,62466
7.93575,63072
7.94387,66967
7.95198,64412
7.96012,60243
7.96823,65436
7.97635,60925
7.98448,64544
7.99260,64342
8.00073,65612
8.00885,66511
8.01697,64597
8.02510,69069
8.03322,65195
8.04135,61288
8.04947,62917
8.05758,63161
8.06572,66034
8.07383,63842
8.08197,62781
8.09008,66259
8.09820,68746
8.10633,70746
8.11445,66377
8.12257,71417
8.13070,68412
8.13882,69536
8.14695,70435
8.15507,62636
8.16318,69995
8.17132,66407
8.17943,66971
8.18757,71592
8.19568,74767
8.20380,69299
8.21193,73038
8.22005,72016
8.22818,65844
8.23630,65632
8.24442,65850
8.25255,66630
8.26067,63967
8.26878,66543
8.27692,65488
8.28503,63695
8.29317,65285
8.30128,63479
8.30940,66467
8.31753,63828
8.32565,63001
8.33378,65053
8.34190,68544
8.35002,64089
8.35815,70217
8.36627,67649
8.37438,64245
8.38252,64690
8.39063,62229
8.39877,63788
8.40688,68477
8.41500,64756
8.42313,64813
8.43125,60870
8.43938,64008
8.44750,62650
8.45562,63996
8.46375,64432
8.47187,65697
8.48000,61201
8.48812,66426
8.49623,66859
8.50437,72838
8.51248,79913
8.52060,86606
8.52873,95724
8.53685,90874
8.54498,88910
8.55310,88498
8.56122,84872
8.56935,85287
8.57747,86789
8.58560,85032
8.59372,87601
8.60183,88972
8.60997,93425
8.61808,88353
8.62622,87425
8.63433,85969
8.64245,86393
8.65058,127186
8.65870,528666
8.66682,682891
8.67495,309596
8.68307,178093
8.69120,147494
8.69932,132425
8.70743,125075
8.71557,114466
8.72368,113847
8.73182,111877
8.73993,115369
8.74805,115556
8.75618,116132
8.76430,109837
8.77242,132278
8.78055,199604
8.78867,351249
8.79680,544863
8.80492,732256
8.81303,824374
8.82117,806092
8.82928,737492
8.83742,668638
8.84553,597469
8.85365,546100
8.86178,484928
8.86990,454781
8.87803,415307
8.88615,388726
8.89427,357564
8.90240,348888
8.91052,328856
8.91863,307049
8.92677,298840
8.93488,295429
8.94302,280964
8.95113,271637
8.95925,255445
8.96738,255686
8.97550,242740
8.98363,238812
8.99175,240378
8.99987,224921
9.00800,226345
9.01612,214633
9.02423,217551
9.03237,206223
9.04048,205800
9.04862,232050
9.05673,622851
9.06485,1413315
9.07298,1224745
9.08110,747040
9.08923,540128
9.09735,430025
9.10547,367083
9.11360,334300
9.12172,296139
9.12985,276508
9.13797,267114
9.14608,255966
9.15422,241906
9.16233,238308
9.17045,225106
9.17858,218320
9.18670,222711
9.19483,221503
9.20295,207523
9.21107,202790
9.21920,203154
9.22732,201270
9.23545,195270
9.24357,191496
9.25168,188327
9.25982,187426
9.26793,185039
9.27607,183310
9.28418,179174
9.29230,179256
9.30043,170682
9.30855,171896
9.31667,166575
9.32480,163147
9.33292,163723
9.34105,158402
9.34917,155333
9.35728,160490
9.36542,156576
9.37353,151309
9.38167,144613
9.38978,152059
9.39790,150446
9.40603,145223
9.41415,146095
9.42227,149580
9.43040,151168
9.43852,151429
9.44665,144027
9.45477,148055
9.46288,152879
9.47102,158837
9.47913,159776
9.48727,144143
9.49538,148690
9.50350,141969
9.51163,145762
9.51975,137549
9.52788,139792
9.53600,164497
9.54412,287059
9.55225,519296
9.56037,553169
9.56848,380523
9.57662,280236
9.58473,219582
9.59287,188822
9.60098,159040
9.60910,159064
9.61723,140089
9.62535,135684
9.63348,123785
9.64160,124556
9.64972,114654
9.65785,112489
9.66597,110034
9.67410,109692
9.68222,106364
9.69033,102623
9.69847,103583
9.70658,98889
9.71470,100254
9.72283,104700
9.73095,99179
9.73908,98657
9.74720,98481
9.75532,88801
9.76345,93524
9.77157,93256
9.77970,96948
9.78782,92410
9.79593,89677
9.80407,90045
9.81218,94176
9.82030,88286
9.82843,94729
9.83655,97929
9.84468,109645
9.85280,107283
9.86092,108113
9.86905,99382
9.87717,92830
9.88530,90557
9.89342,86349
9.90153,85578
9.90967,88848
9.91778,89285
9.92592,90977
9.93403,86278
9.94215,87371
9.95028,87822
9.95840,87987
9.96652,81204
9.97465,85397
9.98277,86263
9.99090,88017
9.99902,89431
10.00713,92709
10.01527,98898
10.02338,110518
10.03152,125386
10.03963,135744
10.04775,148237
10.05588,145846
10.06400,148611
10.07213,139555
10.08025,134651
10.08837,131901
10.09650,126528
10.10462,112135
10.11273,109081
10.12087,99286
10.12898,97954
10.13712,103408
10.14523,96089
10.15335,93060
10.16148,92948
10.16960,91609
10.17773,93279
10.18585,95717
10.19397,85267
10.20210,87844
10.21022,92682
10.21833,89310
10.22647,99601
10.23458,111200
10.24272,113867
10.25083,126065
10.25895,122666
10.26708,124581
10.27520,123013
10.28333,127386
10.29145,142720
10.29957,138609
10.30770,143926
10.31582,147494
10.32395,159197
10.33207,162626
10.34018,153491
10.34832,152661
10.35643,141155
10.36455,143399
10.37268,125651
10.38080,124592
10.38893,123720
10.39705,122143
10.40517,120972
10.41330,116578
10.42142,117059
10.42955,109326
10.43767,106099
10.44578,114461
10.45392,114491
10.46203,111279
10.47015,105051
10.47828,103056
10.48640,104727
10.49453,98739
10.50265,105544
10.51077,105505
10.51890,108533
10.52702,99117
10.53515,96865
10.54327,97777
10.55138,92647
10.55952,94103
10.56763,98350
10.57577,97765
10.58388,94028
10.59200,95544
10.60013,97773
10.60825,94801
10.61637,88695
10.62450,91498
10.63262,92520
10.64075,92763
10.64887,89534
10.65698,87482
10.66512,92306
10.67323,88836
10.68137,85247
10.68948,89605
10.69760,90175
10.70573,89055
10.71385,85688
10.72198,80714
10.73010,85901
10.73822,86641
10.74635,85885
10.75447,85948
10.76258,86786
10.77072,87783
10.77883,86261
10.78697,86808
10.79508,87531
10.80320,86237
10.81133,90154
10.81945,87382
10.82758,83552
10.83570,85592
10.84382,81687
10.85195,83861
10.86007,85083
10.86818,82662
10.87632,84610
10.88443,80591
10.89257,82368
10.90068,81963
10.90880,80219
10.91693,87254
10.92505,81353
10.93318,81612
10.94130,85030
10.94942,82246
10.95755,94684
10.96567,83495
10.97380,90804
10.98192,90381
10.99003,88177
10.99817,82581
11.00628,87223
11.01440,84945
11.02253,77558
11.03065,80196
11.03878,77959
11.04690,76137
11.05502,76530
11.06315,77267
11.07127,79043
11.07940,80781
11.08752,81536
11.09563,78312
11.10377,87808
11.11188,107131
11.12002,128573
11.12813,146091
11.13625,152502
11.14438,129278
11.15250,115462
11.16062,108748
11.16875,100095
11.17687,102333
11.18500,105743
11.19312,110123
11.20123,118567
11.20937,120450
11.21748,122190
11.22562,121586
11.23373,117157
11.24185,106634
11.24998,104290
11.25810,97399
11.26622,92103
11.27435,90999
11.28247,85427
11.29060,80078
11.29872,86059
11.30683,81889
11.31497,82801
11.32308,77441
11.33122,78225
11.33933,81944
11.34745,78867
11.35558,83294
11.36370,86914
11.37183,80508
11.37995,80184
11.38807,78281
11.39620,79065
11.40432,76892
11.41243,82012
11.42057,78853
11.42868,82765
11.43682,74867
11.44493,83223
11.45305,76003
11.46118,71913
11.46930,76911
11.47743,75746
11.48555,77540
11.49367,82673
11.50180,79238
11.50992,80658
11.51803,80187
11.52617,77541
11.53428,76483
11.54242,77391
11.55053,74621
11.55865,74664
11.56678,80280
11.57490,73946
11.58303,75535
11.59115,77080
11.59927,74751
11.60740,76973
11.61552,81008
11.62365,79739
11.63177,78972
11.63988,77483
11.64802,74231
11.65613,74788
11.66425,77704
11.67238,77336
11.68050,74788
11.68863,72619
11.69675,71392
11.70487,77360
11.71300,75304
11.72112,75692
11.72925,74468
11.73737,77528
11.74548,80903
11.75362,79449
11.76173,78956
11.76987,82735
11.77798,83426
11.78610,80654
11.79423,84173
11.80235,78285
11.81047,87129
11.81860,80285
11.82672,80737
11.83485,72069
11.84297,74187
11.85108,81364
11.85922,76444
11.86733,73171
11.87547,78450
11.88358,72908
11.89170,74247
11.89983,71973
11.90795,74732
11.91607,70243
11.92420,78019
11.93232,72479
11.94045,72507
11.94857,75406
11.95668,73637
11.96482,74826
11.97293,71468
11.98107,74458
11.98918,80884
11.99730,78996
12.00543,75465
12.01355,80703
12.02168,87450
12.02980,92530
12.03792,86347
12.04605,93307
12.05417,96739
12.06228,92019
12.07042,93062
12.07853,91528
12.08667,90832
12.09478,90941
12.10290,91430
12.11103,89950
12.11915,90077
12.12728,86706
12.13540,85956
12.14352,90863
12.15165,86945
12.15977,91115
12.16790,87759
12.17602,92300
12.18413,87361
12.19227,88049
12.20038,88801
12.20850,89258
12.21663,91340
12.22475,96611
12.23288,86510
12.24100,89568
12.24912,91847
12.25725,88013
12.26537,94882
12.27350,85368
12.28162,90787
12.28973,87727
12.29787,86002
12.30598,84798
12.31410,92651
12.32223,91451
12.33035,87736
12.33848,84588
12.34660,93073
12.35472,87566
12.36285,82238
12.37097,86554
12.37910,86585
12.38722,85909
12.39533,88337
12.40347,85993
12.41158,85676
12.41972,88503
12.42783,87877
12.43595,89339
12.44408,89231
12.45220,84985
12.46032,85805
12.46845,86791
12.47657,82639
12.48470,84394
12.49282,86243
12.50093,82321
12.50907,86926
12.51718,81871
12.52532,85684
12.53343,82280
12.54155,87931
12.54968,93109
12.55780,88629
12.56593,84642
12.57405,83046
12.58217,91613
12.59030,84654
12.59842,80591
12.60653,83204
12.61467,91015
12.62278,83794
12.63092,79276
12.63903,84786
12.64715,82317
12.65528,81817
12.66340,78978
12.67153,82186
12.67965,80167
12.68777,75851
12.69590,78527
12.70402,77320
12.71213,73871
12.72027,75329
12.72838,74153
12.73652,75407
12.74463,80125
12.75275,79858
12.76088,81312
12.76900,77672
12.77713,77463
12.78525,80830
12.79337,80596
12.80150,76729
12.80962,81204
12.81775,79675
12.82587,81445
12.83398,78895
12.84212,74635
12.85023,75692
12.85835,77128
12.86648,74512
12.87460,72186
12.88273,74220
12.89085,71817
12.89897,69332
12.90710,73116
12.91522,69880
12.92335,71921
12.93147,70407
12.93958,66518
12.94772,73438
12.95583,73208
12.96397,67425
12.97208,71439
12.98020,70399
12.98833,71527
12.99645,70610
13.00457,70643
13.01270,70759
13.02082,69409
13.02895,72610
13.03707,73924
13.04518,66589
13.05332,71177
13.06143,69660
13.06957,69810
13.07768,72133
13.08580,69546
13.09393,69879
13.10205,70753
13.11017,67715
13.11830,71477
13.12642,73832
13.13455,71096
13.14267,69360
13.15078,65404
13.15892,65890
13.16703,70218
13.17517,68039
13.18328,69201
13.19140,79516
13.19953,78937
13.20765,80465
13.21578,85696
13.22390,86861
13.23202,91346
13.24015,85494
13.24827,83136
13.25638,79662
13.26452,78723
13.27263,75591
13.28077,78988
13.28888,77709
13.29700,72186
13.30513,69295
13.31325,69790
13.32138,70714
13.32950,71082
13.33762,65390
13.34575,73501
13.35387,68072
13.36198,66070
13.37012,73765
13.37823,66037
13.38637,68430
13.39448,68027
13.40260,74626
13.41073,70556
13.41885,72323
13.42698,67866
13.43510,65252
13.44322,63585
13.45135,67372
13.45947,64400
13.46760,70230
13.47572,65577
13.48383,65407
13.49197,66577
13.50008,70192
13.50820,67587
13.51633,68270
13.52445,71322
13.53258,66434
13.54070,65844
13.54882,71005
13.55695,66593
13.56507,70280
13.57320,69056
13.58132,68300
13.58943,63941
13.59757,65538
13.60568,69379
13.61382,66052
13.62193,62696
13.63005,65281
13.63818,63576
13.64630,67958
13.65442,68067
13.66255,69649
13.67067,65341
13.67880,67645
13.68692,65377
13.69503,70090
13.70317,65745
13.71128,71551
13.71942,71063
13.72753,70044
13.73565,69584
13.74378,67912
13.75190,68699
13.76002,70002
13.76815,74040
13.77627,72870
13.78440,74700
13.79252,79891
13.80063,82885
13.80877,82321
13.81688,83412
13.82502,77431
13.83313,82545
13.84125,82176
13.84938,83670
13.85750,83213
13.86563,80697
13.87375,86022
13.88187,88932
13.89000,86264
13.89812,89018
13.90623,99506
13.91437,89619
13.92248,93511
13.93062,96744
13.93873,102952
13.94685,96413
13.95498,101111
13.96310,105002
13.97123,98103
13.97935,99868
13.98747,97765
13.99560,98962
14.00372,97897
14.01185,95542
14.01997,101831
14.02808,93586
14.03622,95503
14.04433,94601
14.05245,98001
14.06058,104002
14.06870,108437
14.07683,110161
14.08495,118301
14.09307,114103
14.10120,110844
14.10932,110620
14.11745,106033
14.12557,105480
14.13368,103899
14.14182,101470
14.14993,97112
14.15805,102754
14.16618,105096
14.17430,112499
14.18243,118627
14.19055,141810
14.19867,191998
14.20680,248752
14.21492,316789
14.22305,389265
14.23117,394790
14.23928,379225
14.24742,333037
14.25553,304363
14.26367,263508
14.27178,250011
14.27990,234445
14.28803,210990
14.29615,196178
14.30427,193755
14.31240,178320
14.32052,177537
14.32865,169008
14.33677,161441
14.34488,156700
14.35302,147518
14.36113,126351
14.36927,124909
14.37738,112748
14.38550,111416
14.39363,100050
14.40175,96143
14.40987,90628
14.41800,91196
14.42612,94821
14.43425,87699
14.44237,89034
14.45048,89133
14.45862,88976
14.46673,84469
14.47487,80150
14.48298,82350
14.49110,86027
14.49923,83953
14.50735,77705
14.51548,82962
14.52360,80194
14.53172,84535
14.53985,80135
14.54797,83077
14.55608,82869
14.56422,82233
14.57233,79647
14.58047,73735
14.58858,80031
14.59670,78167
14.60483,76512
14.61295,78826
14.62108,80247
14.62920,81013
14.63732,73767
14.64545,74085
14.65357,73891
14.66170,72986
14.66982,75477
14.67793,70220
14.68607,71606
14.69418,71009
14.70230,74125
14.71043,65318
14.71855,70371
14.72668,72162
14.73480,70784
14.74292,68409
14.75105,70372
14.75917,67572
14.76730,71293
14.77542,71945
14.78353,67089
14.79167,65070
14.79978,67608
14.80790,66636
14.81603,78663
14.82415,86116
14.83228,90266
14.84040,88197
14.84852,94370
14.85665,90487
14.86477,86359
14.87290,85847
14.88102,86454
14.88913,86535
14.89727,82564
14.90538,77803
14.91352,79253
14.92163,80798
14.92975,82392
14.93788,82800
14.94600,80290
14.95412,82267
14.96225,128300
14.97037,456546
14.97850,568685
14.98662,278051
14.99473,151169
15.00287,124389
15.01098,114053
15.01912,104905
15.02723,106721
15.03535,101544
15.04348,94447
15.05160,87106
15.05973,87579
15.06785,91141
15.07597,89462
15.08410,89061
15.09222,88234
15.10033,84776
15.10847,82110
15.11658,81603
15.12472,81939
15.13283,79191
15.14095,83220
15.14908,173649
15.15720,740727
15.16533,968715
15.17345,574633
15.18157,400331
15.18970,314443
15.19782,279062
15.20593,227845
15.21407,218581
15.22218,192887
15.23032,182963
15.23843,166293
15.24655,152150
15.25468,147156
15.26280,141452
15.27093,130591
15.27905,126119
15.28717,126359
15.29530,137295
15.30342,270957
15.31155,483287
15.31967,390433
15.32778,279849
15.33592,223689
15.34403,205506
15.35215,188554
15.36028,178071
15.36840,175782
15.37653,152077
15.38465,147306
15.39277,139127
15.40090,131633
15.40902,127453
15.41715,124556
15.42527,126615
15.43338,116697
15.44152,117755
15.44963,119546
15.45777,121694
15.46588,111654
15.47400,110825
15.48213,107611
15.49025,112005
15.49837,110472
15.50650,112514
15.51462,106127
15.52275,111870
15.53087,107289
15.53898,106763
15.54712,103887
15.55523,103723
15.56337,102652
15.57148,112407
15.57960,109062
15.58773,101647
15.59585,96698
15.60397,92282
15.61210,94052
15.62022,94511
15.62835,93948
15.63647,109191
15.64458,123367
15.65272,129174
15.66083,124854
15.66897,119499
15.67708,113754
15.68520,110543
15.69333,107442
15.70145,105912
15.70958,106151
15.71770,103476
15.72582,100795
15.73395,105449
15.74207,101012
15.75018,99626
15.75832,93489
15.76643,98179
15.77457,94038
15.78268,112500
15.79080,151614
15.79893,171136
15.80705,152378
15.81518,143958
15.82330,128569
15.83142,121006
15.83955,113521
15.84767,107612
15.85578,107659
15.86392,107300
15.87203,98614
15.88017,97401
15.88828,105230
15.89640,107916
15.90453,97869
15.91265,97847
15.92078,100032
15.92890,101254
15.93702,103990
15.94515,100034
15.95327,100184
15.96140,99518
15.96952,102720
15.97763,92487
15.98577,95811
15.99388,94918
16.00200,98563
16.01013,96175
16.01825,107474
16.02638,107320
16.03450,111304
16.04262,115437
16.05075,114969
16.05887,120240
16.06700,113929
16.07512,111891
16.08323,106321
16.09137,102122
16.09948,97282
16.10762,93276
16.11573,99305
16.12385,96103
16.13198,96481
16.14010,99706
16.14822,91474
16.15635,92671
16.16447,93677
16.17260,94044
16.18072,91614
16.18883,88813
16.19697,88302
16.20508,90832
16.21322,90980
16.22133,88680
16.22945,88179
16.23758,90987
16.24570,88496
16.25382,95760
16.26195,85731
16.27007,90345
16.27820,90844
16.28632,92684
16.29443,88997
16.30257,88421
16.31068,88918
16.31882,86221
16.32693,87400
16.33505,86653
16.34318,85025
16.35130,83813
16.35943,90833
16.36755,83100
16.37567,80959
16.38380,80479
16.39192,88196
16.40003,85357
16.40817,84776
16.41628,86256
16.42442,84093
16.43253,83052
16.44065,85667
16.44878,86626
16.45690,81987
16.46503,89479
16.47315,85760
16.48127,86522
16.48940,83374
16.49752,85022
16.50565,82959
16.51377,84224
16.52188,83243
16.53002,83454
16.53813,80604
16.54625,83722
16.55438,84679
16.56250,81547
16.57063,80842
16.57875,79495
16.58687,76692
16.59500,78977
16.60312,80250
16.61125,80361
16.61937,86588
16.62748,84219
16.63562,80379
16.64373,77665
16.65185,79059
16.65998,81425
16.66810,78503
16.67623,83115
16.68435,75326
16.69247,75264
16.70060,77076
16.70872,76919
16.71685,78330
16.72497,74199
16.73308,77677
16.74122,79183
16.74933,80804
16.75747,78694
16.76558,74741
16.77370,75318
16.78183,76284
16.78995,78009
16.79807,70710
16.80620,72316
16.81432,70891
16.82245,77068
16.83057,76864
16.83868,74979
16.84682,69206
16.85493,71890
16.86307,74639
16.87118,74803
16.87930,71620
16.88743,70349
16.89555,73612
16.90367,72831
16.91180,71733
16.91992,70591
16.92805,71313
16.93617,77698
16.94428,74083
16.95242,74576
16.96053,69902
16.96867,72563
16.97678,74880
16.98490,74372
16.99303,73807
17.00115,77785
17.00928,81002
17.01740,73303
17.02552,74475
17.03365,75084
17.04177,73266
17.04988,77483
17.05802,75514
17.06613,81028
17.07427,78622
17.08238,74924
17.09050,75044
17.09863,71794
17.10675,74014
17.11488,74675
17.12300,76545
17.13112,75063
17.13925,70950
17.14737,73585
17.15550,71798
17.16362,75339
17.17173,73639
17.17987,71172
17.18798,70371
17.19610,64348
17.20423,68357
17.21235,66855
17.22048,73131
17.22860,71468
17.23672,66136
17.24485,69360
17.25297,69335
17.26110,69516
17.26922,70801
17.27733,76194
17.28547,70402
17.29358,72982
17.30172,73805
17.30983,70443
17.31795,77724
17.32608,82381
17.33420,84043
17.34232,82330
17.35045,77797
17.35857,81926
17.36670,79480
17.37482,85385
17.38293,84682
17.39107,85131
17.39918,80267
17.40732,80246
17.41543,81733
17.42355,74936
17.43168,74409
17.43980,76141
17.44792,74012
17.45605,73933
17.46417,69443
17.47230,74580
17.48042,68296
17.48853,71201
17.49667,70915
17.50478,68320
17.51292,69578
17.52103,74965
17.52915,70584
17.53728,72265
17.54540,70119
17.55353,71700
17.56165,75117
17.56977,70129
17.57790,70229
17.58602,68447
17.59413,70834
17.60227,73276
17.61038,69400
17.61852,72069
17.62663,74535
17.63475,69411
17.64288,70846
17.65100,70292
17.65913,74292
17.66725,68992
17.67537,73331
17.68350,71102
17.69162,68756
17.69973,73438
17.70787,76953
17.71598,74504
17.72412,76963
17.73223,74800
17.74035,73511
17.74848,75959
17.75660,75592
17.76473,73235
17.77285,75437
17.78097,70023
17.78910,73780
17.79722,70777
17.80535,72926
17.81347,69374
17.82158,70031
17.82972,63093
17.83783,67180
17.84595,73042
17.85408,69667
17.86220,65679
17.87033,73856
17.87845,68854
17.88657,69869
17.89470,69523
17.90282,66414
17.91095,66146
17.91907,64299
17.92718,67156
17.93532,66711
17.94343,64325
17.95157,67907
17.95968,63529
17.96780,70285
17.97593,68831
17.98405,63966
17.99217,64295
18.00030,59993
18.00842,65620
18.01655,64488
18.02467,66070
18.03278,65870
18.04092,60902
18.04903,62244
18.05717,65488
18.06528,59891
18.07340,68318
18.08153,69690
18.08965,67375
18.09777,72777
18.10590,70626
18.11402,75443
18.12215,72610
18.13027,80726
18.13838,74006
18.14652,78045
18.15463,76881
18.16277,73146
18.17088,71376
18.17900,73394
18.18713,71289
18.19525,70068
18.20338,74589
18.21150,65978
18.21962,73669
18.22775,67058
18.23587,71173
18.24398,66867
18.25212,70683
18.26023,67421
18.26837,70884
18.27648,67212
18.28460,68209
18.29273,73147
18.30085,71024
18.30898,65294
18.31710,58818
18.32522,66127
18.33335,65724
18.34147,64909
18.34960,67634
18.35772,63023
18.36583,59591
18.37397,71054
18.38208,65675
18.39020,67690
18.39833,66306
18.40645,66335
18.41458,63144
18.42270,65155
18.43082,65182
18.43895,63490
18.44707,66025
18.45520,64826
18.46332,64006
18.47143,66219
18.47957,62364
18.48768,65116
18.49580,63408
18.50393,64189
18.51205,64139
18.52018,62809
18.52830,63741
18.53642,65793
18.54455,63107
18.55267,63577
18.56080,64142
18.56892,62854
18.57703,66189
18.58517,72443
18.59328,65098
18.60142,60640
18.60953,67931
18.61765,70098
18.62578,68631
18.63390,63879
18.64202,64029
18.65015,60688
18.65827,60371
18.66640,65782
18.67452,65204
18.68263,63656
18.69077,60219
18.69888,60047
18.70702,59738
18.71513,63727
18.72325,60310
18.73138,61975
18.73950,61826
18.74762,59930
18.75575,62897
18.76387,61411
18.77200,58260
18.78012,60149
18.78823,59589
18.79637,59544
18.80448,61693
18.81262,61829
18.82073,58630
18.82885,64363
18.83698,63450
18.84510,62247
18.85323,54096
18.86135,62149
18.86947,59311
18.87760,58507
18.88572,59708
18.89383,59555
18.90197,55232
18.91008,59652
18.91822,59946
18.92633,69240
18.93445,62382
18.94258,58871
18.95070,58173
18.95883,62707
18.96695,62399
18.97507,59966
18.98320,61742
18.99132,62862
18.99945,61927
19.00757,59491
19.01568,62956
19.02382,60225
19.03193,64777
19.04005,64801
19.04818,67492
19.05630,77990
19.06443,82311
19.07255,87330
19.08067,90113
19.08880,97076
19.09692,102497
19.10505,114385
19.11317,119300
19.12128,120100
19.12942,127310
19.13753,124560
19.14565,123879
19.15378,124890
19.16190,124608
19.17003,123311
19.17815,126333
19.18627,129616
19.19440,121197
19.20252,123882
19.21065,125290
19.21877,120681
19.22688,117453
19.23502,118830
19.24313,121753
19.25127,119323
19.25938,123897
19.26750,116139
19.27563,117186
19.28375,128098
19.29187,123089
19.30000,124992
19.30812,131681
19.31625,135500
19.32437,131602
19.33248,128994
19.34062,125842
19.34873,122049
19.35687,123878
19.36498,130136
19.37310,131844
19.38123,122873
19.38935,119896
19.39748,125024
19.40560,118761
19.41372,124119
19.42185,119532
19.42997,121433
19.43808,125427
19.44622,115424
19.45433,117763
19.46247,121093
19.47058,121089
19.47870,123398
19.48683,124956
19.49495,137807
19.50308,174666
19.51120,214737
19.51932,261562
19.52745,287591
19.53557,279914
19.54368,245232
19.55182,207029
19.55993,171393
19.56807,144682
19.57618,128463
19.58430,130635
19.59243,127778
19.60055,122595
19.60868,118926
19.61680,118036
19.62492,125035
19.63305,157738
19.64117,210247
19.64930,316392
19.65742,478451
19.66553,728382
19.67367,953502
19.68178,1120852
19.68990,1066986
19.69803,943900
19.70615,741218
19.71428,544332
19.72240,409879
19.73052,325801
19.73865,267936
19.74677,229055
19.75490,209603
19.76302,185166
19.77113,172368
19.77927,163878
19.78738,162818
19.79552,142651
19.80363,140060
19.81175,131172
19.81988,129199
19.82800,134708
19.83612,130592
19.84425,126472
19.85237,127055
19.86050,122133
19.86862,119272
19.87673,121657
19.88487,121271
19.89298,121394
19.90112,124004
19.90923,128690
19.91735,126753
19.92548,140851
19.93360,141046
19.94172,157684
19.94985,163236
19.95797,170345
19.96610,164200
19.97422,150740
19.98233,146618
19.99047,145930
19.99858,134597
20.00672,134908
20.01483,131547
20.02295,132236
20.03108,124218
20.03920,122355
20.04733,125209
20.05545,120857
20.06357,121857
20.07170,115165
20.07982,119107
20.08793,115501
20.09607,113154
20.10418,114304
20.11232,112119
20.12043,110323
20.12855,110515
20.13668,114451
20.14480,112048
20.15293,113555
20.16105,105352
20.16917,112246
20.17730,107247
20.18542,109697
20.19353,111117
20.20167,117162
20.20978,113941
20.21792,112178
20.22603,116122
20.23415,114361
20.24228,127192
20.25040,155010
20.25853,216077
20.26665,304048
20.27477,439819
20.28290,591288
20.29102,679664
20.29915,706089
20.30727,644169
20.31538,530447
20.32352,418400
20.33163,330143
20.33975,260597
20.34788,218736
20.35600,193235
20.36413,168791
20.37225,157699
20.38037,146803
20.38850,150423
20.39662,144644
20.40475,148437
20.41287,152527
20.42098,170739
20.42912,191511
20.43723,224121
20.44537,251599
20.45348,265594
20.46160,286635
20.46973,266014
20.47785,258606
20.48597,229514
20.49410,196959
20.50222,176462
20.51035,168452
20.51847,146308
20.52658,141281
20.53472,135807
20.54283,129196
20.55097,129592
20.55908,128042
20.56720,126997
20.57533,122724
20.58345,121607
20.59157,122342
20.59970,120695
20.60782,122263
20.61595,117932
20.62407,119872
20.63218,121296
20.64032,117205
20.64843,118867
20.65657,114237
20.66468,110285
20.67280,111823
20.68093,108711
20.68905,108878
20.69718,114097
20.70530,116299
20.71342,105970
20.72155,109341
20.72967,107440
20.73778,105274
20.74592,99269
20.75403,102179
20.76217,102283
20.77028,100590
20.77840,98332
20.78653,103280
20.79465,94720
20.80278,98444
20.81090,104358
20.81902,99596
20.82715,103521
20.83527,98512
20.84340,98168
20.85152,98359
20.85963,98105
20.86777,98455
20.87588,98328
20.88400,94928
20.89213,96450
20.90025,94905
20.90838,98183
20.91650,89593
20.92462,95905
20.93275,87907
20.94087,89597
20.94900,95028
20.95712,88715
20.96523,93775
20.97337,97510
20.98148,92180
20.98960,93259
20.99773,90005
21.00585,91645
21.01398,92257
21.02210,87634
21.03022,87638
21.03835,85410
21.04647,82617
21.05460,87578
21.06272,89056
21.07083,91006
21.07897,86060
21.08708,83962
21.09522,87936
21.10333,90200
21.11145,94408
21.11958,91617
21.12770,99519
21.13582,107969
21.14395,105330
21.15207,105606
21.16020,96432
21.16832,93758
21.17643,91119
21.18457,90292
21.19268,87897
21.20082,88243
21.20893,87807
21.21705,84449
21.22518,82213
21.23330,84620
21.24142,82910
21.24955,80859
21.25767,80694
21.26580,84425
21.27392,83440
21.28203,81478
21.29017,82804
21.29828,78789
21.30642,77479
21.31453,80960
21.32265,77877
21.33078,77986
21.33890,81793
21.34703,73091
21.35515,76701
21.36327,73942
21.37140,80948
21.37952,78960
21.38763,81851
21.39577,81845
21.40388,88791
21.41202,88597
21.42013,87541
21.42825,86413
21.43638,84361
21.44450,81886
21.45263,76268
21.46075,77570
21.46887,79373
21.47700,77128
21.48512,73305
21.49325,73497
21.50137,75117
21.50948,72113
21.51762,73239
21.52573,73552
21.53385,75949
21.54198,79109
21.55010,80257
21.55823,81314
21.56635,79584
21.57447,75945
21.58260,70790
21.59072,76603
21.59885,74258
21.60697,78124
21.61508,86813
21.62322,104078
21.63133,124389
21.63945,163191
21.64758,180999
21.65570,197411
21.66383,186384
21.67195,164300
21.68007,141106
21.68820,126769
21.69632,115323
21.70445,109270
21.71257,101458
21.72068,96178
21.72882,101176
21.73693,103089
21.74507,103446
21.75318,98319
21.76130,101967
21.76943,98333
21.77755,97242
21.78567,94878
21.79380,88327
21.80192,92115
21.81005,104109
21.81817,112207
21.82628,133586
21.83442,164898
21.84253,193284
21.85067,204798
21.85878,197322
21.86690,172011
21.87503,163052
21.88315,138151
21.89128,125953
21.89940,112001
21.90752,105073
21.91565,102279
21.92377,100145
21.93188,103200
21.94002,110645
21.94813,102026
21.95627,99260
21.96438,98215
21.97250,96051
21.98063,94098
21.98875,88596
21.99688,88274
22.00500,87782
22.01312,88144
22.02125,87958
22.02937,83512
22.03748,88017
22.04562,80956
22.05373,79373
22.06187,84892
22.06998,81583
22.07810,84884
22.08623,85690
22.09435,87748
22.10248,87996
22.11060,86394
22.11872,91975
22.12685,88910
22.13497,87392
22.14310,89490
22.15122,90003
22.15933,88953
22.16747,91650
22.17558,92022
22.18370,84686
22.19183,90723
22.19995,89115
22.20808,84980
22.21620,92555
22.22432,93453
22.23245,98222
22.24057,102934
22.24870,104646
22.25682,98091
22.26493,91156
22.27307,83205
22.28118,81809
22.28930,79602
22.29743,82792
22.30555,80615
22.31368,78696
22.32180,80608
22.32992,74930
22.33805,77011
22.34617,76940
22.35430,83794
22.36242,78782
22.37053,74602
22.37867,75666
22.38678,73330
22.39492,71377
22.40303,72983
22.41115,76009
22.41928,74444
22.42740,73254
22.43552,69676
22.44365,70100
22.45177,68168
22.45990,67466
22.46802,68926
22.47613,73433
22.48427,68162
22.49238,67553
22.50052,66376
22.50863,72576
22.51675,68591
22.52488,71829
22.53300,67308
22.54113,72699
22.54925,64604
22.55737,69931
22.56550,69549
22.57362,70994
22.58173,71436
22.58987,74105
22.59798,67110
22.60612,66962
22.61423,65699
22.62235,66361
22.63048,58901
22.63860,63637
22.64673,61974
22.65485,63134
22.66297,63951
22.67110,65808
22.67922,65638
22.68735,67217
22.69547,63197
22.70358,64175
22.71172,67439
22.71983,63634
22.72795,64641
22.73608,64088
22.74420,58730
22.75233,60487
22.76045,61599
22.76857,59075
22.77670,59621
22.78482,59973
22.79295,67045
22.80107,63097
22.80918,61494
22.81732,62831
22.82543,62227
22.83355,64485
22.84168,63232
22.84980,59922
22.85793,65873
22.86605,65513
22.87417,67601
22.88230,69856
22.89042,65210
22.89855,77094
22.90667,86225
22.91478,110511
22.92292,137507
22.93103,168801
22.93917,209646
22.94728,219420
22.95540,225423
22.96353,215592
22.97165,205873
22.97977,182233
22.98790,170476
22.99602,157626
23.00415,141825
23.01227,129065
23.02038,105352
23.02852,105219
23.03663,91359
23.04477,85852
23.05288,80862
23.06100,73551
23.06913,69022
23.07725,71831
23.08537,72078
23.09350,69429
23.10162,71954
23.10975,74514
23.11787,69194
23.12598,65650
23.13412,66565
23.14223,62714
23.15037,61106
23.15848,64233
23.16660,65976
23.17473,67035
23.18285,63850
23.19098,63733
23.19910,66415
23.20722,62905
23.21535,59043
23.22347,64157
23.23158,60694
23.23972,62072
23.24783,61064
23.25597,61227
23.26408,59423
23.27220,59908
23.28033,66931
23.28845,61790
23.29658,59942
23.30470,62851
23.31282,57107
23.32095,56430
23.32907,57501
23.33720,53949
23.34532,58064
23.35343,56035
23.36157,57990
23.36968,58139
23.37780,55412
23.38593,55815
23.39405,56727
23.40218,56942
23.41030,59267
23.41842,58365
23.42655,53931
23.43467,56415
23.44280,55564
23.45092,54863
23.45903,53274
23.46717,53319
23.47528,53361
23.48340,51592
23.49153,55352
23.49965,57455
23.50778,56230
23.51590,56301
23.52402,61443
23.53215,53685
23.54027,55668
23.54840,55715
23.55652,54845
23.56463,59687
23.57277,54161
23.58088,52502
23.58902,57271
23.59713,56808
23.60525,60752
23.61338,56615
23.62150,59229
23.62962,58367
23.63775,60006
23.64587,58910
23.65400,59428
23.66212,64662
23.67023,61088
23.67837,58387
23.68648,56765
23.69462,57607
23.70273,62890
23.71085,56984
23.71898,62182
23.72710,62980
23.73523,72500
23.74335,97264
23.75147,208591
23.75960,489350
23.76772,1190393
23.77583,2620925
23.78397,4498347
23.79208,6039801
23.80022,6566415
23.80833,5980399
23.81645,4730524
23.82458,3482126
23.83270,2397143
23.84083,1697748
23.84895,1240080
23.85707,919621
23.86520,739343
23.87332,652965
23.88143,658232
23.88957,721890
23.89768,835821
23.90582,928652
23.91393,987605
23.92205,952736
23.93018,825427
23.93830,689966
23.94643,602788
23.95455,487168
23.96267,420753
23.97080,366304
23.97892,327682
23.98705,299918
23.99517,270335
24.00328,254447
24.01142,241745
24.01953,240069
24.02765,229741
24.03578,230432
24.04390,225763
24.05203,216452
24.06015,213724
24.06827,202488
24.07640,185411
24.08452,178185
24.09265,174128
24.10077,166816
24.10888,167518
24.11702,157747
24.12513,166028
24.13325,171462
24.14138,170695
24.14950,166393
24.15763,173868
24.16575,171639
24.17387,163799
24.18200,155247
24.19012,147775
24.19825,148667
24.20637,155251
24.21448,162743
24.22262,167348
24.23073,168670
24.23887,174666
24.24698,161864
24.25510,147825
24.26323,142849
24.27135,137317
24.27947,130214
24.28760,127750
24.29572,121119
24.30385,113336
24.31197,118392
24.32008,111922
24.32822,109510
24.33633,114889
24.34447,113057
24.35258,106480
24.36070,113379
24.36883,111449
24.37695,108644
24.38508,110783
24.39320,123627
24.40132,142093
24.40945,162735
24.41757,165788
24.42568,176999
24.43382,200392
24.44193,239356
24.45007,332508
24.45818,470401
24.46630,582730
24.47443,624011
24.48255,635458
24.49068,558388
24.49880,458960
24.50692,383998
24.51505,330043
24.52317,301394
24.53128,269400
24.53942,238652
24.54753,211787
24.55567,201574
24.56378,180799
24.57190,165237
24.58003,153359
24.58815,138361
24.59628,134485
24.60440,135234
24.61252,131437
24.62065,131192
24.62877,126931
24.63690,123531
24.64502,126973
24.65313,131636
24.66127,127439
24.66938,132128
24.67750,130943
24.68563,126322
24.69375,121622
24.70188,112459
24.71000,101681
24.71812,107906
24.72625,98241
24.73437,101562
24.74250,93589
24.75062,93625
24.75873,95743
24.76687,89998
24.77498,91363
24.78312,96880
24.79123,94755
24.79935,98718
24.80748,87376
24.81560,90619
24.82372,89852
24.83185,98655
24.83997,98617
24.84810,100493
24.85622,103580
24.86433,103420
24.87247,105254
24.88058,104408
24.88872,107197
24.89683,95241
24.90495,99773
24.91308,98323
24.92120,89865
24.92932,88997
24.93745,85341
24.94557,77375
24.95370,83127
24.96182,79548
24.96993,76059
24.97807,76971
24.98618,82702
24.99432,82435
25.00243,75719
25.01055,77056
25.01868,70860
25.02680,75053
25.03493,70386
25.04305,76435
25.05117,74085
25.05930,76099
25.06742,75594
25.07553,73255
25.08367,73198
25.09178,70846
25.09992,71128
25.10803,78148
25.11615,73426
25.12428,79476
25.13240,83568
25.14053,90673
25.14865,100464
25.15677,107943
25.16490,112692
25.17302,121943
25.18115,117749
25.18927,110211
25.19738,97720
25.20552,96122
25.21363,90798
25.22175,90572
25.22988,81072
25.23800,80804
25.24613,83513
25.25425,76576
25.26237,73902
25.27050,80557
25.27862,76465
25.28675,77365
25.29487,79707
25.30298,80333
25.31112,79185
25.31923,81899
25.32735,81895
25.33548,78755
25.34360,77936
25.35173,77442
25.35985,75049
25.36797,73000
25.37610,71950
25.38422,71028
25.39235,70619
25.40047,65188
25.40858,69013
25.41672,67961
25.42483,70579
25.43297,67149
25.44108,69524
25.44920,69407
25.45733,72704
25.46545,76456
25.47357,77055
25.48170,77097
25.48982,86944
25.49795,85143
25.50607,80010
25.51418,75976
25.52232,81012
25.53043,70856
25.53857,77255
25.54668,69755
25.55480,68067
25.56293,72945
25.57105,68643
25.57917,69197
25.58730,68756
25.59542,70791
25.60355,63148
25.61167,62634
25.61978,68779
25.62792,61796
25.63603,59870
25.64417,59697
25.65228,64815
25.66040,66727
25.66853,62763
25.67665,67080
25.68478,60994
25.69290,61064
25.70102,65558
25.70915,63824
25.71727,64862
25.72538,64422
25.73352,61364
25.74163,63719
25.74977,63220
25.75788,60919
25.76600,62536
25.77413,62873
25.78225,55759
25.79038,59565
25.79850,60515
25.80662,58124
25.81475,60005
25.82287,64995
25.83100,63307
25.83912,66260
25.84723,65087
25.85537,66247
25.86348,65194
25.87160,64271
25.87973,66142
25.88785,62908
25.89598,61237
25.90410,67676
25.91222,62611
25.92035,60298
25.92847,61047
25.93660,60990
25.94472,61063
25.95283,63049
25.96097,65683
25.96908,59330
25.97720,62035
25.98533,61879
25.99345,60885
26.00158,57033
26.00970,62921
26.01782,57708
26.02595,60813
26.03407,60335
26.04220,56574
26.05032,54286
26.05843,57897
26.06657,60177
26.07468,63097
26.08282,62563
26.09093,61063
26.09905,59219
26.10718,56189
26.11530,61440
26.12342,60831
26.13155,59162
26.13967,60216
26.14780,65043
26.15592,61988
26.16403,63571
26.17217,62897
26.18028,58706
26.18842,61771
26.19653,58009
26.20465,53889
26.21278,60192
26.22090,59206
26.22903,61270
26.23715,61123
26.24527,61305
26.25340,56212
26.26152,60383
26.26963,65651
26.27777,66999
26.28588,63966
26.29402,62305
26.30213,60531
26.31025,58852
26.31838,60766
26.32650,51781
26.33463,57655
26.34275,59960
26.35087,55569
26.35900,60366
26.36712,60838
26.37523,55849
26.38337,58248
26.39148,59992
26.39962,64242
26.40773,60769
26.41585,62135
26.42398,60645
26.43210,63632
26.44023,62448
26.44835,59457
26.45647,64416
26.46460,60768
26.47272,57954
26.48085,59667
26.48897,59517
26.49708,61649
26.50522,61696
26.51333,56635
26.52145,55818
26.52958,54434
26.53770,59426
26.54583,59413
26.55395,57132
26.56207,58408
26.57020,56273
26.57832,52145
26.58645,54861
26.59457,57069
26.60268,56866
26.61082,54383
26.61893,58568
26.62705,56864
26.63518,55681
26.64330,56114
26.65143,55512
26.65955,52703
26.66767,56338
26.67580,61207
26.68392,59235
26.69205,58580
26.70017,58911
26.70828,63154
26.71642,60801
26.72453,58612
26.73267,56404
26.74078,59335
26.74890,58811
26.75703,57345
26.76515,55431
26.77327,56195
26.78140,58407
26.78952,54475
26.79765,59842
26.80577,59160
26.81388,64256
26.82202,60334
26.83013,62601
26.83827,59646
26.84638,61340
26.85450,62591
26.86263,65299
26.87075,65392
26.87888,68614
26.88700,69874
26.89512,66548
26.90325,68033
26.91137,64611
26.91948,63834
26.92762,66603
26.93573,65520
26.94387,69964
26.95198,68886
26.96010,87087
26.96823,125587
26.97635,203864
26.98448,364078
26.99260,684332
27.00072,1151324
27.00885,1895392
27.01697,2723124
27.02508,3435305
27.03322,3498717
27.04133,3075387
27.04947,2587935
27.05758,2075925
27.06570,1669836
27.07383,1299654
27.08195,996035
27.09008,793586
27.09820,629846
27.10632,542605
27.11445,447317
27.12257,393944
27.13070,341993
27.13882,309557
27.14693,292421
27.15507,274703
27.16318,241371
27.17130,237103
27.17943,222264
27.18755,209743
27.19568,205424
27.20380,194582
27.21192,183802
27.22005,180302
27.22817,164582
27.23630,165015
27.24442,162610
27.25253,170286
27.26067,191851
27.26878,214648
27.27692,239700
27.28503,260466
27.29315,274828
27.30128,288293
27.30940,280044
27.31752,263695
27.32565,238296
27.33377,212367
27.34190,197193
27.35002,175830
27.35813,156226
27.36627,150648
27.37438,146587
27.38252,140727
27.39063,142064
27.39875,136247
27.40688,122773
27.41500,125484
27.42312,119248
27.43125,120823
27.43937,113223
27.44750,114892
27.45562,102457
27.46373,107408
27.47187,107430
27.47998,108828
27.48812,102076
27.49623,103712
27.50435,103438
27.51248,105514
27.52060,103747
27.52873,109189
27.53685,108524
27.54497,110214
27.55310,102751
27.56122,100849
27.56933,103084
27.57747,97387
27.58558,91459
27.59372,94194
27.60183,98675
27.60995,100518
27.61808,95510
27.62620,97627
27.63433,94402
27.64245,95191
27.65057,87467
27.65870,90848
27.66682,83918
27.67493,85944
27.68307,77711
27.69118,85162
27.69932,84334
27.70743,84750
27.71555,81848
27.72368,79861
27.73180,78890
27.73993,78089
27.74805,83487
27.75617,77689
27.76430,79260
27.77242,80243
27.78055,73607
27.78867,75181
27.79678,74617
27.80492,78077
27.81303,79441
27.82115,75399
27.82928,82289
27.83740,76607
27.84553,75852
27.85365,70880
27.86177,77170
27.86990,68176
27.87802,75250
27.88615,73276
27.89427,75702
27.90238,72095
27.91052,71316
27.91863,66388
27.92677,73857
27.93488,71423
27.94300,67311
27.95113,75925
27.95925,67376
27.96737,69111
27.97550,71391
27.98362,70112
27.99175,75495
27.99987,70512
28.00798,72525
28.01612,71851
28.02423,68984
28.03237,68991
28.04048,66994
28.04860,66888
28.05673,68865
28.06485,65917
28.07298,64052
28.08110,64781
28.08922,67085
28.09735,62663
28.10547,63534
28.11358,69705
28.12172,65535
28.12983,63938
28.13797,64723
28.14608,62225
28.15420,61755
28.16233,64993
28.17045,67483
28.17858,65443
28.18670,70620
28.19482,75768
28.20295,80968
28.21107,83109
28.21918,86178
28.22732,95633
28.23543,90183
28.24357,85519
28.25168,83525
28.25980,77050
28.26793,78638
28.27605,72107
28.28418,77795
28.29230,83988
28.30042,99672
28.30855,129455
28.31667,171401
28.32480,241909
28.33292,334300
28.34103,448470
28.34917,568291
28.35728,685195
28.36540,780071
28.37353,826260
28.38165,878537
28.38978,860658
28.39790,830377
28.40602,762751
28.41415,670913
28.42227,607237
28.43040,521629
28.43852,470680
28.44663,418572
28.45477,358306
28.46288,312855
28.47100,285261
28.47913,263414
28.48725,240390
28.49538,218324
28.50350,216120
28.51162,218123
28.51975,207438
28.52787,206084
28.53600,218307
28.54412,203424
28.55223,201581
28.56037,207428
28.56848,206252
28.57662,195971
28.58473,192493
28.59285,189621
28.60098,180659
28.60910,173004
28.61722,168192
28.62535,166872
28.63347,152048
28.64160,160153
28.64972,150526
28.65783,137614
28.66597,139583
28.67408,138161
28.68222,135803
28.69033,136037
28.69845,133088
28.70658,129140
28.71470,115355
28.72283,112921
28.73095,117334
28.73907,114426
28.74720,117941
28.75532,110503
28.76343,123516
28.77157,120643
28.77968,130422
28.78782,134478
28.79593,125706
28.80405,125931
28.81218,110792
28.82030,110972
28.82843,113369
28.83655,109677
28.84467,98487
28.85280,100610
28.86092,96075
28.86903,93882
28.87717,96935
28.88528,94539
28.89342,93666
28.90153,92450
28.90965,93559
28.91778,98102
28.92590,93815
28.93403,96306
28.94215,96015
28.95027,90600
28.95840,94654
28.96652,90110
28.97465,97327
28.98277,97127
28.99088,87724
28.99902,95420
29.00713,90225
29.01525,86331
29.02338,86411
29.03150,79630
29.03963,87040
29.04775,81937
29.05587,83783
29.06400,84809
29.07212,79923
29.08025,82211
29.08837,84888
29.09648,88097
29.10462,86450
29.11273,80653
29.12087,84633
29.12898,77751
29.13710,77505
29.14523,79408
29.15335,78275
29.16147,78073
29.16960,78185
29.17772,78102
29.18585,71073
29.19397,77954
29.20208,76497
29.21022,78758
29.21833,75409
29.22647,83287
29.23458,77563
29.24270,79901
29.25083,79637
29.25895,83853
29.26707,85110
29.27520,86086
29.28332,90169
29.29145,86807
29.29957,89742
29.30768,87478
29.31582,81719
29.32393,84623
29.33207,82135
29.34018,81979
29.34830,85125
29.35643,79673
29.36455,82714
29.37268,82604
29.38080,76946
29.38892,78150
29.39705,77384
29.40517,79025
29.41328,76676
29.42142,74047
29.42953,74501
29.43767,80052
29.44578,77037
29.45390,74395
29.46203,75909
29.47015,73372
29.47828,77407
29.48640,78060
29.49452,78847
29.50265,84726
29.51077,83138
29.51888,89648
29.52702,84203
29.53513,80380
29.54327,79579
29.55138,73191
29.55950,77889
29.56763,72336
29.57575,74641
29.58388,71296
29.59200,72783
29.60012,71016
29.60825,68312
29.61637,72665
29.62450,77429
29.63262,68981
29.64073,73967
29.64887,73234
29.65698,71762
29.66510,70492
29.67323,68858
29.68135,73044
29.68948,65390
29.69760,70941
29.70572,67954
29.71385,66570
29.72197,65053
29.73010,63769
29.73822,68770
29.74633,66412
29.75447,68546
29.76258,72219
29.77072,70433
29.77883,64912
29.78695,62167
29.79508,66421
29.80320,62025
29.81132,64277
29.81945,63139
29.82757,64394
29.83570,66575
29.84382,69184
29.85193,70271
29.86007,70985
29.86818,68540
29.87632,67308
29.88443,65738
29.89255,66179
29.90068,71616
29.90880,70919
29.91692,73413
29.92505,75317
29.93317,76662
29.94130,77589
29.94942,90118
29.95753,104350
29.96567,111847
29.97378,137773
29.98192,179637
29.99003,201333
29.99815,234020
30.00628,268074
30.01440,305790
30.02253,324137
30.03065,349137
30.03877,362749
30.04690,368493
30.05502,362933
30.06313,367516
30.07127,354327
30.07938,334569
30.08752,321609
30.09563,306464
30.10375,295991
30.11188,284345
30.12000,266018
30.12813,255146
30.13625,238486
30.14437,221844
30.15250,210106
30.16062,215726
30.16875,190879
30.17687,189987
30.18498,183132
30.19312,164313
30.20123,160484
30.20935,153640
30.21748,142482
30.22560,145996
30.23373,137790
30.24185,140025
30.24997,127973
30.25810,124238
30.26622,121320
30.27435,124049
30.28247,113494
30.29058,108354
30.29872,108117
30.30683,104886
30.31495,104243
30.32308,104314
30.33120,99606
30.33933,98320
30.34745,97117
30.35557,90780
30.36370,93098
30.37182,95088
30.37995,88461
30.38807,90512
30.39618,89216
30.40432,88778
30.41243,87136
30.42057,92374
30.42868,89475
30.43680,84941
30.44493,87251
30.45305,86451
30.46117,84955
30.46930,82597
30.47742,82937
30.48555,82572
30.49367,81454
30.50178,79379
30.50992,74680
30.51803,76632
30.52617,80000
30.53428,78971
30.54240,75363
30.55053,70443
30.55865,76387
30.56678,79298
30.57490,78515
30.58302,73485
30.59115,77923
30.59927,73132
30.60738,72933
30.61552,74691
30.62363,71621
30.63177,71313
30.63988,70849
30.64800,67890
30.65613,69750
30.66425,68143
30.67238,68940
30.68050,69012
30.68862,65588
30.69675,71506
30.70487,69999
30.71298,67173
30.72112,69756
30.72923,69819
30.73737,71924
30.74548,65443
30.75360,69597
30.76173,65287
30.76985,70276
30.77798,75731
30.78610,69018
30.79422,67705
30.80235,69757
30.81047,71363
30.81860,72879
30.82672,72110
30.83483,69227
30.84297,66776
30.85108,68978
30.85920,65433
30.86733,69751
30.87545,65283
30.88358,64713
30.89170,67948
30.89982,68392
30.90795,62250
30.91607,67952
30.92420,66521
30.93232,65398
30.94043,63142
30.94857,66119
30.95668,66264
30.96480,63446
30.97293,68414
30.98105,66132
30.98918,64595
30.99730,68030
31.00542,62554
31.01355,65166
31.02167,63413
31.02980,60320
31.03792,65360
31.04603,62451
31.05417,63409
31.06228,65652
31.07042,65309
31.07853,71267
31.08665,78860
31.09478,83265
31.10290,86584
31.11102,94306
31.11915,93907
31.12727,87344
31.13540,85190
31.14352,73270
31.15163,75295
31.15977,75525
31.16788,75661
31.17602,73954
31.18413,73115
31.19225,75528
31.20038,82002
31.20850,81681
31.21663,94241
31.22475,99945
31.23287,98277
31.24100,98159
31.24912,93506
31.25723,93824
31.26537,90358
31.27348,81908
31.28162,83170
31.28973,79522
31.29785,78334
31.30598,78111
31.31410,76966
31.32223,76918
31.33035,71244
31.33847,72973
31.34660,69468
31.35472,68277
31.36283,68719
31.37097,68934
31.37908,73585
31.38722,75958
31.39533,69066
31.40345,75703
31.41158,73775
31.41970,77204
31.42783,77075
31.43595,75563
31.44407,70852
31.45220,72480
31.46032,67453
31.46845,71226
31.47657,64411
31.48468,70358
31.49282,65476
31.50093,68662
31.50905,63142
31.51718,63912
31.52530,66605
31.53343,62148
31.54155,65171
31.54967,68004
31.55780,62824
31.56592,67405
31.57405,64353
31.58217,59301
31.59028,70265
31.59842,61474
31.60653,63020
31.61467,59194
31.62278,61660
31.63090,70674
31.63903,64911
31.64715,69920
31.65527,66482
31.66340,65557
31.67152,57865
31.67965,66861
31.68777,63442
31.69588,61405
31.70402,60583
31.71213,62873
31.72027,62960
31.72838,62813
31.73650,62181
31.74463,58951
31.75275,60033
31.76087,59561
31.76900,61836
31.77712,61477
31.78525,61099
31.79337,60804
31.80148,61054
31.80962,63159
31.81773,60551
31.82587,68585
31.83398,62441
31.84210,62598
31.85023,65617
31.85835,64201
31.86648,71172
31.87460,66942
31.88272,65173
31.89085,73258
31.89897,77470
31.90708,77512
31.91522,86623
31.92333,111128
31.93147,122341
31.93958,140006
31.94770,176149
31.95583,192192
31.96395,212741
31.97208,234657
31.98020,243858
31.98832,265236
31.99645,261040
32.00457,256187
32.01268,241093
32.02082,239103
32.02893,212956
32.03707,204100
32.04518,199606
32.05330,188517
32.06143,179259
32.06955,170604
32.07768,165564
32.08580,163803
32.09392,153118
32.10205,145704
32.11017,141030
32.11830,130997
32.12642,124177
32.13453,115603
32.14267,116147
32.15078,113296
32.15890,103958
32.16703,102849
32.17515,104284
32.18328,106031
32.19140,97301
32.19952,98123
32.20765,92474
32.21577,93093
32.22390,89316
32.23202,89238
32.24013,91910
32.24827,90005
32.25638,85504
32.26452,90602
32.27263,81927
32.28075,78603
32.28888,83562
32.29700,87200
32.30512,81131
32.31325,83813
32.32137,78839
32.32950,80541
32.33762,80127
32.34573,77244
32.35387,82323
32.36198,77906
32.37012,84380
32.37823,76800
32.38635,76181
32.39448,76278
32.40260,69813
32.41073,69768
32.41885,70122
32.42697,78154
32.43510,70885
32.44322,65664
32.45133,73363
32.45947,70027
32.46758,70241
32.47572,67917
32.48383,68385
32.49195,67196
32.50008,71106
32.50820,69904
32.51633,70643
32.52445,70960
32.53257,76885
32.54070,67967
32.54882,68405
32.55693,73961
32.56507,73479
32.57318,64804
32.58132,71960
32.58943,65101
32.59755,66351
32.60568,67887
32.61380,66095
32.62193,67901
32.63005,67655
32.63817,67130
32.64630,68128
32.65442,70490
32.66255,76044
32.67067,76237
32.67878,88693
32.68692,88864
32.69503,88038
32.70315,86220
32.71128,77292
32.71940,76213
32.72753,77883
32.73565,76468
32.74377,73078
32.75190,72938
32.76002,71022
32.76815,71186
32.77627,73553
32.78438,64603
32.79252,64571
32.80063,69587
32.80875,63970
32.81688,69649
32.82500,66955
32.83313,66260
32.84125,72429
32.84937,63448
32.85750,66690
32.86562,69402
32.87375,62914
32.88187,67152
32.88998,71990
32.89812,63838
32.90623,66446
32.91437,65530
32.92248,67274
32.93060,68034
32.93873,65201
32.94685,64752
32.95497,67261
32.96310,65660
32.97122,63633
32.97935,62782
32.98747,67499
32.99558,58717
33.00372,63197
33.01183,63184
33.01997,65787
33.02808,67799
33.03620,65512
33.04433,63248
33.05245,57965
33.06058,58727
33.06870,67016
33.07682,66655
33.08495,65861
33.09307,66353
33.10118,69877
33.10932,73667
33.11743,84880
33.12557,86964
33.13368,79977
33.14180,81983
33.14993,84675
33.15805,68265
33.16618,69897
33.17430,68816
33.18242,65972
33.19055,64560
33.19867,69822
33.20678,79650
33.21492,68886
33.22303,71485
33.23117,72172
33.23928,65724
33.24740,70900
33.25553,65690
33.26365,67074
33.27178,67892
33.27990,67866
33.28802,64461
33.29615,64252
33.30427,58195
33.31240,58922
33.32052,64073
33.32863,62808
33.33677,61502
33.34488,65803
33.35300,59791
33.36113,67334
33.36925,65849
33.37738,62704
33.38550,64567
33.39362,64291
33.40175,64400
33.40987,65748
33.41800,64313
33.42612,66381
33.43423,67360
33.44237,66552
33.45048,66564
33.45862,58846
33.46673,62669
33.47485,68502
33.48298,63004
33.49110,62799
33.49922,59745
33.50735,65773
33.51547,61788
33.52360,60683
33.53172,62998
33.53983,61527
33.54797,62446
33.55608,58030
33.56422,65438
33.57233,62820
33.58045,62612
33.58858,64216
33.59670,63124
33.60482,62323
33.61295,62811
33.62107,58935
33.62920,62952
33.63732,59589
33.64543,60652
33.65357,63759
33.66168,62532
33.66982,64028
33.67793,62652
33.68605,66318
33.69418,66315
33.70230,63023
33.71043,65156
33.71855,62784
33.72667,63716
33.73480,61296
33.74292,67958
33.75103,65702
33.75917,66009
33.76728,64548
33.77542,61762
33.78353,65032
33.79165,65772
33.79978,63130
33.80790,63199
33.81603,63371
33.82415,64574
33.83227,63757
33.84040,64870
33.84852,67150
33.85663,65688
33.86477,72934
33.87288,66233
33.88102,69443
33.88913,68825
33.89725,70254
33.90538,67021
33.91350,68121
33.92163,69775
33.92975,68202
33.93787,70307
33.94600,70869
33.95412,70143
33.96225,68953
33.97037,66189
33.97848,65492
33.98662,69075
33.99473,64899
34.00285,70224
34.01098,66691
34.01910,61164
34.02723,62735
34.03535,59732
34.04347,60335
34.05160,62378
34.05972,65835
34.06785,62774
34.07597,60493
34.08408,61935
34.09222,62434
34.10033,62985
34.10847,64346
34.11658,60019
34.12470,62153
34.13283,62137
34.14095,65746
34.14907,65128
34.15720,60801
34.16532,61621
34.17345,68409
34.18157,69204
34.18968,65969
34.19782,63877
34.20593,65570
34.21407,67467
34.22218,71705
34.23030,65324
34.23843,63606
34.24655,69046
34.25467,67333
34.26280,64499
34.27092,73191
34.27905,67495
34.28717,68573
34.29528,66464
34.30342,73027
34.31153,68494
34.31967,72924
34.32778,69040
34.33590,74017
34.34403,66449
34.35215,66815
34.36028,72226
34.36840,64169
34.37652,66779
34.38465,70548
34.39277,66693
34.40088,65323
34.40902,65817
34.41713,63886
34.42527,69001
34.43338,65292
34.44150,63399
34.44963,67602
34.45775,67120
34.46588,69073
34.47400,66218
34.48212,66870
34.49025,70644
34.49837,69189
34.50650,70199
34.51462,74487
34.52273,86408
34.53087,107009
34.53898,123322
34.54710,154037
34.55523,169574
34.56335,179313
34.57148,181738
34.57960,190553
34.58772,182307
34.59585,173135
34.60397,152911
34.61210,150875
34.62022,132207
34.62833,127266
34.63647,122192
34.64458,120091
34.65270,109388
34.66083,102785
34.66895,105350
34.67708,101823
34.68520,101313
34.69332,95845
34.70145,92456
34.70957,95345
34.71770,93361
34.72582,88737
34.73393,89391
34.74207,90867
34.75018,86579
34.75832,78432
34.76643,85619
34.77455,82803
34.78268,83544
34.79080,79765
34.79892,81005
34.80705,81282
34.81517,79767
34.82330,77292
34.83142,83110
34.83953,83934
34.84767,77644
34.85578,73390
34.86392,77785
34.87203,80847
34.88015,71798
34.88828,82108
34.89640,77456
34.90452,76149
34.91265,74296
34.92077,74145
34.92890,78104
34.93702,78517
34.94513,77218
34.95327,81963
34.96138,85855
34.96952,84289
34.97763,81775
34.98575,84037
34.99388,84466
35.00200,83585
35.01013,83625
35.01825,79507
35.02637,82422
35.03450,87324
35.04262,78233
35.05073,82738
35.05887,85719
35.06698,81542
35.07512,83291
35.08323,80886
35.09135,79760
35.09948,74188
35.10760,77147
35.11573,75182
35.12385,75992
35.13197,70962
35.14010,77795
35.14822,74981
35.15635,72896
35.16447,71430
35.17258,82323
35.18072,82124
35.18883,79996
35.19695,79538
35.20508,75584
35.21320,83071
35.22133,76909
35.22945,74801
35.23757,73765
35.24570,75133
35.25382,79486
35.26195,75691
35.27007,78853
35.27818,74573
35.28632,71864
35.29443,76140
35.30255,78038
35.31068,75025
35.31880,71933
35.32693,73692
35.33505,70022
35.34317,70718
35.35130,75982
35.35942,72467
35.36755,76179
35.37567,72594
35.38378,72259
35.39192,74263
35.40003,73265
35.40817,77271
35.41628,77259
35.42440,78680
35.43253,77535
35.44065,75708
35.44877,78289
35.45690,75090
35.46502,84008
35.47315,77646
35.48127,78010
35.48938,79606
35.49752,79375
35.50563,78764
35.51377,79953
35.52188,73723
35.53000,70547
35.53813,79192
35.54625,74061
35.55438,77438
35.56250,75846
35.57062,82626
35.57875,76884
35.58687,83292
35.59498,78888
35.60312,75298
35.61123,81418
35.61937,78946
35.62748,82809
35.63560,77231
35.64373,80030
35.65185,77498
35.65998,79035
35.66810,82050
35.67622,76636
35.68435,85878
35.69247,82597
35.70058,87216
35.70872,85860
35.71683,85362
35.72497,80723
35.73308,82882
35.74120,81846
35.74933,79844
35.75745,79519
35.76558,73871
35.77370,80074
35.78182,75835
35.78995,74718
35.79807,78671
35.80620,78199
35.81432,78799
35.82243,80337
35.83057,75966
35.83868,80015
35.84680,77333
35.85493,81855
35.86305,80916
35.87118,79497
35.87930,80803
35.88742,81281
35.89555,75043
35.90367,75823
35.91180,74821
35.91992,72115
35.92803,69724
35.93617,69155
35.94428,69929
35.95242,72581
35.96053,76258
35.96865,71741
35.97678,70069
35.98490,71226
35.99302,68839
36.00115,75436
36.00927,73276
36.01740,72816
36.02552,78195
36.03363,69993
36.04177,73022
36.04988,71508
36.05802,72720
36.06613,76920
36.07425,74966
36.08238,76252
36.09050,79483
36.09862,70584
36.10675,70143
36.11487,74153
36.12300,74137
36.13112,75783
36.13923,76044
36.14737,79402
36.15548,82932
36.16362,80259
36.17173,89059
36.17985,87874
36.18798,84433
36.19610,91977
36.20423,86374
36.21235,83011
36.22047,80846
36.22860,79847
36.23672,77985
36.24483,74503
36.25297,78831
36.26108,75530
36.26922,81613
36.27733,78109
36.28545,78985
36.29358,82819
36.30170,84790
36.30983,85605
36.31795,92925
36.32607,85980
36.33420,87533
36.34232,83052
36.35043,85608
36.35857,82258
36.36668,76288
36.37482,79754
36.38293,78326
36.39105,76790
36.39918,77480
36.40730,71861
36.41543,74042
36.42355,83438
36.43167,81990
36.43980,70144
36.44792,77786
36.45605,77515
36.46417,79150
36.47228,81709
36.48042,75987
36.48853,75467
36.49665,74839
36.50478,73928
36.51290,75334
36.52103,74905
36.52915,74495
36.53727,77348
36.54540,76736
36.55352,69451
36.56165,73942
36.56977,73723
36.57788,77729
36.58602,76549
36.59413,76562
36.60227,80801
36.61038,79517
36.61850,79301
36.62663,77197
36.63475,77953
36.64287,80852
36.65100,83656
36.65912,83706
36.66725,82930
36.67537,90226
36.68348,89694
36.69162,91635
36.69973,93217
36.70787,88710
36.71598,91702
36.72410,85071
36.73223,89020
36.74035,90308
36.74847,93749
36.75660,91664
36.76472,92801
36.77285,97765
36.78097,88829
36.78908,90045
36.79722,84307
36.80533,83092
36.81347,85714
36.82158,89036
36.82970,80374
36.83783,82567
36.84595,78531
36.85408,79617
36.86220,78013
36.87032,85833
36.87845,77409
36.88657,78097
36.89468,83168
36.90282,78324
36.91093,79223
36.91907,79939
36.92718,79080
36.93530,78699
36.94343,75235
36.95155,74057
36.95968,77021
36.96780,80484
36.97592,80150
36.98405,78401
36.99217,79584
37.00030,70674
37.00842,72129
37.01653,74952
37.02467,77424
37.03278,77064
37.04090,77320
37.04903,79460
37.05715,75867
37.06528,74900
37.07340,77514
37.08152,78028
37.08965,75167
37.09777,79877
37.10590,81592
37.11402,80938
37.12213,77582
37.13027,80660
37.13838,82960
37.14650,81018
37.15463,78451
37.16275,75554
37.17088,80856
37.17900,86549
37.18712,78591
37.19525,77434
37.20337,81795
37.21150,79793
37.21962,82420
37.22773,83922
37.23587,81005
37.24398,78898
37.25212,77020
37.26023,83132
37.26835,83712
37.27648,80188
37.28460,82871
37.29272,83136
37.30085,81115
37.30897,85078
37.31710,85595
37.32522,82507
37.33333,92389
37.34147,97724
37.34958,111119
37.35772,123569
37.36583,133050
37.37395,137703
37.38208,141829
37.39020,136847
37.39832,129648
37.40645,120257
37.41457,114643
37.42270,110648
37.43082,113175
37.43893,108851
37.44707,105444
37.45518,104714
37.46332,109656
37.47143,103444
37.47955,101770
37.48768,106777
