D:\MassHunter\GCMS\1\data\JTB-E02\BACandSTRAW\JTB-E02-208-25.D Thu Mar 14 14:23:59 2019
Start of data points
2.09515	117474
2.10328	125945
2.11140	124475
2.11953	127620
2.12765	117673
2.13577	123427
2.14390	122649
2.15202	120424
2.16015	116509
2.16827	119120
2.17638	116351
2.18452	110598
2.19263	110307
2.20075	101016
2.20888	98275
2.21700	99289
2.22513	95686
2.23325	94160
2.24137	93334
2.24950	87267
2.25762	93101
2.26575	90996
2.27387	89276
2.28198	95829
2.29012	89128
2.29823	89611
2.30635	86048
2.31448	103798
2.32260	105992
2.33073	86725
2.33885	85478
2.34697	86807
2.35510	84500
2.36322	82661
2.37135	84674
2.37947	85658
2.38758	77805
2.39572	119951
2.40383	1996334
2.41197	1.100763E+07
2.42008	1.21129E+07
2.42820	6438153
2.43633	3087110
2.44445	2395360
2.45257	2037678
2.46070	1750246
2.46882	1524838
2.47695	1460079
2.48507	1249967
2.49318	1121953
2.50132	1019721
2.50943	959090
2.51757	874528
2.52568	812357
2.53380	805186
2.54193	768234
2.55005	734091
2.55818	708869
2.56630	688105
2.57442	674135
2.58255	666906
2.59067	651363
2.59878	632390
2.60692	627546
2.61503	596286
2.62317	595516
2.63128	601951
2.63940	595297
2.64753	579943
2.65565	582477
2.66378	569117
2.67190	571044
2.68002	549176
2.68815	547940
2.69627	552476
2.70440	555876
2.71252	641975
2.72063	634397
2.72877	574981
2.73688	550251
2.74500	535375
2.75313	548433
2.76125	838950
2.76938	1491307
2.77750	1332933
2.78562	878965
2.79375	730935
2.80187	669147
2.81000	613604
2.81812	576118
2.82623	554453
2.83437	534482
2.84248	519927
2.85060	529207
2.85873	511984
2.86685	497934
2.87498	497854
2.88310	480989
2.89122	492518
2.89935	491730
2.90747	477801
2.91560	473130
2.92372	477079
2.93183	465334
2.93997	482747
2.94808	580967
2.95622	670921
2.96433	557257
2.97245	503338
2.98058	480819
2.98870	471972
2.99682	461023
3.00495	441744
3.01307	456763
3.02120	439285
3.02932	428459
3.03743	420077
3.04557	431766
3.05368	428343
3.06182	418104
3.06993	417564
3.07805	412779
3.08618	402166
3.09430	405997
3.10243	399086
3.11055	401673
3.11867	390508
3.12680	391727
3.13492	400186
3.14303	390977
3.15117	388281
3.15928	394625
3.16742	402747
3.17553	416607
3.18365	453369
3.19178	411540
3.19990	397732
3.20803	388780
3.21615	383495
3.22427	374143
3.23240	370547
3.24052	359755
3.24863	362631
3.25677	358525
3.26488	406161
3.27302	671165
3.28113	4555487
3.28925	1.979695E+07
3.29738	2.7186E+07
3.30550	2.272288E+07
3.31363	1.568347E+07
3.32175	1.191364E+07
3.32987	9783738
3.33800	7983343
3.34612	6622115
3.35425	5708307
3.36237	9596303
3.37048	3.276407E+07
3.37862	5.222813E+07
3.38673	5.391909E+07
3.39485	4.537295E+07
3.40298	3.792134E+07
3.41110	3.411116E+07
3.41923	3.093899E+07
3.42735	2.816004E+07
3.43547	2.561012E+07
3.44360	2.356717E+07
3.45172	2.154431E+07
3.45985	1.986542E+07
3.46797	1.82805E+07
3.47608	1.740624E+07
3.48422	1.683363E+07
3.49233	1.599822E+07
3.50047	1.479279E+07
3.50858	1.345931E+07
3.51670	1.234496E+07
3.52483	1.148141E+07
3.53295	1.057957E+07
3.54107	9874256
3.54920	9193581
3.55732	8588692
3.56545	8060793
3.57357	7530465
3.58168	7029343
3.58982	6643773
3.59793	6272192
3.60607	5916507
3.61418	5650142
3.62230	5302194
3.63043	5067361
3.63855	4775605
3.64667	4596964
3.65480	4383068
3.66292	4163763
3.67105	4016761
3.67917	3804654
3.68728	3703718
3.69542	3549194
3.70353	3431625
3.71167	3261358
3.71978	3159735
3.72790	3032205
3.73603	2908915
3.74415	2782309
3.75228	2728034
3.76040	2603551
3.76852	2538079
3.77665	2441849
3.78477	2390722
3.79288	2335934
3.80102	2232496
3.80913	2161430
3.81727	2101601
3.82538	2082532
3.83350	1993684
3.84163	1938609
3.84975	1893828
3.85788	2021884
3.86600	5742774
3.87412	2.830902E+07
3.88225	6.106795E+07
3.89037	7.665849E+07
3.89850	7.144989E+07
3.90662	5.191221E+07
3.91473	3.848643E+07
3.92287	3.287188E+07
3.93098	2.880097E+07
3.93910	2.586168E+07
3.94723	2.350108E+07
3.95535	2.146667E+07
3.96348	1.969601E+07
3.97160	1.833355E+07
3.97972	1.723825E+07
3.98785	1.981623E+07
3.99597	3.307046E+07
4.00410	4.91389E+07
4.01222	5.165992E+07
4.02033	3.908184E+07
4.02847	2.586511E+07
4.03658	1.980589E+07
4.04472	1.665546E+07
4.05283	1.46939E+07
4.06095	1.316223E+07
4.06908	1.209023E+07
4.07720	1.117162E+07
4.08532	1.080544E+07
4.09345	1.161831E+07
4.10157	1.256252E+07
4.10970	1.162391E+07
4.11782	9867389
4.12593	8843325
4.13407	8272668
4.14218	7799610
4.15032	7403711
4.15843	7064530
4.16655	6747577
4.17468	6552977
4.18280	6292780
4.19092	6046579
4.19905	5807099
4.20717	5555186
4.21530	5425509
4.22342	5216919
4.23153	5102624
4.23967	4947034
4.24778	4784802
4.25592	4669043
4.26403	4474309
4.27215	4380240
4.28028	4295207
4.28840	4152445
4.29653	4216603
4.30465	4413904
4.31277	4519497
4.32090	4243783
4.32902	3902230
4.33713	3683566
4.34527	3566354
4.35338	3450013
4.36152	3380085
4.36963	3321218
4.37775	3698677
4.38588	5264035
4.39400	7589115
4.40213	7859704
4.41025	5987120
4.41837	4326518
4.42650	3631511
4.43462	3280697
4.44275	3085839
4.45087	2979479
4.45898	3224025
4.46712	5132548
4.47523	1.019008E+07
4.48335	1.454154E+07
4.49148	1.40376E+07
4.49960	9928233
4.50773	6810980
4.51585	5378501
4.52397	4519722
4.53210	3908705
4.54022	3453819
4.54835	3136683
4.55647	2924453
4.56458	2760113
4.57272	2615519
4.58083	2526423
4.58895	2425923
4.59708	2340416
4.60520	2268153
4.61333	2205595
4.62145	2112741
4.62957	2080458
4.63770	2037039
4.64582	1990389
4.65395	1932115
4.66207	1910459
4.67018	1862038
4.67832	1824117
4.68643	1787655
4.69457	1770301
4.70268	1749979
4.71080	1761367
4.71893	1747826
4.72705	1699765
4.73517	1669643
4.74330	1629895
4.75142	1624884
4.75955	1573769
4.76767	1668002
4.77578	2236475
4.78392	3380332
4.79203	4054482
4.80017	3411633
4.80828	2476654
4.81640	2001183
4.82453	1784602
4.83265	1753704
4.84078	1921039
4.84890	2410566
4.85702	2556142
4.86515	2310702
4.87327	1913870
4.88138	1663145
4.88952	1606495
4.89763	1667239
4.90577	1829538
4.91388	2209312
4.92200	2554832
4.93013	2492219
4.93825	2059554
4.94638	1673720
4.95450	1471862
4.96262	1393916
4.97075	1332173
4.97887	1302228
4.98698	1279140
4.99512	1276300
5.00323	1217096
5.01137	1218980
5.01948	1202900
5.02760	1510990
5.03573	3130309
5.04385	7214395
5.05198	1.107586E+07
5.06010	1.041953E+07
5.06822	6804004
5.07635	4026014
5.08447	3061666
5.09260	2956294
5.10072	3060840
5.10883	2859072
5.11697	2411584
5.12508	2041665
5.13320	1811159
5.14133	1718844
5.14945	1700789
5.15758	1807802
5.16570	2041694
5.17382	2187339
5.18195	2233749
5.19007	2071764
5.19820	1969503
5.20632	2588370
5.21443	7343066
5.22257	2.319612E+07
5.23068	4.340609E+07
5.23882	5.209363E+07
5.24693	4.46255E+07
5.25505	2.868503E+07
5.26318	1.718391E+07
5.27130	1.224784E+07
5.27942	9728566
5.28755	7985583
5.29567	6961975
5.30380	6248058
5.31192	5650014
5.32003	5192229
5.32817	4774596
5.33628	4517519
5.34442	4241349
5.35253	3993345
5.36065	3880057
5.36878	3655603
5.37690	3486810
5.38503	3306104
5.39315	3218739
5.40127	3093633
5.40940	2957063
5.41752	2851657
5.42563	2819963
5.43377	2733578
5.44188	2647480
5.45002	2588677
5.45813	2506342
5.46625	2417065
5.47438	2371808
5.48250	2323536
5.49063	2234241
5.49875	2201081
5.50687	2167716
5.51500	2103784
5.52312	2055130
5.53123	2022659
5.53937	1963000
5.54748	1935462
5.55562	1895061
5.56373	1883383
5.57185	1813839
5.57998	1806509
5.58810	1815354
5.59623	1889345
5.60435	2202374
5.61247	2599728
5.62060	2690005
5.62872	2413281
5.63685	2406574
5.64497	4152062
5.65308	1.061249E+07
5.66122	2.247331E+07
5.66933	3.20344E+07
5.67745	3.231185E+07
5.68558	2.38313E+07
5.69370	1.39661E+07
5.70183	1.042317E+07
5.70995	1.620616E+07
5.71807	2.962282E+07
5.72620	4.083123E+07
5.73432	4.391931E+07
5.74245	3.62914E+07
5.75057	2.30576E+07
5.75868	1.293519E+07
5.76682	8507038
5.77493	6608364
5.78307	5539805
5.79118	4880074
5.79930	4458258
5.80743	4218376
5.81555	4220083
5.82367	5583772
5.83180	1.029644E+07
5.83992	1.748675E+07
5.84805	2.137121E+07
5.85617	1.853675E+07
5.86428	1.201425E+07
5.87242	7212153
5.88053	4870322
5.88867	3949897
5.89678	3448268
5.90490	3139016
5.91303	2912150
5.92115	2720073
5.92927	2518319
5.93740	2409094
5.94552	2270639
5.95365	2176724
5.96177	2127181
5.96988	2061060
5.97802	1996527
5.98613	1982054
5.99427	2014922
6.00238	1949931
6.01050	1871967
6.01863	1775749
6.02675	1702195
6.03488	1652282
6.04300	1616795
6.05112	1557626
6.05925	1479564
6.06737	1435037
6.07548	1393635
6.08362	1385561
6.09173	1349424
6.09987	1292878
6.10798	1305596
6.11610	1254064
6.12423	1239942
6.13235	1226453
6.14048	1210267
6.14860	1187064
6.15672	1175778
6.16485	1278560
6.17297	2076366
6.18110	5900198
6.18922	1.621482E+07
6.19733	3.051922E+07
6.20547	3.864464E+07
6.21358	3.4542E+07
6.22170	2.198729E+07
6.22983	1.134032E+07
6.23795	6691421
6.24608	5066524
6.25420	4357409
6.26232	4386853
6.27045	6231038
6.27857	1.11449E+07
6.28670	1.808511E+07
6.29482	2.207856E+07
6.30293	1.909411E+07
6.31107	1.256767E+07
6.31918	7283004
6.32730	4782303
6.33543	3795487
6.34355	3288371
6.35168	3039935
6.35980	2882640
6.36792	2727827
6.37605	2597830
6.38417	2466713
6.39230	2252305
6.40042	2103562
6.40853	2054432
6.41667	1935997
6.42478	1927357
6.43292	1893232
6.44103	1860763
6.44915	1916770
6.45728	1874434
6.46540	1789270
6.47352	1670859
6.48165	1627375
6.48977	1542438
6.49790	1495823
6.50602	1482137
6.51413	1456445
6.52227	1627445
6.53038	2672958
6.53852	6269387
6.54663	1.33162E+07
6.55475	2.101596E+07
6.56288	2.259935E+07
6.57100	1.668808E+07
6.57913	9195372
6.58725	4722372
6.59537	3038456
6.60350	2387269
6.61162	2045321
6.61973	1861854
6.62787	1693283
6.63598	1618672
6.64412	1527465
6.65223	1474454
6.66035	1394646
6.66848	1334058
6.67660	1291058
6.68473	1279533
6.69285	1214123
6.70097	1170855
6.70910	1173351
6.71722	1156058
6.72535	1114644
6.73347	1099398
6.74158	1077829
6.74972	1064685
6.75783	1029224
6.76595	1021345
6.77408	1013656
6.78220	967973
6.79033	940304
6.79845	958560
6.80657	927817
6.81470	937845
6.82282	917618
6.83095	889011
6.83907	894006
6.84718	903977
6.85532	1091906
6.86343	2073086
6.87155	5041286
6.87968	9620296
6.88780	1.253393E+07
6.89593	1.090664E+07
6.90405	7004543
6.91217	4206553
6.92030	2850064
6.92842	2097335
6.93655	1630631
6.94467	1523852
6.95278	2106187
6.96092	3662528
6.96903	5655364
6.97717	6665117
6.98528	7274942
6.99340	7966554
7.00153	7680855
7.00965	5579843
7.01777	3321937
7.02590	2079414
7.03402	1541273
7.04215	1335734
7.05027	1217111
7.05838	1137992
7.06652	1057832
7.07463	1027886
7.08277	1291574
7.09088	1203122
7.09900	1142994
7.10713	1126791
7.11525	1124636
7.12338	1127247
7.13150	1187232
7.13962	1297659
7.14775	1529472
7.15587	1655807
7.16398	1551280
7.17212	1328238
7.18023	1132311
7.18837	1030542
7.19648	944607
7.20460	903249
7.21273	868560
7.22085	856406
7.22898	804787
7.23710	781386
7.24522	779055
7.25335	796512
7.26147	841564
7.26958	900621
7.27772	1024287
7.28583	1095891
7.29397	1058350
7.30208	969701
7.31020	866613
7.31833	781038
7.32645	755073
7.33458	731884
7.34270	722354
7.35082	728367
7.35895	731007
7.36707	706142
7.37520	713490
7.38332	772580
7.39143	886518
7.39957	956366
7.40768	980284
7.41580	925448
7.42393	812534
7.43205	736815
7.44018	680670
7.44830	655690
7.45642	624496
7.46455	629877
7.47267	625236
7.48080	647704
7.48892	667397
7.49703	695123
7.50517	659336
7.51328	644634
7.52142	610443
7.52953	597444
7.53765	604737
7.54578	705948
7.55390	1101188
7.56202	2174701
7.57015	3662232
7.57827	4431869
7.58640	3766889
7.59452	2464991
7.60263	1540052
7.61077	1089810
7.61888	896620
7.62702	792208
7.63513	673660
7.64325	568027
7.65138	533047
7.65950	499520
7.66762	495529
7.67575	488183
7.68387	495405
7.69200	478497
7.70012	486575
7.70823	482230
7.71637	489110
7.72448	491726
7.73262	493514
7.74073	486440
7.74885	495767
7.75698	528578
7.76510	644821
7.77323	921560
7.78135	1420555
7.78947	2057537
7.79760	2449394
7.80572	2213987
7.81383	1677752
7.82197	1265837
7.83008	1057345
7.83822	980648
7.84633	837982
7.85445	729508
7.86258	638004
7.87070	621014
7.87883	588625
7.88695	558581
7.89507	548985
7.90320	551693
7.91132	525986
7.91945	554398
7.92757	567261
7.93568	598861
7.94382	647668
7.95193	693819
7.96005	674721
7.96818	616924
7.97630	551184
7.98443	481228
7.99255	421504
8.00067	357816
8.00880	361060
8.01692	322809
8.02505	338971
8.03317	317218
8.04128	319113
8.04942	299428
8.05753	301544
8.06567	290260
8.07378	289566
8.08190	283339
8.09003	283068
8.09815	287056
8.10627	283690
8.11440	281556
8.12252	277755
8.13065	314449
8.13877	400401
8.14688	859409
8.15502	2302413
8.16313	5446960
8.17127	1.022668E+07
8.17938	1.47733E+07
8.18750	1.795264E+07
8.19563	2.095279E+07
8.20375	2.5E+07
8.21187	2.808286E+07
8.22000	2.704412E+07
8.22812	2.037737E+07
8.23625	1.211823E+07
8.24437	6154359
8.25248	3371798
8.26062	2233363
8.26873	1830328
8.27687	1615255
8.28498	1473523
8.29310	1282725
8.30123	1014221
8.30935	811100
8.31748	724530
8.32560	651141
8.33372	664420
8.34185	737871
8.34997	824326
8.35808	956790
8.36622	1069177
8.37433	1108534
8.38247	1068573
8.39058	1031286
8.39870	1009588
8.40683	976382
8.41495	969004
8.42308	1040462
8.43120	1085989
8.43932	1051749
8.44745	977098
8.45557	878966
8.46370	804664
8.47182	724671
8.47993	694000
8.48807	696804
8.49618	658434
8.50430	652041
8.51243	628167
8.52055	611008
8.52868	595533
8.53680	593822
8.54492	639747
8.55305	653777
8.56117	623193
8.56930	578241
8.57742	572911
8.58553	528545
8.59367	514872
8.60178	486427
8.60990	462514
8.61803	436824
8.62615	445163
8.63428	437768
8.64240	476517
8.65052	586371
8.65865	794372
8.66677	999957
8.67490	1078886
8.68302	997709
8.69113	796687
8.69927	615514
8.70738	526273
8.71552	485318
8.72363	457484
8.73175	425482
8.73988	402414
8.74800	412351
8.75612	414278
8.76425	464276
8.77237	566588
8.78050	734569
8.78862	819566
8.79673	737955
8.80487	615938
8.81298	475096
8.82112	405194
8.82923	371389
8.83735	346785
8.84548	343330
8.85360	326374
8.86173	330490
8.86985	339312
8.87797	334630
8.88610	339859
8.89422	351808
8.90233	398611
8.91047	508961
8.91858	634257
8.92672	735388
8.93483	674835
8.94295	539968
8.95108	407221
8.95920	340088
8.96733	316623
8.97545	302840
8.98357	278575
8.99170	272461
8.99982	275605
9.00793	303446
9.01607	369919
9.02418	509001
9.03232	672395
9.04043	798239
9.04855	785332
9.05668	669048
9.06480	536908
9.07293	467640
9.08105	445466
9.08917	545873
9.09730	729346
9.10542	893891
9.11355	942283
9.12167	828890
9.12978	659321
9.13792	507826
9.14603	412915
9.15415	341965
9.16228	326804
9.17040	317919
9.17853	327934
9.18665	414215
9.19477	789727
9.20290	1812776
9.21102	3684829
9.21915	6076089
9.22727	7525057
9.23538	7226945
9.24352	5301621
9.25163	3198261
9.25977	1690015
9.26788	980505
9.27600	643186
9.28413	497135
9.29225	433478
9.30037	431089
9.30850	571667
9.31662	981759
9.32475	1771786
9.33287	2750280
9.34098	3293640
9.34912	3120698
9.35723	2299198
9.36537	1509526
9.37348	1020991
9.38160	783252
9.38973	685973
9.39785	623393
9.40598	588378
9.41410	575369
9.42222	557734
9.43035	571834
9.43847	561510
9.44658	547440
9.45472	546377
9.46283	543673
9.47097	534600
9.47908	512853
9.48720	499302
9.49533	461579
9.50345	463545
9.51158	477373
9.51970	561063
9.52782	755551
9.53595	1038737
9.54407	1259594
9.55218	1282650
9.56032	1110938
9.56843	828561
9.57657	577299
9.58468	459497
9.59280	401194
9.60093	416960
9.60905	486321
9.61718	641554
9.62530	785619
9.63342	850294
9.64155	737707
9.64967	597788
9.65780	467788
9.66592	384388
9.67403	371338
9.68217	414478
9.69028	622331
9.69840	1104127
9.70653	1937341
9.71465	2807698
9.72278	3285167
9.73090	3043150
9.73902	2252997
9.74715	1465289
9.75527	881425
9.76340	583467
9.77152	446779
9.77963	372007
9.78777	331339
9.79588	319201
9.80402	321958
9.81213	319185
9.82025	351133
9.82838	367107
9.83650	353085
9.84462	361143
9.85275	340488
9.86087	333620
9.86900	343444
9.87712	364073
9.88523	391287
9.89337	410641
9.90148	372067
9.90962	332090
9.91773	302661
9.92585	285089
9.93398	268305
9.94210	255367
9.95022	268393
9.95835	252055
9.96647	267693
9.97460	348699
9.98272	748724
9.99083	2294475
9.99897	6597584
10.00708	1.513853E+07
10.01522	2.608884E+07
10.02333	3.458434E+07
10.03145	3.686662E+07
10.03958	3.114319E+07
10.04770	2.003712E+07
10.05583	9850449
10.06395	4285023
10.07207	2113960
10.08020	1415439
10.08832	1445776
10.09643	1920388
10.10457	2787679
10.11268	3776472
10.12082	4783122
10.12893	5473154
10.13705	5897798
10.14518	6215850
10.15330	6017557
10.16143	5172462
10.16955	3938896
10.17767	2877896
10.18580	2158420
10.19392	1812114
10.20205	1618873
10.21017	1504832
10.21828	1457211
10.22642	1482568
10.23453	1512422
10.24265	1518751
10.25078	1532482
10.25890	1601220
10.26703	1579846
10.27515	1475770
10.28327	1351286
10.29140	1280626
10.29952	1206875
10.30765	1147622
10.31577	1146194
10.32388	1094569
10.33202	1059214
10.34013	996550
10.34825	983625
10.35638	950888
10.36450	913040
10.37263	885694
10.38075	896509
10.38887	854985
10.39700	830453
10.40512	834958
10.41325	812078
10.42137	819875
10.42948	808717
10.43762	759209
10.44573	762648
10.45387	753262
10.46198	703317
10.47010	701315
10.47823	677026
10.48635	648756
10.49447	646393
10.50260	637128
10.51072	635596
10.51885	598496
10.52697	605248
10.53508	597896
10.54322	580488
10.55133	581749
10.55947	596094
10.56758	553020
10.57570	554598
10.58383	572114
10.59195	566573
10.60008	554296
10.60820	543018
10.61632	526553
10.62445	526184
10.63257	513221
10.64068	514959
10.64882	506170
10.65693	561901
10.66507	713873
10.67318	1143110
10.68130	1840810
10.68943	2568599
10.69755	2927847
10.70568	2801823
10.71380	2846280
10.72192	3413767
10.73005	4086872
10.73817	4113861
10.74630	3126226
10.75442	1956611
10.76253	1107981
10.77067	749584
10.77878	600181
10.78690	550060
10.79503	521331
10.80315	514086
10.81128	501349
10.81940	511285
10.82752	542040
10.83565	554808
10.84377	583800
10.85190	583122
10.86002	605528
10.86813	622460
10.87627	603511
10.88438	543956
10.89250	487184
10.90063	455686
10.90875	436072
10.91688	414060
10.92500	423051
10.93312	423622
10.94125	483246
10.94937	539952
10.95750	658724
10.96562	771858
10.97373	782798
10.98187	669358
10.98998	503474
10.99812	345392
11.00623	243002
11.01435	192791
11.02248	181937
11.03060	176966
11.03872	184406
11.04685	186696
11.05497	188869
11.06310	179253
11.07122	176819
11.07933	165581
11.08747	156601
11.09558	154815
11.10372	155246
11.11183	180454
11.11995	205436
11.12808	234191
11.13620	253290
11.14433	253136
11.15245	240374
11.16057	221317
11.16870	198031
11.17682	188913
11.18493	171956
11.19307	167952
11.20118	149844
11.20932	146593
11.21743	145086
11.22555	133162
11.23368	137402
11.24180	124697
11.24993	130251
11.25805	133583
11.26617	124494
11.27430	128888
11.28242	157318
11.29053	191718
11.29867	271655
11.30678	373699
11.31492	437632
11.32303	436779
11.33115	363578
11.33928	273452
11.34740	207862
11.35553	177999
11.36365	196957
11.37177	268735
11.37990	517022
11.38802	1098474
11.39615	2363725
11.40427	4516766
11.41238	7679585
11.42052	1.139945E+07
11.42863	1.50809E+07
11.43675	1.771211E+07
11.44488	1.787566E+07
11.45300	1.522645E+07
11.46113	1.065887E+07
11.46925	6129753
11.47737	3150217
11.48550	2005466
11.49362	1867135
11.50175	2236450
11.50987	2892324
11.51798	3969447
11.52612	4975229
11.53423	5416858
11.54237	4928326
11.55048	3846494
11.55860	2721306
11.56673	2048447
11.57485	1724756
11.58297	1553021
11.59110	1522220
11.59922	1459138
11.60735	1427319
11.61547	1371234
11.62358	1328028
11.63172	1265359
11.63983	1203604
11.64797	1184217
11.65608	1158850
11.66420	1093713
11.67233	1072067
11.68045	1068927
11.68857	1053376
11.69670	1032972
11.70482	1022518
11.71295	983036
11.72107	963903
11.72918	928831
11.73732	874116
11.74543	891004
11.75357	865453
11.76168	879901
11.76980	840704
11.77793	818385
11.78605	796218
11.79418	807211
11.80230	826363
11.81042	904612
11.81855	1113314
11.82667	1493033
11.83478	1880861
11.84292	2109066
11.85103	1974426
11.85917	1587101
11.86728	1204877
11.87540	965772
11.88353	925153
11.89165	960960
11.89978	1056758
11.90790	1161911
11.91602	1128196
11.92415	1077055
11.93227	1000993
11.94040	923743
11.94852	853334
11.95663	814877
11.96477	779692
11.97288	756379
11.98100	709333
11.98913	697795
11.99725	693434
12.00538	717415
12.01350	720942
12.02162	748493
12.02975	812756
12.03787	845315
12.04600	829947
12.05412	759848
12.06223	730451
12.07037	703394
12.07848	729869
12.08662	772365
12.09473	801896
12.10285	790430
12.11098	746828
12.11910	708290
12.12722	670030
12.13535	641558
12.14347	608760
12.15160	589928
12.15972	560493
12.16783	522410
12.17597	438511
12.18408	370755
12.19222	313071
12.20033	287185
12.20845	273341
12.21658	254057
12.22470	255097
12.23282	251875
12.24095	232638
12.24907	236344
12.25720	230026
12.26532	226659
12.27343	201497
12.28157	208254
12.28968	189748
12.29782	199671
12.30593	191935
12.31405	193794
12.32218	206390
12.33030	222882
12.33843	251939
12.34655	278344
12.35467	319832
12.36280	339122
12.37092	314263
12.37903	282446
12.38717	274959
12.39528	311185
12.40342	497841
12.41153	883827
12.41965	1433592
12.42778	2002782
12.43590	2193234
12.44403	1924963
12.45215	1386496
12.46027	868397
12.46840	533278
12.47652	389596
12.48465	350284
12.49277	337662
12.50088	332133
12.50902	316226
12.51713	290364
12.52525	271235
12.53338	256771
12.54150	239772
12.54963	229486
12.55775	217408
12.56587	212286
12.57400	203382
12.58212	197799
12.59025	203797
12.59837	246008
12.60648	376017
12.61462	710249
12.62273	1393985
12.63085	2364682
12.63898	3116159
12.64710	3304639
12.65523	2747021
12.66335	1867038
12.67147	1087271
12.67960	741033
12.68772	610994
12.69585	606949
12.70397	592712
12.71208	566893
12.72022	535784
12.72833	527606
12.73647	505744
12.74458	494934
12.75270	476278
12.76083	466719
12.76895	442362
12.77707	464696
12.78520	526332
12.79332	624391
12.80145	729392
12.80957	789682
12.81768	801151
12.82582	719785
12.83393	614384
12.84207	501627
12.85018	461792
12.85830	429167
12.86643	447980
12.87455	446158
12.88268	468025
12.89080	463464
12.89892	447038
12.90705	417544
12.91517	371489
12.92328	347486
12.93142	334061
12.93953	325505
12.94767	310996
12.95578	308932
12.96390	304308
12.97203	311302
12.98015	370763
12.98828	523065
12.99640	822488
13.00452	1171035
13.01265	1350620
13.02077	1245235
13.02888	930363
13.03702	623442
13.04513	439855
13.05327	350525
13.06138	297208
13.06950	285049
13.07763	272720
13.08575	273466
13.09388	266477
13.10200	266132
13.11012	258837
13.11825	272200
13.12637	283434
13.13450	307343
13.14262	338802
13.15073	408406
13.15887	483092
13.16698	643499
13.17510	858188
13.18323	982666
13.19135	974605
13.19948	799344
13.20760	573085
13.21572	397787
13.22385	292666
13.23197	255443
13.24010	216801
13.24822	196322
13.25633	177514
13.26447	167188
13.27258	168336
13.28072	155604
13.28883	149655
13.29695	143848
13.30508	143839
13.31320	156119
13.32132	184987
13.32945	269996
13.33757	376402
13.34570	515989
13.35382	619859
13.36193	664272
13.37007	609557
13.37818	520981
13.38632	453427
13.39443	370693
13.40255	286876
13.41068	234704
13.41880	188470
13.42693	175172
13.43505	170200
13.44317	154112
13.45130	151737
13.45942	141281
13.46753	133296
13.47567	129223
13.48378	130315
13.49192	120554
13.50003	120400
13.50815	113574
13.51628	127082
13.52440	117465
13.53253	119925
13.54065	113643
13.54877	105945
13.55690	115855
13.56502	114008
13.57313	103004
13.58127	105134
13.58938	99279
13.59752	93064
13.60563	95448
13.61375	88594
13.62188	90300
13.63000	95694
13.63813	94879
13.64625	101694
13.65437	96165
13.66250	96378
13.67062	94699
13.67875	96160
13.68687	98756
13.69498	94438
13.70312	97407
13.71123	88018
13.71935	88363
13.72748	83652
13.73560	83040
13.74373	89412
13.75185	92889
13.75997	87422
13.76810	87945
13.77622	86525
13.78435	84989
13.79247	77850
13.80058	71676
13.80872	71229
13.81683	74572
13.82497	70012
13.83308	77989
13.84120	74632
13.84933	75323
13.85745	74422
13.86557	72008
13.87370	70216
13.88182	75684
13.88995	66288
13.89807	65300
13.90618	64784
13.91432	68915
13.92243	63737
13.93057	65730
13.93868	60566
13.94680	64255
13.95493	62442
13.96305	66080
13.97117	65879
13.97930	61673
13.98742	80999
13.99555	97756
14.00367	155110
14.01178	286235
14.01992	472025
14.02803	650925
14.03617	718748
14.04428	626514
14.05240	469232
14.06053	320218
14.06865	220493
14.07678	188066
14.08490	184982
14.09302	224185
14.10115	273574
14.10927	303508
14.11738	286682
14.12552	237286
14.13363	192255
14.14177	150478
14.14988	120773
14.15800	111088
14.16613	101968
14.17425	115979
14.18238	120538
14.19050	169270
14.19862	240132
14.20675	339795
14.21487	413653
14.22300	431685
14.23112	390954
14.23923	331952
14.24737	272533
14.25548	226828
14.26360	182713
14.27173	144317
14.27985	117062
14.28798	104372
14.29610	108491
14.30422	100935
14.31235	100234
14.32047	108224
14.32860	100058
14.33672	96441
14.34483	92660
14.35297	97445
14.36108	78499
14.36920	81276
14.37733	80549
14.38545	75591
14.39358	82594
14.40170	78375
14.40982	78972
14.41795	79295
14.42607	74949
14.43420	80251
14.44232	78813
14.45043	79604
14.45857	81565
14.46668	93839
14.47482	118576
14.48293	142672
14.49105	170108
14.49918	177428
14.50730	170250
14.51542	166794
14.52355	143496
14.53167	146383
14.53980	156964
14.54792	211620
14.55603	268499
14.56417	335706
14.57228	360716
14.58042	324276
14.58853	257294
14.59665	188819
14.60478	150027
14.61290	136617
14.62103	121574
14.62915	108919
14.63727	98973
14.64540	97555
14.65352	96630
14.66163	101973
14.66977	103168
14.67788	103006
14.68602	89642
14.69413	81317
14.70225	73547
14.71038	70563
14.71850	67759
14.72663	68518
14.73475	70581
14.74287	74467
14.75100	78566
14.75912	84316
14.76725	94946
14.77537	105027
14.78348	105194
14.79162	111529
14.79973	106121
14.80785	97654
14.81598	86741
14.82410	81291
14.83223	84150
14.84035	74957
14.84847	70715
14.85660	71233
14.86472	68826
14.87285	71655
14.88097	67595
14.88908	68956
14.89722	78594
14.90533	105268
14.91345	162383
14.92158	244943
14.92970	305898
14.93783	331162
14.94595	321087
14.95407	230612
14.96220	168567
14.97032	129309
14.97845	114545
14.98657	109604
14.99468	127190
15.00282	131113
15.01093	170644
15.01907	173147
15.02718	155840
15.03530	135811
15.04343	109492
15.05155	93643
15.05967	85244
15.06780	78888
15.07592	73939
15.08405	71326
15.09217	69347
15.10028	71330
15.10842	69554
15.11653	74930
15.12467	82799
15.13278	84079
15.14090	82832
15.14903	101916
15.15715	140143
15.16528	207382
15.17340	318227
15.18152	422699
15.18965	484844
15.19777	447669
15.20588	363530
15.21402	252758
15.22213	187593
15.23027	157778
15.23838	147650
15.24650	182482
15.25463	247825
15.26275	349467
15.27088	434604
15.27900	453460
15.28712	391119
15.29525	308279
15.30337	240063
15.31148	175796
15.31962	158399
15.32773	145928
15.33587	145549
15.34398	147049
15.35210	158893
15.36023	179585
15.36835	206368
15.37648	213626
15.38460	192869
15.39272	179637
15.40085	141306
15.40897	125868
15.41710	111938
15.42522	100938
15.43333	101528
15.44147	97740
15.44958	94537
15.45770	93281
15.46583	101455
15.47395	97170
15.48208	97787
15.49020	102101
15.49832	103193
15.50645	91579
15.51457	82641
15.52270	80252
15.53082	76370
15.53893	73362
15.54707	71312
15.55518	69372
15.56332	69620
15.57143	69338
15.57955	70638
15.58768	67731
15.59580	65159
15.60392	74368
15.61205	63350
15.62017	62834
15.62830	59177
15.63642	58409
15.64453	55931
15.65267	57781
15.66078	54848
15.66892	53944
15.67703	53742
15.68515	63027
15.69328	53642
15.70140	52766
15.70952	55353
15.71765	54792
15.72577	64940
15.73390	57260
15.74202	55325
15.75013	62654
15.75827	56889
15.76638	56073
15.77452	55684
15.78263	60416
15.79075	52704
15.79888	53062
15.80700	58705
15.81513	52901
15.82325	54613
15.83137	63594
15.83950	68243
15.84762	69530
15.85573	70433
15.86387	67940
15.87198	56945
15.88012	67323
15.88823	53860
15.89635	49295
15.90448	53620
15.91260	52579
15.92073	51745
15.92885	56293
15.93697	51414
15.94510	53230
15.95322	50918
15.96135	49760
15.96947	47979
15.97758	52689
15.98572	52752
15.99383	57000
16.00195	57105
16.01008	60836
16.01820	71407
16.02633	90665
16.03445	116326
16.04257	142216
16.05070	150366
16.05882	134630
16.06695	102938
16.07507	90785
16.08318	67345
16.09132	55151
16.09943	63003
16.10757	51563
16.11568	50674
16.12380	47027
16.13193	48579
16.14005	46459
16.14817	54045
16.15630	51836
16.16442	52594
16.17255	50122
16.18067	53064
16.18878	49270
16.19692	50898
16.20503	59550
16.21317	82980
16.22128	123082
16.22940	170313
16.23753	206356
16.24565	204469
16.25377	182661
16.26190	138909
16.27002	99452
16.27815	81152
16.28627	81910
16.29438	82630
16.30252	96196
16.31063	130627
16.31877	169686
16.32688	231377
16.33500	291072
16.34313	353140
16.35125	362949
16.35938	321606
16.36750	244940
16.37562	186804
16.38375	147353
16.39187	111760
16.39998	96540
16.40812	88795
16.41623	87591
16.42437	91537
16.43248	99896
16.44060	106888
16.44873	107287
16.45685	95739
16.46498	90890
16.47310	79511
16.48122	72600
16.48935	72914
16.49747	75727
16.50560	62165
16.51372	74063
16.52183	64380
16.52997	63520
16.53808	61912
16.54620	63077
16.55433	68118
16.56245	61286
16.57058	63357
16.57870	62907
16.58682	72850
16.59495	74660
16.60307	79724
16.61120	75182
16.61932	72612
16.62743	65247
16.63557	61496
16.64368	64483
16.65180	67199
16.65993	66890
16.66805	72566
16.67618	72695
16.68430	70903
16.69242	70980
16.70055	66808
16.70867	64467
16.71680	65942
16.72492	65632
16.73303	64873
16.74117	64218
16.74928	63000
16.75742	70879
16.76553	64701
16.77365	62014
16.78178	65628
16.78990	72970
16.79802	78339
16.80615	83794
16.81427	84734
16.82240	84954
16.83052	88027
16.83863	77581
16.84677	79302
16.85488	69576
16.86302	76766
16.87113	71411
16.87925	66744
16.88738	67088
16.89550	61584
16.90363	59505
16.91175	63005
16.91987	76117
16.92800	71855
16.93612	74409
16.94423	76339
16.95237	70449
16.96048	63425
16.96862	63239
16.97673	63524
16.98485	63490
16.99298	60450
17.00110	55201
17.00923	54176
17.01735	57637
17.02547	50636
17.03360	55135
17.04172	52442
17.04983	50143
17.05797	53074
17.06608	52912
17.07422	53200
17.08233	63219
17.09045	78858
17.09858	74004
17.10670	81245
17.11483	75564
17.12295	68771
17.13107	66817
17.13920	72304
17.14732	76026
17.15545	96410
17.16357	122951
17.17168	139920
17.17982	160064
17.18793	168697
17.19605	159898
17.20418	136807
17.21230	114626
17.22043	110455
17.22855	96264
17.23667	97169
17.24480	86907
17.25292	83724
17.26105	79507
17.26917	77190
17.27728	75820
17.28542	67460
17.29353	74785
17.30167	70450
17.30978	68958
17.31790	73692
17.32603	67523
17.33415	65067
17.34227	66641
17.35040	69186
17.35852	81343
17.36665	66168
17.37477	81120
17.38288	69276
17.39102	62243
17.39913	69153
17.40727	59723
17.41538	57148
17.42350	54695
17.43163	49454
17.43975	50171
17.44788	49715
17.45600	44834
17.46412	50453
17.47225	51662
17.48037	46544
17.48848	45539
17.49662	48924
17.50473	55470
17.51287	61331
17.52098	58760
17.52910	77081
17.53723	75728
17.54535	76861
17.55348	76284
17.56160	77504
17.56972	65523
17.57785	67004
17.58597	61466
17.59408	57987
17.60222	51008
17.61033	52448
17.61847	53077
17.62658	57562
17.63470	59138
17.64283	72946
17.65095	66495
17.65908	67709
17.66720	69116
17.67532	76242
17.68345	80654
17.69157	80441
17.69970	73006
17.70782	73807
17.71593	63832
17.72407	56777
17.73218	66620
17.74030	61560
17.74843	69019
17.75655	89600
17.76468	120574
17.77280	130366
17.78092	149481
17.78905	154094
17.79717	147085
17.80530	129689
17.81342	123290
17.82153	105619
17.82967	94338
17.83778	90194
17.84592	94066
17.85403	80977
17.86215	76268
17.87028	81235
17.87840	70567
17.88652	65625
17.89465	69334
17.90277	69867
17.91090	64156
17.91902	62763
17.92713	58861
17.93527	58303
17.94338	59207
17.95152	58795
17.95963	60282
17.96775	56356
17.97588	65435
17.98400	55847
17.99212	56323
18.00025	52673
18.00837	52622
18.01650	48924
18.02462	49980
18.03273	44442
18.04087	47879
18.04898	52170
18.05712	58605
18.06523	61877
18.07335	76540
18.08148	90840
18.08960	112266
18.09773	112221
18.10585	112811
18.11397	107631
18.12210	84322
18.13022	78587
18.13833	72451
18.14647	67543
18.15458	58319
18.16272	58748
18.17083	56829
18.17895	59133
18.18708	53077
18.19520	54864
18.20333	55899
18.21145	56287
18.21957	54280
18.22770	66068
18.23582	64738
18.24395	57910
18.25207	64375
18.26018	59365
18.26832	66629
18.27643	58308
18.28455	61031
18.29268	70488
18.30080	76405
18.30893	82094
18.31705	69010
18.32517	62455
18.33330	53876
18.34142	52862
18.34955	52245
18.35767	48719
18.36578	46851
18.37392	46714
18.38203	52707
18.39017	52733
18.39828	54120
18.40640	52083
18.41453	46812
18.42265	49570
18.43077	47477
18.43890	52162
18.44702	48713
18.45515	48422
18.46327	49044
18.47138	44591
18.47952	48526
18.48763	58528
18.49577	71839
18.50388	84620
18.51200	105359
18.52013	129901
18.52825	145069
18.53637	150946
18.54450	146622
18.55262	133041
18.56075	109478
18.56887	95761
18.57698	92884
18.58512	86700
18.59323	78079
18.60137	76609
18.60948	73392
18.61760	67760
18.62573	63542
18.63385	61329
18.64198	68742
18.65010	73604
18.65822	99505
18.66635	125293
18.67447	143662
18.68258	143547
18.69072	159197
18.69883	163561
18.70697	167389
18.71508	157215
18.72320	154493
18.73133	149594
18.73945	151407
18.74758	139314
18.75570	134479
18.76382	141215
18.77195	132146
18.78007	122378
18.78820	121094
18.79632	116911
18.80443	113165
18.81257	110578
18.82068	110912
18.82880	118293
18.83693	117827
18.84505	117817
18.85318	113420
18.86130	105455
18.86942	109311
18.87755	95042
18.88567	98221
18.89380	93974
18.90192	88148
18.91003	82692
18.91817	85094
18.92628	84783
18.93442	88139
18.94253	105435
18.95065	95929
18.95878	97105
18.96690	99251
18.97502	99843
18.98315	93141
18.99127	97949
18.99940	125004
19.00752	192910
19.01563	329004
19.02377	505127
19.03188	735092
19.04002	881219
19.04813	830970
19.05625	659621
19.06438	467294
19.07250	324594
19.08062	218276
19.08875	167518
19.09687	134044
19.10500	115910
19.11312	104106
19.12123	97323
19.12937	98812
19.13748	96634
19.14562	105236
19.15373	89649
19.16185	84920
19.16998	84483
19.17810	80732
19.18623	80859
19.19435	89694
19.20247	94792
19.21060	114603
19.21872	126511
19.22683	124490
19.23497	110699
19.24308	90039
19.25122	79752
19.25933	76374
19.26745	65708
19.27558	67284
19.28370	61590
19.29183	57040
19.29995	59001
19.30807	57960
19.31620	58652
19.32432	58086
19.33245	55736
19.34057	59527
19.34868	57609
19.35682	58617
19.36493	64118
19.37305	61730
19.38118	64074
19.38930	62759
19.39743	60689
19.40555	59377
19.41367	59170
19.42180	68460
19.42992	58634
19.43805	62720
19.44617	61347
19.45428	61143
19.46242	55672
19.47053	56817
19.47865	50230
19.48678	51976
19.49490	61972
19.50303	49033
19.51115	48463
19.51927	47669
19.52740	50127
19.53552	56544
19.54365	63724
19.55177	73699
19.55988	85427
19.56802	91363
19.57613	104001
19.58427	92027
19.59238	93252
19.60050	85618
19.60863	78282
19.61675	77384
19.62487	75091
19.63300	69496
19.64112	72564
19.64925	67608
19.65737	61119
19.66548	61386
19.67362	57670
19.68173	60913
19.68987	60150
19.69798	60346
19.70610	60634
19.71423	63811
19.72235	65593
19.73048	67263
19.73860	66453
19.74672	58730
19.75485	68551
19.76297	59019
19.77108	62169
19.77922	69495
19.78733	79839
19.79547	102257
19.80358	114021
19.81170	129492
19.81983	122155
19.82795	121902
19.83608	97558
19.84420	81982
19.85232	66327
19.86045	60697
19.86857	52676
19.87668	57628
19.88482	51352
19.89293	50210
19.90107	49718
19.90918	56158
19.91730	59303
19.92543	49372
19.93355	52989
19.94168	49083
19.94980	56649
19.95792	49263
19.96605	49965
19.97417	54160
19.98230	49520
19.99042	52264
19.99853	54425
20.00667	58640
20.01478	64738
20.02290	83021
20.03103	130211
20.03915	178455
20.04728	266332
20.05540	342958
20.06352	358443
20.07165	343798
20.07977	281518
20.08790	212054
20.09602	169652
20.10413	135868
20.11227	115664
20.12038	100366
20.12852	84783
20.13663	78427
20.14475	80597
20.15288	64451
20.16100	76565
20.16912	62717
20.17725	64076
20.18537	70725
20.19350	75645
20.20162	84137
20.20973	78371
20.21787	82201
20.22598	76517
20.23412	68575
20.24223	61980
20.25035	62441
20.25848	54396
20.26660	55692
20.27473	64227
20.28285	56893
20.29097	55626
20.29910	53899
20.30722	57513
20.31533	49524
20.32347	49138
20.33158	55680
20.33972	56960
20.34783	68212
20.35595	76668
20.36408	90871
20.37220	106456
20.38033	115756
20.38845	123155
20.39657	105265
20.40470	108085
20.41282	91588
20.42093	98923
20.42907	81461
20.43718	82124
20.44532	87203
20.45343	78259
20.46155	78968
20.46968	73582
20.47780	81687
20.48593	78193
20.49405	68397
20.50217	66177
20.51030	65471
20.51842	67251
20.52655	69619
20.53467	60071
20.54278	51144
20.55092	50598
20.55903	60021
20.56715	52618
20.57528	50752
20.58340	64259
20.59153	73988
20.59965	98700
20.60777	145851
20.61590	187142
20.62402	215496
20.63215	236251
20.64027	223462
20.64838	178156
20.65652	141433
20.66463	117131
20.67277	91160
20.68088	84380
20.68900	70468
20.69713	65540
20.70525	57702
20.71337	67520
20.72150	55129
20.72962	57079
20.73775	62771
20.74587	51662
20.75398	58586
20.76212	61138
20.77023	71817
20.77837	82600
20.78648	95065
20.79460	95230
20.80273	101378
20.81085	89127
20.81897	84139
20.82710	78069
20.83522	74845
20.84335	75021
20.85147	72450
20.85958	81587
20.86772	85125
20.87583	77099
20.88397	74661
20.89208	64985
20.90020	64053
20.90833	59579
20.91645	55868
20.92458	51436
20.93270	54093
20.94082	54281
20.94895	51575
20.95707	47824
20.96518	49276
20.97332	44553
20.98143	46455
20.98957	47339
20.99768	46374
21.00580	45591
21.01393	50683
21.02205	48482
21.03018	55590
21.03830	66147
21.04642	68930
21.05455	70691
21.06267	75803
21.07080	64737
21.07892	60217
21.08703	52827
21.09517	58478
21.10328	50775
21.11140	51310
21.11953	51507
21.12765	55655
21.13578	52375
21.14390	45195
21.15202	51181
21.16015	49490
21.16827	47326
21.17640	51367
21.18452	49848
21.19263	47776
21.20077	47678
21.20888	45126
21.21700	47486
21.22513	54838
21.23325	63118
21.24138	85069
21.24950	133636
21.25762	172085
21.26575	210560
21.27387	232833
21.28200	211705
21.29012	173982
21.29823	128700
21.30637	94534
21.31448	76406
21.32262	67516
21.33073	64378
21.33885	57887
21.34698	54561
21.35510	54228
21.36322	55198
21.37135	51980
21.37947	53110
21.38760	52036
21.39572	49692
21.40383	49813
21.41197	49772
21.42008	50208
21.42822	51294
21.43633	60866
21.44445	49451
21.45258	59735
21.46070	56934
21.46883	54196
21.47695	57163
21.48507	47571
21.49320	49871
21.50132	51065
21.50943	48867
21.51757	50968
21.52568	51268
21.53382	51232
21.54193	51878
21.55005	50029
21.55818	48912
21.56630	52983
21.57443	50470
21.58255	49432
21.59067	51926
21.59880	61474
21.60692	77970
21.61505	109212
21.62317	118826
21.63128	128776
21.63942	121029
21.64753	103792
21.65565	92245
21.66378	75086
21.67190	65659
21.68003	64339
21.68815	61850
21.69627	62635
21.70440	61150
21.71252	71537
21.72065	70286
21.72877	56054
21.73688	61632
21.74502	52085
21.75313	51531
21.76125	54839
21.76938	54581
21.77750	45166
21.78563	50987
21.79375	49539
21.80187	47846
21.81000	47698
21.81812	49236
21.82625	49410
21.83437	47032
21.84248	51464
21.85062	49135
21.85873	47781
21.86687	49501
21.87498	47810
21.88310	46605
21.89123	45070
21.89935	54288
21.90747	45397
21.91560	46690
21.92372	49845
21.93185	56254
21.93997	63140
21.94808	75609
21.95622	89498
21.96433	92754
21.97247	91136
21.98058	81773
21.98870	69413
21.99683	60963
22.00495	58326
22.01308	53000
22.02120	57506
22.02932	51251
22.03745	56958
22.04557	52096
22.05368	54665
22.06182	65963
22.06993	59051
22.07807	60862
22.08618	62134
22.09430	69445
22.10243	57963
22.11055	55139
22.11868	53688
22.12680	62023
22.13492	67832
22.14305	80744
22.15117	92321
22.15928	106208
22.16742	109330
22.17553	102091
22.18367	94204
22.19178	81648
22.19990	71447
22.20803	57611
22.21615	60462
22.22428	61029
22.23240	59503
22.24052	61477
22.24865	59334
22.25677	63030
22.26490	62252
22.27302	67569
22.28113	65685
22.28927	73324
22.29738	66810
22.30550	65298
22.31363	61991
22.32175	59673
22.32988	62455
22.33800	54839
22.34612	57158
22.35425	55533
22.36237	55784
22.37050	52577
22.37862	56739
22.38673	60599
22.39487	51545
22.40298	49813
22.41112	50276
22.41923	56327
22.42735	56556
22.43548	50765
22.44360	50711
22.45172	53469
22.45985	51796
22.46797	53248
22.47610	52151
22.48422	47245
22.49233	51059
22.50047	60900
22.50858	57407
22.51672	50742
22.52483	53864
22.53295	66378
22.54108	88338
22.54920	153211
22.55732	294130
22.56545	586515
22.57357	994228
22.58170	1389861
22.58982	1555090
22.59793	1406966
22.60607	1074078
22.61418	675130
22.62232	424280
22.63043	283792
22.63855	205644
22.64668	165935
22.65480	137738
22.66293	124637
22.67105	112609
22.67917	106201
22.68730	102721
22.69542	98462
22.70353	96981
22.71167	89637
22.71978	84943
22.72792	78996
22.73603	82895
22.74415	76269
22.75228	71668
22.76040	69695
22.76853	65417
22.77665	67638
22.78477	60710
22.79290	63131
22.80102	68815
22.80915	64378
22.81727	61563
22.82538	65713
22.83352	70055
22.84163	63618
22.84975	66055
22.85788	61905
22.86600	57689
22.87413	65469
22.88225	57178
22.89037	55367
22.89850	55616
22.90662	55315
22.91475	55991
22.92287	49159
22.93098	59582
22.93912	52944
22.94723	62912
22.95537	51411
22.96348	51035
22.97160	50319
22.97973	53334
22.98785	52782
22.99597	51095
23.00410	52148
23.01222	49251
23.02035	56439
23.02847	49209
23.03658	57704
23.04472	48970
23.05283	55154
23.06097	43062
23.06908	45662
23.07720	49837
23.08533	46131
23.09345	59618
23.10157	47083
23.10970	49292
23.11782	48273
23.12595	51014
23.13407	51336
23.14218	50992
23.15032	50939
23.15843	56884
23.16657	63663
23.17468	60759
23.18280	62015
23.19093	64238
23.19905	61353
23.20718	62933
23.21530	62113
23.22342	66121
23.23155	53548
23.23967	54722
23.24778	52586
23.25592	53536
23.26403	58311
23.27217	49167
23.28028	51139
23.28840	49988
23.29653	51949
23.30465	50666
23.31278	62785
23.32090	76463
23.32902	85711
23.33715	100116
23.34527	102403
23.35340	111542
23.36152	120602
23.36963	124656
23.37777	121927
23.38588	114823
23.39400	111085
23.40213	105474
23.41025	102099
23.41838	105359
23.42650	104537
23.43462	104276
23.44275	106562
23.45087	101169
23.45900	113442
23.46712	116914
23.47523	110282
23.48337	120090
23.49148	119918
23.49960	107651
23.50773	104639
23.51585	90308
23.52398	85711
23.53210	73825
23.54022	74047
23.54835	67600
23.55647	59928
23.56460	59672
23.57272	57694
23.58083	61282
23.58897	60823
23.59708	59148
23.60522	69052
23.61333	85206
23.62145	97024
23.62958	116530
23.63770	132920
23.64582	132387
23.65395	117118
23.66207	101688
23.67020	78844
23.67832	68153
23.68643	64169
23.69457	54083
23.70268	53453
23.71082	53043
23.71893	53169
23.72705	55964
23.73518	51349
23.74330	51560
23.75143	52072
23.75955	48954
23.76767	52186
23.77580	52293
23.78392	48461
23.79203	49096
23.80017	49830
23.80828	50612
23.81642	49920
23.82453	46914
23.83265	53345
23.84078	45885
23.84890	46228
23.85703	45819
23.86515	49100
23.87327	43586
23.88140	45998
23.88952	51939
23.89763	44897
23.90577	48493
23.91388	54636
23.92202	47354
23.93013	50483
23.93825	51028
23.94638	50168
23.95450	56276
23.96263	45724
23.97075	46455
23.97887	45476
23.98700	47991
23.99512	46975
24.00325	51122
24.01137	46308
24.01948	50001
24.02762	59621
24.03573	54016
24.04385	63426
24.05198	68542
24.06010	72876
24.06823	71655
24.07635	78295
24.08447	70904
24.09260	76423
24.10072	81580
24.10885	94434
24.11697	115560
24.12508	159524
24.13322	203377
24.14133	252614
24.14947	297941
24.15758	332024
24.16570	330466
24.17383	327268
24.18195	292077
24.19007	258088
24.19820	192838
24.20632	148310
24.21445	127047
24.22257	114025
24.23068	149638
24.23882	306554
24.24693	795603
24.25507	1850532
24.26318	3471328
24.27130	4899040
24.27943	5592345
24.28755	5499100
24.29568	4720182
24.30380	3657219
24.31192	2807649
24.32005	2102559
24.32817	1596063
24.33628	1245928
24.34442	956122
24.35253	773472
24.36067	643100
24.36878	518604
24.37690	446557
24.38503	417632
24.39315	372110
24.40128	345234
24.40940	309036
24.41752	291735
24.42565	243942
24.43377	210766
24.44188	197110
24.45002	169694
24.45813	169307
24.46627	150171
24.47438	139858
24.48250	136499
24.49063	121841
24.49875	115792
24.50688	111140
24.51500	105383
24.52312	112201
24.53125	113494
24.53937	109786
24.54750	115861
24.55562	108455
24.56373	98499
24.57187	89324
24.57998	87954
24.58810	78827
24.59623	80562
24.60435	81222
24.61248	83225
24.62060	92776
24.62872	76076
24.63685	80375
24.64497	89190
24.65310	93165
24.66122	123134
24.66933	137752
24.67747	167417
24.68558	203169
24.69372	203319
24.70183	190048
24.70995	176548
24.71808	166960
24.72620	155741
24.73432	123552
24.74245	114848
24.75057	112163
24.75870	106712
24.76682	103280
24.77493	111440
24.78307	98185
24.79118	86950
24.79932	91862
24.80743	86612
24.81555	87042
24.82368	87995
24.83180	87286
24.83992	89842
24.84805	75077
24.85617	68110
24.86430	63590
24.87242	60433
24.88053	63965
24.88867	61157
24.89678	65634
24.90492	66985
24.91303	64654
24.92115	58852
24.92928	60673
24.93740	62962
24.94553	62448
24.95365	70611
24.96177	63414
24.96990	61877
24.97802	68342
24.98613	59681
24.99427	64206
25.00238	60946
25.01052	58241
25.01863	68245
25.02675	57180
25.03488	59780
25.04300	62787
25.05113	57358
25.05925	68433
25.06737	58919
25.07550	59785
25.08362	59795
25.09175	53794
25.09987	62180
25.10798	63083
25.11612	64712
25.12423	66383
25.13235	71105
25.14048	69046
25.14860	66497
25.15673	66232
25.16485	70736
25.17297	61130
25.18110	59864
25.18922	57686
25.19735	55827
25.20547	55898
25.21358	51429
25.22172	49271
25.22983	55925
25.23795	57316
25.24608	74530
25.25420	78809
25.26233	88834
25.27045	98217
25.27857	102019
25.28670	105529
25.29482	104355
25.30295	109920
25.31107	106414
25.31918	90334
25.32732	84114
25.33543	82061
25.34357	88163
25.35168	88803
25.35980	80149
25.36793	76835
25.37605	83362
25.38417	74958
25.39230	71308
25.40042	75856
25.40855	79367
25.41667	77088
25.42478	71262
25.43292	69479
25.44103	69475
25.44917	66114
25.45728	58500
25.46540	61287
25.47353	66986
25.48165	62567
25.48978	63445
25.49790	65901
25.50602	62456
25.51415	55214
25.52227	56507
25.53038	58034
25.53852	58512
25.54663	59332
25.55477	65211
25.56288	56442
25.57100	57331
25.57913	68863
25.58725	55050
25.59538	65088
25.60350	61126
25.61162	80290
25.61975	79615
25.62787	87461
25.63600	97246
25.64412	110100
25.65223	101163
25.66037	95995
25.66848	85400
25.67660	79195
25.68473	74045
25.69285	70885
25.70098	66156
25.70910	65420
25.71722	63280
25.72535	70029
25.73347	55932
25.74160	59650
25.74972	58419
25.75783	53406
25.76597	55422
25.77408	58618
25.78220	62306
25.79033	68775
25.79845	74485
25.80658	68189
25.81470	81191
25.82282	69946
25.83095	63118
25.83907	65709
25.84720	64904
25.85532	65652
25.86343	71271
25.87157	62998
25.87968	60319
25.88782	66643
25.89593	68633
25.90405	66734
25.91218	65903
25.92030	60797
25.92842	67012
25.93655	63614
25.94467	58389
25.95280	59626
25.96092	54861
25.96903	54743
25.97717	55018
25.98528	53565
25.99342	49716
26.00153	53982
26.00965	57587
26.01778	52530
26.02590	50704
26.03403	60516
26.04215	60204
26.05027	55660
26.05840	57596
26.06652	49376
26.07463	52163
26.08277	56638
26.09088	49563
26.09902	50945
26.10713	50161
26.11525	54836
26.12338	48666
26.13150	55486
26.13963	48252
26.14775	51389
26.15587	48867
26.16400	53145
26.17212	50853
26.18023	49468
26.18837	50037
26.19648	49865
26.20462	49163
26.21273	48392
26.22085	46734
26.22898	50774
26.23710	63101
26.24523	52739
26.25335	50837
26.26147	50720
26.26960	58258
26.27772	50136
26.28585	59187
26.29397	51167
26.30208	61570
26.31022	66124
26.31833	73883
26.32645	101735
26.33458	145501
26.34270	211147
26.35083	288465
26.35895	356118
26.36707	390381
26.37520	383479
26.38332	342190
26.39145	257994
26.39957	203517
26.40768	169748
26.41582	159677
26.42393	165157
26.43207	183885
26.44018	179782
26.44830	170516
26.45643	140400
26.46455	114021
26.47267	89735
26.48080	80308
26.48892	61299
26.49705	63916
26.50517	63136
26.51328	56324
26.52142	53589
26.52953	54429
26.53767	54877
26.54578	54169
26.55390	57490
26.56203	57817
26.57015	55225
26.57827	56046
26.58640	53098
26.59452	53611
26.60265	52117
26.61077	52933
26.61888	58513
26.62702	54332
26.63513	56525
26.64327	59646
26.65138	68208
26.65950	77110
26.66763	77061
26.67575	84703
26.68388	81472
26.69200	86801
26.70012	81313
26.70825	74166
26.71637	65271
26.72448	62123
26.73262	66992
26.74073	58402
26.74887	54572
26.75698	55537
26.76510	54018
26.77323	54500
26.78135	48952
26.78948	54547
26.79760	53626
26.80572	48858
26.81385	55276
26.82197	51987
26.83010	61461
26.83822	50450
26.84633	47308
26.85447	49026
26.86258	51324
26.87070	49870
26.87883	50430
26.88695	49556
26.89508	53783
26.90320	52971
26.91132	59270
26.91945	50430
26.92757	58168
26.93570	57013
26.94382	55816
26.95193	44946
26.96007	49784
26.96818	50243
26.97632	56268
26.98443	58972
26.99255	63931
27.00068	58720
27.00880	62589
27.01692	67049
27.02505	56089
27.03317	58504
27.04130	55051
27.04942	51245
27.05753	53434
27.06567	57800
27.07378	51280
27.08192	56278
27.09003	55170
27.09815	53968
27.10628	53540
27.11440	53621
27.12252	51767
27.13065	52522
27.13877	53486
27.14690	62988
27.15502	55847
27.16313	51760
27.17127	57692
27.17938	58753
27.18752	63313
27.19563	67247
27.20375	55141
27.21188	59019
27.22000	60493
27.22813	58980
27.23625	56194
27.24437	62873
27.25250	58423
27.26062	62909
27.26873	62597
27.27687	66474
27.28498	70373
27.29312	61940
27.30123	57669
27.30935	55855
27.31748	54359
27.32560	53637
27.33373	60522
27.34185	59964
27.34997	54436
27.35810	53045
27.36622	56314
27.37435	67679
27.38247	54223
27.39058	61071
27.39872	61616
27.40683	71350
27.41495	93704
27.42308	156396
27.43120	261054
27.43933	434221
27.44745	655362
27.45557	879059
27.46370	1006956
27.47182	1068587
27.47995	1030842
27.48807	923078
27.49618	783532
27.50432	666293
27.51243	537179
27.52055	439210
27.52868	357287
27.53680	301517
27.54493	245654
27.55305	215332
27.56117	178655
27.56930	159770
27.57742	140399
27.58555	133020
27.59367	115967
27.60178	108411
27.60992	101717
27.61803	99765
27.62617	91774
27.63428	91049
27.64240	88378
27.65053	88121
27.65865	93498
27.66677	94860
27.67490	97593
27.68302	106891
27.69115	109757
27.69927	108286
27.70738	101679
27.71552	92451
27.72363	81627
27.73177	81604
27.73988	75074
27.74800	70762
27.75613	68853
27.76425	69049
27.77238	70997
27.78050	71449
27.78862	66258
27.79675	66232
27.80487	63138
27.81298	62336
27.82112	59027
27.82923	62778
27.83737	67522
27.84548	65874
27.85360	68894
27.86173	65025
27.86985	60668
27.87798	63679
27.88610	60888
27.89422	55442
27.90235	60300
27.91047	67960
27.91858	60158
27.92672	62642
27.93483	58155
27.94297	56627
27.95108	58390
27.95920	57032
27.96733	57149
27.97545	62415
27.98358	53146
27.99170	55263
27.99982	57013
28.00795	51223
28.01607	54809
28.02420	54419
28.03232	58705
28.04043	55610
28.04857	53281
28.05668	51161
28.06480	59744
28.07293	56713
28.08105	55067
28.08918	51580
28.09730	56254
28.10542	57626
28.11355	60336
28.12167	62984
28.12980	64028
28.13792	67377
28.14603	63071
28.15417	77468
28.16228	68458
28.17042	62209
28.17853	56307
28.18665	56374
28.19478	62936
28.20290	52179
28.21102	54038
28.21915	51719
28.22727	54305
28.23540	57272
28.24352	61518
28.25163	53605
28.25977	52602
28.26788	62838
28.27602	54012
28.28413	51345
28.29225	52757
28.30038	52951
28.30850	56904
28.31663	51792
28.32475	51302
28.33287	54405
28.34100	53007
28.34912	57939
28.35723	55520
28.36537	56123
28.37348	52801
28.38162	53112
28.38973	54689
28.39785	55405
28.40598	51195
28.41410	53548
28.42223	56653
28.43035	57771
28.43847	66104
28.44660	60971
28.45472	67618
28.46285	66359
28.47097	64601
28.47908	68802
28.48722	62070
28.49533	61607
28.50345	61361
28.51158	73897
28.51970	62070
28.52783	59436
28.53595	60349
28.54407	57690
28.55220	54721
28.56032	60161
28.56845	58278
28.57657	66747
28.58468	58906
28.59282	63140
28.60093	58832
28.60905	65279
28.61718	52148
28.62530	56998
28.63343	58157
28.64155	53537
28.64967	61058
28.65780	59538
28.66592	58499
28.67405	56002
28.68217	54554
28.69028	61086
28.69842	75403
28.70653	74845
28.71467	97122
28.72278	119402
28.73090	143578
28.73903	166049
28.74715	185611
28.75527	202808
28.76340	235915
28.77152	228251
28.77965	226311
28.78777	224407
28.79588	223916
28.80402	231081
28.81213	211072
28.82027	201988
28.82838	189799
28.83650	188706
28.84463	180551
28.85275	169426
28.86088	163020
28.86900	147851
28.87712	129921
28.88525	126293
28.89337	120937
28.90148	113595
28.90962	109206
28.91773	108033
28.92587	105629
28.93398	100821
28.94210	98290
28.95023	83212
28.95835	91000
28.96648	82300
28.97460	80178
28.98272	81391
28.99085	79646
28.99897	78194
29.00708	75538
29.01522	72639
29.02333	75269
29.03147	71645
29.03958	67320
29.04770	70986
29.05583	69731
29.06395	72357
29.07208	80866
29.08020	76738
29.08832	82506
29.09645	84527
29.10457	82142
29.11270	78912
29.12082	70094
29.12893	65696
29.13707	60136
29.14518	60962
29.15330	64883
29.16143	64045
29.16955	66438
29.17768	71882
29.18580	71125
29.19392	76173
29.20205	72645
29.21017	68114
29.21830	75798
29.22642	65182
29.23453	56557
29.24267	59377
29.25078	60767
29.25892	61453
29.26703	62182
29.27515	59149
29.28328	63317
29.29140	64762
29.29952	57516
29.30765	58609
29.31577	70403
29.32390	62883
29.33202	68023
29.34013	52710
29.34827	55041
29.35638	52030
29.36452	53997
29.37263	52995
29.38075	51220
29.38888	57602
29.39700	59172
29.40512	53372
29.41325	52951
29.42137	51856
29.42950	56474
29.43762	49911
29.44573	54639
29.45387	51911
29.46198	57271
29.47012	56658
29.47823	53629
29.48635	53133
29.49448	68166
29.50260	65675
29.51073	54862
29.51885	56680
29.52697	57960
29.53510	56177
29.54322	53490
29.55133	54775
29.55947	56380
29.56758	54753
29.57572	59420
29.58383	53458
29.59195	55331
29.60008	61398
29.60820	51287
29.61633	55866
29.62445	50604
29.63257	53469
29.64070	65949
29.64882	63174
29.65695	55514
29.66507	52709
29.67318	58550
29.68132	65601
29.68943	57614
29.69755	60046
29.70568	59090
29.71380	58734
29.72193	56446
29.73005	59185
29.73817	60465
29.74630	55479
29.75442	62531
29.76255	60168
29.77067	56508
29.77878	58010
29.78692	64255
29.79503	57601
29.80317	66063
29.81128	65289
29.81940	60438
29.82753	55914
29.83565	61801
29.84377	52384
29.85190	55831
29.86002	56790
29.86815	55127
29.87627	52501
29.88438	56168
29.89252	53182
29.90063	52402
29.90877	52002
29.91688	53820
29.92500	57478
29.93313	52542
29.94125	62728
29.94937	65443
29.95750	50191
29.96562	52529
29.97375	50146
29.98187	51925
29.98998	56255
29.99812	55132
30.00623	54961
30.01437	55058
30.02248	58902
30.03060	67047
30.03873	60187
30.04685	63190
30.05498	61772
30.06310	62272
30.07122	58455
30.07935	58152
30.08747	59131
30.09558	55647
30.10372	56064
30.11183	50944
30.11997	54607
30.12808	55482
30.13620	69035
30.14433	60017
30.15245	57667
30.16058	69510
30.16870	64399
30.17682	69336
30.18495	64407
30.19307	61827
30.20120	62537
30.20932	63017
30.21743	58434
30.22557	59120
30.23368	62066
30.24180	61211
30.24993	59683
30.25805	60201
30.26618	61853
30.27430	56617
30.28242	56408
30.29055	56780
30.29867	61779
30.30680	71989
30.31492	77873
30.32303	81350
30.33117	94889
30.33928	105828
30.34740	116388
30.35553	120557
30.36365	123664
30.37178	134006
30.37990	131386
30.38802	132824
30.39615	132841
30.40427	137189
30.41240	137651
30.42052	144049
30.42863	143580
30.43677	143039
30.44488	139195
30.45302	133558
30.46113	125076
30.46925	120127
30.47738	105566
30.48550	108127
30.49362	103045
30.50175	94274
30.50987	99579
30.51800	91909
30.52612	85146
30.53423	87856
30.54237	81408
30.55048	82033
30.55862	79126
30.56673	75469
30.57485	78882
30.58298	73357
30.59110	74547
30.59923	72134
30.60735	70907
30.61547	70596
30.62360	72054
30.63172	69095
30.63983	71682
30.64797	65554
30.65608	64490
30.66422	66261
30.67233	64683
30.68045	67004
30.68858	67275
30.69670	60380
30.70483	65264
30.71295	62991
30.72107	63942
30.72920	63467
30.73732	63044
30.74543	60761
30.75357	57702
30.76168	58315
30.76982	58408
30.77793	59162
30.78605	56359
30.79418	58868
30.80230	60688
30.81043	63660
30.81855	61959
30.82667	65685
30.83480	67778
30.84292	61157
30.85105	71571
30.85917	59165
30.86728	59568
30.87542	58565
30.88353	66754
30.89165	57704
30.89978	55323
30.90790	60806
30.91603	57809
30.92415	58280
30.93227	58606
30.94040	52877
30.94852	57029
30.95665	56859
30.96477	56931
30.97288	56609
30.98102	60029
30.98913	55824
30.99727	57540
31.00538	57028
31.01350	56230
31.02163	54517
31.02975	54737
31.03787	53854
31.04600	56801
31.05412	54719
31.06225	56582
31.07037	62766
31.07848	54817
31.08662	55867
31.09473	62695
31.10287	53347
31.11098	51951
31.11910	56912
31.12723	55125
31.13535	56611
31.14348	60315
31.15160	53926
31.15972	57378
31.16785	50152
31.17597	58622
31.18408	53273
31.19222	58721
31.20033	57080
31.20847	56391
31.21658	57169
31.22470	54339
31.23283	53428
31.24095	55407
31.24908	53586
31.25720	51852
31.26532	59070
31.27345	53273
31.28157	57675
31.28968	52874
31.29782	52987
31.30593	59768
31.31407	56775
31.32218	58554
31.33030	62396
31.33843	63762
31.34655	68006
31.35468	81797
31.36280	71125
31.37092	67678
31.37905	66210
31.38717	60292
31.39530	60110
31.40342	61289
31.41153	62051
31.41967	56200
31.42778	60564
31.43590	64195
31.44403	64369
31.45215	57524
31.46028	61098
31.46840	54097
31.47652	55005
31.48465	54535
31.49277	57000
31.50090	57785
31.50902	56788
31.51713	60882
31.52527	55721
31.53338	54780
31.54152	59938
31.54963	67946
31.55775	65305
31.56588	66822
31.57400	60266
31.58212	63054
31.59025	61031
31.59837	67214
31.60650	61365
31.61462	65502
31.62273	72319
31.63087	92623
31.63898	108219
31.64712	135264
31.65523	161378
31.66335	174354
31.67148	167529
31.67960	139510
31.68772	116014
31.69585	97263
31.70397	80934
31.71210	74591
31.72022	61043
31.72833	70391
31.73647	65948
31.74458	68055
31.75272	62839
31.76083	62630
31.76895	55558
31.77708	68020
31.78520	63022
31.79333	61276
31.80145	60005
31.80957	59097
31.81770	58887
31.82582	59006
31.83393	56625
31.84207	60449
31.85018	59287
31.85832	59642
31.86643	58422
31.87455	59309
31.88268	60520
31.89080	58752
31.89893	57033
31.90705	54780
31.91517	58321
31.92330	56590
31.93142	62264
31.93955	56303
31.94767	57323
31.95578	58935
31.96392	60869
31.97203	60167
31.98015	58375
31.98828	61876
31.99640	59442
32.00453	60596
32.01265	65813
32.02077	60933
32.02890	59450
32.03702	57896
32.04515	59420
32.05327	57046
32.06138	65613
32.06952	55073
32.07763	58678
32.08575	59754
32.09388	62533
32.10200	58795
32.11013	66939
32.11825	61033
32.12637	61545
32.13450	66274
32.14262	68860
32.15075	60372
32.15887	63204
32.16698	60960
32.17512	58294
32.18323	56596
32.19137	60207
32.19948	61508
32.20760	63790
32.21573	70061
32.22385	63993
32.23197	61956
32.24010	65914
32.24822	66777
32.25635	77830
32.26447	88201
32.27258	109190
32.28072	104514
32.28883	108407
32.29697	124808
32.30508	112449
32.31320	110849
32.32133	119260
32.32945	108939
32.33758	111714
32.34570	102623
32.35382	104498
32.36195	100224
32.37007	101586
32.37818	96162
32.38632	101035
32.39443	104437
32.40257	115238
32.41068	127667
32.41880	125495
32.42693	131052
32.43505	120320
32.44318	114698
32.45130	114031
32.45942	91029
32.46755	83605
32.47567	80018
32.48380	79836
32.49192	71070
32.50003	73124
32.50817	66723
32.51628	66074
32.52440	66853
32.53253	66937
32.54065	65850
32.54878	67873
32.55690	67529
32.56502	70010
32.57315	59280
32.58127	77390
32.58940	63547
32.59752	61890
32.60563	64525
32.61377	65151
32.62188	64924
32.63000	63769
32.63813	63209
32.64625	62246
32.65438	62474
32.66250	58295
32.67062	56855
32.67875	61452
32.68687	60953
32.69500	62716
32.70312	69475
32.71123	58261
32.71937	62238
32.72748	60939
32.73562	64161
32.74373	63161
32.75185	64375
32.75998	65652
32.76810	72575
32.77622	71282
32.78435	62109
32.79247	66095
32.80060	67692
32.80872	73760
32.81683	61844
32.82497	66006
32.83308	69125
32.84122	64367
32.84933	63735
32.85745	64102
32.86558	64999
32.87370	66759
32.88183	62886
32.88995	72941
32.89807	61688
32.90620	63021
32.91432	63872
32.92243	67699
32.93057	64795
32.93868	67176
32.94682	65504
32.95493	66826
32.96305	71171
32.97118	70136
32.97930	66373
32.98743	74605
32.99555	79299
33.00367	87270
33.01180	71729
33.01992	72946
33.02803	65016
33.03617	63237
33.04428	60786
33.05242	59192
33.06053	69318
33.06865	67068
33.07678	69224
33.08490	62291
33.09303	66445
33.10115	62579
33.10927	64867
33.11740	65896
33.12552	66530
33.13365	65285
33.14177	65971
33.14988	61699
33.15802	61918
33.16613	60964
33.17425	62808
33.18238	64292
33.19050	63271
33.19863	60324
33.20675	63534
33.21487	66784
33.22300	67123
33.23112	68417
33.23925	68390
33.24737	74404
33.25548	65371
33.26362	67024
33.27173	66364
33.27987	66800
33.28798	76513
33.29610	70297
33.30423	66532
33.31235	59226
33.32047	59932
33.32860	69630
33.33672	60902
33.34485	64279
33.35297	62062
33.36108	63460
33.36922	65048
33.37733	60529
33.38547	62166
33.39358	63080
33.40170	62910
33.40983	62864
33.41795	61294
33.42607	62149
33.43420	60934
33.44232	60047
33.45045	61746
33.45857	63546
33.46668	65053
33.47482	66213
33.48293	62347
33.49107	59640
33.49918	65897
33.50730	64564
33.51543	68397
33.52355	76331
33.53168	67580
33.53980	65936
33.54792	64071
33.55605	62845
33.56417	60149
33.57228	64439
33.58042	64332
33.58853	71423
33.59667	60491
33.60478	68393
33.61290	70633
33.62103	71324
33.62915	71350
33.63728	80633
33.64540	93865
33.65352	98580
33.66165	104799
33.66977	98565
33.67790	92001
33.68602	83229
33.69413	76916
33.70227	72116
33.71038	66535
33.71850	68177
33.72663	68859
33.73475	68630
33.74288	60004
33.75100	65372
33.75912	60692
33.76725	65935
33.77537	67545
33.78350	65964
33.79162	64894
33.79973	63219
33.80787	72546
33.81598	70065
33.82412	66398
33.83223	64943
33.84035	78803
33.84848	65259
33.85660	69309
33.86472	73045
33.87285	66675
33.88097	67992
33.88910	68115
33.89722	71724
33.90533	68758
33.91347	63044
33.92158	64869
33.92972	65925
33.93783	67162
33.94595	63403
33.95408	68069
33.96220	69159
33.97032	65083
33.97845	67215
33.98657	67613
33.99470	65293
34.00282	62801
34.01093	65250
34.01907	67796
34.02718	70239
34.03532	64285
34.04343	68096
34.05155	69751
34.05968	69173
34.06780	66078
34.07593	69364
34.08405	67226
34.09217	71518
34.10030	72926
34.10842	69615
34.11653	75724
34.12467	67829
34.13278	68414
34.14092	79133
34.14903	63792
34.15715	76942
34.16528	68281
34.17340	70002
34.18153	74984
34.18965	71145
34.19777	73051
34.20590	71217
34.21402	72142
34.22215	70477
34.23027	80760
34.23838	78631
34.24652	77341
34.25463	74324
34.26275	76598
34.27088	71873
34.27900	71243
34.28713	69188
34.29525	80121
34.30337	64094
34.31150	69705
34.31962	66228
34.32775	67886
34.33587	71713
34.34398	71546
34.35212	71688
34.36023	70672
34.36835	69715
34.37648	70455
34.38460	69742
34.39273	71820
34.40085	71369
34.40897	75631
34.41710	77415
34.42522	72398
34.43335	73311
34.44147	71928
34.44958	77854
34.45772	79100
34.46583	72390
34.47397	72284
34.48208	69969
34.49020	67634
34.49833	72772
34.50645	69055
34.51457	66810
34.52270	68254
34.53082	68641
34.53895	68200
34.54707	74573
34.55518	73817
34.56332	85371
34.57143	82343
34.57957	78469
34.58768	79152
34.59580	80417
34.60393	74764
34.61205	76658
34.62018	73160
34.62830	74299
34.63642	73371
34.64455	70637
34.65267	75219
34.66078	80835
34.66892	70043
34.67703	76112
34.68517	73168
34.69328	65978
34.70140	73020
34.70953	75541
34.71765	70780
34.72578	74197
34.73390	70090
34.74202	72002
34.75015	72417
34.75827	80874
34.76638	70470
34.77452	67430
34.78263	76925
34.79077	72752
34.79888	73290
34.80700	71679
34.81513	79834
34.82325	78733
34.83138	70666
34.83950	81099
34.84762	81680
34.85575	88867
34.86387	96618
34.87200	107584
34.88012	115722
34.88823	130866
34.89637	133550
34.90448	141334
34.91260	124998
34.92073	118601
34.92885	107060
34.93698	103350
34.94510	100912
34.95322	94241
34.96135	92454
34.96947	90882
34.97760	88328
34.98572	83862
34.99383	79909
35.00197	80567
35.01008	77266
35.01822	75698
35.02633	78378
35.03445	80774
35.04258	81163
35.05070	77342
35.05882	81520
35.06695	82919
35.07507	78838
35.08320	79981
35.09132	78816
35.09943	77264
35.10757	78656
35.11568	76938
35.12382	73871
35.13193	72653
35.14005	77209
35.14818	83677
35.15630	74239
35.16443	75903
35.17255	75917
35.18067	83039
35.18880	76854
35.19692	78985
35.20503	77343
35.21317	83587
35.22128	77023
35.22942	75300
35.23753	82419
35.24565	76756
35.25378	74553
35.26190	81834
35.27003	87598
35.27815	79270
35.28627	83975
35.29440	81750
35.30252	76272
35.31063	82593
35.31877	82651
35.32688	76402
35.33502	74806
35.34313	75485
35.35125	78456
35.35938	81091
35.36750	79314
35.37563	80971
35.38375	81259
35.39187	89494
35.40000	80064
35.40812	79649
35.41625	78694
35.42437	82584
35.43248	76933
35.44062	78190
35.44873	76658
35.45685	81745
35.46498	84658
35.47310	88254
35.48123	90425
35.48935	87490
35.49747	99801
35.50560	96046
35.51372	90383
35.52185	88581
35.52997	90438
35.53808	88938
35.54622	85709
35.55433	92856
35.56247	84792
35.57058	87728
35.57870	84919
35.58683	85899
35.59495	88398
35.60307	87075
35.61120	92640
35.61932	86681
35.62745	88274
35.63557	82156
35.64368	84673
35.65182	84243
35.65993	80327
35.66807	86415
35.67618	85101
35.68430	87291
35.69243	92648
35.70055	85967
35.70867	83268
35.71680	85493
35.72492	88444
35.73305	86090
35.74117	88853
35.74928	81930
35.75742	87521
35.76553	83957
35.77367	78555
35.78178	81881
35.78990	78868
35.79803	85373
35.80615	83119
35.81428	83470
35.82240	92456
35.83052	92885
35.83865	83110
35.84677	82669
35.85488	89215
35.86302	82442
35.87113	86706
35.87927	89300
35.88738	83633
35.89550	91199
35.90363	79128
35.91175	81236
35.91988	95371
35.92800	81959
35.93612	82963
35.94425	80175
35.95237	80853
35.96050	94308
35.96862	86593
35.97673	90943
35.98487	93487
35.99298	90891
36.00110	95733
36.00923	98082
36.01735	92601
36.02548	96833
36.03360	91632
36.04172	87594
36.04985	103590
36.05797	90940
36.06610	93230
36.07422	92293
36.08233	84958
36.09047	87190
36.09858	83369
36.10670	86295
36.11483	85470
36.12295	86777
36.13108	88940
36.13920	91754
36.14732	86706
36.15545	88138
36.16357	86674
36.17170	87495
36.17982	84941
36.18793	90843
36.19607	94244
36.20418	84287
36.21232	87295
36.22043	94473
36.22855	94555
36.23668	87915
36.24480	88883
36.25292	92965
36.26105	95453
36.26917	87904
36.27730	94509
36.28542	99950
36.29353	93477
36.30167	103010
36.30978	91366
36.31792	93395
36.32603	89938
36.33415	88190
36.34228	88652
36.35040	91834
36.35853	99524
36.36665	90455
36.37477	83073
36.38290	91576
36.39102	89096
36.39913	89340
36.40727	90659
36.41538	94563
36.42352	88820
36.43163	91179
36.43975	85011
36.44788	87559
36.45600	101261
36.46413	85239
36.47225	95433
36.48037	90382
36.48850	87514
36.49662	87817
36.50475	99063
36.51287	92671
36.52098	94625
36.52912	91720
36.53723	88775
36.54535	92339
36.55348	91212
36.56160	93475
36.56973	94626
36.57785	95646
36.58597	100949
36.59410	99699
36.60222	98853
36.61035	104474
36.61847	98113
36.62658	100909
36.63472	101196
36.64283	99719
36.65095	104143
36.65908	104420
36.66720	101436
36.67533	108295
36.68345	103886
36.69157	103758
36.69970	106014
36.70782	101418
36.71595	90534
36.72407	97843
36.73218	93655
36.74032	97626
36.74843	94353
36.75657	88994
36.76468	101198
36.77280	93022
36.78093	93805
36.78905	94622
36.79717	103639
36.80530	103689
36.81342	91965
36.82155	96459
36.82967	93538
36.83778	88901
36.84592	99741
36.85403	94716
36.86217	97921
36.87028	103081
36.87840	105514
36.88653	91844
36.89465	93732
36.90278	97148
36.91090	102733
36.91902	94234
36.92715	94324
36.93527	95878
36.94338	94831
36.95152	100649
36.95963	111055
36.96777	114889
36.97588	125310
36.98400	129392
36.99213	138998
37.00025	135411
37.00838	120385
37.01650	119197
37.02462	114435
37.03275	108239
37.04087	101377
37.04898	100309
37.05712	105263
37.06523	102393
37.07337	100552
37.08148	109377
37.08960	101547
37.09773	103506
37.10585	97860
37.11398	109767
37.12210	110588
37.13022	97223
37.13835	96298
37.14647	100005
37.15460	112660
37.16272	98397
37.17083	107826
37.17897	98253
37.18708	104585
37.19520	101358
37.20333	100892
37.21145	95706
37.21958	98846
37.22770	101076
37.23582	99258
37.24395	99726
37.25207	107057
37.26020	103362
37.26832	102338
37.27643	99724
37.28457	112996
37.29268	102775
37.30082	108169
37.30893	103079
37.31705	99361
37.32518	107283
37.33330	103320
37.34142	100134
37.34955	102238
37.35767	100016
37.36580	102258
37.37392	100734
37.38203	103566
37.39017	112091
37.39828	111066
37.40642	110627
37.41453	108198
37.42265	107419
37.43078	108475
37.43890	111360
37.44702	108069
37.45515	106539
37.46327	106372
37.47140	108697
37.47952	104527
37.48763	107671
