C:\MassHunter\GCMS\1\data\JTB-E02\BACandBLUE\JTB-E18-012-13.D Wed Jun 19 13:30:12 2019
Start of data points
2.09537	87937
2.10348	83898
2.11160	83897
2.11973	87475
2.12785	85135
2.13598	88231
2.14410	89506
2.15222	81215
2.16035	85323
2.16847	86031
2.17660	88879
2.18472	78281
2.19283	84395
2.20097	77200
2.20908	77168
2.21720	83621
2.22533	77390
2.23345	79878
2.24158	77177
2.24970	80092
2.25782	75634
2.26595	82724
2.27407	165825
2.28220	1099056
2.29032	1654712
2.29843	700172
2.30657	357925
2.31468	287681
2.32280	249610
2.33093	229319
2.33905	198886
2.34718	196804
2.35530	172320
2.36342	163737
2.37155	158983
2.37967	149013
2.38780	150058
2.39592	143972
2.40403	137243
2.41217	139080
2.42028	132128
2.42842	141657
2.43653	138669
2.44465	130750
2.45278	137888
2.46090	130487
2.46902	118961
2.47715	123992
2.48527	125325
2.49340	131971
2.50152	169857
2.50963	152522
2.51777	131120
2.52588	125524
2.53402	121792
2.54213	118018
2.55025	124539
2.55838	148231
2.56650	285455
2.57463	319023
2.58275	226986
2.59087	185560
2.59900	168829
2.60712	217107
2.61523	801079
2.62337	1373028
2.63148	840406
2.63962	466846
2.64773	339116
2.65585	275675
2.66398	217731
2.67210	195769
2.68023	181891
2.68835	172311
2.69647	160288
2.70460	153191
2.71272	145959
2.72083	144218
2.72897	137624
2.73708	133867
2.74522	132860
2.75333	130103
2.76145	128153
2.76958	127759
2.77770	123716
2.78583	209502
2.79395	449205
2.80207	429548
2.81020	266015
2.81832	208837
2.82645	219172
2.83457	207188
2.84268	185881
2.85082	177537
2.85893	153861
2.86705	146246
2.87518	145965
2.88330	135193
2.89143	130374
2.89955	131970
2.90767	120866
2.91580	129112
2.92392	120133
2.93205	120838
2.94017	119224
2.94828	115704
2.95642	119700
2.96453	124430
2.97267	137161
2.98078	133610
2.98890	126543
2.99703	120894
3.00515	125765
3.01327	123563
3.02140	126774
3.02952	119961
3.03765	114784
3.04577	107142
3.05388	109664
3.06202	111548
3.07013	111039
3.07827	120580
3.08638	388535
3.09450	1904355
3.10263	4278007
3.11075	5489187
3.11887	6204425
3.12700	4647735
3.13512	2805961
3.14325	1974715
3.15137	1575756
3.15948	1251249
3.16762	1042578
3.17573	907530
3.18387	822907
3.19198	922783
3.20010	1324345
3.20823	1398763
3.21635	1038689
3.22448	778388
3.23260	686138
3.24072	592831
3.24885	535140
3.25697	466067
3.26508	431383
3.27322	397042
3.28133	385100
3.28947	421085
3.29758	847178
3.30570	2448543
3.31383	4982301
3.32195	5994584
3.33008	4853005
3.33820	3328883
3.34632	2399447
3.35445	1902143
3.36257	1579711
3.37068	1321787
3.37882	1180616
3.38693	1049921
3.39507	933717
3.40318	862162
3.41130	791998
3.41943	760257
3.42755	701511
3.43568	677971
3.44380	649746
3.45192	618338
3.46005	588755
3.46817	579742
3.47630	586697
3.48442	610877
3.49253	578898
3.50067	536689
3.50878	511502
3.51690	490431
3.52503	472356
3.53315	472451
3.54128	465246
3.54940	466276
3.55752	464988
3.56565	459752
3.57377	467303
3.58190	539573
3.59002	539111
3.59813	476137
3.60627	449665
3.61438	434534
3.62252	442841
3.63063	445965
3.63875	458918
3.64688	445839
3.65500	444126
3.66312	487622
3.67125	1317115
3.67937	4722890
3.68750	8859102
3.69562	8347175
3.70373	5158518
3.71187	3141338
3.71998	2410308
3.72812	1994269
3.73623	1723951
3.74435	1530288
3.75248	1403958
3.76060	1260864
3.76872	1174814
3.77685	1102581
3.78497	1020063
3.79310	969451
3.80122	928405
3.80933	1144030
3.81747	1794291
3.82558	2406430
3.83372	2105934
3.84183	1520397
3.84995	1219056
3.85808	1066313
3.86620	951321
3.87433	898020
3.88245	844279
3.89057	790842
3.89870	759440
3.90682	726251
3.91493	697596
3.92307	727928
3.93118	798815
3.93932	868338
3.94743	933719
3.95555	1778212
3.96368	4803088
3.97180	8954579
3.97993	1.002449E+07
3.98805	7180771
3.99617	4694732
4.00430	7123563
4.01242	1.877189E+07
4.02055	3.289078E+07
4.02867	3.69462E+07
4.03678	2.716559E+07
4.04492	1.455769E+07
4.05303	8145088
4.06115	5524875
4.06928	4136518
4.07740	3305495
4.08553	2780600
4.09365	2345342
4.10177	2089888
4.10990	1820244
4.11802	1658518
4.12615	1485531
4.13427	1405147
4.14238	1301978
4.15052	1289821
4.15863	1272035
4.16675	1203726
4.17488	1115683
4.18300	1058324
4.19113	1015562
4.19925	957342
4.20737	949105
4.21550	1431239
4.22362	3966671
4.23175	9574668
4.23987	1.480207E+07
4.24798	1.544387E+07
4.25612	1.129793E+07
4.26423	6949812
4.27237	4777234
4.28048	3579971
4.28860	2818855
4.29673	2287257
4.30485	1918652
4.31297	1714354
4.32110	1520123
4.32922	1391001
4.33735	1270804
4.34547	1168097
4.35358	1095234
4.36172	1062314
4.36983	1029409
4.37797	1015177
4.38608	965195
4.39420	902625
4.40233	853833
4.41045	809746
4.41858	790249
4.42670	754667
4.43482	736802
4.44295	712458
4.45107	684789
4.45918	676088
4.46732	657046
4.47543	660358
4.48357	625475
4.49168	622024
4.49980	602828
4.50793	598447
4.51605	569998
4.52418	564675
4.53230	550039
4.54042	546932
4.54855	539035
4.55667	530153
4.56478	527145
4.57292	519623
4.58103	496592
4.58917	489620
4.59728	482624
4.60540	474260
4.61353	480221
4.62165	469196
4.62978	501064
4.63790	601970
4.64602	727775
4.65415	763823
4.66227	683238
4.67040	581957
4.67852	533468
4.68663	507801
4.69477	493537
4.70288	474463
4.71100	444220
4.71913	432487
4.72725	426448
4.73538	428769
4.74350	409736
4.75162	408061
4.75975	396174
4.76787	384169
4.77600	395762
4.78412	395012
4.79223	446327
4.80037	666883
4.80848	1044780
4.81660	1282924
4.82473	1125000
4.83285	862111
4.84098	728714
4.84910	657401
4.85722	628768
4.86535	586030
4.87347	543708
4.88160	514927
4.88972	489161
4.89783	442119
4.90597	434107
4.91408	424201
4.92222	420669
4.93033	430549
4.93845	515543
4.94658	867717
4.95470	1691815
4.96282	2813001
4.97095	3552361
4.97907	3405567
4.98720	2711029
4.99532	1987071
5.00343	1496269
5.01157	1196183
5.01968	1024145
5.02782	927247
5.03593	899487
5.04405	936873
5.05218	940265
5.06030	875100
5.06843	782689
5.07655	727796
5.08467	664852
5.09280	625091
5.10092	615293
5.10903	581935
5.11717	576457
5.12528	564464
5.13342	535419
5.14153	534953
5.14965	521724
5.15778	535504
5.16590	579351
5.17403	598782
5.18215	620038
5.19027	559236
5.19840	545777
5.20652	559294
5.21463	566151
5.22277	557884
5.23088	545298
5.23902	528919
5.24713	519631
5.25525	495298
5.26338	471985
5.27150	434848
5.27963	426510
5.28775	414858
5.29587	411066
5.30400	393552
5.31212	401858
5.32025	396046
5.32837	404510
5.33648	420688
5.34462	442824
5.35273	444199
5.36085	430561
5.36898	410787
5.37710	395048
5.38523	385247
5.39335	397869
5.40147	407708
5.40960	385216
5.41772	394144
5.42585	374366
5.43397	371414
5.44208	363879
5.45022	362095
5.45833	362798
5.46647	380626
5.47458	368396
5.48270	359210
5.49083	339635
5.49895	347464
5.50707	348167
5.51520	342269
5.52332	346377
5.53145	353318
5.53957	339499
5.54768	343262
5.55582	338572
5.56393	360916
5.57207	408031
5.58018	457189
5.58830	459675
5.59643	422709
5.60455	377056
5.61267	347772
5.62080	343033
5.62892	343657
5.63705	343958
5.64517	347030
5.65328	347461
5.66142	344549
5.66953	335680
5.67767	339386
5.68578	354775
5.69390	376360
5.70203	394153
5.71015	383374
5.71828	350525
5.72640	324637
5.73452	314405
5.74265	308879
5.75077	301376
5.75888	292439
5.76702	287801
5.77513	288735
5.78327	290030
5.79138	286574
5.79950	284188
5.80763	286594
5.81575	276421
5.82388	283678
5.83200	284311
5.84012	273941
5.84825	288257
5.85637	283073
5.86448	285067
5.87262	282877
5.88073	273494
5.88887	274571
5.89698	265333
5.90510	255978
5.91323	223133
5.92135	210613
5.92948	202846
5.93760	197813
5.94572	215653
5.95385	218344
5.96197	242804
5.97010	277411
5.97822	297668
5.98633	336391
5.99447	367745
6.00258	369982
6.01070	335222
6.01883	294508
6.02695	260157
6.03508	256073
6.04320	230625
6.05132	221768
6.05945	201409
6.06757	193821
6.07570	197130
6.08382	193801
6.09193	190607
6.10007	191541
6.10818	194098
6.11632	202375
6.12443	216106
6.13255	249695
6.14068	338963
6.14880	431944
6.15692	476711
6.16505	425046
6.17317	351391
6.18130	288808
6.18942	259571
6.19753	251200
6.20567	245023
6.21378	233815
6.22192	230002
6.23003	230242
6.23815	221910
6.24628	223568
6.25440	214290
6.26253	219871
6.27065	227267
6.27877	228393
6.28690	212067
6.29502	209700
6.30313	219733
6.31127	211351
6.31938	228871
6.32752	242404
6.33563	308318
6.34375	369044
6.35188	381907
6.36000	341261
6.36813	298037
6.37625	267928
6.38437	247274
6.39250	236525
6.40062	242076
6.40873	230382
6.41687	229026
6.42498	222639
6.43312	224054
6.44123	223424
6.44935	214948
6.45748	224889
6.46560	216692
6.47373	218034
6.48185	218362
6.48997	226395
6.49810	216146
6.50622	223869
6.51435	234050
6.52247	226366
6.53058	220029
6.53872	229584
6.54683	225763
6.55495	226825
6.56308	223148
6.57120	253772
6.57933	273706
6.58745	303437
6.59557	321235
6.60370	285803
6.61182	259984
6.61995	249591
6.62807	239577
6.63618	237763
6.64432	244974
6.65243	277837
6.66055	400108
6.66868	653712
6.67680	883599
6.68493	881615
6.69305	713178
6.70117	511742
6.70930	387631
6.71742	327953
6.72555	300322
6.73367	291536
6.74178	279044
6.74992	277378
6.75803	273091
6.76617	262347
6.77428	263485
6.78240	262107
6.79053	259082
6.79865	254587
6.80677	255875
6.81490	252646
6.82302	236864
6.83115	220624
6.83927	217612
6.84738	239720
6.85552	272138
6.86363	295913
6.87177	271962
6.87988	233870
6.88800	188873
6.89613	158961
6.90425	138982
6.91238	131214
6.92050	126530
6.92862	128119
6.93675	119139
6.94487	115815
6.95298	120807
6.96112	119219
6.96923	135499
6.97737	146391
6.98548	158972
6.99360	158803
7.00173	141481
7.00985	122636
7.01798	117891
7.02610	117313
7.03422	119897
7.04235	111484
7.05047	117481
7.05858	115976
7.06672	110255
7.07483	109717
7.08297	108633
7.09108	103697
7.09920	111206
7.10733	99770
7.11545	102303
7.12358	101306
7.13170	101644
7.13982	117123
7.14795	148832
7.15607	231527
7.16420	335996
7.17232	382060
7.18043	348120
7.18857	273818
7.19668	208414
7.20480	168758
7.21293	145170
7.22105	144431
7.22918	160615
7.23730	264711
7.24542	590921
7.25355	1219760
7.26167	1851480
7.26980	2034486
7.27792	1585062
7.28603	1026943
7.29417	627249
7.30228	422421
7.31042	355963
7.31853	322681
7.32665	275344
7.33478	218916
7.34290	161977
7.35102	138083
7.35915	126342
7.36727	127119
7.37540	127062
7.38352	125553
7.39163	128623
7.39977	118701
7.40788	121555
7.41602	119290
7.42413	108487
7.43225	107934
7.44038	106857
7.44850	112092
7.45662	114020
7.46475	107422
7.47287	114003
7.48100	107772
7.48912	101984
7.49723	106541
7.50537	119966
7.51348	152733
7.52162	225018
7.52973	320526
7.53785	432162
7.54598	508568
7.55410	523547
7.56223	461212
7.57035	364557
7.57847	271632
7.58660	202931
7.59472	161780
7.60283	145306
7.61097	123273
7.61908	122879
7.62722	118052
7.63533	109909
7.64345	109353
7.65158	103199
7.65970	106743
7.66783	96070
7.67595	99829
7.68407	95854
7.69220	98991
7.70032	100851
7.70843	91046
7.71657	100016
7.72468	99194
7.73282	96145
7.74093	95304
7.74905	94969
7.75718	91322
7.76530	95942
7.77343	88994
7.78155	96829
7.78967	102050
7.79780	115236
7.80592	126148
7.81405	116921
7.82217	116651
7.83028	109525
7.83842	101831
7.84653	101470
7.85465	96408
7.86278	97283
7.87090	102590
7.87903	109011
7.88715	110883
7.89527	103003
7.90340	103545
7.91152	96310
7.91965	90402
7.92777	94530
7.93588	110697
7.94402	129472
7.95213	144195
7.96027	147382
7.96838	132001
7.97650	116657
7.98463	107263
7.99275	101265
8.00087	97265
8.00900	85681
8.01712	85806
8.02525	84481
8.03337	84347
8.04148	84365
8.04962	87155
8.05773	80091
8.06587	80917
8.07398	82902
8.08210	80964
8.09023	80266
8.09835	74216
8.10647	76170
8.11460	79029
8.12272	80149
8.13085	89049
8.13897	92295
8.14708	103060
8.15522	115082
8.16333	114668
8.17147	100653
8.17958	94917
8.18770	88758
8.19583	79416
8.20395	77284
8.21208	81127
8.22020	81282
8.22832	82993
8.23645	80508
8.24457	77299
8.25268	75918
8.26082	81271
8.26893	70073
8.27707	74340
8.28518	73635
8.29330	78039
8.30143	79282
8.30955	82007
8.31768	83423
8.32580	88705
8.33392	80694
8.34205	74369
8.35017	74309
8.35830	73278
8.36642	78691
8.37453	80163
8.38267	80284
8.39078	81897
8.39890	79391
8.40703	77579
8.41515	71743
8.42328	70437
8.43140	72468
8.43952	67467
8.44765	67968
8.45577	74502
8.46390	65286
8.47202	71361
8.48013	69476
8.48827	66765
8.49638	68737
8.50450	64448
8.51263	67394
8.52075	66990
8.52888	71360
8.53700	84212
8.54512	133224
8.55325	229393
8.56137	362121
8.56950	462896
8.57762	458884
8.58573	374261
8.59387	276824
8.60198	214311
8.61012	166228
8.61823	152417
8.62635	126234
8.63448	109860
8.64260	96172
8.65072	93173
8.65885	87137
8.66697	84850
8.67510	82960
8.68322	82540
8.69133	83177
8.69947	85001
8.70758	81289
8.71572	83278
8.72383	84557
8.73195	77825
8.74008	87757
8.74820	109335
8.75633	176787
8.76445	347800
8.77257	589999
8.78070	864695
8.78882	977329
8.79693	871741
8.80507	673941
8.81318	474826
8.82132	331704
8.82943	248519
8.83755	196216
8.84568	180852
8.85380	175805
8.86193	194662
8.87005	199298
8.87817	203590
8.88630	201989
8.89442	193300
8.90253	182950
8.91067	178503
8.91878	167366
8.92692	162399
8.93503	165947
8.94315	174078
8.95128	194420
8.95940	209928
8.96753	208034
8.97565	202077
8.98377	190868
8.99190	184104
9.00002	168793
9.00815	167241
9.01627	151661
9.02438	142344
9.03252	138958
9.04063	135546
9.04875	139279
9.05688	131167
9.06500	124895
9.07313	124624
9.08125	128208
9.08937	133327
9.09750	143659
9.10562	152216
9.11375	158471
9.12187	181495
9.12998	163356
9.13812	152877
9.14623	139651
9.15435	131005
9.16248	125332
9.17060	126270
9.17873	121702
9.18685	121918
9.19497	116170
9.20310	111843
9.21122	115366
9.21935	113023
9.22747	113552
9.23558	111890
9.24372	111148
9.25183	114344
9.25997	114213
9.26808	106062
9.27620	106711
9.28433	111746
9.29245	107184
9.30057	106717
9.30870	97012
9.31682	102536
9.32495	96496
9.33307	96037
9.34118	100132
9.34932	96682
9.35743	91518
9.36557	93447
9.37368	91025
9.38180	102966
9.38993	93161
9.39805	102623
9.40618	105979
9.41430	116509
9.42242	126033
9.43055	133674
9.43867	138300
9.44678	142230
9.45492	128189
9.46303	115936
9.47117	106256
9.47928	100857
9.48740	104180
9.49553	95056
9.50365	99860
9.51178	113209
9.51990	127853
9.52802	130231
9.53615	125732
9.54427	115742
9.55238	108012
9.56052	93165
9.56863	89565
9.57677	85591
9.58488	89229
9.59300	91029
9.60113	89790
9.60925	75392
9.61738	68980
9.62550	64806
9.63362	59840
9.64175	63951
9.64987	59301
9.65800	52529
9.66612	59216
9.67423	57699
9.68237	57264
9.69048	56370
9.69860	56150
9.70673	51898
9.71485	56157
9.72298	51089
9.73110	54304
9.73922	52616
9.74735	52739
9.75547	52887
9.76360	53355
9.77172	49205
9.77983	48630
9.78797	48985
9.79608	50520
9.80422	48388
9.81233	45786
9.82045	51143
9.82858	50348
9.83670	51173
9.84482	47143
9.85295	48863
9.86107	56932
9.86920	54438
9.87732	54879
9.88543	59208
9.89357	59422
9.90168	63203
9.90982	65548
9.91793	70052
9.92605	79200
9.93418	95765
9.94230	134024
9.95042	190317
9.95855	241603
9.96667	257770
9.97480	247144
9.98292	197658
9.99103	160419
9.99917	127273
10.00728	112836
10.01542	105535
10.02353	99100
10.03165	88057
10.03978	83796
10.04790	72961
10.05603	62437
10.06415	69255
10.07227	65697
10.08040	70382
10.08852	68036
10.09663	71833
10.10477	70590
10.11288	65905
10.12102	72301
10.12913	62978
10.13725	62341
10.14538	62920
10.15350	62842
10.16163	59160
10.16975	55983
10.17787	60720
10.18600	61443
10.19412	59139
10.20223	57486
10.21037	60733
10.21848	58844
10.22662	61246
10.23473	67023
10.24285	69046
10.25098	78005
10.25910	82020
10.26723	110664
10.27535	233031
10.28347	527497
10.29160	1083416
10.29972	1838391
10.30785	2703507
10.31597	3711989
10.32408	5226177
10.33222	7507469
10.34033	1.036137E+07
10.34845	1.189556E+07
10.35658	1.090501E+07
10.36470	8193808
10.37283	5453432
10.38095	3488762
10.38907	2377339
10.39720	1656591
10.40532	1170377
10.41345	858213
10.42157	667782
10.42968	528272
10.43782	466505
10.44593	423759
10.45407	395754
10.46218	370225
10.47030	345340
10.47843	335842
10.48655	312455
10.49467	286992
10.50280	280362
10.51092	255558
10.51905	255695
10.52717	240108
10.53528	231477
10.54342	232860
10.55153	229711
10.55967	218124
10.56778	213123
10.57590	195346
10.58403	190766
10.59215	184295
10.60027	185327
10.60840	171283
10.61652	162715
10.62465	158941
10.63277	149833
10.64088	150972
10.64902	145884
10.65713	148040
10.66527	139972
10.67338	140370
10.68150	138160
10.68963	136185
10.69775	141682
10.70588	129646
10.71400	129901
10.72212	126964
10.73025	123621
10.73837	127996
10.74648	127274
10.75462	120383
10.76273	118051
10.77087	113877
10.77898	117431
10.78710	101930
10.79523	105650
10.80335	108046
10.81148	109741
10.81960	109882
10.82772	109952
10.83585	102180
10.84397	96631
10.85210	96852
10.86022	92586
10.86833	95979
10.87647	84876
10.88458	91259
10.89270	95182
10.90083	89844
10.90895	82608
10.91708	82683
10.92520	85422
10.93332	81245
10.94145	86308
10.94957	88470
10.95770	85535
10.96582	88111
10.97393	83271
10.98207	82139
10.99018	84944
10.99830	81275
11.00643	78556
11.01455	81242
11.02268	79483
11.03080	74205
11.03892	70395
11.04705	69105
11.05517	71869
11.06330	73143
11.07142	74967
11.07953	75200
11.08767	80443
11.09578	77743
11.10392	77606
11.11203	70205
11.12015	67443
11.12828	63564
11.13640	65470
11.14452	62318
11.15265	62860
11.16077	62551
11.16890	66872
11.17702	67623
11.18513	70561
11.19327	71368
11.20138	69112
11.20952	67715
11.21763	62124
11.22575	63267
11.23388	60735
11.24200	55887
11.25012	56322
11.25825	52589
11.26637	52251
11.27450	48923
11.28262	51765
11.29073	57146
11.29887	76533
11.30698	108640
11.31512	170333
11.32323	263087
11.33135	363367
11.33948	430927
11.34760	436679
11.35573	384640
11.36385	288353
11.37197	199542
11.38010	142086
11.38822	103141
11.39633	86850
11.40447	84938
11.41258	82244
11.42072	86050
11.42883	87851
11.43695	81495
11.44508	79527
11.45320	77643
11.46133	76080
11.46945	77439
11.47757	78938
11.48570	98678
11.49382	120580
11.50195	133022
11.51007	131251
11.51818	120099
11.52632	111762
11.53443	92012
11.54255	90124
11.55068	88381
11.55880	84769
11.56693	81126
11.57505	79636
11.58317	70600
11.59130	71624
11.59942	81152
11.60755	100696
11.61567	134012
11.62378	158774
11.63192	164076
11.64003	153898
11.64817	131361
11.65628	104041
11.66440	89089
11.67253	84408
11.68065	81650
11.68877	80009
11.69690	76798
11.70502	78078
11.71315	80038
11.72127	76368
11.72938	67081
11.73752	66967
11.74563	60144
11.75377	62820
11.76188	62943
11.77000	51915
11.77813	61060
11.78625	60496
11.79437	58636
11.80250	60595
11.81062	59850
11.81875	58328
11.82687	57569
11.83498	55529
11.84312	58817
11.85123	59370
11.85937	54321
11.86748	53698
11.87560	53072
11.88373	54286
11.89185	55181
11.89998	51979
11.90810	48957
11.91622	55798
11.92435	58494
11.93247	64131
11.94058	66959
11.94872	62065
11.95683	65133
11.96497	56186
11.97308	61311
11.98120	93153
11.98933	178182
11.99745	344705
12.00558	598203
12.01370	892755
12.02182	946111
12.02995	851866
12.03807	663979
12.04618	446156
12.05432	296719
12.06243	206101
12.07057	163407
12.07868	143430
12.08680	134051
12.09493	124709
12.10305	127174
12.11118	125258
12.11930	130444
12.12742	138820
12.13555	131625
12.14367	131253
12.15180	123393
12.15992	101900
12.16803	96759
12.17617	86167
12.18428	80505
12.19240	77629
12.20053	77311
12.20865	82510
12.21678	80089
12.22490	78170
12.23302	74645
12.24115	74996
12.24927	81186
12.25740	76273
12.26552	78346
12.27363	75295
12.28177	74046
12.28988	70742
12.29802	71189
12.30613	68995
12.31425	66905
12.32238	68462
12.33050	64161
12.33862	69002
12.34675	69555
12.35487	64747
12.36300	64441
12.37112	67944
12.37923	64011
12.38737	68193
12.39548	73168
12.40362	80816
12.41173	86118
12.41985	99054
12.42798	106095
12.43610	110245
12.44422	105048
12.45235	100011
12.46047	94332
12.46860	82989
12.47672	77679
12.48483	75337
12.49297	77100
12.50108	72880
12.50922	63783
12.51733	67048
12.52545	67133
12.53358	74742
12.54170	92735
12.54983	139929
12.55795	248477
12.56607	403577
12.57420	522348
12.58232	566312
12.59043	491880
12.59857	337592
12.60668	234616
12.61482	164488
12.62293	119725
12.63105	101386
12.63918	97458
12.64730	82527
12.65543	81205
12.66355	84667
12.67167	77542
12.67980	74981
12.68792	67836
12.69605	69231
12.70417	64832
12.71228	62820
12.72042	67065
12.72853	71492
12.73665	73217
12.74478	75161
12.75290	73927
12.76103	69873
12.76915	61060
12.77727	55170
12.78540	55829
12.79352	54805
12.80165	49950
12.80977	52257
12.81788	53072
12.82602	49595
12.83413	49996
12.84225	48413
12.85038	46639
12.85850	44807
12.86663	43368
12.87475	42837
12.88287	45833
12.89100	44162
12.89912	52369
12.90725	44240
12.91537	41768
12.92348	46186
12.93162	45338
12.93973	43081
12.94787	49191
12.95598	59924
12.96410	83007
12.97223	153866
12.98035	262257
12.98847	375358
12.99660	440226
13.00472	392367
13.01285	301003
13.02097	197148
13.02908	139717
13.03722	101321
13.04533	84829
13.05347	73687
13.06158	68334
13.06970	65293
13.07783	62765
13.08595	61923
13.09407	57249
13.10220	57395
13.11032	57446
13.11845	53028
13.12657	58297
13.13468	53657
13.14282	54281
13.15093	55871
13.15907	53635
13.16718	50467
13.17530	53971
13.18343	60046
13.19155	55745
13.19968	57352
13.20780	58361
13.21592	59752
13.22405	59954
13.23217	61120
13.24028	60757
13.24842	56743
13.25653	49276
13.26467	49739
13.27278	47004
13.28090	48263
13.28903	47093
13.29715	49187
13.30528	48057
13.31340	46703
13.32152	44589
13.32965	44972
13.33777	44242
13.34590	46364
13.35402	53918
13.36213	43478
13.37027	41033
13.37838	46004
13.38650	42854
13.39463	46464
13.40275	40233
13.41088	44453
13.41900	39264
13.42712	41744
13.43525	46388
13.44337	43846
13.45150	43600
13.45962	42362
13.46773	46218
13.47587	47486
13.48398	45200
13.49210	42678
13.50023	42762
13.50835	43915
13.51648	41072
13.52460	41182
13.53272	44827
13.54085	48842
13.54897	43964
13.55710	44500
13.56522	41995
13.57333	43794
13.58147	47833
13.58958	46347
13.59772	47054
13.60583	50539
13.61395	55723
13.62208	50251
13.63020	54459
13.63832	56608
13.64645	52705
13.65457	47896
13.66270	46428
13.67082	39514
13.67893	41752
13.68707	41089
13.69518	41790
13.70332	43572
13.71143	41859
13.71955	49585
13.72768	50092
13.73580	84042
13.74393	155968
13.75205	376827
13.76017	852768
13.76830	1593153
13.77642	2402339
13.78453	2970268
13.79267	3037581
13.80078	2422796
13.80892	1794133
13.81703	1150726
13.82515	832321
13.83328	661169
13.84140	558274
13.84953	484791
13.85765	409555
13.86577	360521
13.87390	313366
13.88202	276062
13.89013	259171
13.89827	240241
13.90638	219335
13.91452	212943
13.92263	195424
13.93075	184717
13.93888	186624
13.94700	185084
13.95513	189066
13.96325	218023
13.97137	238854
13.97950	275097
13.98762	348135
13.99575	321266
14.00387	295945
14.01198	255033
14.02012	212331
14.02823	188089
14.03635	166531
14.04448	156729
14.05260	144703
14.06073	154871
14.06885	148816
14.07697	142234
14.08510	142525
14.09322	136990
14.10135	135436
14.10947	128562
14.11758	137845
14.12572	138109
14.13383	144924
14.14195	172955
14.15008	197409
14.15820	217279
14.16633	214952
14.17445	213199
14.18257	213047
14.19070	234846
14.19882	269995
14.20695	325924
14.21507	340969
14.22318	341697
14.23132	324238
14.23943	284627
14.24757	258275
14.25568	236785
14.26380	216008
14.27193	192368
14.28005	178587
14.28817	169423
14.29630	144414
14.30442	140563
14.31255	133461
14.32067	127479
14.32878	122793
14.33692	117115
14.34503	112936
14.35317	105605
14.36128	92858
14.36940	83816
14.37753	78878
14.38565	69445
14.39378	66871
14.40190	68606
14.41002	71097
14.41815	76493
14.42627	80010
14.43438	76866
14.44252	81318
14.45063	75427
14.45877	73081
14.46688	63510
14.47500	66267
14.48313	68113
14.49125	69536
14.49938	72600
14.50750	72935
14.51562	74922
14.52375	78570
14.53187	87534
14.53998	84085
14.54812	79365
14.55623	70992
14.56437	62722
14.57248	62385
14.58060	54901
14.58873	57086
14.59685	52003
14.60498	57299
14.61310	54164
14.62122	51930
14.62935	55650
14.63747	54236
14.64560	54449
14.65372	52532
14.66183	50008
14.66997	49249
14.67808	45902
14.68620	49202
14.69433	49572
14.70245	47285
14.71058	51934
14.71870	47649
14.72682	50088
14.73495	52297
14.74307	53560
14.75120	55115
14.75932	56568
14.76743	58291
14.77557	65501
14.78368	67743
14.79182	110917
14.79993	238006
14.80805	585104
14.81618	1383329
14.82430	2569020
14.83242	3735844
14.84055	4423928
14.84867	4233629
14.85680	3290050
14.86492	2161951
14.87303	1316141
14.88117	815325
14.88928	537059
14.89742	407831
14.90553	335852
14.91365	291074
14.92178	263752
14.92990	239460
14.93802	220880
14.94615	204095
14.95427	187317
14.96240	188882
14.97052	197983
14.97863	196755
14.98677	186043
14.99488	182829
15.00302	164476
15.01113	154744
15.01925	143317
15.02738	126833
15.03550	125777
15.04363	117973
15.05175	120774
15.05987	107710
15.06800	106753
15.07612	106113
15.08423	103291
15.09237	101552
15.10048	97127
15.10862	94423
15.11673	97086
15.12485	95337
15.13298	106058
15.14110	108779
15.14923	115075
15.15735	110838
15.16547	98888
15.17360	87209
15.18172	77878
15.18985	72855
15.19797	67758
15.20608	61763
15.21422	59957
15.22233	59990
15.23045	57068
15.23858	56766
15.24670	58576
15.25483	52009
15.26295	51141
15.27107	51829
15.27920	49371
15.28732	47408
15.29545	50202
15.30357	48647
15.31168	44030
15.31982	50790
15.32793	45160
15.33605	49554
15.34418	43881
15.35230	45068
15.36043	50265
15.36855	48228
15.37667	44932
15.38480	50160
15.39292	47190
15.40105	48459
15.40917	58290
15.41728	55784
15.42542	62578
15.43353	64094
15.44167	53866
15.44978	52885
15.45790	48133
15.46603	56863
15.47415	66753
15.48227	77822
15.49040	91220
15.49852	105064
15.50665	115712
15.51477	113888
15.52288	106574
15.53102	107934
15.53913	111815
15.54727	114538
15.55538	114104
15.56350	97304
15.57163	83193
15.57975	74906
15.58787	59086
15.59600	54594
15.60412	50309
15.61225	50433
15.62037	47291
15.62848	48045
15.63662	51808
15.64473	47923
15.65287	48780
15.66098	51850
15.66910	48047
15.67723	45539
15.68535	44662
15.69348	44135
15.70160	42866
15.70972	46252
15.71785	43088
15.72597	45963
15.73408	45173
15.74222	44089
15.75033	47856
15.75847	65334
15.76658	102398
15.77470	160933
15.78283	225341
15.79095	306519
15.79908	334029
15.80720	303603
15.81532	236897
15.82345	171124
15.83157	124927
15.83970	99557
15.84782	89328
15.85593	73779
15.86407	71067
15.87218	69491
15.88030	64379
15.88843	61530
15.89655	60836
15.90468	61091
15.91280	58264
15.92092	57829
15.92905	55266
15.93717	59473
15.94530	68725
15.95342	81962
15.96153	110408
15.96967	138632
15.97778	164755
15.98590	178594
15.99403	177792
16.00215	144858
16.01028	129646
16.01840	113719
16.02652	97978
16.03465	84093
16.04277	78236
16.05090	76874
16.05902	69205
16.06713	66386
16.07527	65291
16.08338	61288
16.09152	65918
16.09963	58024
16.10775	55639
16.11588	58100
16.12400	65570
16.13212	60917
16.14025	61043
16.14837	63014
16.15650	62848
16.16462	64205
16.17273	60206
16.18087	57489
16.18898	57579
16.19712	52420
16.20523	53676
16.21335	53239
16.22148	54622
16.22960	52451
16.23773	53634
16.24585	49012
16.25397	48244
16.26210	49364
16.27022	51955
16.27833	52728
16.28647	54983
16.29458	59854
16.30272	62668
16.31083	58373
16.31895	56695
16.32708	55138
16.33520	54917
16.34333	62005
16.35145	82445
16.35957	115309
16.36770	152585
16.37582	208390
16.38393	235576
16.39207	228826
16.40018	198983
16.40832	156820
16.41643	119302
16.42455	89751
16.43268	85062
16.44080	89640
16.44893	107923
16.45705	188000
16.46517	335261
16.47330	595704
16.48142	846014
16.48955	1005360
16.49767	968335
16.50578	752587
16.51392	516155
16.52203	320176
16.53015	209560
16.53828	158919
16.54640	129432
16.55453	116353
16.56265	107664
16.57077	100476
16.57890	95165
16.58702	99017
16.59515	102508
16.60327	106389
16.61138	116052
16.61952	115765
16.62763	121389
16.63575	112483
16.64388	96166
16.65200	89916
16.66013	80279
16.66825	80736
16.67637	68236
16.68450	67388
16.69262	66788
16.70075	70121
16.70887	63940
16.71698	65394
16.72512	62719
16.73323	58261
16.74137	51128
16.74948	56716
16.75760	61914
16.76573	66825
16.77385	67438
16.78197	64600
16.79010	63283
16.79822	59867
16.80635	55824
16.81447	53341
16.82258	47407
16.83072	50390
16.83883	52854
16.84697	49342
16.85508	52385
16.86320	45433
16.87133	50248
16.87945	46917
16.88758	49533
16.89570	51426
16.90382	53027
16.91195	48694
16.92007	45100
16.92818	44846
16.93632	48737
16.94443	45507
16.95257	45708
16.96068	45279
16.96880	44341
16.97693	46155
16.98505	46186
16.99318	47423
17.00130	46156
17.00942	45291
17.01755	43781
17.02567	40225
17.03380	41653
17.04192	50757
17.05003	50147
17.05817	55884
17.06628	55585
17.07440	58221
17.08253	59538
17.09065	65040
17.09878	68790
17.10690	69669
17.11502	79310
17.12315	77160
17.13127	78322
17.13940	71916
17.14752	64492
17.15563	65231
17.16377	57257
17.17188	55256
17.18000	53764
17.18813	53445
17.19625	51967
17.20438	48480
17.21250	46485
17.22062	49100
17.22875	47158
17.23687	51354
17.24500	47781
17.25312	46886
17.26123	47639
17.26937	46352
17.27748	44018
17.28562	47347
17.29373	47376
17.30185	47510
17.30998	48316
17.31810	52332
17.32622	61626
17.33435	70079
17.34247	76971
17.35060	81584
17.35872	90956
17.36683	85735
17.37497	86479
17.38308	81629
17.39122	72959
17.39933	72834
17.40745	68743
17.41558	61581
17.42370	61106
17.43182	60920
17.43995	55078
17.44807	56895
17.45620	56505
17.46432	54031
17.47243	54674
17.48057	49981
17.48868	51924
17.49682	46931
17.50493	49398
17.51305	54144
17.52118	54290
17.52930	43622
17.53743	49340
17.54555	46288
17.55367	57102
17.56180	63611
17.56992	82879
17.57803	122979
17.58617	196544
17.59428	295660
17.60242	424220
17.61053	519468
17.61865	544125
17.62678	491709
17.63490	398106
17.64303	311834
17.65115	279340
17.65927	268006
17.66740	269671
17.67552	269569
17.68365	252927
17.69177	206239
17.69988	171571
17.70802	140000
17.71613	127799
17.72425	108945
17.73238	94344
17.74050	87855
17.74863	90439
17.75675	91731
17.76487	78879
17.77300	74347
17.78112	77775
17.78925	91409
17.79737	121922
17.80548	195885
17.81362	312208
17.82173	482700
17.82985	619055
17.83798	651643
17.84610	569794
17.85423	454332
17.86235	337602
17.87047	252838
17.87860	194977
17.88672	156932
17.89485	136881
17.90297	119738
17.91108	105211
17.91922	99440
17.92733	93735
17.93547	88506
17.94358	82156
17.95170	79771
17.95983	84586
17.96795	76196
17.97607	74353
17.98420	67926
17.99232	70639
18.00045	67206
18.00857	69945
18.01668	75920
18.02482	84655
18.03293	96565
18.04107	113695
18.04918	122528
18.05730	158540
18.06543	257062
18.07355	470157
18.08168	828247
18.08980	1240542
18.09792	1540487
18.10605	1534176
18.11417	1341686
18.12228	996970
18.13042	735515
18.13853	559598
18.14667	432757
18.15478	372082
18.16290	320820
18.17103	287481
18.17915	267023
18.18728	247899
18.19540	216802
18.20352	202448
18.21165	191496
18.21977	186890
18.22788	209203
18.23602	274870
18.24413	363123
18.25227	425804
18.26038	464198
18.26850	471045
18.27663	471605
18.28475	468039
18.29288	469995
18.30100	465041
18.30912	457181
18.31725	435182
18.32537	423499
18.33350	427537
18.34162	423676
18.34973	430281
18.35787	425257
18.36598	425235
18.37410	411897
18.38223	410872
18.39035	426933
18.39848	458302
18.40660	527695
18.41472	618583
18.42285	676905
18.43097	690550
18.43910	687095
18.44722	634529
18.45533	590730
18.46347	555394
18.47158	559061
18.47970	573627
18.48783	579544
18.49595	564620
18.50408	528150
18.51220	466470
18.52032	424504
18.52845	399577
18.53657	374422
18.54470	362564
18.55282	340068
18.56093	337664
18.56907	325611
18.57718	328481
18.58532	318389
18.59343	312206
18.60155	313791
18.60968	308841
18.61780	307584
18.62592	305797
18.63405	299561
18.64217	295498
18.65030	285312
18.65842	291010
18.66653	281810
18.67467	265782
18.68278	264256
18.69092	262084
18.69903	260178
18.70715	269014
18.71528	263320
18.72340	259863
18.73153	259911
18.73965	247914
18.74777	242868
18.75590	238944
18.76402	235550
18.77213	237230
18.78027	237584
18.78838	225921
18.79652	232063
18.80463	228168
18.81275	219870
18.82088	221681
18.82900	225191
18.83713	222842
18.84525	210196
18.85337	210608
18.86150	207756
18.86962	211458
18.87773	212444
18.88587	210187
18.89398	207935
18.90212	200993
18.91023	201594
18.91835	196032
18.92648	200021
18.93460	207402
18.94273	209702
18.95085	210175
18.95897	215206
18.96710	208707
18.97522	200497
18.98335	199113
18.99147	191563
18.99958	190618
19.00772	188709
19.01583	182629
19.02395	178197
19.03208	173620
19.04020	172216
19.04833	168324
19.05645	170312
19.06457	179220
19.07270	204914
19.08082	239812
19.08895	309749
19.09707	384705
19.10518	462449
19.11332	483802
19.12143	461398
19.12957	399117
19.13768	320535
19.14580	268805
19.15393	227664
19.16205	208263
19.17017	195311
19.17830	193806
19.18642	182928
19.19455	174078
19.20267	175120
19.21078	165475
19.21892	161947
19.22703	156721
19.23517	146715
19.24328	148745
19.25140	150746
19.25953	144083
19.26765	147258
19.27577	148012
19.28390	146994
19.29202	149291
19.30015	148083
19.30827	150143
19.31638	145895
19.32452	144290
19.33263	142876
19.34077	141115
19.34888	151707
19.35700	165255
19.36513	180977
19.37325	212677
19.38138	220870
19.38950	214067
19.39762	209493
19.40575	185432
19.41387	160903
19.42198	149942
19.43012	146756
19.43823	149224
19.44637	151186
19.45448	156062
19.46260	159063
19.47073	161125
19.47885	175952
19.48698	189737
19.49510	221248
19.50322	255782
19.51135	292535
19.51947	311292
19.52758	298431
19.53572	251447
19.54383	209196
19.55197	170322
19.56008	155702
19.56820	141412
19.57633	134339
19.58445	128096
19.59258	119295
19.60070	130223
19.60882	112035
19.61695	119908
19.62507	121338
19.63320	126148
19.64132	146333
19.64943	183167
19.65757	242609
19.66568	292784
19.67380	355619
19.68193	403595
19.69005	386294
19.69818	370068
19.70630	329004
19.71442	283551
19.72255	257775
19.73067	226513
19.73880	199553
19.74692	184711
19.75503	168171
19.76317	149820
19.77128	146022
19.77942	143307
19.78753	140748
19.79565	149375
19.80378	150550
19.81190	148240
19.82002	147591
19.82815	137177
19.83627	124662
19.84440	127914
19.85252	152940
19.86063	253313
19.86877	516062
19.87688	1062874
19.88502	1908478
19.89313	2947707
19.90125	3736908
19.90938	3964721
19.91750	3580833
19.92562	2855081
19.93375	2011748
19.94187	1374918
19.95000	985892
19.95812	748088
19.96623	645470
19.97437	579155
19.98248	529796
19.99062	477493
19.99873	458008
20.00685	431777
20.01498	397659
20.02310	375908
20.03123	360123
20.03935	322549
20.04747	293633
20.05560	265704
20.06372	244471
20.07183	211580
20.07997	193217
20.08808	176749
20.09622	170828
20.10433	155630
20.11245	148914
20.12058	137435
20.12870	129792
20.13683	128801
20.14495	129591
20.15307	131068
20.16120	150050
20.16932	160376
20.17745	186149
20.18557	187013
20.19368	203213
20.20182	199935
20.20993	194024
20.21805	196183
20.22618	172913
20.23430	171464
20.24243	176829
20.25055	186005
20.25867	220296
20.26680	262437
20.27492	314689
20.28305	361348
20.29117	388769
20.29928	369761
20.30742	329097
20.31553	292256
20.32365	243719
20.33178	216535
20.33990	172440
20.34803	149291
20.35615	132718
20.36427	122126
20.37240	110364
20.38052	107461
20.38865	100161
20.39677	95596
20.40488	94818
20.41302	100434
20.42113	100005
20.42927	106084
20.43738	117265
20.44550	128057
20.45363	138970
20.46175	150375
20.46987	145180
20.47800	147175
20.48612	139734
20.49425	125598
20.50237	113975
20.51048	99425
20.51862	94314
20.52673	88060
20.53487	86220
20.54298	85402
20.55110	86411
20.55923	84416
20.56735	84307
20.57548	81451
20.58360	85398
20.59172	75665
20.59985	75819
20.60797	71538
20.61608	69731
20.62422	73715
20.63233	75587
20.64047	79158
20.64858	70308
20.65670	70579
20.66483	69818
20.67295	76529
20.68108	73296
20.68920	70656
20.69732	71148
20.70545	68660
20.71357	62633
20.72168	68643
20.72982	63705
20.73793	66531
20.74607	70822
20.75418	63916
20.76230	79282
20.77043	74216
20.77855	81704
20.78668	97552
20.79480	122910
20.80292	170987
20.81105	223810
20.81917	275598
20.82730	289469
20.83542	260220
20.84353	212158
20.85167	160784
20.85978	125060
20.86790	99837
20.87603	88182
20.88415	74901
20.89228	79005
20.90040	75747
20.90852	77923
20.91665	73710
20.92477	74816
20.93290	74206
20.94102	72701
20.94913	73719
20.95727	75480
20.96538	70427
20.97350	72993
20.98163	68651
20.98975	69906
20.99788	64246
21.00600	60359
21.01412	66055
21.02225	67721
21.03037	65048
21.03850	66022
21.04662	65500
21.05473	66562
21.06287	68626
21.07098	72909
21.07912	75039
21.08723	73091
21.09535	70667
21.10348	70243
21.11160	64899
21.11972	69244
21.12785	70250
21.13597	75198
21.14410	83772
21.15222	100555
21.16033	114276
21.16847	122091
21.17658	123576
21.18472	107541
21.19283	96126
21.20095	79632
21.20908	81584
21.21720	75276
21.22533	69859
21.23345	71977
21.24157	69786
21.24970	69857
21.25782	70814
21.26593	61917
21.27407	64171
21.28218	63192
21.29032	67142
21.29843	60951
21.30655	64202
21.31468	63535
21.32280	62520
21.33093	65148
21.33905	60799
21.34717	60535
21.35530	59894
21.36342	61160
21.37153	61059
21.37967	63719
21.38778	68505
21.39592	78352
21.40403	88181
21.41215	100884
21.42028	99244
21.42840	96131
21.43653	91961
21.44465	88931
21.45277	74228
21.46090	69440
21.46902	64595
21.47715	67029
21.48527	67324
21.49338	65902
21.50152	65106
21.50963	69418
21.51775	64474
21.52588	61953
21.53400	62234
21.54213	60486
21.55025	62268
21.55837	58721
21.56650	61364
21.57462	63811
21.58275	69436
21.59087	70970
21.59898	80156
21.60712	84598
21.61523	82748
21.62337	89845
21.63148	94419
21.63960	105025
21.64773	114649
21.65585	118146
21.66397	114227
21.67210	116276
21.68022	111092
21.68835	98744
21.69647	98215
21.70458	85722
21.71272	81344
21.72083	68592
21.72897	66254
21.73708	65667
21.74520	67078
21.75333	67028
21.76145	63291
21.76957	65596
21.77770	68800
21.78582	77600
21.79395	78302
21.80207	78348
21.81018	81102
21.81832	82159
21.82643	89936
21.83457	97370
21.84268	102900
21.85080	106795
21.85893	101724
21.86705	95815
21.87518	87486
21.88330	77485
21.89142	74074
21.89955	68251
21.90767	69271
21.91578	63334
21.92392	67284
21.93203	61850
21.94017	56495
21.94828	63405
21.95640	56545
21.96453	56044
21.97265	56310
21.98078	52733
21.98890	49774
21.99702	51006
22.00515	55466
22.01327	51773
22.02138	51249
22.02952	54610
22.03763	61774
22.04577	57241
22.05388	56791
22.06200	58221
22.07013	55263
22.07825	50535
22.08638	51340
22.09450	49096
22.10262	48511
22.11075	50833
22.11887	54304
22.12700	54597
22.13512	49228
22.14323	52518
22.15137	52109
22.15948	54434
22.16760	54249
22.17573	54175
22.18385	55315
22.19198	53490
22.20010	55843
22.20822	55246
22.21635	58898
22.22447	59427
22.23260	61630
22.24072	59545
22.24883	57321
22.25697	56824
22.26508	59229
22.27322	59930
22.28133	58349
22.28945	65778
22.29758	62605
22.30570	58539
22.31382	60052
22.32195	62148
22.33007	62361
22.33820	60441
22.34632	62790
22.35443	58213
22.36257	55195
22.37068	59280
22.37882	58831
22.38693	63840
22.39505	79618
22.40318	90118
22.41130	109733
22.41942	130285
22.42755	140949
22.43567	135603
22.44380	116403
22.45192	105851
22.46003	95741
22.46817	84289
22.47628	86922
22.48442	83122
22.49253	85917
22.50065	94696
22.50878	98671
22.51690	98474
22.52503	89629
22.53315	85108
22.54127	82623
22.54940	75165
22.55752	74329
22.56563	72159
22.57377	69831
22.58188	66364
22.59002	68814
22.59813	63062
22.60625	61520
22.61438	60657
22.62250	58583
22.63063	61764
22.63875	60133
22.64687	56971
22.65500	56007
22.66312	54266
22.67125	55145
22.67937	61954
22.68748	60065
22.69562	59298
22.70373	66012
22.71185	66511
22.71998	68214
22.72810	76240
22.73623	70071
22.74435	64068
22.75247	59404
22.76060	63523
22.76872	58525
22.77685	62314
22.78497	68712
22.79308	72426
22.80122	85162
22.80933	87925
22.81745	91649
22.82558	90181
22.83370	82279
22.84183	74884
22.84995	70891
22.85807	73493
22.86620	70904
22.87432	74028
22.88245	79480
22.89057	86763
22.89868	94613
22.90682	105508
22.91493	122846
22.92307	133720
22.93118	147045
22.93930	153728
22.94743	156297
22.95555	132833
22.96367	126703
22.97180	114894
22.97992	108173
22.98805	100795
22.99617	97664
23.00428	94636
23.01242	98025
23.02053	94652
23.02867	90064
23.03678	82967
23.04490	86765
23.05303	86000
23.06115	88692
23.06927	84534
23.07740	85215
23.08552	76603
23.09365	86054
23.10177	79381
23.10988	77349
23.11802	74393
23.12613	73234
23.13427	74486
23.14238	73874
23.15050	77024
23.15863	70839
23.16675	75809
23.17488	75770
23.18300	75108
23.19112	81585
23.19925	79791
23.20737	72918
23.21548	74759
23.22362	72786
23.23173	76979
23.23987	67823
23.24798	74398
23.25610	74191
23.26423	79593
23.27235	84515
23.28048	84039
23.28860	79847
23.29672	78141
23.30485	72385
23.31297	73225
23.32110	71857
23.32922	77840
23.33733	92044
23.34547	117532
23.35358	153145
23.36170	211601
23.36983	290294
23.37795	376451
23.38608	478443
23.39420	573364
23.40232	679874
23.41045	742896
23.41857	783349
23.42670	782117
23.43482	770301
23.44293	764918
23.45107	718292
23.45918	676654
23.46732	640725
23.47543	589263
23.48355	543661
23.49168	498759
23.49980	465217
23.50792	432811
23.51605	384778
23.52417	359651
23.53230	330033
23.54042	323126
23.54853	295334
23.55667	274309
23.56478	275131
23.57292	264791
23.58103	268548
23.58915	280938
23.59728	298040
23.60540	310947
23.61352	304031
23.62165	285336
23.62977	253372
23.63790	233515
23.64602	228855
23.65413	224601
23.66227	235729
23.67038	236257
23.67852	223439
23.68663	204598
23.69475	184005
23.70288	168998
23.71100	150714
23.71913	142305
23.72725	133597
23.73537	135814
23.74350	150489
23.75162	197664
23.75973	327257
23.76787	627820
23.77598	1182149
23.78412	1931238
23.79223	2669573
23.80035	3067119
23.80848	2967826
23.81660	2523260
23.82473	1992152
23.83285	1544456
23.84097	1209285
23.84910	923972
23.85722	743655
23.86533	613419
23.87347	517390
23.88158	452238
23.88972	400124
23.89783	365894
23.90595	345771
23.91408	321134
23.92220	305976
23.93033	288982
23.93845	266062
23.94657	250956
23.95470	236379
23.96282	225985
23.97095	212126
23.97907	198580
23.98718	197443
23.99532	201867
24.00343	236231
24.01155	339836
24.01968	504421
24.02780	762658
24.03593	999245
24.04405	1044019
24.05217	926463
24.06030	707628
24.06842	510603
24.07655	342809
24.08467	244681
24.09278	190425
24.10092	161857
24.10903	153353
24.11717	149001
24.12528	148028
24.13340	148470
24.14153	150463
24.14965	152924
24.15777	146635
24.16590	147383
24.17402	143601
24.18215	137259
24.19027	134291
24.19838	136011
24.20652	129853
24.21463	129156
24.22277	130109
24.23088	130823
24.23900	118643
24.24713	111668
24.25525	113344
24.26337	103603
24.27150	105925
24.27962	101498
24.28775	101220
24.29587	97409
24.30398	97956
24.31212	94790
24.32023	91762
24.32837	103628
24.33648	98391
24.34460	96104
24.35273	92001
24.36085	94949
24.36898	100739
24.37710	101210
24.38522	129392
24.39335	150798
24.40147	187738
24.40958	195816
24.41772	200753
24.42583	193055
24.43397	177166
24.44208	166079
24.45020	165529
24.45833	169040
24.46645	176497
24.47458	180330
24.48270	197225
24.49082	201147
24.49895	213656
24.50707	217350
24.51520	222350
24.52332	217692
24.53143	207903
24.53957	210993
24.54768	212584
24.55580	212220
24.56393	207013
24.57205	206793
24.58018	197347
24.58830	188664
24.59642	185762
24.60455	183354
24.61267	185427
24.62080	184168
24.62892	192549
24.63703	186624
24.64517	192342
24.65328	198908
24.66140	198788
24.66953	203110
24.67765	201986
24.68578	200562
24.69390	204810
24.70202	201663
24.71015	192513
24.71827	199824
24.72640	195115
24.73452	196488
24.74263	188176
24.75077	187821
24.75888	188829
24.76702	195851
24.77513	195894
24.78325	199079
24.79138	201525
24.79950	196980
24.80762	190263
24.81575	196497
24.82387	194384
24.83200	200276
24.84012	216742
24.84823	247071
24.85637	281397
24.86448	330802
24.87262	433038
24.88073	540215
24.88885	618379
24.89698	653755
24.90510	615878
24.91322	540569
24.92135	446677
24.92947	340401
24.93760	265116
24.94572	213970
24.95383	172329
24.96197	148275
24.97008	124752
24.97822	119022
24.98633	105176
24.99445	99349
25.00258	103656
25.01070	91933
25.01883	90379
25.02695	90034
25.03507	82907
25.04320	83727
25.05132	87243
25.05943	85423
25.06757	81087
25.07568	77177
25.08382	86947
25.09193	94004
25.10005	133032
25.10818	227268
25.11630	451129
25.12443	875537
25.13255	1502249
25.14067	2135351
25.14880	2558026
25.15692	2533510
25.16505	2148451
25.17317	1621182
25.18128	1054147
25.18942	650679
25.19753	396106
25.20565	254991
25.21378	183073
25.22190	148276
25.23003	124936
25.23815	130631
25.24627	146499
25.25440	158318
25.26252	179597
25.27065	198969
25.27877	200496
25.28688	184963
25.29502	170019
25.30313	145173
25.31125	121218
25.31938	108950
25.32750	102836
25.33563	90033
25.34375	83962
25.35187	82631
25.36000	81092
25.36812	83884
25.37625	88643
25.38437	109794
25.39248	144190
25.40062	190403
25.40873	222532
25.41687	242814
25.42498	259117
25.43310	268426
25.44123	285834
25.44935	283640
25.45747	286302
25.46560	287237
25.47372	294858
25.48185	297249
25.48997	302285
25.49808	307427
25.50622	288071
25.51433	292549
25.52247	295727
25.53058	288351
25.53870	289744
25.54683	292807
25.55495	284180
25.56308	282664
25.57120	279423
25.57932	271258
25.58745	275241
25.59557	283767
25.60368	268497
25.61182	265953
25.61993	263332
25.62807	257352
25.63618	258450
25.64430	252863
25.65243	254627
25.66055	247100
25.66868	245768
25.67680	246641
25.68492	236031
25.69305	232147
25.70117	237137
25.70928	234238
25.71742	230368
25.72553	228893
25.73367	221650
25.74178	218131
25.74990	227048
25.75803	213507
25.76615	214621
25.77428	220122
25.78240	218063
25.79052	214429
25.79865	216438
25.80677	212530
25.81490	212885
25.82302	211305
25.83113	218487
25.83927	225526
25.84738	234658
25.85550	230271
25.86363	233671
25.87175	218114
25.87988	205825
25.88800	191718
25.89612	186956
25.90425	176066
25.91237	167638
25.92050	160218
25.92862	165579
25.93673	165553
25.94487	159805
25.95298	170202
25.96112	156481
25.96923	150437
25.97735	153513
25.98548	146203
25.99360	145620
26.00172	144012
26.00985	141646
26.01797	138351
26.02610	142379
26.03422	140452
26.04233	137764
26.05047	136863
26.05858	136033
26.06672	140545
26.07483	134427
26.08295	134580
26.09108	131091
26.09920	129556
26.10732	132135
26.11545	132887
26.12357	131110
26.13170	128505
26.13982	131091
26.14793	133238
26.15607	136507
26.16418	136755
26.17232	122890
26.18043	125347
26.18855	121116
26.19668	122563
26.20480	117389
26.21293	116296
26.22105	117588
26.22917	114055
26.23730	113132
26.24542	111993
26.25353	105654
26.26167	107667
26.26978	102110
26.27792	106213
26.28603	103605
26.29415	100783
26.30228	95588
26.31040	96457
26.31853	93222
26.32665	94282
26.33477	91954
26.34290	91184
26.35102	94388
26.35913	99991
26.36727	98478
26.37538	99246
26.38352	109461
26.39163	110392
26.39975	118458
26.40788	119940
26.41600	111035
26.42413	116167
26.43225	108789
26.44037	96453
26.44850	90754
26.45662	96520
26.46475	94744
26.47287	97267
26.48098	91599
26.48912	91857
26.49723	95103
26.50535	80432
26.51348	87218
26.52160	80317
26.52973	81697
26.53785	78412
26.54597	75554
26.55410	75859
26.56222	71477
26.57035	75822
26.57847	79281
26.58658	71975
26.59472	72818
26.60283	73489
26.61097	73585
26.61908	73928
26.62720	70503
26.63533	72389
26.64345	75213
26.65157	73922
26.65970	77699
26.66782	80597
26.67595	79231
26.68407	80451
26.69218	76794
26.70032	75860
26.70843	74550
26.71657	71532
26.72468	75766
26.73280	75081
26.74093	69733
26.74905	63564
26.75717	73434
26.76530	70712
26.77342	65688
26.78155	66082
26.78967	66718
26.79778	71733
26.80592	71796
26.81403	68557
26.82217	66131
26.83028	64682
26.83840	71767
26.84653	67510
26.85465	64854
26.86278	69671
26.87090	69489
26.87902	65540
26.88715	60402
26.89527	63760
26.90338	57781
26.91152	64013
26.91963	59058
26.92777	62108
26.93588	61695
26.94400	60628
26.95213	65891
26.96025	67051
26.96838	69721
26.97650	87234
26.98462	124151
26.99275	177275
27.00087	279533
27.00900	400524
27.01712	526245
27.02523	651944
27.03337	732879
27.04148	725322
27.04960	669876
27.05773	567418
27.06585	482251
27.07398	400426
27.08210	319008
27.09022	271233
27.09835	236752
27.10647	221105
27.11460	204766
27.12272	176960
27.13083	175360
27.13897	161256
27.14708	161027
27.15520	149332
27.16333	142380
27.17145	142119
27.17958	140255
27.18770	141082
27.19582	134742
27.20395	136317
27.21207	134397
27.22020	120589
27.22832	116800
27.23643	113480
27.24457	116239
27.25268	111473
27.26082	111506
27.26893	100127
27.27705	100853
27.28518	98774
27.29330	86042
27.30142	88879
27.30955	81132
27.31767	84193
27.32580	81359
27.33392	84749
27.34203	82676
27.35017	83468
27.35828	84204
27.36642	83281
27.37453	74807
27.38265	81333
27.39078	81652
27.39890	74202
27.40702	78643
27.41515	75613
27.42327	73688
27.43140	69849
27.43952	68059
27.44763	70955
27.45577	67931
27.46388	65303
27.47202	67391
27.48013	65924
27.48825	63063
27.49638	66309
27.50450	63257
27.51263	66779
27.52075	65451
27.52887	68366
27.53700	71649
27.54512	72214
27.55323	68686
27.56137	66505
27.56948	69557
27.57762	70663
27.58573	82395
27.59385	90886
27.60198	95964
27.61010	99586
27.61823	90948
27.62635	87265
27.63447	75760
27.64260	71384
27.65072	66683
27.65885	62524
27.66697	64167
27.67508	62095
27.68322	65707
27.69133	70414
27.69945	66093
27.70758	61627
27.71570	61973
27.72383	58563
27.73195	60785
27.74007	56289
27.74820	60882
27.75632	59766
27.76445	55373
27.77257	57992
27.78068	57744
27.78882	64523
27.79693	63565
27.80507	62165
27.81318	60993
27.82130	60847
27.82943	60004
27.83755	56115
27.84567	59628
27.85380	61747
27.86192	57803
27.87005	56058
27.87817	58459
27.88628	52119
27.89442	57620
27.90253	53860
27.91067	56314
27.91878	51742
27.92690	52062
27.93503	51578
27.94315	51517
27.95127	50675
27.95940	50351
27.96752	52084
27.97565	53832
27.98377	54103
27.99188	51768
28.00002	57410
28.00813	52590
28.01627	54304
28.02438	56747
28.03250	66190
28.04063	64969
28.04875	72692
28.05688	69934
28.06500	72446
28.07312	70214
28.08125	65862
28.08937	61110
28.09748	62253
28.10562	64830
28.11373	60696
28.12187	58466
28.12998	56432
28.13810	49747
28.14623	50839
28.15435	47179
28.16248	52222
28.17060	57262
28.17872	53298
28.18685	58144
28.19497	70951
28.20308	81478
28.21122	87630
28.21933	92811
28.22747	95935
28.23558	93145
28.24370	87933
28.25183	77589
28.25995	69833
28.26808	68968
28.27620	59994
28.28432	58190
28.29245	57482
28.30057	68055
28.30870	66101
28.31682	79801
28.32493	96716
28.33307	108340
28.34118	122854
28.34930	130144
28.35743	156447
28.36555	169414
28.37368	188254
28.38180	209014
28.38992	211729
28.39805	219569
28.40617	216846
28.41430	205571
28.42242	204777
28.43053	188995
28.43867	175310
28.44678	159012
28.45492	144791
28.46303	142098
28.47115	132675
28.47928	118141
28.48740	117613
28.49552	116009
28.50365	108318
28.51177	108771
28.51990	103390
28.52802	99718
28.53613	95584
28.54427	92575
28.55238	81961
28.56052	81032
28.56863	80217
28.57675	79095
28.58488	76460
28.59300	73247
28.60112	77049
28.60925	77836
28.61737	73259
28.62550	76576
28.63362	75128
28.64173	82014
28.64987	78301
28.65798	86316
28.66612	86190
28.67423	79817
28.68235	80849
28.69048	70253
28.69860	72070
28.70673	79902
28.71485	70351
28.72297	64519
28.73110	68048
28.73922	66289
28.74733	65593
28.75547	79824
28.76358	80751
28.77172	90461
28.77983	95679
28.78795	96271
28.79608	89975
28.80420	79120
28.81233	76950
28.82045	73506
28.82857	73136
28.83670	64543
28.84482	67975
28.85295	67800
28.86107	61934
28.86918	62488
28.87732	66149
28.88543	66580
28.89355	71223
28.90168	77977
28.90980	72796
28.91793	69255
28.92605	67020
28.93417	63125
28.94230	64449
28.95042	66632
28.95855	67074
28.96667	66614
28.97478	66815
28.98292	59533
28.99103	60186
28.99915	57968
29.00728	58796
29.01540	57939
29.02353	51520
29.03165	52632
29.03977	55371
29.04790	54142
29.05602	53316
29.06415	55039
29.07227	56730
29.08038	57511
29.08852	56787
29.09663	59988
29.10477	56432
29.11288	54847
29.12100	57388
29.12913	56459
29.13725	52312
29.14537	52797
29.15350	51796
29.16162	53685
29.16975	59624
29.17787	57088
29.18598	59956
29.19412	72506
29.20223	84827
29.21037	91272
29.21848	98315
29.22660	105124
29.23473	101004
29.24285	108175
29.25097	123587
29.25910	149100
29.26722	154767
29.27535	156912
29.28347	143628
29.29158	123042
29.29972	90955
29.30783	77223
29.31597	68475
29.32408	59348
29.33220	47280
29.34033	52134
29.34845	48025
29.35658	53677
29.36470	52024
29.37282	52908
29.38095	49407
29.38907	51517
29.39718	48518
29.40532	52110
29.41343	56698
29.42157	56807
29.42968	51353
29.43780	53808
29.44593	54046
29.45405	54919
29.46218	49909
29.47030	53299
29.47842	52626
29.48655	55027
29.49467	54219
29.50280	60374
29.51092	56559
29.51903	54041
29.52717	57686
29.53528	52518
29.54340	54559
29.55153	51044
29.55965	51619
29.56778	49256
29.57590	51234
29.58402	50081
29.59215	49080
29.60027	49665
29.60840	48690
29.61652	45950
29.62463	51169
29.63277	48484
29.64088	46217
29.64900	48640
29.65713	46592
29.66525	46273
29.67338	50989
29.68150	49565
29.68962	49023
29.69775	51384
29.70587	51539
29.71400	50532
29.72212	52110
29.73023	52784
29.73837	49224
29.74648	49227
29.75462	47420
29.76273	46403
29.77085	44573
29.77898	45654
29.78710	46842
29.79522	42028
29.80335	43342
29.81147	43907
29.81960	43981
29.82772	44732
29.83583	42653
29.84397	42465
29.85208	45016
29.86022	44740
29.86833	53716
29.87645	55459
29.88458	65359
29.89270	72851
29.90083	78665
29.90895	82684
29.91707	78553
29.92520	69596
29.93332	64126
29.94143	63335
29.94957	59903
29.95768	56560
29.96582	57807
29.97393	69118
29.98205	72110
29.99018	80876
29.99830	87221
30.00643	100305
30.01455	101444
30.02267	109858
30.03080	113015
30.03892	121083
30.04703	124562
30.05517	122410
30.06328	118878
30.07142	117788
30.07953	117482
30.08765	121102
30.09578	115580
30.10390	112460
30.11203	111516
30.12015	102972
30.12827	102042
30.13640	99584
30.14452	94282
30.15265	90872
30.16077	93506
30.16888	87809
30.17702	87235
30.18513	85805
30.19325	79180
30.20138	78922
30.20950	76134
30.21763	76035
30.22575	75571
30.23387	70423
30.24200	66250
30.25012	66674
30.25825	62765
30.26637	66869
30.27448	57677
30.28262	65541
30.29073	62268
30.29887	62566
30.30698	63233
30.31510	58270
30.32323	58368
30.33135	62407
30.33947	63126
30.34760	57297
30.35572	57305
30.36385	55717
30.37197	57844
30.38008	54846
30.38822	53410
30.39633	51969
30.40447	51148
30.41258	49959
30.42070	48462
30.42883	55657
30.43695	50352
30.44507	47945
30.45320	47766
30.46132	48739
30.46945	49103
30.47757	49891
30.48568	51286
30.49382	51707
30.50193	52175
30.51007	49089
30.51818	49566
30.52630	44765
30.53443	54329
30.54255	49577
30.55068	50514
30.55880	53033
30.56692	49270
30.57505	49018
30.58317	46751
30.59128	50584
30.59942	49247
30.60753	47040
30.61567	46132
30.62378	50285
30.63190	45529
30.64003	46788
30.64815	46774
30.65628	56515
30.66440	59084
30.67252	64237
30.68065	71628
30.68877	75717
30.69688	80906
30.70502	81315
30.71313	79513
30.72127	85889
30.72938	80950
30.73750	87093
30.74563	92755
30.75375	89691
30.76188	95094
30.77000	91531
30.77812	98002
30.78625	110530
30.79437	121461
30.80250	137805
30.81062	147520
30.81873	149005
30.82687	148055
30.83498	134164
30.84310	116623
30.85123	110180
30.85935	102787
30.86748	98290
30.87560	96338
30.88372	98043
30.89185	95390
30.89997	96463
30.90810	94319
30.91622	94204
30.92433	99962
30.93247	92341
30.94058	95079
30.94872	94269
30.95683	86734
30.96495	92458
30.97308	86548
30.98120	88920
30.98932	88896
30.99745	85451
31.00557	86475
31.01370	85253
31.02182	87983
31.02993	87770
31.03807	87838
31.04618	88736
31.05432	86946
31.06243	83212
31.07055	89855
31.07868	92065
31.08680	103995
31.09492	106881
31.10305	112653
31.11117	121277
31.11930	117178
31.12742	110218
31.13553	100257
31.14367	95161
31.15178	93615
31.15992	91975
31.16803	90200
31.17615	90793
31.18428	102789
31.19240	117354
31.20053	134737
31.20865	158445
31.21677	188403
31.22490	203827
31.23302	210748
31.24113	204496
31.24927	181252
31.25738	142913
31.26552	118136
31.27363	105563
31.28175	88333
31.28988	81187
31.29800	76765
31.30613	76833
31.31425	74128
31.32237	75628
31.33050	73711
31.33862	76361
31.34675	76009
31.35487	72663
31.36298	76459
31.37112	76889
31.37923	72054
31.38735	74633
31.39548	75342
31.40360	76144
31.41173	74960
31.41985	70388
31.42797	69397
31.43610	70130
31.44422	64623
31.45235	64536
31.46047	70138
31.46858	63378
31.47672	62923
31.48483	61593
31.49295	62130
31.50108	64284
31.50920	63248
31.51733	68528
31.52545	71229
31.53357	64812
31.54170	64916
31.54982	69396
31.55795	60112
31.56607	60618
31.57418	61071
31.58232	66630
31.59043	60898
31.59857	64670
31.60668	58114
31.61480	58744
31.62293	60878
31.63105	60154
31.63917	58881
31.64730	60446
31.65542	62265
31.66355	61030
31.67167	66319
31.67978	67521
31.68792	66261
31.69603	63216
31.70417	60355
31.71228	59530
31.72040	56106
31.72853	55460
31.73665	54298
31.74477	55510
31.75290	61429
31.76102	57383
31.76915	55369
31.77727	56035
31.78538	52867
31.79352	57029
31.80163	58937
31.80977	56024
31.81788	54912
31.82600	54942
31.83413	57325
31.84225	60296
31.85038	57928
31.85850	57141
31.86662	61501
31.87475	59624
31.88287	63567
31.89098	67297
31.89912	68705
31.90723	70506
31.91537	79178
31.92348	84478
31.93160	89494
31.93973	97379
31.94785	98952
31.95598	101013
31.96410	104487
31.97222	110682
31.98035	107202
31.98847	116137
31.99660	110530
32.00472	114546
32.01283	115403
32.02097	109245
32.02908	99222
32.03720	100970
32.04533	96583
32.05345	100832
32.06158	95956
32.06970	95998
32.07782	92517
32.08595	85327
32.09407	84798
32.10220	79053
32.11032	82004
32.11843	74127
32.12657	77802
32.13468	71931
32.14282	67730
32.15093	65806
32.15905	70554
32.16718	66991
32.17530	64574
32.18342	64618
32.19155	63241
32.19967	63856
32.20780	63900
32.21592	63233
32.22403	64793
32.23217	57733
32.24028	58424
32.24842	62196
32.25653	62309
32.26465	63488
32.27278	61353
32.28090	60733
32.28902	64188
32.29715	62076
32.30527	55856
32.31340	57251
32.32152	55336
32.32963	49427
32.33777	57397
32.34588	56947
32.35402	55640
32.36213	57470
32.37025	54912
32.37838	52824
32.38650	54125
32.39463	63615
32.40275	55929
32.41087	54315
32.41900	52908
32.42712	53130
32.43523	58079
32.44337	50281
32.45148	50458
32.45962	50720
32.46773	52573
32.47585	53825
32.48398	49604
32.49210	50012
32.50023	48399
32.50835	48607
32.51647	49106
32.52460	56460
32.53272	52965
32.54083	53040
32.54897	55936
32.55708	55707
32.56522	55205
32.57333	59164
32.58145	56421
32.58958	51896
32.59770	48382
32.60583	50035
32.61395	48419
32.62207	53081
32.63020	52568
32.63832	46461
32.64645	59982
32.65457	61879
32.66268	63281
32.67082	68211
32.67893	75634
32.68705	65764
32.69518	64371
32.70330	60249
32.71143	59405
32.71955	57532
32.72767	53258
32.73580	53083
32.74392	55099
32.75205	56857
32.76017	52183
32.76828	47814
32.77642	45937
32.78453	47115
32.79267	52445
32.80078	45140
32.80890	48948
32.81703	47741
32.82515	48672
32.83327	46832
32.84140	48122
32.84952	48495
32.85765	46050
32.86577	47590
32.87388	44362
32.88202	49537
32.89013	48139
32.89827	49780
32.90638	48213
32.91450	48207
32.92263	49505
32.93075	53738
32.93887	51655
32.94700	49761
32.95512	50803
32.96325	47828
32.97137	50316
32.97948	54648
32.98762	60879
32.99573	66656
33.00387	71910
33.01198	73806
33.02010	73981
33.02823	62795
33.03635	61301
33.04448	60175
33.05260	61788
33.06072	67375
33.06885	61099
33.07697	67483
33.08508	68191
33.09322	73766
33.10133	78217
33.10947	76213
33.11758	82384
33.12570	83921
33.13383	78177
33.14195	76648
33.15008	64691
33.15820	60385
33.16632	57954
33.17445	54369
33.18257	52911
33.19070	55001
33.19882	53874
33.20693	53010
33.21507	53271
33.22318	53500
33.23130	51487
33.23943	51614
33.24755	50447
33.25568	53239
33.26380	50385
33.27192	47922
33.28005	54682
33.28817	50586
33.29630	49306
33.30442	50470
33.31253	48643
33.32067	51198
33.32878	51672
33.33690	47286
33.34503	47923
33.35315	53310
33.36128	54108
33.36940	53368
33.37752	51652
33.38565	55068
33.39377	50876
33.40190	48736
33.41002	49519
33.41813	47867
33.42627	46211
33.43438	47814
33.44252	50141
33.45063	48773
33.45875	44606
33.46688	49541
33.47500	47803
33.48312	48868
33.49125	46479
33.49937	50967
33.50750	52991
33.51562	53508
33.52373	52356
33.53187	55799
33.53998	51855
33.54812	59094
33.55623	60812
33.56435	63607
33.57248	57524
33.58060	57881
33.58872	50842
33.59685	56058
33.60497	50581
33.61310	49215
33.62122	47551
33.62933	50418
33.63747	50809
33.64558	48997
33.65372	55276
33.66183	52769
33.66995	54867
33.67808	53920
33.68620	49201
33.69433	50894
33.70245	49536
33.71057	47144
33.71870	45201
33.72682	48365
33.73493	45617
33.74307	47252
33.75118	51324
33.75932	46618
33.76743	45902
33.77555	47789
33.78368	48897
33.79180	44385
33.79993	47824
33.80805	50854
33.81617	47156
33.82430	49615
33.83242	51500
33.84055	49701
33.84867	46781
33.85678	52811
33.86492	50042
33.87303	54269
33.88115	51811
33.88928	50338
33.89740	49943
33.90553	49166
33.91365	51075
33.92177	52439
33.92990	53175
33.93802	50886
33.94615	49897
33.95427	49647
33.96238	55367
33.97052	46974
33.97863	45193
33.98675	48519
33.99488	50743
34.00300	48241
34.01113	49376
34.01925	46634
34.02737	46389
34.03550	45829
34.04362	46441
34.05175	46402
34.05987	46789
34.06798	50635
34.07612	49659
34.08423	53676
34.09237	48075
34.10048	46135
34.10860	49028
34.11673	49813
34.12485	47012
34.13297	48346
34.14110	48886
34.14922	50700
34.15735	51541
34.16547	49662
34.17358	55593
34.18172	50193
34.18983	49515
34.19797	48391
34.20608	42599
34.21420	45558
34.22233	48126
34.23045	49589
34.23858	47621
34.24670	48472
34.25482	45369
34.26295	49376
34.27107	47190
34.27918	50057
34.28732	48117
34.29543	49141
34.30357	47940
34.31168	50554
34.31980	49325
34.32793	49339
34.33605	48074
34.34418	51272
34.35230	48009
34.36042	53809
34.36855	48421
34.37667	51873
34.38478	50827
34.39292	48766
34.40103	48452
34.40917	47437
34.41728	47275
34.42540	53115
34.43353	51871
34.44165	50447
34.44978	50484
34.45790	49767
34.46602	48164
34.47415	46056
34.48227	52796
34.49040	50464
34.49852	51607
34.50663	52773
34.51477	58935
34.52288	66165
34.53100	74634
34.53913	88376
34.54725	99629
34.55538	102322
34.56350	106519
34.57162	108751
34.57975	103470
34.58787	96935
34.59600	94957
34.60412	87059
34.61223	81985
34.62037	80736
34.62848	78327
34.63660	74101
34.64473	66722
34.65285	66449
34.66098	72074
34.66910	61776
34.67722	63179
34.68535	61107
34.69347	61764
34.70160	61608
34.70972	62993
34.71783	59932
34.72597	58186
34.73408	58617
34.74222	54118
34.75033	58197
34.75845	55533
34.76658	59706
34.77470	59537
34.78282	54983
34.79095	59880
34.79907	58779
34.80720	64730
34.81532	57101
34.82343	59649
34.83157	59934
34.83968	58491
34.84782	57798
34.85593	56384
34.86405	54545
34.87218	57565
34.88030	56194
34.88843	52056
34.89655	54278
34.90467	55020
34.91280	57420
34.92092	56818
34.92903	60286
34.93717	61156
34.94528	63883
34.95342	63808
34.96153	71308
34.96965	66088
34.97778	71189
34.98590	64701
34.99403	62698
35.00215	58574
35.01027	56948
35.01840	57914
35.02652	56631
35.03463	55564
35.04277	57445
35.05088	56068
35.05902	52192
35.06713	58489
35.07525	52949
35.08338	55621
35.09150	47872
35.09963	53836
35.10775	50677
35.11587	51019
35.12400	54257
35.13212	52276
35.14025	56209
35.14837	56128
35.15648	53333
35.16462	56094
35.17273	57436
35.18085	55387
35.18898	52604
35.19710	53762
35.20523	51820
35.21335	51385
35.22147	56330
35.22960	49768
35.23772	52380
35.24585	49905
35.25397	60497
35.26208	53782
35.27022	55138
35.27833	53946
35.28647	54222
35.29458	56627
35.30270	56806
35.31083	53395
35.31895	53858
35.32707	51886
35.33520	47386
35.34332	50196
35.35145	51650
35.35957	49838
35.36768	47197
35.37582	48350
35.38393	49239
35.39207	50629
35.40018	54989
35.40830	50601
35.41643	54112
35.42455	54087
35.43267	53934
35.44080	55677
35.44892	58913
35.45705	56103
35.46517	56566
35.47328	57472
35.48142	56655
35.48953	57525
35.49767	57551
35.50578	54814
35.51390	54343
35.52203	51377
35.53015	53521
35.53828	60318
35.54640	52926
35.55452	55832
35.56265	53739
35.57077	54278
35.57888	53401
35.58702	51843
35.59513	51660
35.60327	53821
35.61138	55226
35.61950	53170
35.62763	53711
35.63575	51772
35.64388	52145
35.65200	52841
35.66012	55480
35.66825	59053
35.67637	58149
35.68450	62306
35.69262	57438
35.70073	56545
35.70887	63162
35.71698	57227
35.72510	54502
35.73323	54551
35.74135	62273
35.74948	56113
35.75760	66357
35.76572	64808
35.77385	62889
35.78197	58700
35.79010	60087
35.79822	59392
35.80633	60957
35.81447	60564
35.82258	54219
35.83070	59170
35.83883	55247
35.84695	56713
35.85508	52030
35.86320	57321
35.87132	56143
35.87945	57785
35.88757	52772
35.89570	53277
35.90382	52801
35.91193	54962
35.92007	54493
35.92818	53306
35.93632	52300
35.94443	47766
35.95255	51963
35.96068	53497
35.96880	53964
35.97692	55953
35.98505	51880
35.99317	53735
36.00130	56934
36.00942	54536
36.01753	55495
36.02567	54591
36.03378	54924
36.04192	55943
36.05003	56901
36.05815	54424
36.06628	55101
36.07440	55366
36.08252	58422
36.09065	52485
36.09877	54256
36.10690	59283
36.11502	50824
36.12313	56591
36.13127	55932
36.13938	60582
36.14752	60068
36.15563	62672
36.16375	61030
36.17188	58542
36.18000	58278
36.18813	56559
36.19625	58282
36.20437	62443
36.21250	66412
36.22062	64069
36.22873	68099
36.23687	68061
36.24498	73874
36.25312	72175
36.26123	75768
36.26935	73782
36.27748	76202
36.28560	76089
36.29373	82537
36.30185	87276
36.30997	97702
36.31810	98958
36.32622	94654
36.33435	95129
36.34247	86465
36.35058	86764
36.35872	79642
36.36683	85134
36.37495	83988
36.38308	81820
36.39120	81765
36.39933	85747
36.40745	83566
36.41557	79848
36.42370	84423
36.43182	80130
36.43995	80025
36.44807	73987
36.45618	74626
36.46432	76180
36.47243	75381
36.48055	71784
36.48868	74317
36.49680	75584
36.50493	79357
36.51305	73937
36.52117	72711
36.52930	72657
36.53742	72500
36.54555	75185
36.55367	72724
36.56178	72830
36.56992	71020
36.57803	71726
36.58617	69790
36.59428	72273
36.60240	68411
36.61053	71686
36.61865	72237
36.62677	70895
36.63490	73193
36.64302	74910
36.65115	77373
36.65927	77171
36.66738	78534
36.67552	75549
36.68363	67496
36.69177	69460
36.69988	71590
36.70800	73045
36.71613	69736
36.72425	70007
36.73238	71053
36.74050	66092
36.74862	74012
36.75675	73299
36.76487	73381
36.77298	65752
36.78112	65502
36.78923	67478
36.79737	66674
36.80548	63726
36.81360	69318
36.82173	63232
36.82985	65791
36.83798	65395
36.84610	68179
36.85422	63745
36.86235	64170
36.87047	67807
36.87858	69868
36.88672	68534
36.89483	68860
36.90297	65882
36.91108	65576
36.91920	66640
36.92733	65972
36.93545	74435
36.94358	69226
36.95170	73773
36.95982	81643
36.96795	82195
36.97607	84695
36.98420	80924
36.99232	70920
37.00043	75387
37.00857	72789
37.01668	68485
37.02480	69259
37.03293	64299
37.04105	66153
37.04918	70605
37.05730	66991
37.06542	67392
37.07355	66353
37.08167	67050
37.08980	63326
37.09792	67164
37.10603	68389
37.11417	68201
37.12228	69483
37.13040	67534
37.13853	68313
37.14665	65676
37.15478	66738
37.16290	64407
37.17102	73651
37.17915	64831
37.18727	66485
37.19540	64792
37.20352	67268
37.21163	66058
37.21977	66730
37.22788	63586
37.23602	66318
37.24413	68626
37.25225	65611
37.26038	69031
37.26850	64375
37.27662	66196
37.28475	69180
37.29287	65577
37.30100	66960
37.30912	69490
37.31723	74580
37.32537	75651
37.33348	83319
37.34162	91677
37.34973	103672
37.35785	104520
37.36598	110769
37.37410	103103
37.38223	103019
37.39035	94299
37.39847	90106
37.40660	94321
37.41472	82889
37.42283	85184
37.43097	82124
37.43908	84271
37.44722	81556
37.45533	75704
37.46345	80456
37.47158	81483
37.47970	81192
37.48783	76613
