Z:\data\JTB-E02\BACandBLUE\JTB-E02-198-10.D Fri Feb 22 13:05:02 2019
Start of data points
2.09513	74009
2.10325	75441
2.11137	71796
2.11950	74448
2.12762	75477
2.13575	74692
2.14387	75250
2.15198	73853
2.16012	72445
2.16823	71284
2.17637	71430
2.18448	69955
2.19260	69973
2.20073	71150
2.20885	66980
2.21697	71949
2.22510	66661
2.23322	63937
2.24135	65577
2.24947	64524
2.25758	96139
2.26572	294410
2.27383	636438
2.28197	809683
2.29008	514143
2.29820	324440
2.30633	267004
2.31445	238585
2.32258	208377
2.33070	192356
2.33882	179363
2.34695	166000
2.35507	151412
2.36318	152425
2.37132	140119
2.37943	136442
2.38757	128895
2.39568	130681
2.40380	123418
2.41193	120158
2.42005	116136
2.42818	114341
2.43630	115831
2.44442	114290
2.45255	112600
2.46067	124467
2.46880	124996
2.47692	101966
2.48503	111538
2.49317	115688
2.50128	108217
2.50940	107340
2.51753	103054
2.52565	91099
2.53378	97346
2.54190	98110
2.55002	98834
2.55815	104365
2.56627	104893
2.57440	99344
2.58252	98377
2.59063	98962
2.59877	141336
2.60688	281091
2.61500	403910
2.62313	320577
2.63125	212149
2.63938	170439
2.64750	144052
2.65562	126710
2.66375	125284
2.67187	111365
2.68000	113797
2.68812	107197
2.69623	101074
2.70437	100922
2.71248	98198
2.72062	100526
2.72873	102059
2.73685	102067
2.74498	93851
2.75310	95188
2.76122	95577
2.76935	83546
2.77747	88937
2.78560	85116
2.79372	88959
2.80183	100445
2.80997	105211
2.81808	102853
2.82622	97664
2.83433	94066
2.84245	97511
2.85058	92506
2.85870	97965
2.86682	98637
2.87495	94909
2.88307	88906
2.89120	94536
2.89932	93831
2.90743	89775
2.91557	83015
2.92368	82022
2.93182	77770
2.93993	81707
2.94805	78523
2.95618	79696
2.96430	84670
2.97243	91091
2.98055	85206
2.98867	83877
2.99680	95520
3.00492	130438
3.01303	141814
3.02117	119580
3.02928	97333
3.03742	90955
3.04553	90090
3.05365	89291
3.06178	95354
3.06990	104829
3.07803	190593
3.08615	549082
3.09427	1209678
3.10240	2134927
3.11052	3080004
3.11865	3021517
3.12677	2140270
3.13488	1509538
3.14302	1209877
3.15113	996401
3.15925	831345
3.16738	699691
3.17550	608969
3.18363	529332
3.19175	470126
3.19987	418128
3.20800	371553
3.21612	344874
3.22425	313308
3.23237	293919
3.24048	270820
3.24862	248100
3.25673	233896
3.26485	217462
3.27298	210971
3.28110	243107
3.28923	438128
3.29735	1158759
3.30547	2521117
3.31360	3594466
3.32172	3609229
3.32985	2864229
3.33797	2160159
3.34608	1723355
3.35422	1425264
3.36233	1233697
3.37047	1097849
3.37858	988569
3.38670	926272
3.39483	876828
3.40295	824465
3.41107	772946
3.41920	729335
3.42732	670771
3.43545	625876
3.44357	565192
3.45168	534066
3.45982	514944
3.46793	507108
3.47607	508098
3.48418	492722
3.49230	481101
3.50043	491346
3.50855	473287
3.51668	426413
3.52480	410992
3.53292	409417
3.54105	383261
3.54917	362803
3.55728	336161
3.56542	352415
3.57353	407418
3.58167	450890
3.58978	422801
3.59790	369468
3.60603	334065
3.61415	323094
3.62228	318039
3.63040	300591
3.63852	284778
3.64665	281479
3.65477	270633
3.66288	271944
3.67102	287640
3.67913	294643
3.68727	307428
3.69538	297721
3.70350	305486
3.71163	294372
3.71975	274463
3.72788	261722
3.73600	249822
3.74412	242140
3.75225	226272
3.76037	221137
3.76850	217860
3.77662	233154
3.78473	290283
3.79287	384147
3.80098	565604
3.80910	1072280
3.81723	1823108
3.82535	2072641
3.83348	1656534
3.84160	1175158
3.84972	896915
3.85785	743436
3.86597	633645
3.87410	569207
3.88222	509764
3.89033	473836
3.89847	440677
3.90658	432549
3.91470	403422
3.92283	395739
3.93095	381474
3.93908	381830
3.94720	475120
3.95532	800436
3.96345	1411018
3.97157	1804933
3.97970	1592170
3.98782	1224275
3.99593	1544981
4.00407	3639760
4.01218	7182047
4.02032	9416876
4.02843	7852805
4.03655	5021691
4.04468	2997423
4.05280	2061787
4.06092	1570333
4.06905	1295763
4.07717	1052418
4.08530	895282
4.09342	803229
4.10153	700373
4.10967	646263
4.11778	605099
4.12592	561951
4.13403	547427
4.14215	516054
4.15028	534080
4.15840	539088
4.16653	536779
4.17465	513637
4.18277	481601
4.19090	413411
4.19902	378615
4.20713	359964
4.21527	374537
4.22338	498518
4.23152	719806
4.23963	892466
4.24775	805637
4.25588	665978
4.26400	511331
4.27213	452282
4.28025	395383
4.28837	361505
4.29650	325868
4.30462	299525
4.31275	291094
4.32087	284942
4.32898	269164
4.33712	263283
4.34523	261590
4.35335	256758
4.36148	247483
4.36960	243839
4.37773	237420
4.38585	231310
4.39397	225786
4.40210	226309
4.41022	231346
4.41835	232036
4.42647	230440
4.43458	226045
4.44272	226207
4.45083	222898
4.45895	223388
4.46708	227074
4.47520	231886
4.48333	248582
4.49145	243058
4.49957	276245
4.50770	294652
4.51582	310452
4.52395	303571
4.53207	272849
4.54018	250575
4.54832	238667
4.55643	221461
4.56457	225531
4.57268	218724
4.58080	217805
4.58893	212395
4.59705	196163
4.60517	197340
4.61330	194686
4.62142	189468
4.62955	194115
4.63767	193850
4.64578	201152
4.65392	196031
4.66203	207600
4.67017	240439
4.67828	247892
4.68640	234585
4.69453	207457
4.70265	188974
4.71077	179378
4.71890	168862
4.72702	169699
4.73515	163547
4.74327	161871
4.75138	167989
4.75952	165271
4.76763	165200
4.77577	172431
4.78388	178189
4.79200	175247
4.80013	167525
4.80825	198436
4.81638	203673
4.82450	192676
4.83262	183895
4.84075	184269
4.84887	193258
4.85698	187057
4.86512	176367
4.87323	184207
4.88137	186377
4.88948	196964
4.89760	199305
4.90573	188070
4.91385	177674
4.92198	172971
4.93010	173916
4.93822	228886
4.94635	433305
4.95447	943346
4.96260	1696728
4.97072	2310014
4.97883	2350546
4.98697	1962733
4.99508	1462674
5.00320	1085732
5.01133	846562
5.01945	730207
5.02758	625588
5.03570	566617
5.04382	509429
5.05195	483813
5.06007	447828
5.06820	412907
5.07632	396998
5.08443	383499
5.09257	352498
5.10068	340265
5.10880	332711
5.11693	306076
5.12505	323774
5.13318	315367
5.14130	298958
5.14942	302014
5.15755	305245
5.16567	306921
5.17380	335666
5.18192	377756
5.19003	457507
5.19817	503582
5.20628	468577
5.21442	406335
5.22253	346226
5.23065	296366
5.23878	287425
5.24690	287479
5.25502	288016
5.26315	270880
5.27127	253282
5.27940	237188
5.28752	243279
5.29563	235230
5.30377	222582
5.31188	239844
5.32002	237032
5.32813	243532
5.33625	250839
5.34438	257936
5.35250	265088
5.36063	273109
5.36875	270704
5.37687	272908
5.38500	263603
5.39312	250153
5.40123	253519
5.40937	220901
5.41748	209598
5.42562	214797
5.43373	203623
5.44185	206302
5.44998	197601
5.45810	212856
5.46623	217314
5.47435	220032
5.48247	221089
5.49060	216215
5.49872	211288
5.50683	211272
5.51497	213752
5.52308	199058
5.53122	213739
5.53933	208886
5.54745	203927
5.55558	197070
5.56370	178749
5.57183	191862
5.57995	201601
5.58807	227975
5.59620	247442
5.60432	264092
5.61245	256390
5.62057	241247
5.62868	237126
5.63682	225407
5.64493	213905
5.65305	223948
5.66118	213643
5.66930	200849
5.67743	208242
5.68555	209972
5.69367	220870
5.70180	253523
5.70992	278897
5.71805	275631
5.72617	249805
5.73428	222753
5.74242	215009
5.75053	201154
5.75865	203723
5.76678	201246
5.77490	194586
5.78303	199697
5.79115	194592
5.79927	187930
5.80740	188463
5.81552	174578
5.82365	173396
5.83177	173070
5.83988	175396
5.84802	174654
5.85613	173600
5.86427	166153
5.87238	165073
5.88050	163816
5.88863	166278
5.89675	163224
5.90487	158351
5.91300	160798
5.92112	146802
5.92925	137508
5.93737	132575
5.94548	139131
5.95362	154715
5.96173	152011
5.96987	153510
5.97798	162084
5.98610	164609
5.99423	152643
6.00235	150791
6.01048	149512
6.01860	145813
6.02672	143422
6.03485	141720
6.04297	145449
6.05108	159416
6.05922	158344
6.06733	160672
6.07547	163663
6.08358	158992
6.09170	152754
6.09983	143074
6.10795	134240
6.11608	134954
6.12420	128488
6.13232	132709
6.14045	132795
6.14857	140857
6.15668	138353
6.16482	154963
6.17293	168766
6.18107	172975
6.18918	171911
6.19730	167030
6.20543	150174
6.21355	157862
6.22168	151705
6.22980	158229
6.23792	163629
6.24605	173080
6.25417	184907
6.26230	191280
6.27042	189591
6.27853	187877
6.28667	201357
6.29478	187579
6.30290	182367
6.31103	166492
6.31915	174408
6.32728	180279
6.33540	177295
6.34352	184242
6.35165	186046
6.35977	186806
6.36790	196928
6.37602	202318
6.38413	205007
6.39227	200865
6.40038	205271
6.40852	208310
6.41663	212366
6.42475	210255
6.43288	205344
6.44100	211240
6.44912	215379
6.45725	227545
6.46537	243694
6.47350	247626
6.48162	226732
6.48973	222574
6.49787	219355
6.50598	223268
6.51412	215317
6.52223	222217
6.53035	223722
6.53848	222478
6.54660	227708
6.55472	233048
6.56285	239753
6.57097	247334
6.57910	245011
6.58722	242700
6.59533	239201
6.60347	230379
6.61158	239258
6.61972	235591
6.62783	246336
6.63595	244956
6.64408	253371
6.65220	257918
6.66033	265071
6.66845	304738
6.67657	320353
6.68470	325507
6.69282	302272
6.70093	291558
6.70907	289711
6.71718	296726
6.72532	301300
6.73343	296779
6.74155	280978
6.74968	218667
6.75780	201955
6.76593	186159
6.77405	181247
6.78217	171201
6.79030	163195
6.79842	164123
6.80655	154609
6.81467	151440
6.82278	145696
6.83092	148992
6.83903	145512
6.84715	152408
6.85528	155367
6.86340	153011
6.87153	154343
6.87965	150046
6.88777	131150
6.89590	123838
6.90402	110650
6.91215	102644
6.92027	98084
6.92838	100179
6.93652	95994
6.94463	92699
6.95275	106171
6.96088	104479
6.96900	111185
6.97713	120506
6.98525	133453
6.99337	135450
7.00150	138570
7.00962	133538
7.01775	114238
7.02587	107890
7.03398	104892
7.04212	95765
7.05023	99124
7.05837	95352
7.06648	94663
7.07460	89003
7.08273	88533
7.09085	89785
7.09897	90830
7.10710	100643
7.11522	107068
7.12335	128684
7.13147	155550
7.13958	168886
7.14772	166671
7.15583	161739
7.16397	157703
7.17208	163875
7.18020	162422
7.18833	141177
7.19645	129198
7.20457	109772
7.21270	104392
7.22082	101347
7.22895	108200
7.23707	118830
7.24518	121618
7.25332	114194
7.26143	108653
7.26957	97892
7.27768	95255
7.28580	93028
7.29393	89850
7.30205	91860
7.31018	80531
7.31830	83938
7.32642	82359
7.33455	82583
7.34267	76535
7.35078	80228
7.35892	83242
7.36703	79747
7.37517	87252
7.38328	86481
7.39140	89147
7.39953	91908
7.40765	90927
7.41578	90739
7.42390	86554
7.43202	87661
7.44015	86046
7.44827	84076
7.45640	87500
7.46452	90890
7.47263	89676
7.48077	92124
7.48888	89659
7.49700	87839
7.50513	84620
7.51325	79058
7.52138	74754
7.52950	75585
7.53762	79956
7.54575	79729
7.55387	79639
7.56200	77463
7.57012	77992
7.57823	77113
7.58637	81126
7.59448	86765
7.60260	77430
7.61073	82998
7.61885	82798
7.62698	84154
7.63510	81946
7.64322	78911
7.65135	84236
7.65947	80789
7.66760	80460
7.67572	77148
7.68383	77305
7.69197	75797
7.70008	78863
7.70822	84956
7.71633	83071
7.72445	85101
7.73258	79866
7.74070	80789
7.74882	76403
7.75695	75836
7.76507	75668
7.77320	74833
7.78132	73065
7.78943	71613
7.79757	68415
7.80568	71993
7.81382	72452
7.82193	65888
7.83005	63078
7.83818	67485
7.84630	71891
7.85443	69360
7.86255	63617
7.87067	65826
7.87880	67557
7.88692	68057
7.89503	70887
7.90317	69980
7.91128	65629
7.91942	72959
7.92753	83908
7.93565	113787
7.94378	156238
7.95190	199515
7.96003	220580
7.96815	215983
7.97627	173447
7.98440	133022
7.99252	106870
8.00063	93608
8.00877	91680
8.01688	86164
8.02502	81801
8.03313	81831
8.04125	80592
8.04938	71849
8.05750	74131
8.06563	67987
8.07375	73224
8.08187	79685
8.09000	71767
8.09812	69282
8.10625	69007
8.11437	73539
8.12248	78331
8.13062	79624
8.13873	82610
8.14685	92530
8.15498	93163
8.16310	87021
8.17123	90705
8.17935	71103
8.18747	69755
8.19560	70367
8.20372	66017
8.21185	66014
8.21997	66073
8.22808	65332
8.23622	64231
8.24433	63370
8.25245	67175
8.26058	63276
8.26870	63179
8.27683	68259
8.28495	64703
8.29307	70292
8.30120	69819
8.30932	83068
8.31745	95776
8.32557	96599
8.33368	103068
8.34182	98367
8.34993	89470
8.35807	83644
8.36618	71388
8.37430	67950
8.38243	68427
8.39055	67588
8.39867	71761
8.40680	69894
8.41492	69041
8.42305	67188
8.43117	67168
8.43928	63785
8.44742	62950
8.45553	62192
8.46367	67162
8.47178	68199
8.47990	66678
8.48803	62813
8.49615	66497
8.50428	61311
8.51240	63489
8.52052	65045
8.52865	69212
8.53677	96468
8.54488	168676
8.55302	259806
8.56113	338110
8.56927	366688
8.57738	293844
8.58550	219740
8.59363	139601
8.60175	110456
8.60988	91628
8.61800	89257
8.62612	87329
8.63425	82112
8.64237	75017
8.65048	82289
8.65862	75573
8.66673	74359
8.67487	73650
8.68298	75441
8.69110	79669
8.69923	84097
8.70735	82730
8.71548	84675
8.72360	82581
8.73172	80628
8.73985	75670
8.74797	79401
8.75610	72625
8.76422	91444
8.77233	165073
8.78047	355420
8.78858	656997
8.79670	1000447
8.80483	1198780
8.81295	1159781
8.82108	897726
8.82920	593276
8.83732	386641
8.84545	281991
8.85357	258979
8.86170	234958
8.86982	234721
8.87793	228107
8.88607	204422
8.89418	194733
8.90232	174932
8.91043	162859
8.91855	153458
8.92668	150665
8.93480	144528
8.94292	145265
8.95105	146432
8.95917	139700
8.96730	127788
8.97542	129898
8.98353	123073
8.99167	122923
8.99978	123285
9.00792	119727
9.01603	120809
9.02415	123048
9.03228	120767
9.04040	117542
9.04852	110650
9.05665	107322
9.06477	107421
9.07290	110837
9.08102	110316
9.08913	105890
9.09727	110419
9.10538	123596
9.11352	123149
9.12163	122898
9.12975	117072
9.13788	110435
9.14600	107014
9.15413	104861
9.16225	104100
9.17037	100349
9.17850	98744
9.18662	96919
9.19473	98740
9.20287	92894
9.21098	90432
9.21912	96236
9.22723	93962
9.23535	91731
9.24348	93088
9.25160	93985
9.25973	94467
9.26785	92563
9.27597	92434
9.28410	86309
9.29222	87467
9.30033	84155
9.30847	77783
9.31658	79508
9.32472	77261
9.33283	81328
9.34095	82775
9.34908	76843
9.35720	76586
9.36533	80648
9.37345	75828
9.38157	77415
9.38970	80898
9.39782	79262
9.40595	78807
9.41407	81800
9.42218	80938
9.43032	75880
9.43843	81011
9.44655	83354
9.45468	87359
9.46280	80501
9.47093	78071
9.47905	78807
9.48717	72089
9.49530	70932
9.50342	71876
9.51155	73107
9.51967	79039
9.52778	85406
9.53592	92554
9.54403	99964
9.55217	101910
9.56028	102146
9.56840	100306
9.57653	85355
9.58465	80739
9.59277	79798
9.60090	74987
9.60902	69481
9.61715	68736
9.62527	63841
9.63338	59430
9.64152	56516
9.64963	53394
9.65777	54352
9.66588	54168
9.67400	53120
9.68213	49957
9.69025	46930
9.69838	49271
9.70650	51070
9.71462	46106
9.72275	46382
9.73087	51470
9.73898	45330
9.74712	46097
9.75523	47900
9.76337	50568
9.77148	49843
9.77960	45357
9.78773	49201
9.79585	49401
9.80398	50230
9.81210	51424
9.82022	44663
9.82835	45523
9.83647	45766
9.84458	51848
9.85272	45948
9.86083	47748
9.86897	49048
9.87708	52121
9.88520	54178
9.89333	49878
9.90145	49052
9.90958	52302
9.91770	48725
9.92582	52294
9.93395	56494
9.94207	65010
9.95020	74493
9.95832	91039
9.96643	89378
9.97457	87660
9.98268	82229
9.99080	74996
9.99893	60711
10.00705	59556
10.01518	61797
10.02330	62580
10.03142	64407
10.03955	64523
10.04767	55421
10.05580	55619
10.06392	54997
10.07203	49958
10.08017	52379
10.08828	55917
10.09640	54323
10.10453	57465
10.11265	57365
10.12078	57224
10.12890	52290
10.13702	52808
10.14515	51457
10.15327	48643
10.16140	48202
10.16952	48560
10.17763	48053
10.18577	50465
10.19388	48492
10.20202	46559
10.21013	46833
10.21825	47798
10.22638	47844
10.23450	46585
10.24262	54310
10.25075	60528
10.25887	63948
10.26700	62922
10.27512	62836
10.28323	56932
10.29137	55863
10.29948	51538
10.30762	54704
10.31573	50661
10.32385	51215
10.33198	53254
10.34010	56259
10.34823	54004
10.35635	58478
10.36447	54124
10.37260	50996
10.38072	51913
10.38883	54358
10.39697	50916
10.40508	50768
10.41322	49113
10.42133	47393
10.42945	45155
10.43758	46019
10.44570	44808
10.45383	47809
10.46195	48968
10.47007	42854
10.47820	42783
10.48632	46863
10.49443	45566
10.50257	47960
10.51068	41879
10.51882	45698
10.52693	45610
10.53505	45213
10.54318	39905
10.55130	44465
10.55943	42249
10.56755	42524
10.57567	42834
10.58380	41121
10.59192	45167
10.60005	46534
10.60817	42916
10.61628	46925
10.62442	46305
10.63253	43290
10.64065	42229
10.64878	39809
10.65690	42923
10.66503	39484
10.67315	45663
10.68127	52924
10.68940	57993
10.69752	57406
10.70565	47856
10.71377	54693
10.72188	55164
10.73002	47143
10.73813	48100
10.74627	51230
10.75438	47998
10.76250	59155
10.77063	55370
10.77875	55262
10.78687	51777
10.79500	44390
10.80312	47186
10.81125	45281
10.81937	39639
10.82748	37415
10.83562	41292
10.84373	38105
10.85187	43558
10.85998	40797
10.86810	38413
10.87623	39750
10.88435	42709
10.89247	40061
10.90060	40247
10.90872	37817
10.91685	38087
10.92497	44635
10.93308	39016
10.94122	40135
10.94933	41074
10.95747	34860
10.96558	42310
10.97370	37498
10.98183	39346
10.98995	37566
10.99808	37731
11.00620	42080
11.01432	34017
11.02245	38051
11.03057	34645
11.03868	35393
11.04682	36669
11.05493	36999
11.06307	37688
11.07118	35409
11.07930	31421
11.08743	35633
11.09555	34006
11.10368	36527
11.11180	34641
11.11992	39196
11.12805	33423
11.13617	35473
11.14428	37287
11.15242	34968
11.16053	34798
11.16867	33792
11.17678	36751
11.18490	40193
11.19303	44848
11.20115	43310
11.20928	40203
11.21740	38668
11.22552	40418
11.23365	41944
11.24177	40313
11.24990	37433
11.25802	37128
11.26613	40178
11.27427	43609
11.28238	38937
11.29050	38884
11.29863	39782
11.30675	43000
11.31488	44073
11.32300	45440
11.33112	47165
11.33925	42938
11.34737	42729
11.35550	37940
11.36362	34861
11.37173	32845
11.37987	37467
11.38798	33079
11.39612	36392
11.40423	36209
11.41235	34521
11.42048	35750
11.42860	34251
11.43672	35696
11.44485	37277
11.45297	36660
11.46110	34209
11.46922	33555
11.47733	37519
11.48547	49516
11.49358	59884
11.50172	79241
11.50983	92456
11.51795	94984
11.52608	91557
11.53420	72383
11.54232	60277
11.55045	49902
11.55857	44800
11.56670	48603
11.57482	41954
11.58293	42832
11.59107	39988
11.59918	42050
11.60732	40785
11.61543	38173
11.62355	40481
11.63168	43410
11.63980	41946
11.64793	40661
11.65605	37448
11.66417	35182
11.67230	38506
11.68042	42279
11.68853	38091
11.69667	42426
11.70478	43782
11.71292	51573
11.72103	43323
11.72915	44767
11.73728	41447
11.74540	41492
11.75353	38611
11.76165	42779
11.76977	43314
11.77790	41748
11.78602	38795
11.79415	39315
11.80227	37084
11.81038	38684
11.81852	41265
11.82663	39340
11.83475	39197
11.84288	45834
11.85100	47874
11.85913	52873
11.86725	60571
11.87537	64259
11.88350	62342
11.89162	55766
11.89975	48717
11.90787	44581
11.91598	39685
11.92412	39288
11.93223	40484
11.94035	43312
11.94848	42928
11.95660	41873
11.96473	41617
11.97285	39992
11.98097	38307
11.98910	35838
11.99722	40775
12.00535	48108
12.01347	68190
12.02158	69139
12.02972	72508
12.03783	68153
12.04597	55702
12.05408	50294
12.06220	49455
12.07033	45922
12.07845	46087
12.08657	44947
12.09470	39295
12.10282	39382
12.11095	41537
12.11907	42266
12.12718	40163
12.13532	40279
12.14343	39623
12.15157	38460
12.15968	40304
12.16780	40193
12.17593	39315
12.18405	40019
12.19218	37049
12.20030	35995
12.20842	36991
12.21655	35573
12.22467	36510
12.23278	38583
12.24092	43039
12.24903	40607
12.25717	38040
12.26528	38598
12.27340	38964
12.28153	40807
12.28965	38487
12.29778	37962
12.30590	38282
12.31402	36318
12.32215	39878
12.33027	35035
12.33838	36732
12.34652	41038
12.35463	41944
12.36277	44219
12.37088	58608
12.37900	67500
12.38713	66669
12.39525	59735
12.40338	49174
12.41150	44438
12.41962	43628
12.42775	45375
12.43587	48875
12.44400	50622
12.45212	56657
12.46023	58147
12.46837	58719
12.47648	52505
12.48460	51088
12.49273	41380
12.50085	37843
12.50898	42201
12.51710	40636
12.52522	39483
12.53335	37023
12.54147	36237
12.54960	34503
12.55772	41547
12.56583	42152
12.57397	41747
12.58208	44290
12.59020	44519
12.59833	45106
12.60645	36785
12.61458	38297
12.62270	37472
12.63082	37340
12.63895	34331
12.64707	38949
12.65520	35378
12.66332	38348
12.67143	38306
12.67957	36675
12.68768	36493
12.69582	31685
12.70393	35715
12.71205	37563
12.72018	37930
12.72830	44301
12.73642	44024
12.74455	49617
12.75267	47203
12.76080	47998
12.76892	43992
12.77703	44517
12.78517	37798
12.79328	37573
12.80142	39394
12.80953	34605
12.81765	33071
12.82578	33003
12.83390	33846
12.84203	29448
12.85015	29514
12.85827	33649
12.86640	31591
12.87452	34312
12.88263	33814
12.89077	33197
12.89888	32838
12.90702	32417
12.91513	35227
12.92325	37831
12.93138	36710
12.93950	36540
12.94763	31894
12.95575	36489
12.96387	36925
12.97200	31215
12.98012	35084
12.98823	37685
12.99637	35808
13.00448	37430
13.01262	37553
13.02073	32816
13.02885	32196
13.03698	32734
13.04510	32575
13.05323	31747
13.06135	33272
13.06947	34086
13.07760	31350
13.08572	31904
13.09385	36619
13.10197	31734
13.11008	32239
13.11822	32054
13.12633	29607
13.13445	32569
13.14258	38288
13.15070	33011
13.15883	33087
13.16695	32815
13.17507	33993
13.18320	39119
13.19132	35157
13.19945	40099
13.20757	37535
13.21568	42359
13.22382	37377
13.23193	35220
13.24007	35178
13.24818	37305
13.25630	34069
13.26443	36262
13.27255	37665
13.28067	36385
13.28880	34254
13.29692	33702
13.30505	34153
13.31317	31602
13.32128	32697
13.32942	35847
13.33753	35375
13.34567	33003
13.35378	30924
13.36190	29910
13.37003	30041
13.37815	28046
13.38627	31737
13.39440	33307
13.40252	30462
13.41065	32358
13.41877	33746
13.42688	29508
13.43502	31392
13.44313	31202
13.45127	30551
13.45938	28053
13.46750	31242
13.47563	34030
13.48375	33375
13.49188	32809
13.50000	33919
13.50812	30058
13.51625	28379
13.52437	30812
13.53248	29527
13.54062	30849
13.54873	30071
13.55687	28931
13.56498	32694
13.57310	35059
13.58123	31666
13.58935	29008
13.59748	34908
13.60560	30199
13.61372	27464
13.62185	28003
13.62997	28687
13.63808	28507
13.64622	29202
13.65433	26669
13.66247	29867
13.67058	32455
13.67870	28942
13.68683	29547
13.69495	30222
13.70308	30723
13.71120	28236
13.71932	32565
13.72745	31318
13.73557	30671
13.74370	34141
13.75182	38310
13.75993	42113
13.76807	59383
13.77618	67791
13.78430	91336
13.79243	106244
13.80055	101051
13.80868	92167
13.81680	79407
13.82492	62257
13.83305	54488
13.84117	45883
13.84930	50295
13.85742	43884
13.86553	43845
13.87367	42322
13.88178	42948
13.88992	39027
13.89803	39192
13.90615	39547
13.91428	40702
13.92240	33501
13.93052	38335
13.93865	37816
13.94677	42294
13.95490	42770
13.96302	43914
13.97113	54664
13.97927	72700
13.98738	103225
13.99552	117977
14.00363	124567
14.01175	114818
14.01988	100863
14.02800	78400
14.03613	64988
14.04425	58139
14.05237	52547
14.06050	55455
14.06862	51712
14.07673	47788
14.08487	47477
14.09298	44381
14.10112	45397
14.10923	43318
14.11735	45036
14.12548	37840
14.13360	42812
14.14173	40514
14.14985	48851
14.15797	41184
14.16610	47222
14.17422	50546
14.18233	48220
14.19047	55849
14.19858	58065
14.20672	85226
14.21483	128006
14.22295	174388
14.23108	215419
14.23920	219757
14.24733	206481
14.25545	180035
14.26357	164728
14.27170	143177
14.27982	131653
14.28795	122383
14.29607	111238
14.30418	97595
14.31232	88113
14.32043	81876
14.32855	80449
14.33668	78274
14.34480	71902
14.35293	71445
14.36105	70757
14.36917	60854
14.37730	53815
14.38542	51235
14.39355	45892
14.40167	42528
14.40978	39338
14.41792	41266
14.42603	41484
14.43415	36609
14.44228	36493
14.45040	32275
14.45853	38569
14.46665	37700
14.47477	32713
14.48290	31446
14.49102	37136
14.49915	33699
14.50727	33526
14.51538	37439
14.52352	34783
14.53163	37110
14.53977	40201
14.54788	48902
14.55600	43952
14.56413	39386
14.57225	38946
14.58037	36069
14.58850	36942
14.59662	31725
14.60475	32269
14.61287	32287
14.62098	38142
14.62912	36964
14.63723	31861
14.64537	34864
14.65348	34049
14.66160	31701
14.66973	31011
14.67785	30865
14.68597	35486
14.69410	27570
14.70222	31954
14.71035	32892
14.71847	34080
14.72658	36178
14.73472	34598
14.74283	33503
14.75097	33391
14.75908	32871
14.76720	35464
14.77533	37413
14.78345	36105
14.79158	35559
14.79970	34991
14.80782	31551
14.81595	36242
14.82407	33376
14.83218	34678
14.84032	37671
14.84843	42548
14.85657	46893
14.86468	44837
14.87280	46269
14.88093	44596
14.88905	45403
14.89718	42977
14.90530	47476
14.91342	43227
14.92155	43975
14.92967	42958
14.93780	45410
14.94592	44315
14.95403	43628
14.96217	42105
14.97028	38327
14.97840	42161
14.98653	36655
14.99465	38177
15.00278	39789
15.01090	44806
15.01902	41897
15.02715	38511
15.03527	39094
15.04340	42904
15.05152	37883
15.05963	37067
15.06777	39796
15.07588	40324
15.08402	36525
15.09213	40358
15.10025	40608
15.10838	35957
15.11650	34835
15.12462	39015
15.13275	37085
15.14087	35946
15.14900	38121
15.15712	35206
15.16523	36327
15.17337	39139
15.18148	35628
15.18962	40054
15.19773	35837
15.20585	38262
15.21398	35519
15.22210	34009
15.23022	34260
15.23835	35695
15.24647	30947
15.25460	33481
15.26272	32521
15.27083	33636
15.27897	32708
15.28708	31806
15.29522	31045
15.30333	33425
15.31145	28815
15.31958	29211
15.32770	30867
15.33583	32717
15.34395	31856
15.35207	31014
15.36020	32297
15.36832	30266
15.37643	29688
15.38457	30580
15.39268	28460
15.40082	29675
15.40893	34267
15.41705	33500
15.42518	30427
15.43330	28224
15.44143	31955
15.44955	33921
15.45767	32530
15.46580	29206
15.47392	28531
15.48203	31692
15.49017	27467
15.49828	28777
15.50642	28437
15.51453	33171
15.52265	34000
15.53078	28565
15.53890	32239
15.54703	36186
15.55515	35013
15.56327	32071
15.57140	31787
15.57952	33014
15.58765	33376
15.59577	27709
15.60388	27678
15.61202	29106
15.62013	31855
15.62825	29948
15.63638	30516
15.64450	29411
15.65263	31119
15.66075	32870
15.66887	29579
15.67700	29396
15.68512	32347
15.69325	31559
15.70137	28816
15.70948	29861
15.71762	30450
15.72573	30459
15.73387	29163
15.74198	32010
15.75010	30930
15.75823	33629
15.76635	30453
15.77447	31383
15.78260	37042
15.79072	39517
15.79885	39928
15.80697	44914
15.81508	48689
15.82322	49777
15.83133	43060
15.83947	42720
15.84758	40592
15.85570	37756
15.86383	34426
15.87195	33733
15.88007	33907
15.88820	34336
15.89632	35299
15.90445	32510
15.91257	29511
15.92068	33638
15.92882	32664
15.93693	39002
15.94507	31685
15.95318	35377
15.96130	42252
15.96943	42556
15.97755	40948
15.98568	48544
15.99380	47639
16.00192	46744
16.01005	50390
16.01817	58925
16.02628	54745
16.03442	54281
16.04253	55856
16.05067	60065
16.05878	54631
16.06690	53104
16.07503	47255
16.08315	41006
16.09128	41460
16.09940	45896
16.10752	41243
16.11565	39941
16.12377	40849
16.13190	38453
16.14002	37061
16.14813	34667
16.15627	35110
16.16438	38396
16.17250	33592
16.18063	35107
16.18875	36783
16.19688	36190
16.20500	38788
16.21312	37309
16.22125	35152
16.22937	34417
16.23750	32267
16.24562	32814
16.25373	34943
16.26187	37164
16.26998	34324
16.27810	34382
16.28623	34153
16.29435	33224
16.30248	33446
16.31060	31199
16.31872	32436
16.32685	31611
16.33497	34574
16.34310	34665
16.35122	38537
16.35933	37633
16.36747	46059
16.37558	55171
16.38372	61586
16.39183	78094
16.39995	76436
16.40808	70144
16.41620	63657
16.42432	51654
16.43245	49139
16.44057	42786
16.44870	42909
16.45682	40705
16.46493	38765
16.47307	38669
16.48118	43407
16.48932	37048
16.49743	39235
16.50555	39538
16.51368	34908
16.52180	38063
16.52992	36062
16.53805	35742
16.54617	37419
16.55430	37728
16.56242	36021
16.57053	38808
16.57867	32061
16.58678	35085
16.59492	36595
16.60303	36116
16.61115	42051
16.61928	40598
16.62740	41844
16.63553	41450
16.64365	43707
16.65177	37886
16.65990	38410
16.66802	42551
16.67613	33852
16.68427	36228
16.69238	32112
16.70052	30500
16.70863	31769
16.71675	36491
16.72488	29596
16.73300	32430
16.74113	29396
16.74925	30180
16.75737	31440
16.76550	33393
16.77362	28061
16.78175	30878
16.78987	31545
16.79798	32251
16.80612	30675
16.81423	33322
16.82235	31601
16.83048	30810
16.83860	30438
16.84673	31533
16.85485	32471
16.86297	31995
16.87110	29197
16.87922	29955
16.88735	29069
16.89547	28818
16.90358	30553
16.91172	29027
16.91983	29974
16.92795	32394
16.93608	36298
16.94420	30212
16.95233	31160
16.96045	32807
16.96857	28252
16.97670	35832
16.98482	32764
16.99295	29246
17.00107	34205
17.00918	29210
17.01732	33996
17.02543	28245
17.03357	28131
17.04168	27317
17.04980	26703
17.05793	28283
17.06605	32684
17.07417	30540
17.08230	29026
17.09042	29745
17.09855	30801
17.10667	30766
17.11478	32160
17.12292	30670
17.13103	31387
17.13917	34917
17.14728	27655
17.15540	29531
17.16353	29478
17.17165	33504
17.17978	28683
17.18790	28801
17.19602	32249
17.20415	33611
17.21227	31708
17.22038	28642
17.22852	29235
17.23663	29847
17.24477	32449
17.25288	29006
17.26100	29026
17.26913	34874
17.27725	32202
17.28538	32145
17.29350	31943
17.30162	31118
17.30975	35680
17.31787	30748
17.32598	33065
17.33412	29693
17.34223	31812
17.35037	37233
17.35848	33960
17.36660	37589
17.37473	35937
17.38285	40329
17.39098	34176
17.39910	41128
17.40722	39289
17.41535	37873
17.42347	34823
17.43160	36411
17.43972	36529
17.44783	33584
17.45597	36451
17.46408	36318
17.47220	34767
17.48033	32343
17.48845	34166
17.49658	34071
17.50470	39055
17.51282	34947
17.52095	35218
17.52907	35137
17.53720	35138
17.54532	36519
17.55343	33669
17.56157	35189
17.56968	32921
17.57782	36018
17.58593	37479
17.59405	33770
17.60218	34651
17.61030	29904
17.61842	33370
17.62655	31004
17.63467	32658
17.64280	36001
17.65092	52132
17.65903	64717
17.66717	84149
17.67528	109888
17.68342	129095
17.69153	137950
17.69965	126265
17.70778	105385
17.71590	83393
17.72402	64196
17.73215	61938
17.74027	51217
17.74840	44463
17.75652	44779
17.76463	43618
17.77277	46888
17.78088	43234
17.78902	41785
17.79713	37915
17.80525	37527
17.81338	38889
17.82150	44243
17.82963	41943
17.83775	47395
17.84587	53535
17.85400	44216
17.86212	43465
17.87023	40462
17.87837	45090
17.88648	42523
17.89462	39145
17.90273	34729
17.91085	33850
17.91898	37130
17.92710	34527
17.93523	34702
17.94335	33140
17.95147	30187
17.95960	34629
17.96772	31753
17.97583	29715
17.98397	30763
17.99208	31072
18.00022	35608
18.00833	30370
18.01645	29359
18.02458	33447
18.03270	28756
18.04083	31252
18.04895	34039
18.05707	33495
18.06520	34879
18.07332	39325
18.08145	35670
18.08957	41893
18.09768	46778
18.10582	61666
18.11393	67356
18.12205	77028
18.13018	73271
18.13830	75605
18.14643	75013
18.15455	70620
18.16267	64393
18.17080	65211
18.17892	56293
18.18705	59569
18.19517	50271
18.20328	56389
18.21142	54232
18.21953	51387
18.22767	49548
18.23578	50432
18.24390	51478
18.25203	43868
18.26015	44062
18.26827	41783
18.27640	45128
18.28452	43562
18.29265	38552
18.30077	41401
18.30888	37801
18.31702	37503
18.32513	36307
18.33327	36422
18.34138	38590
18.34950	35800
18.35763	32779
18.36575	32071
18.37387	34722
18.38200	35408
18.39012	36468
18.39825	30558
18.40637	32026
18.41448	37565
18.42262	33921
18.43073	34132
18.43887	32591
18.44698	35415
18.45510	34036
18.46323	31209
18.47135	33800
18.47948	35091
18.48760	33857
18.49572	35181
18.50385	30249
18.51197	31234
18.52008	32484
18.52822	29228
18.53633	31268
18.54447	33576
18.55258	31007
18.56070	31079
18.56883	28414
18.57695	29388
18.58508	33004
18.59320	30425
18.60132	31702
18.60945	30543
18.61757	32705
18.62570	31644
18.63382	35250
18.64193	34079
18.65007	33363
18.65818	32704
18.66630	32847
18.67443	34517
18.68255	33435
18.69068	31109
18.69880	27917
18.70692	31256
18.71505	31412
18.72317	32125
18.73130	32788
18.73942	29262
18.74753	28762
18.75567	29821
18.76378	29017
18.77190	24154
18.78003	28780
18.78815	28579
18.79628	29433
18.80440	29133
18.81252	25563
18.82065	31740
18.82877	27860
18.83690	28625
18.84502	25490
18.85313	27312
18.86127	30268
18.86938	28561
18.87752	31950
18.88563	30633
18.89375	34995
18.90188	30532
18.91000	32345
18.91812	29464
18.92625	31089
18.93437	28025
18.94250	28414
18.95062	31715
18.95873	29907
18.96687	34350
18.97498	32485
18.98312	30820
18.99123	32148
18.99935	29137
19.00748	33635
19.01560	29489
19.02372	28453
19.03185	31594
19.03997	30105
19.04810	28981
19.05622	33063
19.06433	28652
19.07247	25534
19.08058	33045
19.08872	33871
19.09683	37118
19.10495	41678
19.11308	48847
19.12120	55640
19.12933	53127
19.13745	52385
19.14557	49527
19.15370	42982
19.16182	44938
19.16993	42459
19.17807	49648
19.18618	45636
19.19432	42559
19.20243	46043
19.21055	44865
19.21868	43865
19.22680	37388
19.23493	35153
19.24305	39192
19.25117	39184
19.25930	32982
19.26742	34746
19.27555	40124
19.28367	37388
19.29178	43333
19.29992	46864
19.30803	50200
19.31615	49359
19.32428	49082
19.33240	52647
19.34053	55337
19.34865	55729
19.35677	54342
19.36490	52811
19.37302	51925
19.38115	48620
19.38927	45445
19.39738	43536
19.40552	41809
19.41363	44584
19.42177	41748
19.42988	43381
19.43800	35841
19.44613	42190
19.45425	40316
19.46237	37797
19.47050	36098
19.47862	43293
19.48675	38017
19.49487	53429
19.50298	52663
19.51112	70362
19.51923	89009
19.52737	117647
19.53548	141921
19.54360	142180
19.55173	123286
19.55985	97503
19.56797	73501
19.57610	55376
19.58422	51306
19.59235	42084
19.60047	34461
19.60858	41573
19.61672	37155
19.62483	36614
19.63297	39997
19.64108	41120
19.64920	48300
19.65733	64057
19.66545	93084
19.67358	130404
19.68170	170395
19.68982	194992
19.69795	198762
19.70607	196340
19.71418	161696
19.72232	128701
19.73043	110338
19.73857	87849
19.74668	76022
19.75480	69957
19.76293	62525
19.77105	61373
19.77918	60004
19.78730	48845
19.79542	46202
19.80355	46366
19.81167	47285
19.81978	47408
19.82792	51051
19.83603	44950
19.84417	47488
19.85228	60830
19.86040	113218
19.86853	318212
19.87665	969527
19.88478	2526320
19.89290	5594707
19.90102	9927252
19.90915	1.421167E+07
19.91727	1.720239E+07
19.92540	1.717734E+07
19.93352	1.499272E+07
19.94163	1.124786E+07
19.94977	7573964
19.95788	4969271
19.96600	3446031
19.97413	2686306
19.98225	2190243
19.99038	1904734
19.99850	1672406
20.00662	1564634
20.01475	1400977
20.02287	1277310
20.03100	1150946
20.03912	1064337
20.04723	958024
20.05537	832951
20.06348	690489
20.07162	553390
20.07973	413634
20.08785	322420
20.09598	254867
20.10410	210226
20.11222	188002
20.12035	190813
20.12847	172169
20.13660	157075
20.14472	149380
20.15283	145019
20.16097	144031
20.16908	136630
20.17722	128530
20.18533	129018
20.19345	127045
20.20158	118219
20.20970	121584
20.21782	120450
20.22595	113067
20.23407	108585
20.24220	113031
20.25032	104748
20.25843	108592
20.26657	113893
20.27468	141601
20.28282	165558
20.29093	191047
20.29905	223581
20.30718	233932
20.31530	235396
20.32343	202302
20.33155	173949
20.33967	145290
20.34780	126369
20.35592	103179
20.36403	84400
20.37217	74323
20.38028	64570
20.38842	58182
20.39653	55471
20.40465	60082
20.41278	58124
20.42090	53192
20.42903	54046
20.43715	59472
20.44527	69084
20.45340	71958
20.46152	78374
20.46965	84848
20.47777	86877
20.48588	79049
20.49402	76830
20.50213	67514
20.51025	58870
20.51838	56707
20.52650	55186
20.53463	51802
20.54275	49295
20.55087	44217
20.55900	43865
20.56712	43803
20.57525	43490
20.58337	39345
20.59148	41905
20.59962	44200
20.60773	46252
20.61585	38664
20.62398	40567
20.63210	43900
20.64023	45480
20.64835	40778
20.65647	41344
20.66460	35420
20.67272	38600
20.68085	39212
20.68897	37255
20.69708	41826
20.70522	38257
20.71333	38409
20.72147	43311
20.72958	36353
20.73770	42138
20.74583	38907
20.75395	41916
20.76207	38900
20.77020	37240
20.77832	37703
20.78645	40809
20.79457	37443
20.80268	39657
20.81082	38332
20.81893	37899
20.82707	40158
20.83518	41187
20.84330	38393
20.85143	43810
20.85955	33889
20.86767	41112
20.87580	37268
20.88392	38041
20.89205	41148
20.90017	41424
20.90828	43401
20.91642	42255
20.92453	37510
20.93267	39797
20.94078	38259
20.94890	44156
20.95703	39626
20.96515	41485
20.97328	40379
20.98140	41315
20.98952	39365
20.99765	39842
21.00577	36834
21.01388	38792
21.02202	44517
21.03013	37354
21.03827	37539
21.04638	36682
21.05450	41502
21.06263	40808
21.07075	41602
21.07888	43410
21.08700	42557
21.09512	37114
21.10325	39147
21.11137	37412
21.11950	37359
21.12762	42743
21.13573	36061
21.14387	45329
21.15198	44631
21.16010	43485
21.16823	46931
21.17635	49833
21.18448	45816
21.19260	47033
21.20072	48422
21.20885	46044
21.21697	46359
21.22510	41765
21.23322	43221
21.24133	45458
21.24947	44778
21.25758	46693
21.26570	45664
21.27383	43664
21.28195	44906
21.29008	42996
21.29820	42987
21.30632	41588
21.31445	44935
21.32257	42228
21.33070	37382
21.33882	44717
21.34693	42037
21.35507	44141
21.36318	38540
21.37132	43515
21.37943	40246
21.38755	41673
21.39568	42455
21.40380	40426
21.41192	41013
21.42005	39561
21.42817	39852
21.43630	41990
21.44442	42876
21.45253	40887
21.46067	44722
21.46878	43160
21.47692	44119
21.48503	41045
21.49315	42695
21.50128	40509
21.50940	40875
21.51753	41268
21.52565	41367
21.53377	41298
21.54190	39761
21.55002	35988
21.55813	39470
21.56627	41444
21.57438	36799
21.58252	41228
21.59063	40505
21.59875	40194
21.60688	35918
21.61500	37326
21.62313	41371
21.63125	46132
21.63937	52955
21.64750	60695
21.65562	67932
21.66373	73431
21.67187	82552
21.67998	78387
21.68812	69700
21.69623	57421
21.70435	53548
21.71248	47958
21.72060	44351
21.72873	43796
21.73685	45713
21.74497	46522
21.75310	43062
21.76122	42192
21.76935	42410
21.77747	45073
21.78558	39221
21.79372	42517
21.80183	43202
21.80995	40127
21.81808	39929
21.82620	46090
21.83433	51970
21.84245	56328
21.85057	68719
21.85870	68768
21.86682	76505
21.87495	79223
21.88307	75273
21.89118	63955
21.89932	52583
21.90743	46018
21.91555	43099
21.92368	42619
21.93180	47483
21.93993	38453
21.94805	38629
21.95617	34016
21.96430	35936
21.97242	38587
21.98055	37636
21.98867	41797
21.99678	37799
22.00492	38488
22.01303	42376
22.02117	34935
22.02928	33527
22.03740	35367
22.04553	36587
22.05365	34815
22.06177	38072
22.06990	34091
22.07802	35171
22.08615	31575
22.09427	39075
22.10238	34166
22.11052	35534
22.11863	33121
22.12677	35047
22.13488	36111
22.14300	34243
22.15113	38856
22.15925	35627
22.16738	37542
22.17550	37404
22.18362	37767
22.19175	37203
22.19987	36576
22.20798	35846
22.21612	34253
22.22423	34998
22.23237	37575
22.24048	42835
22.24860	41700
22.25673	38915
22.26485	44850
22.27298	41942
22.28110	38930
22.28922	41038
22.29735	38662
22.30547	36692
22.31358	40148
22.32172	41589
22.32983	52405
22.33797	62537
22.34608	73223
22.35420	75695
22.36233	70312
22.37045	65324
22.37858	59026
22.38670	49174
22.39482	46217
22.40295	47073
22.41107	41629
22.41920	42871
22.42732	43721
22.43543	39386
22.44357	41032
22.45168	42419
22.45980	34057
22.46793	38098
22.47605	40883
22.48418	37986
22.49230	35379
22.50042	35574
22.50855	36253
22.51667	34329
22.52480	35413
22.53292	35595
22.54103	33695
22.54917	32676
22.55728	38117
22.56542	37100
22.57353	34460
22.58165	37441
22.58978	34312
22.59790	34903
22.60602	34237
22.61415	33445
22.62227	31339
22.63040	30333
22.63852	33156
22.64663	33578
22.65477	32813
22.66288	36748
22.67102	33150
22.67913	34847
22.68725	33533
22.69538	41153
22.70350	34782
22.71162	39092
22.71975	37852
22.72787	39310
22.73600	34445
22.74412	36683
22.75223	36663
22.76037	36130
22.76848	33154
22.77662	33380
22.78473	32889
22.79285	33076
22.80098	37837
22.80910	34475
22.81723	34836
22.82535	31321
22.83347	34845
22.84160	33164
22.84972	33517
22.85783	32414
22.86597	32219
22.87408	34800
22.88222	37725
22.89033	32977
22.89845	38241
22.90658	36429
22.91470	41405
22.92283	41069
22.93095	52648
22.93907	52036
22.94720	69562
22.95532	70506
22.96345	71323
22.97157	71848
22.97968	69412
22.98782	72297
22.99593	63131
23.00405	58366
23.01218	58472
23.02030	53540
23.02843	48329
23.03655	50127
23.04467	47166
23.05280	41717
23.06092	40824
23.06905	38364
23.07717	39107
23.08528	38233
23.09342	39299
23.10153	37556
23.10965	35255
23.11778	35112
23.12590	34842
23.13403	36312
23.14215	35503
23.15027	33962
23.15840	29813
23.16652	34575
23.17465	31155
23.18277	35589
23.19088	31224
23.19902	32571
23.20713	31493
23.21527	31160
23.22338	38796
23.23150	32059
23.23963	31537
23.24775	37683
23.25587	43513
23.26400	43448
23.27212	45995
23.28025	50414
23.28837	51949
23.29648	43679
23.30462	42153
23.31273	40381
23.32087	38503
23.32898	34617
23.33710	33656
23.34523	35508
23.35335	33098
23.36147	33246
23.36960	36620
23.37772	39022
23.38585	37169
23.39397	37698
23.40208	43634
23.41022	41185
23.41833	41533
23.42647	42475
23.43458	43306
23.44270	45729
23.45083	39970
23.45895	44388
23.46708	40899
23.47520	38587
23.48332	41124
23.49145	43351
23.49957	41365
23.50768	43095
23.51582	43306
23.52393	38463
23.53207	36395
23.54018	40309
23.54830	39239
23.55643	43164
23.56455	42713
23.57268	41660
23.58080	41563
23.58892	48724
23.59705	54908
23.60517	63939
23.61330	68714
23.62142	70432
23.62953	71917
23.63767	75120
23.64578	84284
23.65390	104937
23.66203	147044
23.67015	198051
23.67828	254993
23.68640	260028
23.69452	253157
23.70265	222251
23.71077	164964
23.71890	127336
23.72702	100861
23.73513	79212
23.74327	65335
23.75138	68207
23.75950	88524
23.76763	163027
23.77575	373814
23.78388	884443
23.79200	1852759
23.80012	3052106
23.80825	3772440
23.81637	3899323
23.82450	3444146
23.83262	2714019
23.84073	1956327
23.84887	1373353
23.85698	979147
23.86512	703272
23.87323	557625
23.88135	458780
23.88948	391013
23.89760	329403
23.90572	301150
23.91385	263869
23.92197	248669
23.93010	222643
23.93822	209142
23.94633	189669
23.95447	181231
23.96258	170001
23.97072	161305
23.97883	152565
23.98695	145518
23.99508	139992
24.00320	135758
24.01133	126805
24.01945	127812
24.02757	124026
24.03570	131971
24.04382	131124
24.05193	124589
24.06007	127066
24.06818	115208
24.07632	115536
24.08443	106143
24.09255	100279
24.10068	91587
24.10880	93877
24.11693	88326
24.12505	82739
24.13317	84292
24.14130	90980
24.14942	89838
24.15753	85759
24.16567	92557
24.17378	90153
24.18192	85338
24.19003	84188
24.19815	78956
24.20628	77512
24.21440	79707
24.22253	80327
24.23065	91171
24.23877	85152
24.24690	89137
24.25502	87673
24.26315	79483
24.27127	75533
24.27938	69253
24.28752	66590
24.29563	71708
24.30375	63352
24.31188	66354
24.32000	66204
24.32813	65070
24.33625	64513
24.34437	64020
24.35250	61093
24.36062	61992
24.36875	65633
24.37687	59487
24.38498	57891
24.39312	67146
24.40123	76725
24.40935	94515
24.41748	113830
24.42560	127832
24.43373	134671
24.44185	117515
24.44997	90464
24.45810	77188
24.46622	66206
24.47435	62563
24.48247	63385
24.49058	67118
24.49872	72203
24.50683	79451
24.51497	79631
24.52308	83117
24.53120	80997
24.53933	78910
24.54745	78744
24.55557	71722
24.56370	76404
24.57182	74031
24.57995	80776
24.58807	89783
24.59618	82209
24.60432	85858
24.61243	84570
24.62057	88285
24.62868	80625
24.63680	73748
24.64493	68745
24.65305	68508
24.66118	67503
24.66930	67906
24.67742	62018
24.68555	63555
24.69367	70392
24.70178	62298
24.70992	54725
24.71803	58443
24.72617	48428
24.73428	51103
24.74240	48380
24.75053	53676
24.75865	51136
24.76678	49822
24.77490	49674
24.78302	46091
24.79115	44038
24.79927	45912
24.80740	47187
24.81552	44661
24.82363	45544
24.83177	46363
24.83988	45665
24.84800	47569
24.85613	45338
24.86425	51181
24.87238	54332
24.88050	49372
24.88862	53189
24.89675	55880
24.90487	55553
24.91300	56006
24.92112	48458
24.92923	47859
24.93737	45982
24.94548	43123
24.95360	48841
24.96173	44715
24.96985	39694
24.97798	40153
24.98610	41911
24.99422	38957
25.00235	40656
25.01047	43033
25.01860	43928
25.02672	39417
25.03483	41729
25.04297	41411
25.05108	41222
25.05922	41920
25.06733	39851
25.07545	42818
25.08358	41423
25.09170	39962
25.09982	41175
25.10795	43370
25.11607	43194
25.12420	38571
25.13232	43593
25.14043	44166
25.14857	50336
25.15668	49440
25.16482	51721
25.17293	54242
25.18105	59945
25.18918	56442
25.19730	55427
25.20542	49772
25.21355	49006
25.22167	47446
25.22980	44922
25.23792	44498
25.24603	45120
25.25417	47489
25.26228	41631
25.27042	44315
25.27853	44670
25.28665	39077
25.29478	44612
25.30290	45516
25.31103	42133
25.31915	42587
25.32727	43781
25.33540	47081
25.34352	47142
25.35163	48115
25.35977	46584
25.36788	50549
25.37602	42402
25.38413	39717
25.39225	40068
25.40038	38511
25.40850	42406
25.41663	43460
25.42475	39460
25.43287	42200
25.44100	38269
25.44912	37668
25.45725	38120
25.46537	40204
25.47348	38438
25.48162	42197
25.48973	40658
25.49785	40780
25.50598	41513
25.51410	46105
25.52223	47442
25.53035	40400
25.53847	38137
25.54660	36784
25.55472	34914
25.56285	40969
25.57097	36325
25.57908	37141
25.58722	35669
25.59533	41386
25.60345	37551
25.61158	33007
25.61970	36291
25.62783	37762
25.63595	39037
25.64407	35842
25.65220	36587
25.66032	38680
25.66845	41345
25.67657	40989
25.68468	43722
25.69282	39659
25.70093	40700
25.70907	33096
25.71718	35895
25.72530	38223
25.73343	36633
25.74155	35993
25.74967	35570
25.75780	41293
25.76592	36987
25.77405	36395
25.78217	39884
25.79028	35199
25.79842	35863
25.80653	37681
25.81467	42455
25.82278	42149
25.83090	39240
25.83903	42957
25.84715	43123
25.85528	43689
25.86340	41003
25.87152	41377
25.87965	41844
25.88777	35226
25.89588	35381
25.90402	32748
25.91213	31773
25.92027	33543
25.92838	31746
25.93650	32181
25.94463	41055
25.95275	35497
25.96088	30778
25.96900	35015
25.97712	37797
25.98525	35106
25.99337	35845
26.00148	34766
26.00962	31656
26.01773	33676
26.02587	38586
26.03398	32536
26.04210	34808
26.05023	34253
26.05835	32710
26.06648	34697
26.07460	34480
26.08272	40386
26.09085	36591
26.09897	35626
26.10710	34621
26.11522	33643
26.12333	36611
26.13147	35474
26.13958	36510
26.14770	39575
26.15583	40971
26.16395	40110
26.17208	43422
26.18020	48687
26.18832	43975
26.19645	46104
26.20457	48053
26.21270	40347
26.22082	40419
26.22893	43982
26.23707	43479
26.24518	37061
26.25330	39862
26.26143	37393
26.26955	39823
26.27768	40744
26.28580	37923
26.29392	36216
26.30205	38848
26.31017	40675
26.31830	37483
26.32642	35899
26.33453	35363
26.34267	33731
26.35078	36465
26.35892	33843
26.36703	35745
26.37515	35107
26.38328	36645
26.39140	37761
26.39952	37476
26.40765	37687
26.41577	36769
26.42390	41689
26.43202	40072
26.44013	40631
26.44827	34291
26.45638	36124
26.46452	33291
26.47263	35309
26.48075	35010
26.48888	34046
26.49700	39544
26.50513	36416
26.51325	34156
26.52137	31584
26.52950	33782
26.53762	32260
26.54573	36682
26.55387	31412
26.56198	31620
26.57012	32313
26.57823	29248
26.58635	37347
26.59448	36256
26.60260	37105
26.61073	34607
26.61885	33224
26.62697	33450
26.63510	29040
26.64322	36693
26.65133	35405
26.65947	33129
26.66758	34702
26.67572	40053
26.68383	41483
26.69195	44491
26.70008	43636
26.70820	41249
26.71633	36840
26.72445	37598
26.73257	35106
26.74070	35656
26.74882	34739
26.75695	39139
26.76507	36771
26.77318	36161
26.78132	34578
26.78943	36555
26.79755	34821
26.80568	34009
26.81380	36574
26.82193	36356
26.83005	39926
26.83817	46510
26.84630	36632
26.85442	42781
26.86255	43351
26.87067	40054
26.87878	43200
26.88692	43411
26.89503	36381
26.90317	37261
26.91128	37104
26.91940	36085
26.92753	35593
26.93565	34086
26.94377	40785
26.95190	39413
26.96002	37726
26.96815	35218
26.97627	45705
26.98438	60121
26.99252	82611
27.00063	140075
27.00877	228078
27.01688	373510
27.02500	530505
27.03313	674859
27.04125	774882
27.04937	762383
27.05750	687024
27.06562	552716
27.07375	424241
27.08187	340620
27.08998	264408
27.09812	205849
27.10623	183304
27.11437	160196
27.12248	141816
27.13060	132163
27.13873	126876
27.14685	118389
27.15498	107347
27.16310	103472
27.17122	99031
27.17935	91636
27.18747	83944
27.19558	88983
27.20372	90280
27.21183	90700
27.21997	86726
27.22808	85584
27.23620	82515
27.24433	75645
27.25245	73880
27.26058	71084
27.26870	68757
27.27682	65938
27.28495	66567
27.29307	60024
27.30118	58835
27.30932	58155
27.31743	59556
27.32557	61617
27.33368	60915
27.34180	55280
27.34993	61706
27.35805	56716
27.36618	64091
27.37430	54901
27.38242	53913
27.39055	60819
27.39867	54136
27.40680	53304
27.41492	52174
27.42303	54948
27.43117	54678
27.43928	49150
27.44740	48222
27.45553	48961
27.46365	50145
27.47178	49206
27.47990	47884
27.48802	45168
27.49615	46108
27.50427	46400
27.51240	47936
27.52052	48301
27.52863	48085
27.53677	51621
27.54488	52410
27.55302	49532
27.56113	45708
27.56925	50623
27.57738	48901
27.58550	44529
27.59362	42970
27.60175	42734
27.60987	43414
27.61800	43824
27.62612	45857
27.63423	49428
27.64237	54951
27.65048	44130
27.65862	43300
27.66673	40071
27.67485	43222
27.68298	40126
27.69110	41660
27.69922	40232
27.70735	39182
27.71547	43899
27.72360	41790
27.73172	39702
27.73983	40236
27.74797	37851
27.75608	41144
27.76422	38772
27.77233	39834
27.78045	39766
27.78858	42723
27.79670	39600
27.80483	44472
27.81295	38644
27.82107	39689
27.82920	41285
27.83732	44331
27.84543	39558
27.85357	41534
27.86168	44775
27.86982	41288
27.87793	46727
27.88605	38049
27.89418	41047
27.90230	37247
27.91043	39622
27.91855	37038
27.92667	34490
27.93480	38679
27.94292	40259
27.95105	39821
27.95917	36298
27.96728	36407
27.97542	34767
27.98353	38165
27.99165	36176
27.99978	39185
28.00790	38487
28.01603	36712
28.02415	37009
28.03227	46729
28.04040	36360
28.04852	36324
28.05665	34966
28.06477	35207
28.07288	39350
28.08102	41215
28.08913	41324
28.09725	37725
28.10538	38882
28.11350	39828
28.12163	37937
28.12975	38100
28.13787	36075
28.14600	38030
28.15412	37922
28.16225	32952
28.17037	38684
28.17848	36680
28.18662	32168
28.19473	36022
28.20287	35362
28.21098	34784
28.21910	42398
28.22723	38969
28.23535	44914
28.24347	45201
28.25160	42879
28.25972	39226
28.26785	44249
28.27597	38032
28.28408	40011
28.29222	43140
28.30033	37241
28.30847	32989
28.31658	39913
28.32470	39609
28.33283	54143
28.34095	59385
28.34908	84784
28.35720	93133
28.36532	109864
28.37345	121250
28.38157	130035
28.38968	139930
28.39782	135064
28.40593	131322
28.41407	127609
28.42218	106297
28.43030	104316
28.43843	87830
28.44655	88840
28.45468	80448
28.46280	75703
28.47092	73365
28.47905	65075
28.48717	68334
28.49528	65084
28.50342	55758
28.51153	57334
28.51967	56142
28.52778	54668
28.53590	55939
28.54403	53361
28.55215	52349
28.56028	54573
28.56840	50035
28.57652	50620
28.58465	51046
28.59277	45512
28.60090	45505
28.60902	47665
28.61713	46901
28.62527	50640
28.63338	42691
28.64150	45382
28.64963	47398
28.65775	46374
28.66588	50489
28.67400	46082
28.68212	53068
28.69025	48731
28.69837	55913
28.70650	46425
28.71462	46983
28.72273	43878
28.73087	43372
28.73898	46117
28.74710	41901
28.75523	43906
28.76335	45828
28.77148	50498
28.77960	50684
28.78772	65909
28.79585	70478
28.80397	73737
28.81210	69690
28.82022	54217
28.82833	50513
28.83647	49510
28.84458	46076
28.85272	42159
28.86083	43164
28.86895	38617
28.87708	38318
28.88520	39483
28.89332	36546
28.90145	36180
28.90957	37011
28.91770	39630
28.92582	40293
28.93393	46280
28.94207	38565
28.95018	43152
28.95832	44691
28.96643	47431
28.97455	43814
28.98268	50816
28.99080	47017
28.99893	46830
29.00705	45456
29.01517	45230
29.02330	39336
29.03142	39888
29.03953	40464
29.04767	38801
29.05578	38895
29.06392	37374
29.07203	42453
29.08015	37647
29.08828	34683
29.09640	37918
29.10453	40916
29.11265	38085
29.12077	35593
29.12890	38377
29.13702	40523
29.14513	35981
29.15327	36387
29.16138	35254
29.16952	44107
29.17763	39244
29.18575	39263
29.19388	41608
29.20200	43379
29.21013	39178
29.21825	37950
29.22637	36167
29.23450	41646
29.24262	37352
29.25075	40678
29.25887	35665
29.26698	35428
29.27512	38743
29.28323	39260
29.29135	36538
29.29948	35627
29.30760	34318
29.31573	34064
29.32385	34819
29.33197	32545
29.34010	34217
29.34822	36200
29.35635	35161
29.36447	34567
29.37258	37767
29.38072	36330
29.38883	35292
29.39697	39301
29.40508	37231
29.41320	38807
29.42133	36800
29.42945	36892
29.43757	35620
29.44570	36482
29.45382	34472
29.46195	34861
29.47007	36375
29.47818	35722
29.48632	36358
29.49443	35354
29.50257	41224
29.51068	40246
29.51880	46793
29.52693	41040
29.53505	40791
29.54317	42972
29.55130	40326
29.55942	40310
29.56755	42202
29.57567	38551
29.58378	37777
29.59192	35890
29.60003	35180
29.60817	35012
29.61628	36078
29.62440	40653
29.63253	33605
29.64065	35816
29.64878	39086
29.65690	41399
29.66502	32783
29.67315	37129
29.68127	37621
29.68938	34936
29.69752	37251
29.70563	35863
29.71377	34651
29.72188	36044
29.73000	34448
29.73813	37599
29.74625	39603
29.75438	34321
29.76250	37650
29.77062	35348
29.77875	34840
29.78687	34749
29.79498	33610
29.80312	33514
29.81123	31400
29.81937	31188
29.82748	29452
29.83560	31966
29.84373	34948
29.85185	31720
29.85998	32598
29.86810	37692
29.87622	39251
29.88435	50136
29.89247	54202
29.90060	74467
29.90872	82887
29.91683	96059
29.92497	95436
29.93308	77275
29.94120	66881
29.94933	57996
29.95745	51371
29.96558	44991
29.97370	44183
29.98182	50688
29.98995	52029
29.99807	58776
30.00620	62779
30.01432	67216
30.02243	81317
30.03057	84913
30.03868	93930
30.04682	90538
30.05493	90766
30.06305	85857
30.07118	81696
30.07930	84865
30.08742	82626
30.09555	77119
30.10367	73372
30.11180	67213
30.11992	69309
30.12803	64904
30.13617	64488
30.14428	60788
30.15242	58757
30.16053	61270
30.16865	56357
30.17678	52162
30.18490	50354
30.19303	52352
30.20115	51943
30.20927	53320
30.21740	46393
30.22552	49584
30.23363	45603
30.24177	46900
30.24988	45751
30.25802	41443
30.26613	39812
30.27425	43244
30.28238	42857
30.29050	40100
30.29863	40764
30.30675	39097
30.31487	42317
30.32300	39782
30.33112	41509
30.33923	37446
30.34737	40178
30.35548	40414
30.36362	41036
30.37173	38051
30.37985	47924
30.38798	42717
30.39610	41308
30.40423	37186
30.41235	40422
30.42047	41914
30.42860	38998
30.43672	36426
30.44485	39704
30.45297	40512
30.46108	39407
30.46922	38522
30.47733	38075
30.48545	37664
30.49358	36841
30.50170	38107
30.50983	36385
30.51795	38590
30.52607	37920
30.53420	37658
30.54232	36073
30.55045	35563
30.55857	34849
30.56668	33921
30.57482	37779
30.58293	38921
30.59105	35485
30.59918	32280
30.60730	38635
30.61543	36850
30.62355	33934
30.63167	37058
30.63980	35378
30.64792	36496
30.65605	36525
30.66417	39305
30.67228	33427
30.68042	36238
30.68853	39469
30.69667	35787
30.70478	34149
30.71290	36247
30.72103	34612
30.72915	32204
30.73727	33531
30.74540	35499
30.75352	33832
30.76165	33984
30.76977	34758
30.77788	33578
30.78602	33500
30.79413	38518
30.80227	34779
30.81038	36631
30.81850	41969
30.82663	37992
30.83475	41248
30.84288	41820
30.85100	38023
30.85912	37612
30.86725	36287
30.87537	35332
30.88348	37763
30.89162	36260
30.89973	36747
30.90787	37522
30.91598	39541
30.92410	33126
30.93223	31052
30.94035	35238
30.94848	35325
30.95660	39099
30.96472	35948
30.97285	40310
30.98097	38558
30.98908	34229
30.99722	38461
31.00533	36891
31.01347	35217
31.02158	35166
31.02970	42180
31.03783	34304
31.04595	35783
31.05408	36940
31.06220	38424
31.07032	45098
31.07845	40693
31.08657	41742
31.09470	54680
31.10282	63637
31.11093	79975
31.11907	94559
31.12718	105241
31.13530	106042
31.14343	88251
31.15155	66554
31.15968	58383
31.16780	49055
31.17592	43725
31.18405	44969
31.19217	51482
31.20030	61718
31.20842	80114
31.21653	109325
31.22467	136678
31.23278	155254
31.24092	170550
31.24903	142663
31.25715	132228
31.26528	103101
31.27340	79352
31.28152	64428
31.28965	50637
31.29777	42199
31.30590	39293
31.31402	38850
31.32213	40872
31.33027	36395
31.33838	37385
31.34652	38090
31.35463	37028
31.36275	37198
31.37088	40654
31.37900	46692
31.38712	47865
31.39525	54133
31.40337	60594
31.41150	56626
31.41962	57574
31.42773	51352
31.43587	43564
31.44398	48277
31.45212	43096
31.46023	43068
31.46835	39356
31.47648	36990
31.48460	33882
31.49273	33132
31.50085	36650
31.50897	37925
31.51710	39440
31.52522	36612
31.53333	34475
31.54147	38328
31.54958	39822
31.55772	37047
31.56583	36966
31.57395	34477
31.58208	36165
31.59020	36917
31.59833	37489
31.60645	37264
31.61457	35663
31.62270	37112
31.63082	44504
31.63893	36349
31.64707	39185
31.65518	38149
31.66332	39448
31.67143	36342
31.67955	33998
31.68768	37594
31.69580	32808
31.70393	36028
31.71205	36788
31.72017	34024
31.72830	34711
31.73642	39158
31.74455	36441
31.75267	34498
31.76078	33023
31.76892	32948
31.77703	37638
31.78515	35873
31.79328	33256
31.80140	33043
31.80953	37172
31.81765	39155
31.82577	37798
31.83390	41481
31.84202	36456
31.85015	39066
31.85827	38125
31.86638	37359
31.87452	42612
31.88263	40664
31.89077	37503
31.89888	43926
31.90700	43552
31.91513	47829
31.92325	49481
31.93137	54687
31.93950	60811
31.94762	61868
31.95575	70782
31.96387	66423
31.97198	67527
31.98012	79194
31.98823	80615
31.99637	73229
32.00448	73281
32.01260	76314
32.02073	70456
32.02885	70840
32.03697	66055
32.04510	67605
32.05322	60621
32.06135	61899
32.06947	59133
32.07758	59615
32.08572	51737
32.09383	55465
32.10197	55253
32.11008	56879
32.11820	52140
32.12633	49899
32.13445	49190
32.14258	45046
32.15070	44323
32.15882	45316
32.16695	41102
32.17507	39404
32.18318	45586
32.19132	40490
32.19943	38610
32.20757	45592
32.21568	41763
32.22380	37992
32.23193	39085
32.24005	43428
32.24818	40030
32.25630	40129
32.26442	41267
32.27255	45117
32.28067	47045
32.28880	43412
32.29692	42488
32.30503	37574
32.31317	40528
32.32128	45130
32.32940	41002
32.33753	37305
32.34565	41080
32.35378	45291
32.36190	46324
32.37002	44592
32.37815	41772
32.38627	47588
32.39440	38998
32.40252	41090
32.41063	37366
32.41877	39632
32.42688	37139
32.43500	38095
32.44313	37843
32.45125	36618
32.45938	38973
32.46750	35556
32.47562	37306
32.48375	33040
32.49187	37895
32.50000	36506
32.50812	35287
32.51623	37064
32.52437	35882
32.53248	35159
32.54062	36258
32.54873	37946
32.55685	44438
32.56498	40184
32.57310	43347
32.58122	38611
32.58935	39083
32.59747	40251
32.60560	38174
32.61372	38987
32.62183	37969
32.62997	39155
32.63808	40040
32.64622	34439
32.65433	40620
32.66245	42135
32.67058	47942
32.67870	54553
32.68682	52950
32.69495	62660
32.70307	61549
32.71120	55240
32.71932	44767
32.72743	53395
32.73557	41108
32.74368	40123
32.75182	43923
32.75993	37339
32.76805	36066
32.77618	39576
32.78430	37668
32.79243	37180
32.80055	37048
32.80867	38434
32.81680	33623
32.82492	40532
32.83303	41088
32.84117	35776
32.84928	36498
32.85742	36205
32.86553	35076
32.87365	36959
32.88178	38401
32.88990	34482
32.89803	35405
32.90615	35535
32.91427	38421
32.92240	41178
32.93052	38825
32.93865	37620
32.94677	37871
32.95488	39225
32.96302	37898
32.97113	35592
32.97925	35873
32.98738	31531
32.99550	33931
33.00363	39208
33.01175	37498
33.01987	39499
33.02800	36747
33.03612	35684
33.04425	36575
33.05237	36660
33.06048	33844
33.06862	36690
33.07673	34750
33.08485	37859
33.09298	42161
33.10110	44729
33.10923	46827
33.11735	47865
33.12547	65035
33.13360	70418
33.14172	66340
33.14985	62789
33.15797	54383
33.16608	50594
33.17422	40456
33.18233	42369
33.19047	43406
33.19858	37247
33.20670	42357
33.21483	41249
33.22295	42425
33.23107	44618
33.23920	42006
33.24732	41609
33.25545	35954
33.26357	41152
33.27168	38672
33.27982	39540
33.28793	38310
33.29607	38721
33.30418	36001
33.31230	39090
33.32043	35816
33.32855	37538
33.33668	37630
33.34480	38402
33.35292	36707
33.36105	36407
33.36917	38072
33.37728	37618
33.38542	38249
33.39353	42637
33.40167	39235
33.40978	35217
33.41790	39071
33.42603	37220
33.43415	37856
33.44228	34337
33.45040	38052
33.45852	38867
33.46665	34642
33.47477	36186
33.48288	38716
33.49102	37867
33.49913	38133
33.50727	38582
33.51538	33994
33.52350	34831
33.53163	39206
33.53975	36640
33.54788	39104
33.55600	43075
33.56412	39326
33.57225	35765
33.58037	38915
33.58850	38254
33.59662	37351
33.60473	37392
33.61287	37109
33.62098	35222
33.62910	33928
33.63723	36851
33.64535	37825
33.65348	39203
33.66160	38405
33.66972	37869
33.67785	42370
33.68597	38146
33.69410	39468
33.70222	39307
33.71033	38541
33.71847	40885
33.72658	38539
33.73472	38803
33.74283	34655
33.75095	38444
33.75908	40063
33.76720	41081
33.77532	36940
33.78345	40406
33.79157	37084
33.79970	38023
33.80782	40108
33.81593	39242
33.82407	34375
33.83218	37815
33.84032	44473
33.84843	43509
33.85655	45124
33.86468	38452
33.87280	43008
33.88092	41335
33.88905	42373
33.89717	40993
33.90530	47346
33.91342	43643
33.92153	39861
33.92967	44544
33.93778	43293
33.94592	40557
33.95403	41853
33.96215	38295
33.97028	38018
33.97840	39154
33.98653	40705
33.99465	38524
34.00277	38719
34.01090	40687
34.01902	42700
34.02713	41416
34.03527	41631
34.04338	38709
34.05152	38008
34.05963	38642
34.06775	45053
34.07588	37447
34.08400	39470
34.09213	39493
34.10025	40537
34.10837	45838
34.11650	44027
34.12462	39979
34.13273	39143
34.14087	39723
34.14898	39568
34.15712	36715
34.16523	42827
34.17335	42126
34.18148	41164
34.18960	39720
34.19773	35611
34.20585	42704
34.21397	39862
34.22210	37486
34.23022	36783
34.23835	37186
34.24647	42298
34.25458	43631
34.26272	46533
34.27083	40784
34.27895	41311
34.28708	45199
34.29520	41591
34.30333	39551
34.31145	39860
34.31957	39265
34.32770	41088
34.33582	45543
34.34395	42320
34.35207	40717
34.36018	39211
34.36832	43189
34.37643	41723
34.38457	41274
34.39268	43349
34.40080	42211
34.40893	43876
34.41705	42149
34.42517	41349
34.43330	42427
34.44142	40033
34.44955	36807
34.45767	39607
34.46578	41316
34.47392	36968
34.48203	42337
34.49017	37898
34.49828	40285
34.50640	40428
34.51453	38128
34.52265	41542
34.53077	42835
34.53890	56973
34.54702	53668
34.55515	60185
34.56327	64106
34.57138	66795
34.57952	68583
34.58763	70719
34.59577	70735
34.60388	66333
34.61200	62226
34.62013	55000
34.62825	60131
34.63638	57207
34.64450	53849
34.65262	47115
34.66075	49901
34.66887	52502
34.67698	50241
34.68512	46930
34.69323	49371
34.70137	44877
34.70948	44944
34.71760	46872
34.72573	45853
34.73385	50046
34.74198	50726
34.75010	46429
34.75822	48071
34.76635	49174
34.77447	52822
34.78260	44429
34.79072	46594
34.79883	45077
34.80697	41604
34.81508	47993
34.82320	42315
34.83133	40408
34.83945	43727
34.84758	45718
34.85570	46781
34.86382	48303
34.87195	47032
34.88007	45051
34.88820	44418
34.89632	46630
34.90443	43286
34.91257	44789
34.92068	49562
34.92880	46086
34.93693	43945
34.94505	53273
34.95318	61355
34.96130	76017
34.96942	107957
34.97755	155179
34.98567	212946
34.99380	255483
35.00192	247342
35.01003	214920
35.01817	143034
35.02628	108820
35.03442	78448
35.04253	71370
35.05065	57173
35.05878	54192
35.06690	52852
35.07502	55989
35.08315	54868
35.09127	55858
35.09940	53977
35.10752	54193
35.11563	54662
35.12377	49440
35.13188	53912
35.14002	48864
35.14813	51089
35.15625	52114
35.16438	56521
35.17250	56803
35.18062	59819
35.18875	54287
35.19687	49749
35.20500	50979
35.21312	53746
35.22123	53850
35.22937	50042
35.23748	48320
35.24562	48758
35.25373	50262
35.26185	52028
35.26998	47731
35.27810	48195
35.28623	46112
35.29435	47405
35.30247	48816
35.31060	45944
35.31872	46692
35.32683	49191
35.33497	48537
35.34308	47582
35.35122	46723
35.35933	47717
35.36745	43920
35.37558	43552
35.38370	46129
35.39183	46655
35.39995	44039
35.40807	45543
35.41620	47225
35.42432	44983
35.43245	46571
35.44057	46781
35.44868	47267
35.45682	51654
35.46493	53273
35.47305	46729
35.48118	47459
35.48930	49843
35.49743	51310
35.50555	49289
35.51367	47858
35.52180	50848
35.52992	48322
35.53805	54268
35.54617	50684
35.55428	48412
35.56242	48115
35.57053	48178
35.57865	48785
35.58678	49521
35.59490	49012
35.60303	51900
35.61115	51400
35.61927	53982
35.62740	53245
35.63552	51716
35.64365	48724
35.65177	45201
35.65988	44603
35.66802	48696
35.67613	48185
35.68427	48204
35.69238	53184
35.70050	51705
35.70863	52570
35.71675	57386
35.72487	52886
35.73300	52818
35.74112	50919
35.74925	47382
35.75737	52448
35.76548	48089
35.77362	47384
35.78173	54785
35.78987	52050
35.79798	48269
35.80610	44591
35.81423	47773
35.82235	48503
35.83048	52249
35.83860	46893
35.84672	47511
35.85485	51129
35.86297	48994
35.87108	44330
35.87922	47480
35.88733	47696
35.89547	50581
35.90358	47361
35.91170	49636
35.91983	49093
35.92795	50225
35.93608	49846
35.94420	50479
35.95232	48176
35.96045	45000
35.96857	46241
35.97668	49319
35.98482	46373
35.99293	50767
36.00107	46250
36.00918	46273
36.01730	45878
36.02543	50656
36.03355	47913
36.04168	46679
36.04980	48750
36.05792	51426
36.06605	49337
36.07417	50116
36.08230	50238
36.09042	50842
36.09853	49351
36.10667	52732
36.11478	54220
36.12290	50954
36.13103	54975
36.13915	52150
36.14728	46398
36.15540	48274
36.16352	47713
36.17165	51225
36.17977	48365
36.18790	52397
36.19602	50187
36.20413	55016
36.21227	49979
36.22038	50671
36.22852	52268
36.23663	54475
36.24475	44927
36.25288	49967
36.26100	47330
36.26912	46766
36.27725	47121
36.28537	50664
36.29350	49212
36.30162	51318
36.30973	51845
36.31787	60023
36.32598	69357
36.33412	74578
36.34223	71369
36.35035	72129
36.35848	71905
36.36660	61278
36.37472	59222
36.38285	53705
36.39097	54538
36.39910	48664
36.40722	53333
36.41533	53649
36.42347	52912
36.43158	56205
36.43972	52922
36.44783	48672
36.45595	56955
36.46408	52049
36.47220	50197
36.48033	53932
36.48845	51615
36.49657	49972
36.50470	47813
36.51282	50315
36.52093	50943
36.52907	51043
36.53718	48859
36.54532	49786
36.55343	45929
36.56155	48853
36.56968	50508
36.57780	45382
36.58593	47712
36.59405	48147
36.60217	50294
36.61030	53547
36.61842	48606
36.62655	49807
36.63467	52744
36.64278	48173
36.65092	54204
36.65903	48028
36.66715	55751
36.67528	55106
36.68340	56497
36.69153	52467
36.69965	53520
36.70777	49961
36.71590	54300
36.72402	56056
36.73215	54691
36.74027	55723
36.74838	51754
36.75652	53779
36.76463	55755
36.77275	51785
36.78088	48726
36.78900	56986
36.79713	50371
36.80525	50337
36.81337	51346
36.82150	51203
36.82962	51544
36.83775	51808
36.84587	50191
36.85398	54404
36.86212	45590
36.87023	52492
36.87837	50376
36.88648	51678
36.89460	51752
36.90273	51249
36.91085	51017
36.91897	48621
36.92710	53039
36.93522	50002
36.94335	50891
36.95147	54945
36.95958	50916
36.96772	50505
36.97583	53697
36.98397	55426
36.99208	53312
37.00020	52172
37.00833	51719
37.01645	56239
37.02457	51387
37.03270	49240
37.04082	56679
37.04895	51774
37.05707	56287
37.06518	55751
37.07332	49439
37.08143	50787
37.08957	53901
37.09768	53972
37.10580	56060
37.11393	58542
37.12205	53291
37.13018	56574
37.13830	49707
37.14642	51542
37.15455	54126
37.16267	51695
37.17078	52459
37.17892	53439
37.18703	55045
37.19517	54426
37.20328	62447
37.21140	59497
37.21953	56577
37.22765	55136
37.23578	56896
37.24390	62423
37.25202	57108
37.26015	57280
37.26827	55911
37.27640	60805
37.28452	58372
37.29263	58837
37.30077	58266
37.30888	55624
37.31700	62042
37.32513	57274
37.33325	58956
37.34138	55864
37.34950	57508
37.35762	64582
37.36575	68093
37.37387	67936
37.38200	76238
37.39012	79573
37.39823	73434
37.40637	73120
37.41448	71626
37.42260	66461
37.43073	65580
37.43885	71780
37.44698	69834
37.45510	61786
37.46322	61280
37.47135	60235
37.47947	66089
37.48760	64860
