Z:\data\JTB-E02\BACandBLUE\JTB-E02-197-13.D Thu Feb 21 13:56:35 2019
Start of data points
2.09522,73409
2.10333,69252
2.11147,70911
2.11958,66620
2.12772,70815
2.13583,68593
2.14395,71978
2.15208,72647
2.16020,66754
2.16833,66227
2.17645,66383
2.18457,66893
2.19270,66895
2.20082,62049
2.20895,60213
2.21707,54015
2.22518,53257
2.23332,57999
2.24143,63424
2.24955,61271
2.25768,56908
2.26580,85765
2.27393,430097
2.28205,1239952
2.29017,1281217
2.29830,665744
2.30642,443536
2.31455,354580
2.32267,303359
2.33078,269292
2.33892,248945
2.34703,224072
2.35515,208086
2.36328,188147
2.37140,177602
2.37953,170911
2.38765,159931
2.39577,156307
2.40390,151139
2.41202,155662
2.42015,167395
2.42827,215477
2.43638,199188
2.44452,158762
2.45263,143465
2.46077,134515
2.46888,135301
2.47700,125903
2.48513,125849
2.49325,129565
2.50137,136917
2.50950,121670
2.51762,116298
2.52575,117353
2.53387,114586
2.54198,115318
2.55012,117190
2.55823,123843
2.56637,139620
2.57448,164857
2.58260,155649
2.59073,142395
2.59885,134743
2.60698,162795
2.61510,333288
2.62322,409337
2.63135,293633
2.63947,206668
2.64758,174875
2.65572,152135
2.66383,137958
2.67197,133933
2.68008,120578
2.68820,118781
2.69633,112685
2.70445,114164
2.71258,108326
2.72070,108975
2.72882,107364
2.73695,111486
2.74507,104115
2.75318,101895
2.76132,99240
2.76943,99323
2.77757,92674
2.78568,95133
2.79380,97193
2.80193,96203
2.81005,100177
2.81818,100270
2.82630,97593
2.83442,97363
2.84255,93110
2.85067,87316
2.85880,94383
2.86692,89649
2.87503,88779
2.88317,93701
2.89128,92395
2.89940,88310
2.90753,90045
2.91565,86455
2.92378,86282
2.93190,85290
2.94002,82685
2.94815,83079
2.95627,81890
2.96440,91015
2.97252,92017
2.98063,95545
2.98877,88446
2.99688,89497
3.00502,87907
3.01313,88515
3.02125,86420
3.02938,84176
3.03750,83187
3.04562,87896
3.05375,80440
3.06187,84841
3.07000,84159
3.07812,86622
3.08623,190921
3.09437,619896
3.10248,1243780
3.11062,1793224
3.11873,2159627
3.12685,1710654
3.13498,1101496
3.14310,802796
3.15122,650734
3.15935,536898
3.16747,449164
3.17560,397940
3.18372,343595
3.19183,309821
3.19997,292743
3.20808,255917
3.21622,239554
3.22433,223686
3.23245,204768
3.24058,199200
3.24870,183510
3.25683,170494
3.26495,161697
3.27307,161519
3.28120,156480
3.28932,224596
3.29743,686866
3.30557,2362939
3.31368,5167401
3.32182,6759157
3.32993,6042370
3.33805,4400055
3.34618,3205371
3.35430,2526404
3.36243,2086314
3.37055,1766748
3.37867,1509595
3.38680,1324070
3.39492,1211268
3.40303,1077443
3.41117,986113
3.41928,907003
3.42742,845054
3.43553,764674
3.44365,745470
3.45178,705649
3.45990,685691
3.46803,792939
3.47615,1139169
3.48427,1322046
3.49240,1150794
3.50052,869268
3.50865,697516
3.51677,620195
3.52488,571023
3.53302,520230
3.54113,491846
3.54925,441789
3.55738,438933
3.56550,433816
3.57363,463506
3.58175,516682
3.58987,531649
3.59800,466065
3.60612,425155
3.61425,385342
3.62237,379914
3.63048,358665
3.63862,345416
3.64673,335243
3.65487,323729
3.66298,309830
3.67110,300177
3.67923,295641
3.68735,295011
3.69547,274516
3.70360,285581
3.71172,268750
3.71985,264395
3.72797,261231
3.73608,257670
3.74422,251496
3.75233,250743
3.76047,243297
3.76858,252437
3.77670,239805
3.78483,232006
3.79295,233376
3.80107,273489
3.80920,519661
3.81732,1255797
3.82545,2024344
3.83357,1915784
3.84168,1291034
3.84982,888443
3.85793,708332
3.86607,618543
3.87418,551730
3.88230,504726
3.89043,450431
3.89855,437406
3.90668,413055
3.91480,370543
3.92292,367590
3.93105,360452
3.93917,345127
3.94728,354588
3.95542,519064
3.96353,1065543
3.97167,1843669
3.97978,2096224
3.98790,1568835
3.99603,1154209
4.00415,1867007
4.01228,4809882
4.02040,8675988
4.02852,9606784
4.03665,6755127
4.04477,3814270
4.05290,2263337
4.06102,1599803
4.06913,1255436
4.07727,1038414
4.08538,887772
4.09350,783822
4.10163,689128
4.10975,609450
4.11788,554578
4.12600,506242
4.13412,472952
4.14225,447634
4.15037,424214
4.15850,431659
4.16662,420373
4.17473,402360
4.18287,385858
4.19098,376834
4.19910,358712
4.20723,322067
4.21535,308639
4.22348,360474
4.23160,475458
4.23972,610015
4.24785,619263
4.25597,529956
4.26410,437514
4.27222,391072
4.28033,358200
4.28847,333946
4.29658,295729
4.30472,290093
4.31283,273781
4.32095,257747
4.32908,255199
4.33720,255067
4.34532,255122
4.35345,245796
4.36157,249516
4.36970,235535
4.37782,231363
4.38593,226861
4.39407,221747
4.40218,219194
4.41032,222071
4.41843,215226
4.42655,212067
4.43468,216530
4.44280,204365
4.45092,205037
4.45905,203799
4.46717,204444
4.47530,193662
4.48342,193974
4.49153,197731
4.49967,194068
4.50778,184028
4.51592,189520
4.52403,191531
4.53215,180702
4.54028,184849
4.54840,184659
4.55653,180937
4.56465,178687
4.57277,174787
4.58090,185511
4.58902,177459
4.59713,181960
4.60527,180234
4.61338,169443
4.62152,175486
4.62963,169260
4.63775,169637
4.64588,171579
4.65400,172162
4.66213,163305
4.67025,171590
4.67837,164429
4.68650,168497
4.69462,171110
4.70275,170412
4.71087,164541
4.71898,170108
4.72712,166262
4.73523,167758
4.74335,156429
4.75148,165937
4.75960,158198
4.76773,152995
4.77585,149045
4.78397,156250
4.79210,154127
4.80022,163388
4.80835,175379
4.81647,184303
4.82458,186508
4.83272,169020
4.84083,181666
4.84897,179024
4.85708,179281
4.86520,174325
4.87333,168673
4.88145,171835
4.88957,172652
4.89770,165448
4.90582,160274
4.91395,153173
4.92207,151031
4.93018,154380
4.93832,180093
4.94643,283983
4.95457,635525
4.96268,1360443
4.97080,2166373
4.97893,2640373
4.98705,2513820
4.99517,2030819
5.00330,1553048
5.01142,1234243
5.01955,1029486
5.02767,878124
5.03578,764149
5.04392,677662
5.05203,644488
5.06017,573745
5.06828,539981
5.07640,517295
5.08453,476819
5.09265,448389
5.10078,431574
5.10890,400384
5.11702,389485
5.12515,374608
5.13327,358705
5.14138,345280
5.14952,335080
5.15763,326038
5.16577,327346
5.17388,312673
5.18200,304225
5.19013,305179
5.19825,307840
5.20638,291454
5.21450,293393
5.22262,281139
5.23075,279678
5.23887,280656
5.24698,282444
5.25512,286597
5.26323,275191
5.27137,260383
5.27948,248922
5.28760,246150
5.29573,241103
5.30385,237310
5.31198,227541
5.32010,230490
5.32822,233140
5.33635,239677
5.34447,250166
5.35260,255426
5.36072,254125
5.36883,242676
5.37697,239011
5.38508,226893
5.39320,228174
5.40133,221543
5.40945,221679
5.41758,219474
5.42570,209828
5.43382,211048
5.44195,207750
5.45007,209858
5.45820,218944
5.46632,204466
5.47443,209090
5.48257,202475
5.49068,197238
5.49882,198795
5.50693,200354
5.51505,197135
5.52318,203932
5.53130,207354
5.53942,197613
5.54755,195957
5.55567,194851
5.56380,190279
5.57192,189623
5.58003,192071
5.58817,196228
5.59628,226085
5.60442,232130
5.61253,225203
5.62065,217682
5.62878,201678
5.63690,210040
5.64502,212846
5.65315,212942
5.66127,201807
5.66940,206233
5.67752,196858
5.68563,196263
5.69377,213380
5.70188,243162
5.71002,241269
5.71813,233341
5.72625,215693
5.73438,206606
5.74250,198505
5.75063,180221
5.75875,176373
5.76687,182311
5.77500,185875
5.78312,185119
5.79123,173187
5.79937,171380
5.80748,173491
5.81562,166629
5.82373,170154
5.83185,160413
5.83998,169348
5.84810,161321
5.85623,169371
5.86435,167391
5.87247,161438
5.88060,160640
5.88872,162250
5.89685,165501
5.90497,156938
5.91308,136499
5.92122,119124
5.92933,120923
5.93745,118892
5.94558,121958
5.95370,116280
5.96183,113107
5.96995,125812
5.97807,125780
5.98620,139108
5.99432,143053
6.00245,143941
6.01057,137910
6.01868,130677
6.02682,126942
6.03493,122547
6.04305,120948
6.05118,125386
6.05930,120139
6.06743,122150
6.07555,110538
6.08367,114563
6.09180,114060
6.09992,113603
6.10805,112218
6.11617,110533
6.12428,108382
6.13242,123651
6.14053,116716
6.14867,118422
6.15678,124849
6.16490,122317
6.17303,130520
6.18115,131482
6.18927,128441
6.19740,135018
6.20552,132091
6.21365,134913
6.22177,132904
6.22988,134072
6.23802,143780
6.24613,151285
6.25427,148305
6.26238,146378
6.27050,141567
6.27863,149576
6.28675,152244
6.29487,151144
6.30300,153173
6.31112,155541
6.31925,159819
6.32737,171044
6.33548,163300
6.34362,173566
6.35173,173195
6.35987,173589
6.36798,174615
6.37610,172948
6.38423,178106
6.39235,185930
6.40048,190731
6.40860,195063
6.41672,190954
6.42485,197161
6.43297,184389
6.44108,191718
6.44922,200389
6.45733,211432
6.46547,203217
6.47358,202663
6.48170,206879
6.48983,200184
6.49795,212670
6.50608,218754
6.51420,205902
6.52232,209807
6.53045,220097
6.53857,225058
6.54670,224388
6.55482,222710
6.56293,224906
6.57107,235560
6.57918,233041
6.58730,233333
6.59543,242049
6.60355,239070
6.61168,236976
6.61980,232676
6.62792,245995
6.63605,234603
6.64417,248635
6.65230,266281
6.66042,353397
6.66853,555026
6.67667,846877
6.68478,943680
6.69290,810842
6.70103,575504
6.70915,417754
6.71728,344135
6.72540,314952
6.73352,296405
6.74165,283968
6.74977,294615
6.75790,287276
6.76602,278313
6.77413,290593
6.78227,270699
6.79038,285981
6.79852,275640
6.80663,277552
6.81475,282815
6.82288,289097
6.83100,279491
6.83912,281614
6.84725,288346
6.85537,301399
6.86350,313318
6.87162,311229
6.87973,272607
6.88787,204075
6.89598,168795
6.90412,145103
6.91223,142328
6.92035,126727
6.92848,131648
6.93660,122408
6.94473,119129
6.95285,117334
6.96097,112178
6.96910,116196
6.97722,128902
6.98533,139089
6.99347,148910
7.00158,144695
7.00972,130690
7.01783,117463
7.02595,106653
7.03408,104661
7.04220,98591
7.05033,94123
7.05845,96122
7.06657,93985
7.07470,98921
7.08282,96525
7.09093,91739
7.09907,94434
7.10718,86847
7.11532,89895
7.12343,88149
7.13155,88290
7.13968,89100
7.14780,95693
7.15593,103218
7.16405,131832
7.17217,140148
7.18030,139884
7.18842,133469
7.19655,110170
7.20467,97238
7.21278,98337
7.22092,90596
7.22903,88897
7.23715,93817
7.24528,94077
7.25340,84172
7.26153,89384
7.26965,89020
7.27777,95921
7.28590,95542
7.29402,100310
7.30215,90681
7.31027,89858
7.31838,84340
7.32652,84905
7.33463,85142
7.34275,82671
7.35088,89119
7.35900,89327
7.36713,92575
7.37525,91327
7.38337,91786
7.39150,84587
7.39962,84604
7.40775,81755
7.41587,84091
7.42398,86157
7.43212,80348
7.44023,76209
7.44837,87435
7.45648,76906
7.46460,78970
7.47273,80281
7.48085,77951
7.48897,75287
7.49710,77617
7.50522,75851
7.51335,77854
7.52147,71647
7.52958,75185
7.53772,68344
7.54583,70558
7.55397,74951
7.56208,74427
7.57020,70374
7.57833,75522
7.58645,72365
7.59458,72336
7.60270,71941
7.61082,69904
7.61895,71822
7.62707,70559
7.63518,72291
7.64332,68215
7.65143,69952
7.65957,68848
7.66768,74523
7.67580,74361
7.68393,72481
7.69205,72714
7.70018,73302
7.70830,66993
7.71642,67342
7.72455,73367
7.73267,67807
7.74078,73602
7.74892,66374
7.75703,65972
7.76517,71121
7.77328,69092
7.78140,69204
7.78953,71511
7.79765,70690
7.80578,73765
7.81390,81311
7.82202,71253
7.83015,69113
7.83827,67084
7.84640,68334
7.85452,65033
7.86263,65975
7.87077,63282
7.87888,62523
7.88700,65872
7.89513,62304
7.90325,60280
7.91138,61595
7.91950,74293
7.92762,74032
7.93575,88741
7.94387,126643
7.95200,159996
7.96012,196265
7.96823,191231
7.97637,163155
7.98448,126463
7.99262,98406
8.00073,88853
8.00885,75819
8.01698,72381
8.02510,72516
8.03322,71448
8.04135,68666
8.04947,70065
8.05760,69777
8.06572,66733
8.07383,68265
8.08197,65637
8.09008,68379
8.09822,62896
8.10633,67566
8.11445,65315
8.12258,70361
8.13070,70881
8.13882,70768
8.14695,67044
8.15507,67556
8.16320,66150
8.17132,71043
8.17943,65580
8.18757,66327
8.19568,67283
8.20382,62461
8.21193,56659
8.22005,64478
8.22818,66675
8.23630,65574
8.24443,63207
8.25255,61600
8.26067,61654
8.26880,58221
8.27692,63575
8.28503,65461
8.29317,64220
8.30128,71520
8.30942,74528
8.31753,75192
8.32565,63066
8.33378,67935
8.34190,64821
8.35003,58399
8.35815,62980
8.36627,61770
8.37440,64470
8.38252,64768
8.39065,62179
8.39877,68236
8.40688,62393
8.41502,62794
8.42313,60492
8.43125,61564
8.43938,55371
8.44750,56829
8.45563,56428
8.46375,56666
8.47187,56401
8.48000,56969
8.48812,55161
8.49625,57786
8.50437,64815
8.51248,56355
8.52062,62591
8.52873,58520
8.53685,64125
8.54498,60148
8.55310,62642
8.56123,77972
8.56935,113515
8.57747,171983
8.58560,214703
8.59372,220946
8.60185,194843
8.60997,152981
8.61808,117393
8.62622,90480
8.63433,80808
8.64247,70617
8.65058,65851
8.65870,65941
8.66683,63275
8.67495,64365
8.68307,64430
8.69120,60690
8.69932,63020
8.70745,55312
8.71557,57367
8.72368,59063
8.73182,57633
8.73993,60451
8.74807,63155
8.75618,81668
8.76430,135979
8.77243,261658
8.78055,483509
8.78867,712803
8.79680,831497
8.80492,819307
8.81305,667786
8.82117,495144
8.82928,349175
8.83742,267078
8.84553,214033
8.85367,181800
8.86178,166187
8.86990,173711
8.87803,188318
8.88615,200597
8.89428,214144
8.90240,192090
8.91052,186130
8.91865,178352
8.92677,165263
8.93488,166135
8.94302,167266
8.95113,149816
8.95927,147994
8.96738,140036
8.97550,145527
8.98363,137698
8.99175,141388
8.99988,139372
9.00800,134377
9.01612,126829
9.02425,123427
9.03237,122482
9.04050,124059
9.04862,133352
9.05673,125488
9.06487,120903
9.07298,127449
9.08110,123565
9.08923,119331
9.09735,113295
9.10548,123109
9.11360,116801
9.12172,114958
9.12985,111606
9.13797,113534
9.14610,113836
9.15422,108076
9.16233,111120
9.17047,115307
9.17858,102363
9.18670,104728
9.19483,105430
9.20295,104350
9.21108,98005
9.21920,99278
9.22732,98025
9.23545,93050
9.24357,107195
9.25170,98516
9.25982,91874
9.26793,96933
9.27607,93888
9.28418,91749
9.29232,90838
9.30043,95543
9.30855,94882
9.31668,91376
9.32480,97724
9.33292,99427
9.34105,95932
9.34917,96780
9.35730,95679
9.36542,91708
9.37353,86123
9.38167,81931
9.38978,84969
9.39792,91324
9.40603,94160
9.41415,86354
9.42228,86176
9.43040,83740
9.43853,78951
9.44665,83438
9.45477,85496
9.46290,80956
9.47102,82157
9.47913,79031
9.48727,82140
9.49538,88258
9.50352,85916
9.51163,95288
9.51975,92609
9.52788,103769
9.53600,92401
9.54413,89869
9.55225,89424
9.56037,82924
9.56850,86264
9.57662,84874
9.58473,84086
9.59287,81371
9.60098,83777
9.60912,70850
9.61723,70605
9.62535,69011
9.63348,58649
9.64160,55081
9.64973,50353
9.65785,57099
9.66597,53371
9.67410,51566
9.68222,53820
9.69035,49761
9.69847,51899
9.70658,50104
9.71472,55159
9.72283,50833
9.73095,52339
9.73908,51930
9.74720,53761
9.75533,50715
9.76345,51812
9.77157,49089
9.77970,47977
9.78782,46256
9.79595,46917
9.80407,46934
9.81218,47006
9.82032,47146
9.82843,47843
9.83655,52395
9.84468,51884
9.85280,47453
9.86093,43947
9.86905,44628
9.87717,51208
9.88530,47965
9.89342,57536
9.90155,58821
9.90967,66143
9.91778,79262
9.92592,84921
9.93403,84562
9.94217,84897
9.95028,83409
9.95840,77028
9.96653,71928
9.97465,68382
9.98277,72804
9.99090,69607
9.99902,68986
10.00715,73696
10.01527,75233
10.02338,78552
10.03152,75723
10.03963,62640
10.04777,61017
10.05588,60821
10.06400,52515
10.07213,51011
10.08025,51334
10.08838,59554
10.09650,55109
10.10462,59597
10.11275,61854
10.12087,60462
10.12898,63701
10.13712,55527
10.14523,51678
10.15337,58672
10.16148,52188
10.16960,49108
10.17773,51417
10.18585,55237
10.19398,53908
10.20210,50432
10.21022,53628
10.21835,55532
10.22647,52741
10.23460,55124
10.24272,60126
10.25083,60701
10.25897,65943
10.26708,66682
10.27520,68459
10.28333,76955
10.29145,60705
10.29958,57067
10.30770,54205
10.31582,54106
10.32395,58012
10.33207,56691
10.34020,57249
10.34832,57464
10.35643,62892
10.36457,59875
10.37268,59923
10.38080,61456
10.38893,57813
10.39705,55479
10.40518,60147
10.41330,54020
10.42142,52815
10.42955,54660
10.43767,47755
10.44580,51876
10.45392,48356
10.46203,51575
10.47017,52287
10.47828,48029
10.48642,49226
10.49453,46275
10.50265,62079
10.51078,50334
10.51890,52806
10.52702,48256
10.53515,48716
10.54327,50884
10.55140,52281
10.55952,55694
10.56763,50438
10.57577,52249
10.58388,50923
10.59202,54813
10.60013,50714
10.60825,50516
10.61638,51324
10.62450,52954
10.63262,51990
10.64075,51728
10.64887,50991
10.65700,48010
10.66512,48350
10.67323,52819
10.68137,56414
10.68948,50389
10.69762,49311
10.70573,47879
10.71385,43750
10.72198,46844
10.73010,50504
10.73823,49543
10.74635,49666
10.75447,56199
10.76260,51391
10.77072,50044
10.77883,50345
10.78697,48121
10.79508,48833
10.80322,44950
10.81133,46746
10.81945,46936
10.82758,45496
10.83570,45609
10.84383,51939
10.85195,41603
10.86007,46718
10.86820,41466
10.87632,47013
10.88443,43960
10.89257,46222
10.90068,43034
10.90882,42245
10.91693,42371
10.92505,53434
10.93318,42620
10.94130,44125
10.94943,43733
10.95755,42780
10.96567,56127
10.97380,40675
10.98192,43946
10.99005,43646
10.99817,43713
11.00628,43215
11.01442,43459
11.02253,41062
11.03065,39996
11.03878,38419
11.04690,44542
11.05503,40332
11.06315,37864
11.07127,44612
11.07940,42898
11.08752,40955
11.09565,39811
11.10377,41312
11.11188,39840
11.12002,40640
11.12813,42354
11.13627,40407
11.14438,40819
11.15250,40088
11.16063,44827
11.16875,52841
11.17687,47852
11.18500,55016
11.19312,53486
11.20125,51722
11.20937,54220
11.21748,50745
11.22562,49600
11.23373,47738
11.24187,40995
11.24998,41053
11.25810,42108
11.26623,53699
11.27435,45208
11.28248,45656
11.29060,45252
11.29872,44741
11.30685,44738
11.31497,42239
11.32308,43261
11.33122,54060
11.33933,40987
11.34747,44266
11.35558,40693
11.36370,42569
11.37183,43340
11.37995,42965
11.38808,39622
11.39620,41610
11.40432,38264
11.41245,41694
11.42057,38339
11.42868,39778
11.43682,39891
11.44493,39445
11.45307,40652
11.46118,45290
11.46930,37341
11.47743,40918
11.48555,44289
11.49368,49349
11.50180,57504
11.50992,74504
11.51805,81253
11.52617,76805
11.53430,72092
11.54242,56093
11.55053,52749
11.55867,45700
11.56678,48893
11.57490,48281
11.58303,49501
11.59115,40203
11.59928,40868
11.60740,40688
11.61552,41837
11.62365,41944
11.63177,41287
11.63990,42073
11.64802,43177
11.65613,52956
11.66427,45178
11.67238,47617
11.68050,46630
11.68863,44124
11.69675,45950
11.70488,45209
11.71300,42814
11.72112,47619
11.72925,46994
11.73737,40120
11.74550,42868
11.75362,40695
11.76173,42337
11.76987,43867
11.77798,44129
11.78612,45163
11.79423,45384
11.80235,42064
11.81048,46113
11.81860,54439
11.82672,44724
11.83485,44048
11.84297,42250
11.85110,44747
11.85922,46629
11.86733,49461
11.87547,51310
11.88358,53849
11.89172,56606
11.89983,50481
11.90795,48845
11.91608,45432
11.92420,46748
11.93233,45852
11.94045,45264
11.94857,44990
11.95670,44220
11.96482,46106
11.97293,44593
11.98107,46103
11.98918,43046
11.99732,38970
12.00543,48402
12.01355,48234
12.02168,60355
12.02980,56380
12.03793,57226
12.04605,55628
12.05417,53899
12.06230,49625
12.07042,45035
12.07853,45308
12.08667,42736
12.09478,39607
12.10292,40483
12.11103,42369
12.11915,45526
12.12728,47001
12.13540,50977
12.14353,43491
12.15165,44286
12.15977,43326
12.16790,41506
12.17602,37197
12.18415,41252
12.19227,40224
12.20038,39776
12.20852,38402
12.21663,43089
12.22475,47485
12.23288,44086
12.24100,42507
12.24913,41613
12.25725,45417
12.26537,45456
12.27350,44539
12.28162,40854
12.28975,41979
12.29787,40455
12.30598,44478
12.31412,45834
12.32223,40403
12.33037,44922
12.33848,40332
12.34660,44347
12.35473,42945
12.36285,39312
12.37097,43859
12.37910,45840
12.38722,45492
12.39535,42201
12.40347,39174
12.41158,40726
12.41972,43413
12.42783,49227
12.43597,52339
12.44408,51687
12.45220,57274
12.46033,53651
12.46845,50197
12.47657,49960
12.48470,41830
12.49282,42246
12.50095,45359
12.50907,46626
12.51718,40439
12.52532,44762
12.53343,42167
12.54157,43995
12.54968,42767
12.55780,42605
12.56593,40735
12.57405,43805
12.58218,41233
12.59030,47529
12.59842,44074
12.60655,44247
12.61467,47883
12.62278,43396
12.63092,45563
12.63903,45906
12.64717,45986
12.65528,45266
12.66340,41618
12.67153,39979
12.67965,43525
12.68778,38698
12.69590,41299
12.70402,41873
12.71215,45334
12.72027,45508
12.72838,53088
12.73652,55503
12.74463,60224
12.75277,56189
12.76088,56410
12.76900,46277
12.77713,45557
12.78525,48053
12.79338,44294
12.80150,44478
12.80962,43714
12.81775,46796
12.82587,43435
12.83400,42875
12.84212,44594
12.85023,39972
12.85837,38103
12.86648,39771
12.87460,40037
12.88273,41424
12.89085,38953
12.89898,36323
12.90710,39706
12.91522,40673
12.92335,38889
12.93147,38306
12.93960,36907
12.94772,39944
12.95583,35389
12.96397,39913
12.97208,37611
12.98022,41474
12.98833,40375
12.99645,41062
13.00458,45010
13.01270,40458
13.02082,40539
13.02895,42409
13.03707,39005
13.04520,41047
13.05332,42024
13.06143,37561
13.06957,42663
13.07768,38110
13.08582,41470
13.09393,42421
13.10205,39542
13.11018,41380
13.11830,41998
13.12642,38180
13.13455,49819
13.14267,37882
13.15080,42210
13.15892,39273
13.16703,37944
13.17517,42800
13.18328,43103
13.19142,41709
13.19953,43277
13.20765,50374
13.21578,46965
13.22390,48940
13.23203,46119
13.24015,45653
13.24827,44651
13.25640,42715
13.26452,38796
13.27263,39599
13.28077,35153
13.28888,41952
13.29702,40030
13.30513,40754
13.31325,40840
13.32138,44181
13.32950,41797
13.33763,38888
13.34575,39426
13.35387,37582
13.36200,37528
13.37012,38416
13.37825,42391
13.38637,35664
13.39448,36717
13.40262,37389
13.41073,39316
13.41885,40491
13.42698,36628
13.43510,36687
13.44323,40125
13.45135,40843
13.45947,38852
13.46760,37331
13.47572,39554
13.48385,38676
13.49197,38557
13.50008,39280
13.50822,39477
13.51633,39851
13.52445,38327
13.53258,35456
13.54070,35355
13.54883,36036
13.55695,40175
13.56507,41565
13.57320,40049
13.58132,39273
13.58945,37630
13.59757,39539
13.60568,41798
13.61382,36938
13.62193,36478
13.63007,35664
13.63818,36563
13.64630,37409
13.65443,39066
13.66255,37428
13.67067,39256
13.67880,37686
13.68692,37556
13.69505,40125
13.70317,39816
13.71128,41204
13.71942,32038
13.72753,37936
13.73567,38959
13.74378,39166
13.75190,38819
13.76003,38211
13.76815,48027
13.77628,53674
13.78440,58884
13.79252,73249
13.80065,83293
13.80877,79330
13.81688,73056
13.82502,60464
13.83313,54375
13.84127,48607
13.84938,42949
13.85750,45424
13.86563,51351
13.87375,44050
13.88188,41220
13.89000,41737
13.89812,40988
13.90625,38956
13.91437,43889
13.92248,39682
13.93062,37677
13.93873,42206
13.94687,42737
13.95498,41803
13.96310,43511
13.97123,46652
13.97935,54455
13.98748,71729
13.99560,92707
14.00372,86888
14.01185,79939
14.01997,78014
14.02810,65464
14.03622,59381
14.04433,51631
14.05247,45601
14.06058,50309
14.06870,45702
14.07683,47972
14.08495,51216
14.09308,49480
14.10120,45931
14.10932,50264
14.11745,47286
14.12557,44983
14.13370,44179
14.14182,44077
14.14993,45922
14.15807,46171
14.16618,47174
14.17430,48173
14.18243,45322
14.19055,53291
14.19868,68202
14.20680,103134
14.21492,146114
14.22305,208926
14.23117,250579
14.23930,259509
14.24742,254314
14.25553,231318
14.26367,201586
14.27178,173112
14.27992,156092
14.28803,139129
14.29615,127113
14.30428,113508
14.31240,112349
14.32052,97774
14.32865,93833
14.33677,96388
14.34490,87170
14.35302,84589
14.36113,82829
14.36927,76994
14.37738,64418
14.38552,60111
14.39363,52391
14.40175,45986
14.40988,46042
14.41800,44130
14.42613,44403
14.43425,44583
14.44237,42528
14.45050,44950
14.45862,44379
14.46673,48990
14.47487,46486
14.48298,45823
14.49112,42763
14.49923,40743
14.50735,40574
14.51548,40360
14.52360,44601
14.53173,40437
14.53985,41796
14.54797,43472
14.55610,43881
14.56422,45342
14.57233,42942
14.58047,39452
14.58858,39380
14.59672,38473
14.60483,36509
14.61295,38953
14.62108,39075
14.62920,39444
14.63733,38264
14.64545,39751
14.65357,38493
14.66170,34982
14.66982,38128
14.67795,38709
14.68607,36625
14.69418,40840
14.70232,39740
14.71043,36981
14.71855,38172
14.72668,42781
14.73480,39128
14.74293,35681
14.75105,35832
14.75917,41008
14.76730,36768
14.77542,37312
14.78355,37640
14.79167,37371
14.79978,37695
14.80792,34922
14.81603,37130
14.82417,37706
14.83228,41295
14.84040,44380
14.84853,51760
14.85665,58555
14.86477,59491
14.87290,60271
14.88102,53751
14.88915,59692
14.89727,55683
14.90538,55426
14.91352,52585
14.92163,62505
14.92977,55527
14.93788,54542
14.94600,54116
14.95413,54501
14.96225,51631
14.97037,51818
14.97850,54705
14.98662,49995
14.99475,51428
15.00287,49462
15.01098,51206
15.01912,50004
15.02723,47603
15.03537,52843
15.04348,49429
15.05160,47192
15.05973,46478
15.06785,47543
15.07598,45300
15.08410,46672
15.09222,44636
15.10035,46963
15.10847,46670
15.11658,49475
15.12472,49374
15.13283,48234
15.14097,49356
15.14908,47923
15.15720,47949
15.16533,48723
15.17345,43708
15.18158,42505
15.18970,43222
15.19782,41206
15.20595,43262
15.21407,39858
15.22218,40450
15.23032,38517
15.23843,39043
15.24657,44919
15.25468,40892
15.26280,44061
15.27093,42159
15.27905,43648
15.28718,43547
15.29530,37975
15.30342,37456
15.31155,40179
15.31967,40244
15.32780,38996
15.33592,37061
15.34403,37801
15.35217,36588
15.36028,39966
15.36840,38774
15.37653,37112
15.38465,38187
15.39278,34652
15.40090,40658
15.40902,40038
15.41715,37013
15.42527,44902
15.43340,34394
15.44152,39868
15.44963,34832
15.45777,39301
15.46588,38102
15.47402,45514
15.48213,35330
15.49025,41819
15.49838,36035
15.50650,38564
15.51462,38520
15.52275,40870
15.53087,43680
15.53900,42833
15.54712,43748
15.55523,47272
15.56337,46658
15.57148,44395
15.57962,42327
15.58773,41582
15.59585,41460
15.60398,38374
15.61210,40005
15.62023,41841
15.62835,40402
15.63647,37856
15.64460,40932
15.65272,38139
15.66083,34736
15.66897,35622
15.67708,47240
15.68522,35460
15.69333,36767
15.70145,35889
15.70958,37577
15.71770,37196
15.72583,39151
15.73395,39131
15.74207,36085
15.75020,37105
15.75832,40599
15.76643,38294
15.77457,38258
15.78268,40712
15.79082,41605
15.79893,41392
15.80705,43934
15.81518,47089
15.82330,43918
15.83143,43585
15.83955,41636
15.84767,41035
15.85580,41516
15.86392,39351
15.87205,39944
15.88017,39182
15.88828,41669
15.89642,49938
15.90453,52286
15.91265,39107
15.92078,39626
15.92890,41333
15.93703,38939
15.94515,42504
15.95327,39645
15.96140,40296
15.96952,43585
15.97765,47261
15.98577,48082
15.99388,49925
16.00202,57808
16.01013,57117
16.01825,63086
16.02638,64907
16.03450,64578
16.04263,67722
16.05075,61614
16.05887,60491
16.06700,53864
16.07512,58865
16.08325,51710
16.09137,55542
16.09948,51300
16.10762,49310
16.11573,47986
16.12387,46791
16.13198,43554
16.14010,44821
16.14823,46121
16.15635,50158
16.16447,46209
16.17260,42140
16.18072,40267
16.18885,47045
16.19697,43417
16.20508,45143
16.21322,44751
16.22133,40501
16.22947,49783
16.23758,44191
16.24570,43704
16.25383,43827
16.26195,43178
16.27008,43555
16.27820,43490
16.28632,44447
16.29445,43275
16.30257,45815
16.31068,45729
16.31882,43886
16.32693,39259
16.33507,39684
16.34318,40088
16.35130,44591
16.35943,44833
16.36755,46443
16.37568,50103
16.38380,56740
16.39192,64068
16.40005,70903
16.40817,59617
16.41628,59671
16.42442,50001
16.43253,44335
16.44067,39805
16.44878,41777
16.45690,45760
16.46503,40520
16.47315,41182
16.48128,38705
16.48940,43472
16.49752,40011
16.50565,46788
16.51377,41252
16.52190,38855
16.53002,37248
16.53813,42521
16.54627,46824
16.55438,42158
16.56250,40450
16.57063,36678
16.57875,39576
16.58688,37377
16.59500,40673
16.60312,46682
16.61125,46902
16.61937,45035
16.62750,47230
16.63562,52211
16.64373,45912
16.65187,45519
16.65998,40165
16.66812,41539
16.67623,42575
16.68435,36955
16.69248,39921
16.70060,43316
16.70872,41409
16.71685,38873
16.72497,43026
16.73310,38595
16.74122,42077
16.74933,37975
16.75747,36973
16.76558,37176
16.77372,41956
16.78183,41063
16.78995,33015
16.79808,34995
16.80620,35519
16.81432,33563
16.82245,34003
16.83057,36906
16.83870,39874
16.84682,32306
16.85493,38545
16.86307,37182
16.87118,35919
16.87932,40463
16.88743,37983
16.89555,36453
16.90368,35013
16.91180,35444
16.91993,34785
16.92805,32477
16.93617,38243
16.94430,39282
16.95242,36984
16.96053,34946
16.96867,35931
16.97678,38448
16.98492,37199
16.99303,35551
17.00115,35087
17.00928,40054
17.01740,34422
17.02553,32489
17.03365,30179
17.04177,31912
17.04990,42168
17.05802,36071
17.06613,33405
17.07427,38690
17.08238,41471
17.09052,34064
17.09863,36858
17.10675,36581
17.11488,38120
17.12300,34607
17.13113,35447
17.13925,36234
17.14737,36999
17.15550,37471
17.16362,35402
17.17175,35786
17.17987,32456
17.18798,34273
17.19612,35220
17.20423,32530
17.21235,32333
17.22048,45533
17.22860,35916
17.23673,36634
17.24485,34279
17.25297,38396
17.26110,35902
17.26922,35950
17.27735,33760
17.28547,37080
17.29358,34523
17.30172,37187
17.30983,36343
17.31797,35646
17.32608,35434
17.33420,37330
17.34233,38933
17.35045,38573
17.35857,41510
17.36670,42703
17.37482,41196
17.38295,42979
17.39107,43799
17.39918,48160
17.40732,48088
17.41543,42743
17.42357,43443
17.43168,42297
17.43980,44161
17.44793,42003
17.45605,51407
17.46417,42218
17.47230,39074
17.48042,42684
17.48855,44890
17.49667,42563
17.50478,40036
17.51292,40586
17.52103,44345
17.52917,40945
17.53728,44044
17.54540,48121
17.55353,44515
17.56165,46021
17.56978,42981
17.57790,41781
17.58602,48836
17.59415,44010
17.60227,42117
17.61038,38384
17.61852,38225
17.62663,35753
17.63477,38017
17.64288,42984
17.65100,50648
17.65913,68590
17.66725,78045
17.67538,100375
17.68350,109876
17.69162,110675
17.69975,101004
17.70787,87758
17.71600,72529
17.72412,61038
17.73223,55747
17.74037,59207
17.74848,50334
17.75660,47329
17.76473,48020
17.77285,47100
17.78098,47225
17.78910,43805
17.79722,47670
17.80535,47304
17.81347,44320
17.82160,43501
17.82972,50468
17.83783,46955
17.84597,48126
17.85408,42786
17.86220,47184
17.87033,45857
17.87845,43412
17.88658,41647
17.89470,42408
17.90282,42368
17.91095,39082
17.91907,37049
17.92720,37193
17.93532,40407
17.94343,35131
17.95157,34096
17.95968,42350
17.96782,36591
17.97593,35050
17.98405,37042
17.99218,46095
18.00030,35608
18.00842,36736
18.01655,34958
18.02467,37567
18.03280,35544
18.04092,38828
18.04903,36832
18.05717,37415
18.06528,40112
18.07342,40121
18.08153,39687
18.08965,45521
18.09778,58217
18.10590,62662
18.11402,75121
18.12215,80067
18.13027,77135
18.13840,83515
18.14652,81557
18.15463,75987
18.16277,76450
18.17088,74630
18.17902,69036
18.18713,72415
18.19525,73519
18.20338,70787
18.21150,70762
18.21963,67111
18.22775,62228
18.23587,55924
18.24400,63778
18.25212,60826
18.26023,66887
18.26837,59210
18.27648,54025
18.28462,58133
18.29273,51114
18.30085,52425
18.30898,47535
18.31710,42162
18.32523,43345
18.33335,41933
18.34147,41339
18.34960,39417
18.35772,41072
18.36585,37563
18.37397,36285
18.38208,39927
18.39022,40330
18.39833,41197
18.40645,40266
18.41458,39723
18.42270,41773
18.43083,35532
18.43895,36951
18.44707,40060
18.45520,42428
18.46332,37715
18.47145,37775
18.47957,40096
18.48768,37764
18.49582,35467
18.50393,38279
18.51205,37923
18.52018,36498
18.52830,36073
18.53643,38102
18.54455,35536
18.55267,36980
18.56080,35387
18.56892,39868
18.57705,37255
18.58517,36272
18.59328,40605
18.60142,38935
18.60953,36789
18.61767,43311
18.62578,41272
18.63390,37817
18.64203,36329
18.65015,42285
18.65827,40250
18.66640,37103
18.67452,38815
18.68265,37482
18.69077,39431
18.69888,35659
18.70702,32590
18.71513,33222
18.72327,33996
18.73138,34729
18.73950,31262
18.74763,36723
18.75575,36573
18.76388,35958
18.77200,31087
18.78012,36050
18.78825,31870
18.79637,30621
18.80448,42245
18.81262,32598
18.82073,33879
18.82887,34580
18.83698,33738
18.84510,39276
18.85323,33902
18.86135,31826
18.86948,35495
18.87760,37648
18.88572,39389
18.89385,35205
18.90197,32472
18.91008,35494
18.91822,31044
18.92633,37986
18.93447,34931
18.94258,35839
18.95070,40786
18.95883,38007
18.96695,34835
18.97508,32662
18.98320,34055
18.99132,35744
18.99945,33012
19.00757,33310
19.01570,31396
19.02382,33216
19.03193,36204
19.04007,35651
19.04818,34084
19.05630,35420
19.06443,33844
19.07255,34320
19.08068,35727
19.08880,35420
19.09692,40830
19.10505,45133
19.11317,52022
19.12130,54647
19.12942,59998
19.13753,54534
19.14567,49413
19.15378,50242
19.16192,51384
19.17003,50931
19.17815,50264
19.18628,50222
19.19440,52327
19.20252,51911
19.21065,45309
19.21877,46595
19.22690,44527
19.23502,45558
19.24313,43047
19.25127,42013
19.25938,41059
19.26752,40960
19.27563,38771
19.28375,49409
19.29188,53321
19.30000,57106
19.30812,57037
19.31625,52760
19.32437,55173
19.33250,54441
19.34062,51870
19.34873,55838
19.35687,58345
19.36498,53071
19.37312,51178
19.38123,53097
19.38935,46137
19.39748,47965
19.40560,45521
19.41373,45922
19.42185,44736
19.42997,51954
19.43810,42488
19.44622,40034
19.45433,45374
19.46247,39597
19.47058,44360
19.47872,45996
19.48683,41889
19.49495,53771
19.50308,67868
19.51120,93132
19.51933,137109
19.52745,177610
19.53557,196611
19.54370,206423
19.55182,166320
19.55993,126162
19.56807,97138
19.57618,65233
19.58432,56594
19.59243,47296
19.60055,41884
19.60868,45631
19.61680,45375
19.62493,47012
19.63305,45771
19.64117,53867
19.64930,66391
19.65742,95209
19.66555,137130
19.67367,199823
19.68178,269831
19.68992,312407
19.69803,312161
19.70615,266467
19.71428,233097
19.72240,179518
19.73053,143435
19.73865,117962
19.74677,101553
19.75490,88487
19.76302,83753
19.77115,74382
19.77927,69458
19.78738,62339
19.79552,58410
19.80363,64761
19.81177,57852
19.81988,55794
19.82800,54050
19.83613,49048
19.84425,56657
19.85237,79925
19.86050,158776
19.86862,458800
19.87675,1243432
19.88487,3052527
19.89298,6223188
19.90112,1.070324E+07
19.90923,1.454523E+07
19.91737,1.639398E+07
19.92548,1.550536E+07
19.93360,1.253264E+07
19.94173,8751166
19.94985,5752482
19.95797,3860660
19.96610,2752225
19.97422,2095839
19.98235,1729146
19.99047,1497539
19.99858,1318634
20.00672,1171161
20.01483,1079337
20.02297,997737
20.03108,916006
20.03920,822472
20.04733,743296
20.05545,638555
20.06358,523209
20.07170,448160
20.07982,332747
20.08795,247801
20.09607,205745
20.10418,176834
20.11232,165893
20.12043,155163
20.12857,136649
20.13668,136235
20.14480,130816
20.15293,129255
20.16105,128243
20.16918,123082
20.17730,121132
20.18542,119703
20.19355,117556
20.20167,111330
20.20980,107331
20.21792,104815
20.22603,105269
20.23417,102767
20.24228,105355
20.25040,99763
20.25853,112524
20.26665,119799
20.27478,147701
20.28290,198483
20.29102,240851
20.29915,279395
20.30727,306206
20.31540,277927
20.32352,246895
20.33163,204882
20.33977,171055
20.34788,138332
20.35600,116566
20.36413,108439
20.37225,87069
20.38038,74688
20.38850,72664
20.39662,71517
20.40475,66044
20.41287,68912
20.42100,65730
20.42912,71405
20.43723,75909
20.44537,84996
20.45348,97652
20.46162,106752
20.46973,108485
20.47785,111046
20.48598,106771
20.49410,96771
20.50222,78476
20.51035,75780
20.51847,68628
20.52660,60498
20.53472,63442
20.54283,56672
20.55097,57090
20.55908,53802
20.56722,53801
20.57533,59925
20.58345,51514
20.59158,49979
20.59970,46606
20.60782,51878
20.61595,56518
20.62407,51116
20.63220,44962
20.64032,48654
20.64843,50242
20.65657,46418
20.66468,47050
20.67282,46433
20.68093,48959
20.68905,47833
20.69718,47538
20.70530,50753
20.71343,49101
20.72155,50057
20.72967,45892
20.73780,44453
20.74592,45577
20.75403,50180
20.76217,45974
20.77028,53029
20.77842,45512
20.78653,43735
20.79465,43366
20.80278,46399
20.81090,47021
20.81903,46949
20.82715,49509
20.83527,51294
20.84340,45864
20.85152,48239
20.85965,50915
20.86777,51593
20.87588,49888
20.88402,48414
20.89213,50691
20.90025,48938
20.90838,52574
20.91650,52407
20.92463,51130
20.93275,51746
20.94087,45101
20.94900,47050
20.95712,53184
20.96525,50117
20.97337,53183
20.98148,51595
20.98962,49030
20.99773,50699
21.00587,50511
21.01398,49486
21.02210,49937
21.03023,50019
21.03835,48531
21.04647,50832
21.05460,58331
21.06272,50306
21.07085,52592
21.07897,49948
21.08708,49768
21.09522,52136
21.10333,43864
21.11147,49330
21.11958,49704
21.12770,48298
21.13583,49001
21.14395,43950
21.15207,47744
21.16020,51948
21.16832,51117
21.17645,49879
21.18457,52058
21.19268,51989
21.20082,53124
21.20893,55493
21.21707,52730
21.22518,51313
21.23330,50400
21.24143,53668
21.24955,51475
21.25768,47984
21.26580,48506
21.27392,50706
21.28205,55446
21.29017,49513
21.29828,47958
21.30642,49697
21.31453,49098
21.32267,47430
21.33078,43842
21.33890,46722
21.34703,50165
21.35515,48878
21.36328,48094
21.37140,50704
21.37952,46119
21.38765,47209
21.39577,48025
21.40388,55062
21.41202,48106
21.42013,49267
21.42827,51571
21.43638,47921
21.44450,50123
21.45263,52860
21.46075,48141
21.46888,49156
21.47700,47262
21.48512,50574
21.49325,46759
21.50137,49245
21.50950,47626
21.51762,45234
21.52573,47868
21.53387,48105
21.54198,47273
21.55010,45671
21.55823,48243
21.56635,47590
21.57448,48483
21.58260,44160
21.59072,46140
21.59885,48610
21.60697,47779
21.61510,46708
21.62322,48673
21.63133,54746
21.63947,61432
21.64758,79281
21.65572,86915
21.66383,100473
21.67195,104090
21.68008,94398
21.68820,87651
21.69632,78406
21.70445,62312
21.71257,54544
21.72070,56740
21.72882,56123
21.73693,46442
21.74507,49126
21.75318,48604
21.76132,47143
21.76943,49071
21.77755,47942
21.78568,52085
21.79380,46267
21.80192,49868
21.81005,45872
21.81817,49861
21.82630,53895
21.83442,60230
21.84253,76463
21.85067,79794
21.85878,93840
21.86692,105683
21.87503,93254
21.88315,82305
21.89128,72597
21.89940,63849
21.90753,57364
21.91565,48688
21.92377,52057
21.93190,49739
21.94002,43201
21.94813,41625
21.95627,46140
21.96438,44416
21.97252,45108
21.98063,43075
21.98875,44601
21.99688,45519
22.00500,44191
22.01313,39729
22.02125,39615
22.02937,42917
22.03750,42388
22.04562,43587
22.05375,41858
22.06187,40808
22.06998,42007
22.07812,42126
22.08623,41125
22.09435,44274
22.10248,43145
22.11060,42600
22.11873,44115
22.12685,44357
22.13497,44507
22.14310,41121
22.15122,41604
22.15935,42131
22.16747,43485
22.17558,43007
22.18372,43010
22.19183,44408
22.19995,41800
22.20808,44221
22.21620,44557
22.22433,43057
22.23245,45526
22.24057,50390
22.24870,49351
22.25682,54806
22.26495,53226
22.27307,53456
22.28118,47825
22.28932,44006
22.29743,42443
22.30557,53277
22.31368,47785
22.32180,54012
22.32993,56892
22.33805,67278
22.34617,73790
22.35430,84394
22.36242,77018
22.37055,74603
22.37867,60936
22.38678,54845
22.39492,52764
22.40303,48110
22.41117,46828
22.41928,46750
22.42740,42019
22.43553,46152
22.44365,45532
22.45177,45701
22.45990,43658
22.46802,42034
22.47615,44378
22.48427,41426
22.49238,43128
22.50052,42577
22.50863,41338
22.51677,43494
22.52488,42750
22.53300,39635
22.54113,39102
22.54925,40637
22.55738,41914
22.56550,41483
22.57362,39491
22.58175,35746
22.58987,41352
22.59798,39502
22.60612,43338
22.61423,35251
22.62237,37654
22.63048,37379
22.63860,37865
22.64673,34690
22.65485,38690
22.66298,37699
22.67110,37614
22.67922,35873
22.68735,43648
22.69547,40963
22.70360,46578
22.71172,45466
22.71983,45858
22.72797,45449
22.73608,43581
22.74420,43300
22.75233,38794
22.76045,40294
22.76858,40418
22.77670,40426
22.78482,36794
22.79295,37483
22.80107,40084
22.80920,38456
22.81732,36529
22.82543,39177
22.83357,39873
22.84168,40307
22.84980,37840
22.85793,39884
22.86605,44764
22.87418,41161
22.88230,42244
22.89042,44163
22.89855,49237
22.90667,42877
22.91480,50008
22.92292,52282
22.93103,60450
22.93917,71352
22.94728,77573
22.95542,84573
22.96353,87351
22.97165,87031
22.97978,82588
22.98790,75016
22.99602,72358
23.00415,71537
23.01227,73934
23.02040,65274
23.02852,56546
23.03663,52857
23.04477,54898
23.05288,48794
23.06102,43581
23.06913,54482
23.07725,42891
23.08538,42937
23.09350,43628
23.10163,42462
23.10975,46409
23.11787,42492
23.12600,36130
23.13412,38560
23.14223,39979
23.15037,37218
23.15848,34761
23.16662,38545
23.17473,36369
23.18285,33897
23.19098,39366
23.19910,37458
23.20723,37357
23.21535,39247
23.22347,39389
23.23160,36686
23.23972,40531
23.24783,39769
23.25597,42383
23.26408,42791
23.27222,44331
23.28033,44977
23.28845,45596
23.29658,44327
23.30470,45062
23.31283,41806
23.32095,39812
23.32907,38375
23.33720,35934
23.34532,38862
23.35345,38169
23.36157,43724
23.36968,41352
23.37782,38854
23.38593,41904
23.39405,43379
23.40218,44355
23.41030,43643
23.41843,46654
23.42655,47019
23.43467,44817
23.44280,46161
23.45092,46464
23.45905,46136
23.46717,44954
23.47528,42383
23.48342,43297
23.49153,44434
23.49965,52640
23.50778,43601
23.51590,46174
23.52403,44746
23.53215,40256
23.54027,44319
23.54840,46360
23.55652,49250
23.56465,54846
23.57277,56769
23.58088,61644
23.58902,62150
23.59713,62946
23.60527,60886
23.61338,72625
23.62150,69560
23.62963,62676
23.63775,67690
23.64587,78520
23.65400,106884
23.66212,148866
23.67025,191057
23.67837,230792
23.68648,236234
23.69462,217840
23.70273,185257
23.71087,146647
23.71898,114154
23.72710,97961
23.73523,79374
23.74335,68451
23.75148,76943
23.75960,110960
23.76772,242534
23.77585,649927
23.78397,1631044
23.79208,3223817
23.80022,5013571
23.80833,6109715
23.81647,6072756
23.82458,5109087
23.83270,3826502
23.84083,2604357
23.84895,1780316
23.85708,1205631
23.86520,904845
23.87332,715124
23.88145,586067
23.88957,494188
23.89768,423147
23.90582,366148
23.91393,335584
23.92207,301077
23.93018,286952
23.93830,268335
23.94643,248617
23.95455,220410
23.96268,210741
23.97080,199023
23.97892,203843
23.98705,191324
23.99517,177460
24.00330,169607
24.01142,162168
24.01953,152152
24.02767,150709
24.03578,147785
24.04390,153322
24.05203,152818
24.06015,152980
24.06828,148758
24.07640,146754
24.08452,138024
24.09265,133625
24.10077,124680
24.10890,115265
24.11702,110087
24.12513,108827
24.13327,116637
24.14138,112771
24.14952,115127
24.15763,121120
24.16575,118354
24.17388,117266
24.18200,110717
24.19012,104916
24.19825,104416
24.20637,107412
24.21450,98588
24.22262,102948
24.23073,104217
24.23887,105717
24.24698,106055
24.25512,111690
24.26323,102303
24.27135,96989
24.27948,95425
24.28760,85767
24.29572,86070
24.30385,82346
24.31197,81122
24.32010,83018
24.32822,85269
24.33633,83293
24.34447,81463
24.35258,71239
24.36072,80399
24.36883,75889
24.37695,73509
24.38508,79586
24.39320,86878
24.40133,109559
24.40945,132633
24.41757,163481
24.42570,179270
24.43382,185536
24.44193,158337
24.45007,125933
24.45818,105436
24.46632,81414
24.47443,81588
24.48255,75810
24.49068,76398
24.49880,81391
24.50693,84510
24.51505,93343
24.52317,92665
24.53130,95074
24.53942,99356
24.54755,101957
24.55567,97394
24.56378,94322
24.57192,95916
24.58003,103945
24.58815,102799
24.59628,104224
24.60440,107228
24.61253,103454
24.62065,95865
24.62877,94005
24.63690,86520
24.64502,81385
24.65315,81632
24.66127,78033
24.66938,75298
24.67752,78141
24.68563,73694
24.69375,71960
24.70188,72614
24.71000,72538
24.71813,66418
24.72625,64765
24.73437,64759
24.74250,61694
24.75062,58960
24.75875,60789
24.76687,62534
24.77498,55611
24.78312,59917
24.79123,61632
24.79937,55502
24.80748,55244
24.81560,57506
24.82373,55788
24.83185,57047
24.83997,57079
24.84810,55907
24.85622,55172
24.86435,58034
24.87247,62302
24.88058,67165
24.88872,65734
24.89683,61808
24.90497,59931
24.91308,60118
24.92120,54665
24.92933,62395
24.93745,58357
24.94557,53871
24.95370,50214
24.96182,55701
24.96995,51056
24.97807,52502
24.98618,52043
24.99432,53982
25.00243,48724
25.01057,49719
25.01868,50507
25.02680,50179
25.03493,51513
25.04305,47675
25.05118,48125
25.05930,52494
25.06742,50638
25.07555,48828
25.08367,53915
25.09178,52102
25.09992,47599
25.10803,46492
25.11617,51098
25.12428,51321
25.13240,52647
25.14053,62188
25.14865,60014
25.15678,65560
25.16490,73129
25.17302,81841
25.18115,75266
25.18927,71006
25.19740,68844
25.20552,66662
25.21363,60425
25.22177,55250
25.22988,58499
25.23800,55235
25.24613,54760
25.25425,53515
25.26238,50337
25.27050,46873
25.27862,52358
25.28675,56931
25.29487,55520
25.30300,54469
25.31112,56705
25.31923,53112
25.32737,62621
25.33548,58988
25.34360,58854
25.35173,54432
25.35985,52115
25.36798,53862
25.37610,48227
25.38422,50599
25.39235,49631
25.40047,47329
25.40860,47131
25.41672,45046
25.42483,50635
25.43297,45597
25.44108,43705
25.44922,48611
25.45733,49013
25.46545,44988
25.47358,46421
25.48170,45488
25.48982,50712
25.49795,55705
25.50607,57170
25.51420,56419
25.52232,55341
25.53043,62887
25.53857,51773
25.54668,49205
25.55482,47831
25.56293,50222
25.57105,44391
25.57918,46845
25.58730,47400
25.59543,44160
25.60355,44420
25.61167,50829
25.61980,43803
25.62792,44192
25.63603,42199
25.64417,45112
25.65228,48000
25.66042,46821
25.66853,48622
25.67665,42477
25.68478,45324
25.69290,45938
25.70103,46117
25.70915,46748
25.71727,45926
25.72540,41058
25.73352,41479
25.74163,43428
25.74977,45756
25.75788,47183
25.76602,46386
25.77413,43622
25.78225,51524
25.79038,42224
25.79850,42518
25.80663,43403
25.81475,45698
25.82287,47383
25.83100,45160
25.83912,47845
25.84725,49771
25.85537,47768
25.86348,49115
25.87162,47019
25.87973,45058
25.88785,45125
25.89598,44675
25.90410,41777
25.91223,43253
25.92035,40013
25.92847,47365
25.93660,42178
25.94472,49841
25.95285,43397
25.96097,43015
25.96908,40691
25.97722,42989
25.98533,41047
25.99345,40340
26.00158,41652
26.00970,37736
26.01783,36778
26.02595,39405
26.03407,37806
26.04220,38284
26.05032,39415
26.05845,42528
26.06657,41331
26.07468,41048
26.08282,41829
26.09093,38781
26.09907,40869
26.10718,46687
26.11530,44456
26.12343,41115
26.13155,48503
26.13967,46599
26.14780,45231
26.15592,53300
26.16405,55391
26.17217,53214
26.18028,53219
26.18842,55539
26.19653,56260
26.20467,53404
26.21278,49076
26.22090,45952
26.22903,46260
26.23715,48809
26.24528,43415
26.25340,47514
26.26152,45792
26.26965,44189
26.27777,43362
26.28588,44992
26.29402,44294
26.30213,43710
26.31027,50019
26.31838,43032
26.32650,43390
26.33463,38584
26.34275,38596
26.35088,39660
26.35900,42788
26.36712,43299
26.37525,44949
26.38337,45018
26.39150,41357
26.39962,43003
26.40773,47705
26.41587,46852
26.42398,50844
26.43210,52489
26.44023,49887
26.44835,47722
26.45648,48181
26.46460,43589
26.47272,47263
26.48085,43691
26.48897,54447
26.49710,41280
26.50522,39787
26.51333,43250
26.52147,43556
26.52958,36834
26.53770,37788
26.54583,40853
26.55395,40831
26.56208,32776
26.57020,37673
26.57832,39189
26.58645,40913
26.59457,39476
26.60270,40292
26.61082,40355
26.61893,42412
26.62707,40023
26.63518,39522
26.64332,40387
26.65143,39866
26.65955,42451
26.66768,40328
26.67580,47104
26.68392,43362
26.69205,53630
26.70017,45042
26.70830,47812
26.71642,47849
26.72453,44867
26.73267,40104
26.74078,41617
26.74892,42790
26.75703,47935
26.76515,46755
26.77328,42283
26.78140,44217
26.78952,47138
26.79765,39584
26.80577,43873
26.81390,42282
26.82202,44010
26.83013,47762
26.83827,49759
26.84638,50715
26.85452,52840
26.86263,52538
26.87075,51481
26.87888,49914
26.88700,53831
26.89513,48047
26.90325,48950
26.91137,52881
26.91950,48340
26.92762,45661
26.93573,46729
26.94387,45579
26.95198,51332
26.96012,50399
26.96823,51381
26.97635,64756
26.98448,91158
26.99260,156700
27.00073,283980
27.00885,503354
27.01697,900206
27.02510,1397824
27.03322,1823924
27.04135,1955387
27.04947,1807265
27.05758,1493800
27.06572,1137192
27.07383,833630
27.08195,627978
27.09008,475495
27.09820,384109
27.10633,316814
27.11445,282486
27.12257,245571
27.13070,219399
27.13882,198293
27.14695,184713
27.15507,182987
27.16318,164846
27.17132,161931
27.17943,143463
27.18755,144783
27.19568,142603
27.20380,136673
27.21193,128706
27.22005,126265
27.22817,121443
27.23630,115558
27.24442,113700
27.25255,111900
27.26067,106915
27.26878,97706
27.27692,92923
27.28503,95082
27.29317,90848
27.30128,86820
27.30940,86123
27.31753,82103
27.32565,84815
27.33377,87364
27.34190,78961
27.35002,77470
27.35815,71407
27.36627,76670
27.37438,73937
27.38252,72241
27.39063,76905
27.39877,68116
27.40688,69585
27.41500,70978
27.42313,69279
27.43125,69578
27.43938,66079
27.44750,63432
27.45562,66203
27.46375,65229
27.47187,63127
27.47998,61810
27.48812,62872
27.49623,58284
27.50437,59507
27.51248,61833
27.52060,61812
27.52873,63578
27.53685,62251
27.54498,57504
27.55310,63541
27.56122,66971
27.56935,59141
27.57747,60584
27.58558,56654
27.59372,57067
27.60183,58242
27.60997,57031
27.61808,55486
27.62620,58527
27.63433,58686
27.64245,59330
27.65058,51098
27.65870,54403
27.66682,52657
27.67495,56318
27.68307,50796
27.69120,52845
27.69932,52525
27.70743,48023
27.71557,53170
27.72368,51940
27.73180,54039
27.73993,51681
27.74805,51537
27.75618,49661
27.76430,48669
27.77242,47349
27.78055,49900
27.78867,46908
27.79680,47482
27.80492,45441
27.81303,50176
27.82117,49974
27.82928,48824
27.83740,52077
27.84553,49653
27.85365,53649
27.86178,53611
27.86990,52861
27.87802,57115
27.88615,45483
27.89427,49755
27.90240,49139
27.91052,43119
27.91863,44688
27.92677,47241
27.93488,47141
27.94302,44366
27.95113,45429
27.95925,44778
27.96738,47092
27.97550,47607
27.98362,46101
27.99175,44239
27.99987,46714
28.00800,46370
28.01612,44992
28.02423,47014
28.03237,49055
28.04048,46078
28.04862,42355
28.05673,46939
28.06485,50014
28.07298,43424
28.08110,47110
28.08923,48643
28.09735,47077
28.10547,49930
28.11360,52309
28.12172,48965
28.12983,46356
28.13797,54616
28.14608,44068
28.15422,42958
28.16233,41412
28.17045,40677
28.17858,45341
28.18670,42283
28.19483,41397
28.20295,45445
28.21107,48080
28.21920,52067
28.22732,53636
28.23543,53485
28.24357,54339
28.25168,53874
28.25982,54627
28.26793,54558
28.27605,52403
28.28418,49475
28.29230,48178
28.30043,47211
28.30855,54358
28.31667,57757
28.32480,67532
28.33292,88713
28.34105,118661
28.34917,147271
28.35728,196057
28.36542,230093
28.37353,272131
28.38165,296061
28.38978,306438
28.39790,297539
28.40603,262953
28.41415,247586
28.42227,235784
28.43040,199988
28.43852,171888
28.44665,147172
28.45477,139303
28.46288,122400
28.47102,117272
28.47913,110255
28.48727,101006
28.49538,95684
28.50350,90584
28.51163,89962
28.51975,87191
28.52787,84579
28.53600,80536
28.54412,78415
28.55225,78387
28.56037,81086
28.56848,72104
28.57662,70740
28.58473,69008
28.59287,64526
28.60098,67899
28.60910,64638
28.61723,64373
28.62535,62954
28.63347,65189
28.64160,66673
28.64972,63863
28.65785,65117
28.66597,68852
28.67408,66214
28.68222,66866
28.69033,66983
28.69847,73612
28.70658,65934
28.71470,64889
28.72283,62934
28.73095,57802
28.73908,55826
28.74720,57531
28.75532,57621
28.76345,63357
28.77157,66801
28.77968,77888
28.78782,90989
28.79593,98825
28.80407,101759
28.81218,105652
28.82030,84255
28.82843,74626
28.83655,59651
28.84468,59417
28.85280,54083
28.86092,51253
28.86905,58801
28.87717,50837
28.88528,52505
28.89342,49731
28.90153,49670
28.90967,52599
28.91778,44679
28.92590,47377
28.93403,45074
28.94215,52474
28.95028,48116
28.95840,51580
28.96652,55915
28.97465,57641
28.98277,57758
28.99090,56009
28.99902,54848
29.00713,54388
29.01527,53057
29.02338,49583
29.03150,49231
29.03963,46685
29.04775,51953
29.05588,46875
29.06400,50261
29.07212,46918
29.08025,45821
29.08837,43295
29.09650,46881
29.10462,48141
29.11273,48359
29.12087,46273
29.12898,46833
29.13712,50092
29.14523,47284
29.15335,45004
29.16148,49776
29.16960,46793
29.17772,45307
29.18585,49045
29.19397,44419
29.20210,43895
29.21022,52612
29.21833,52830
29.22647,49230
29.23458,48816
29.24272,47898
29.25083,46775
29.25895,54708
29.26708,50472
29.27520,49450
29.28332,47538
29.29145,47702
29.29957,42145
29.30770,49051
29.31582,45463
29.32393,43885
29.33207,49427
29.34018,44102
29.34832,49247
29.35643,43342
29.36455,44629
29.37268,47114
29.38080,44328
29.38893,44533
29.39705,44634
29.40517,43450
29.41330,45419
29.42142,49107
29.42953,44176
29.43767,48445
29.44578,42005
29.45392,45448
29.46203,42643
29.47015,43797
29.47828,50631
29.48640,45160
29.49453,47739
29.50265,47021
29.51077,48140
29.51890,51081
29.52702,52054
29.53515,51627
29.54327,52283
29.55138,58594
29.55952,45989
29.56763,45585
29.57575,42631
29.58388,42473
29.59200,40768
29.60013,42347
29.60825,40699
29.61637,39983
29.62450,40276
29.63262,43267
29.64075,42515
29.64887,44591
29.65698,42151
29.66512,45961
29.67323,42847
29.68135,38563
29.68948,44578
29.69760,42856
29.70573,42083
29.71385,41862
29.72197,40313
29.73010,40244
29.73822,36942
29.74635,41959
29.75447,39250
29.76258,40245
29.77072,40063
29.77883,39798
29.78697,38325
29.79508,40588
29.80320,36436
29.81133,38227
29.81945,38618
29.82757,39571
29.83570,39817
29.84382,39701
29.85195,40081
29.86007,39502
29.86818,39511
29.87632,46800
29.88443,42843
29.89257,49896
29.90068,64536
29.90880,67792
29.91693,75763
29.92505,73247
29.93318,63827
29.94130,57192
29.94942,57308
29.95755,53437
29.96567,54059
29.97378,62436
29.98192,63105
29.99003,75907
29.99817,87807
30.00628,100606
30.01440,115792
30.02253,128141
30.03065,140603
30.03878,151809
30.04690,160044
30.05502,141590
30.06315,155461
30.07127,146756
30.07938,131086
30.08752,123634
30.09563,117731
30.10377,116784
30.11188,106721
30.12000,92014
30.12813,85347
30.13625,85868
30.14438,84985
30.15250,81872
30.16062,77533
30.16875,81479
30.17687,71732
30.18500,68200
30.19312,69641
30.20123,66761
30.20937,62337
30.21748,62199
30.22560,60780
30.23373,61502
30.24185,62713
30.24998,60729
30.25810,52502
30.26622,58479
30.27435,60153
30.28247,56835
30.29060,55202
30.29872,57411
30.30683,53856
30.31497,55091
30.32308,54232
30.33120,57000
30.33933,54741
30.34745,56833
30.35558,52527
30.36370,52611
30.37182,51108
30.37995,51363
30.38807,52025
30.39620,48059
30.40432,50407
30.41243,49359
30.42057,49746
30.42868,50658
30.43682,48133
30.44493,45243
30.45305,47685
30.46118,43766
30.46930,44811
30.47742,45658
30.48555,47832
30.49367,43905
30.50180,47528
30.50992,47965
30.51803,46400
30.52617,47660
30.53428,44136
30.54242,42741
30.55053,40933
30.55865,45790
30.56678,48845
30.57490,46819
30.58303,41454
30.59115,46303
30.59927,42594
30.60740,41802
30.61552,43213
30.62363,42060
30.63177,44004
30.63988,40919
30.64802,42892
30.65613,40808
30.66425,52381
30.67238,43507
30.68050,43690
30.68863,41417
30.69675,41477
30.70487,43479
30.71300,41611
30.72112,39358
30.72923,42123
30.73737,40971
30.74548,38680
30.75362,45052
30.76173,39608
30.76985,38261
30.77798,46366
30.78610,41874
30.79423,43262
30.80235,43291
30.81047,46025
30.81860,48167
30.82672,49678
30.83485,47983
30.84297,48539
30.85108,44139
30.85922,44485
30.86733,44568
30.87545,45495
30.88358,44844
30.89170,42820
30.89983,43405
30.90795,41842
30.91607,44924
30.92420,41278
30.93232,39982
30.94045,40116
30.94857,40047
30.95668,44212
30.96482,43896
30.97293,42538
30.98107,37515
30.98918,42286
30.99730,38701
31.00543,38642
31.01355,40475
31.02167,42872
31.02980,44127
31.03792,39251
31.04605,50360
31.05417,46927
31.06228,45772
31.07042,48730
31.07853,43944
31.08667,49426
31.09478,55163
31.10290,69406
31.11103,81145
31.11915,94246
31.12727,106314
31.13540,94021
31.14352,81191
31.15165,66113
31.15977,60204
31.16788,53388
31.17602,52456
31.18413,54650
31.19227,62776
31.20038,76570
31.20850,98774
31.21663,132938
31.22475,167132
31.23288,180949
31.24100,197109
31.24912,183890
31.25725,154751
31.26537,125022
31.27348,98701
31.28162,76573
31.28973,53847
31.29787,48397
31.30598,46227
31.31410,45574
31.32223,43728
31.33035,46160
31.33848,46061
31.34660,44756
31.35472,45447
31.36285,45973
31.37097,45920
31.37908,50777
31.38722,54180
31.39533,52442
31.40347,55369
31.41158,54337
31.41970,55309
31.42783,51501
31.43595,52619
31.44408,47443
31.45220,46141
31.46032,48319
31.46845,43786
31.47657,47154
31.48470,46570
31.49282,43894
31.50093,41124
31.50907,42519
31.51718,42988
31.52530,39909
31.53343,43414
31.54155,40314
31.54968,41412
31.55780,38940
31.56592,42101
31.57405,42456
31.58217,41368
31.59030,42132
31.59842,40928
31.60653,40666
31.61467,44183
31.62278,40640
31.63092,42819
31.63903,41086
31.64715,41473
31.65528,41432
31.66340,42209
31.67152,42922
31.67965,45356
31.68777,45254
31.69590,44488
31.70402,46893
31.71213,44590
31.72027,43285
31.72838,44788
31.73652,41282
31.74463,41340
31.75275,38825
31.76088,41417
31.76900,41732
31.77713,41315
31.78525,36960
31.79337,44928
31.80150,44688
31.80962,44210
31.81773,43014
31.82587,43403
31.83398,43889
31.84212,43805
31.85023,45678
31.85835,52148
31.86648,49264
31.87460,49082
31.88273,50105
31.89085,50440
31.89897,46861
31.90710,50484
31.91522,52139
31.92333,54634
31.93147,60971
31.93958,66608
31.94772,74649
31.95583,85201
31.96395,87161
31.97208,97980
31.98020,103686
31.98833,108247
31.99645,114385
32.00457,107152
32.01270,104467
32.02082,98006
32.02895,100245
32.03707,86051
32.04518,84784
32.05332,85338
32.06143,76343
32.06955,70497
32.07768,71729
32.08580,66897
32.09393,70128
32.10205,72230
32.11017,72719
32.11830,69830
32.12642,64113
32.13455,59828
32.14267,60164
32.15078,56307
32.15892,55496
32.16703,55987
32.17515,50621
32.18328,51985
32.19140,51488
32.19953,46580
32.20765,49206
32.21577,44295
32.22390,47387
32.23202,50614
32.24015,46361
32.24827,49320
32.25638,50164
32.26452,50238
32.27263,55955
32.28077,44559
32.28888,44907
32.29700,47384
32.30513,49007
32.31325,46341
32.32137,47084
32.32950,45007
32.33762,45801
32.34575,42475
32.35387,53122
32.36198,52295
32.37012,53404
32.37823,51919
32.38637,48736
32.39448,46828
32.40260,45960
32.41073,47455
32.41885,48150
32.42698,43627
32.43510,38272
32.44322,40144
32.45135,46509
32.45947,43390
32.46758,46221
32.47572,42463
32.48383,45409
32.49197,43674
32.50008,46414
32.50820,45696
32.51633,48091
32.52445,40811
32.53258,42199
32.54070,45034
32.54882,45123
32.55695,43458
32.56507,46654
32.57318,46071
32.58132,46926
32.58943,44047
32.59757,41202
32.60568,45649
32.61380,43749
32.62193,40178
32.63005,41166
32.63818,47361
32.64630,43432
32.65442,40956
32.66255,47970
32.67067,52053
32.67880,66576
32.68692,79955
32.69503,85398
32.70317,82756
32.71128,73682
32.71940,63415
32.72753,57578
32.73565,46952
32.74378,48102
32.75190,46586
32.76002,44365
32.76815,46419
32.77627,43327
32.78440,41381
32.79252,43067
32.80063,40316
32.80877,38799
32.81688,39367
32.82502,42075
32.83313,41214
32.84125,38692
32.84938,41062
32.85750,48404
32.86562,42912
32.87375,42715
32.88187,42639
32.89000,43048
32.89812,43232
32.90623,42011
32.91437,43013
32.92248,44054
32.93062,42220
32.93873,46227
32.94685,46637
32.95498,44683
32.96310,45236
32.97122,40050
32.97935,41117
32.98747,42386
32.99560,43027
33.00372,39733
33.01183,43453
33.01997,47042
33.02808,43363
33.03622,44900
33.04433,39304
33.05245,42860
33.06058,45804
33.06870,42981
33.07683,45675
33.08495,47063
33.09307,47989
33.10120,50340
33.10932,48668
33.11743,60412
33.12557,62165
33.13368,68855
33.14182,69216
33.14993,66694
33.15805,63922
33.16618,52660
33.17430,56369
33.18243,48458
33.19055,42523
33.19867,40913
33.20680,46135
33.21492,45577
33.22303,44931
33.23117,46554
33.23928,48389
33.24742,46883
33.25553,44255
33.26365,46896
33.27178,43828
33.27990,42230
33.28803,41705
33.29615,43688
33.30427,41645
33.31240,41685
33.32052,41224
33.32865,44216
33.33677,40436
33.34488,44013
33.35302,45996
33.36113,42318
33.36925,46253
33.37738,41250
33.38550,42205
33.39363,44501
33.40175,45394
33.40987,42781
33.41800,41990
33.42612,43404
33.43425,43849
33.44237,42065
33.45048,46751
33.45862,42225
33.46673,37740
33.47487,40733
33.48298,46791
33.49110,43072
33.49923,44061
33.50735,43275
33.51547,40732
33.52360,41805
33.53172,42368
33.53985,42115
33.54797,45367
33.55608,46438
33.56422,43542
33.57233,46546
33.58047,41430
33.58858,45436
33.59670,43399
33.60483,51161
33.61295,43270
33.62107,44000
33.62920,42584
33.63732,45476
33.64545,46122
33.65357,42563
33.66168,39591
33.66982,42758
33.67793,43430
33.68607,47740
33.69418,38637
33.70230,40432
33.71043,41417
33.71855,44085
33.72668,41781
33.73480,41990
33.74292,38259
33.75105,40813
33.75917,43159
33.76728,50079
33.77542,43247
33.78353,43759
33.79167,45562
33.79978,42988
33.80790,43209
33.81603,43744
33.82415,43664
33.83228,43767
33.84040,43406
33.84852,46226
33.85665,45583
33.86477,45190
33.87290,44209
33.88102,44285
33.88913,47876
33.89727,43815
33.90538,50911
33.91350,48205
33.92163,46479
33.92975,41353
33.93788,44809
33.94600,44845
33.95412,48216
33.96225,48667
33.97037,46376
33.97850,43142
33.98662,48636
33.99473,43897
34.00287,45962
34.01098,44768
34.01910,42936
34.02723,42458
34.03535,41247
34.04348,40319
34.05160,47092
34.05972,45592
34.06785,43030
34.07597,46276
34.08410,47176
34.09222,44581
34.10033,44883
34.10847,45528
34.11658,45576
34.12472,48994
34.13283,43064
34.14095,41808
34.14908,42930
34.15720,40682
34.16532,41205
34.17345,44814
34.18157,46105
34.18970,47067
34.19782,44785
34.20593,49340
34.21407,45467
34.22218,43321
34.23032,43137
34.23843,45335
34.24655,44989
34.25468,43378
34.26280,42350
34.27092,43847
34.27905,46123
34.28717,44039
34.29530,47636
34.30342,47038
34.31153,46124
34.31967,47423
34.32778,39378
34.33592,45575
34.34403,43882
34.35215,50013
34.36028,45981
34.36840,46083
34.37653,46992
34.38465,49627
34.39277,47374
34.40090,47040
34.40902,45819
34.41713,41954
34.42527,44255
34.43338,44294
34.44152,44930
34.44963,50243
34.45775,46057
34.46588,43404
34.47400,44413
34.48213,48902
34.49025,45805
34.49837,44683
34.50650,46313
34.51462,45004
34.52275,47283
34.53087,53851
34.53898,58738
34.54712,72704
34.55523,74328
34.56335,82337
34.57148,91236
34.57960,93549
34.58773,93076
34.59585,92518
34.60397,86321
34.61210,82493
34.62022,76860
34.62835,70823
34.63647,67920
34.64458,64280
34.65272,63646
34.66083,59185
34.66895,59253
34.67708,56541
34.68520,54818
34.69333,54070
34.70145,55188
34.70957,55761
34.71770,54333
34.72582,58614
34.73395,55286
34.74207,54996
34.75018,55418
34.75832,56051
34.76643,58018
34.77457,58895
34.78268,53603
34.79080,49632
34.79893,57327
34.80705,54645
34.81517,51313
34.82330,49595
34.83142,49237
34.83955,56609
34.84767,56211
34.85578,54101
34.86392,49150
34.87203,55718
34.88017,51784
34.88828,52973
34.89640,47756
34.90453,56421
34.91265,53349
34.92078,50201
34.92890,55861
34.93702,52152
34.94515,59535
34.95327,62197
34.96138,82570
34.96952,90776
34.97763,109979
34.98577,143111
34.99388,156799
35.00200,155693
35.01013,138260
35.01825,110719
35.02638,86624
35.03450,73525
35.04262,66897
35.05075,64595
35.05887,59206
35.06698,54100
35.07512,58820
35.08323,60367
35.09137,60280
35.09948,66284
35.10760,57890
35.11573,57632
35.12385,59373
35.13198,59736
35.14010,59038
35.14822,58527
35.15635,62451
35.16447,64231
35.17260,67063
35.18072,63882
35.18883,61088
35.19697,59207
35.20508,55423
35.21320,57832
35.22133,56437
35.22945,54193
35.23758,53762
35.24570,53981
35.25382,53545
35.26195,50981
35.27007,57808
35.27820,53264
35.28632,59599
35.29443,58045
35.30257,58120
35.31068,53454
35.31882,54111
35.32693,56727
35.33505,49361
35.34318,50740
35.35130,54665
35.35942,53980
35.36755,51647
35.37567,55658
35.38380,46474
35.39192,49118
35.40003,50025
35.40817,51099
35.41628,51499
35.42442,50817
35.43253,48370
35.44065,51858
35.44878,53193
35.45690,57713
35.46502,55968
35.47315,53188
35.48127,54778
35.48940,56168
35.49752,63376
35.50563,58224
35.51377,53714
35.52188,58000
35.53002,52721
35.53813,52925
35.54625,53950
35.55438,55955
35.56250,54537
35.57063,51796
35.57875,54708
35.58687,52942
35.59500,56565
35.60312,55348
35.61123,57565
35.61937,60032
35.62748,59933
35.63562,56121
35.64373,57619
35.65185,55903
35.65998,58307
35.66810,54709
35.67623,56994
35.68435,58030
35.69247,58300
35.70060,58468
35.70872,61983
35.71683,66963
35.72497,60501
35.73308,53814
35.74122,58922
35.74933,55043
35.75745,55961
35.76558,56990
35.77370,57894
35.78183,55683
35.78995,56262
35.79807,56717
35.80620,60150
35.81432,55116
35.82245,54595
35.83057,59893
35.83868,56832
35.84682,58237
35.85493,58397
35.86305,57077
35.87118,60206
35.87930,56643
35.88743,49354
35.89555,53478
35.90367,52282
35.91180,55851
35.91992,51398
35.92805,51588
35.93617,57495
35.94428,54881
35.95242,55079
35.96053,55292
35.96867,53553
35.97678,55885
35.98490,52893
35.99303,58405
36.00115,57281
36.00927,53881
36.01740,59017
36.02552,59888
36.03365,62407
36.04177,60519
36.04988,70307
36.05802,60472
36.06613,58973
36.07427,61625
36.08238,59002
36.09050,60579
36.09863,55393
36.10675,54292
36.11487,58519
36.12300,61919
36.13112,58916
36.13925,56940
36.14737,53256
36.15548,52507
36.16362,57600
36.17173,54357
36.17987,58892
36.18798,54504
36.19610,55886
36.20423,57968
36.21235,57773
36.22048,55158
36.22860,55728
36.23672,57513
36.24485,54454
36.25297,56180
36.26108,55252
36.26922,59067
36.27733,55144
36.28547,55878
36.29358,56543
36.30170,55950
36.30983,63805
36.31795,74838
36.32608,84818
36.33420,88293
36.34232,90556
36.35045,94143
36.35857,84097
36.36670,76830
36.37482,70993
36.38293,68895
36.39107,71375
36.39918,67224
36.40730,67957
36.41543,64440
36.42355,68141
36.43168,61249
36.43980,61606
36.44792,59800
36.45605,58582
36.46417,58179
36.47230,55614
36.48042,61498
36.48853,60730
36.49667,55140
36.50478,56564
36.51290,61619
36.52103,55599
36.52915,60290
36.53728,55762
36.54540,55680
36.55352,56966
36.56165,56057
36.56977,54287
36.57790,57586
36.58602,59394
36.59413,55268
36.60227,53941
36.61038,54125
36.61852,57435
36.62663,58189
36.63475,56355
36.64288,62545
36.65100,59841
36.65912,56729
36.66725,57232
36.67537,59700
36.68350,59929
36.69162,63190
36.69973,60760
36.70787,59882
36.71598,60576
36.72412,60443
36.73223,63203
36.74035,58746
36.74848,59182
36.75660,57726
36.76472,54714
36.77285,57108
36.78097,58880
36.78910,58762
36.79722,54451
36.80533,62319
36.81347,56097
36.82158,56848
36.82972,63175
36.83783,54349
36.84595,59741
36.85408,65451
36.86220,59256
36.87033,62285
36.87845,59831
36.88657,56091
36.89470,59608
36.90282,59842
36.91093,58294
36.91907,60678
36.92718,57464
36.93532,61475
36.94343,59793
36.95155,60979
36.95968,60003
36.96780,57365
36.97593,59300
36.98405,56739
36.99217,55005
37.00030,56431
37.00842,60879
37.01655,53736
37.02467,53377
37.03278,55314
37.04092,60268
37.04903,56933
37.05715,58702
37.06528,53470
37.07340,56935
37.08153,64422
37.08965,64637
37.09777,58621
37.10590,56565
37.11402,61596
37.12215,63326
37.13027,59876
37.13838,61442
37.14652,60984
37.15463,56969
37.16277,63262
37.17088,62147
37.17900,58405
37.18713,61095
37.19525,59164
37.20337,60997
37.21150,68441
37.21962,65211
37.22775,63510
37.23587,64564
37.24398,63633
37.25212,68226
37.26023,66854
37.26837,67535
37.27648,65317
37.28460,65153
37.29273,67282
37.30085,62488
37.30897,64687
37.31710,65149
37.32522,65437
37.33335,60700
37.34147,63020
37.34958,64242
37.35772,71297
37.36583,77648
37.37397,86452
37.38208,91003
37.39020,85984
37.39833,92087
37.40645,89225
37.41458,81555
37.42270,85365
37.43082,83312
37.43895,80386
37.44707,79245
37.45518,72899
37.46332,74349
37.47143,83174
37.47957,76249
37.48768,69050
