C:\MassHunter\GCMS\1\data\JTB-E18\JTB-E18-032-05.D Fri Oct 11 12:37:45 2019
Start of data points
2.09538	207944
2.10350	218896
2.11162	198006
2.11975	203043
2.12787	194991
2.13600	195081
2.14412	187264
2.15223	181093
2.16037	173804
2.16848	170189
2.17660	165026
2.18473	177061
2.19285	162029
2.20098	156884
2.20910	149777
2.21722	148836
2.22535	144217
2.23347	143406
2.24160	144745
2.24972	143280
2.25783	146462
2.26597	171468
2.27408	797206
2.28222	2627308
2.29033	2096930
2.29845	940590
2.30658	588627
2.31470	468759
2.32282	393627
2.33095	343396
2.33907	383614
2.34720	343942
2.35532	292145
2.36343	261305
2.37157	245844
2.37968	235096
2.38782	248047
2.39593	224599
2.40405	218680
2.41218	217268
2.42030	201557
2.42842	202663
2.43655	200721
2.44467	200182
2.45280	203569
2.46092	192380
2.46903	183592
2.47717	179642
2.48528	175786
2.49342	184561
2.50153	191850
2.50965	174312
2.51778	169984
2.52590	178815
2.53403	170608
2.54215	178571
2.55027	180891
2.55840	180966
2.56652	176047
2.57463	171041
2.58277	167775
2.59088	166183
2.59902	170581
2.60713	179930
2.61525	235910
2.62338	263603
2.63150	231511
2.63963	211869
2.64775	201045
2.65587	184080
2.66400	187730
2.67212	181515
2.68025	179119
2.68837	170174
2.69648	158719
2.70462	159630
2.71273	153124
2.72085	157049
2.72898	154152
2.73710	152599
2.74523	147267
2.75335	148455
2.76147	144611
2.76960	145240
2.77772	134646
2.78585	140293
2.79397	143830
2.80208	142450
2.81022	149167
2.81833	144321
2.82647	156847
2.83458	176486
2.84270	170995
2.85083	154791
2.85895	143715
2.86707	141767
2.87520	134143
2.88332	139998
2.89145	134814
2.89957	137763
2.90768	136777
2.91582	133315
2.92393	133640
2.93207	131092
2.94018	132652
2.94830	125552
2.95643	133146
2.96455	127840
2.97267	127614
2.98080	136657
2.98892	136205
2.99705	131968
3.00517	131222
3.01328	139051
3.02142	139623
3.02953	150392
3.03767	179392
3.04578	201063
3.05390	352281
3.06203	646908
3.07015	652377
3.07828	407487
3.08640	258210
3.09452	203661
3.10265	195384
3.11077	194483
3.11888	198940
3.12702	182470
3.13513	167902
3.14327	156276
3.15138	151516
3.15950	149303
3.16763	144258
3.17575	146442
3.18388	143076
3.19200	141601
3.20012	142401
3.20825	140417
3.21637	138812
3.22448	134143
3.23262	136919
3.24073	126985
3.24887	132229
3.25698	133582
3.26510	137328
3.27323	138571
3.28135	301021
3.28948	1207867
3.29760	3758482
3.30572	6741903
3.31385	7042178
3.32197	4842723
3.33010	2958970
3.33822	1907205
3.34633	1401801
3.35447	1124141
3.36258	918669
3.37070	814722
3.37883	734549
3.38695	671543
3.39508	608033
3.40320	574801
3.41132	648641
3.41945	694729
3.42757	618559
3.43570	511643
3.44382	446413
3.45193	417071
3.46007	399352
3.46818	371889
3.47632	360649
3.48443	344568
3.49255	332481
3.50068	321899
3.50880	313580
3.51692	310596
3.52505	296341
3.53317	290183
3.54130	277238
3.54942	279230
3.55753	266144
3.56567	255890
3.57378	263386
3.58192	262401
3.59003	254249
3.59815	243634
3.60628	252947
3.61440	250845
3.62252	279521
3.63065	324930
3.63877	353615
3.64690	325495
3.65502	285609
3.66313	254082
3.67127	237436
3.67938	229210
3.68752	227422
3.69563	225065
3.70375	221756
3.71188	223330
3.72000	215360
3.72813	209166
3.73625	209264
3.74437	214919
3.75250	212868
3.76062	206687
3.76873	216149
3.77687	228638
3.78498	241411
3.79312	230010
3.80123	226975
3.80935	218868
3.81748	216327
3.82560	212107
3.83373	213315
3.84185	214327
3.84997	209365
3.85810	200151
3.86622	193543
3.87435	187753
3.88247	183503
3.89058	184700
3.89872	182488
3.90683	184496
3.91495	182283
3.92308	185229
3.93120	181161
3.93933	182571
3.94745	182327
3.95557	182213
3.96370	178183
3.97182	178068
3.97995	171211
3.98807	175554
3.99618	168891
4.00432	173474
4.01243	172669
4.02055	169970
4.02868	156775
4.03680	168774
4.04493	169438
4.05305	166258
4.06117	168866
4.06930	161131
4.07742	167545
4.08555	170290
4.09367	161883
4.10178	159876
4.10992	159832
4.11803	184988
4.12617	414924
4.13428	1736732
4.14240	5320343
4.15053	9131102
4.15865	9811254
4.16677	7323871
4.17490	4340005
4.18302	2663252
4.19115	1816216
4.19927	1385757
4.20738	1505780
4.21552	3804643
4.22363	1.00442E+07
4.23177	1.837058E+07
4.23988	2.523051E+07
4.24800	2.851113E+07
4.25613	2.541E+07
4.26425	1.615462E+07
4.27237	9955019
4.28050	7124459
4.28862	5400549
4.29675	4354743
4.30487	3533176
4.31298	3027289
4.32112	2593615
4.32923	2268030
4.33737	2025325
4.34548	1814915
4.35360	1660933
4.36173	1513288
4.36985	1417217
4.37798	1296111
4.38610	1221421
4.39422	1147973
4.40235	1080812
4.41047	1014435
4.41858	953690
4.42672	895807
4.43483	865742
4.44297	822629
4.45108	787326
4.45920	750568
4.46733	722557
4.47545	682017
4.48358	665354
4.49170	643502
4.49982	619154
4.50795	593013
4.51607	574411
4.52420	565300
4.53232	533998
4.54043	529466
4.54857	513147
4.55668	493391
4.56480	485976
4.57293	474718
4.58105	462198
4.58918	446321
4.59730	436015
4.60542	421519
4.61355	420049
4.62167	401745
4.62980	403111
4.63792	392300
4.64603	389561
4.65417	372947
4.66228	374829
4.67040	361025
4.67853	356609
4.68665	354513
4.69478	342092
4.70290	348703
4.71102	343304
4.71915	340358
4.72727	318799
4.73540	318418
4.74352	314417
4.75163	310066
4.75977	307998
4.76788	310559
4.77602	302146
4.78413	301691
4.79225	287594
4.80038	294174
4.80850	286645
4.81662	283828
4.82475	278111
4.83287	272507
4.84100	281624
4.84912	273416
4.85723	271962
4.86537	263678
4.87348	268940
4.88162	257984
4.88973	256599
4.89785	256542
4.90598	257501
4.91410	292411
4.92223	429671
4.93035	696360
4.93847	992981
4.94660	1188859
4.95472	1131847
4.96283	937671
4.97097	746195
4.97908	621992
4.98722	535883
4.99533	476330
5.00345	450838
5.01158	410946
5.01970	402121
5.02783	383202
5.03595	368599
5.04407	356086
5.05220	344916
5.06032	331307
5.06843	324614
5.07657	310424
5.08468	321950
5.09282	302480
5.10093	297593
5.10905	310094
5.11718	299993
5.12530	288120
5.13343	291327
5.14155	275100
5.14967	279492
5.15780	275439
5.16592	271852
5.17405	278364
5.18217	271721
5.19028	268990
5.19842	275465
5.20653	261442
5.21465	254698
5.22278	254438
5.23090	254629
5.23903	253619
5.24715	249703
5.25527	253605
5.26340	252456
5.27152	231353
5.27965	234196
5.28777	216808
5.29588	218855
5.30402	215913
5.31213	210397
5.32025	209482
5.32838	206628
5.33650	211516
5.34463	215509
5.35275	211937
5.36087	206794
5.36900	201826
5.37712	197154
5.38525	200221
5.39337	201209
5.40148	202567
5.40962	192680
5.41773	193728
5.42587	190778
5.43398	193076
5.44210	187438
5.45023	191618
5.45835	181098
5.46647	190046
5.47460	185463
5.48272	178975
5.49085	184447
5.49897	188015
5.50708	183245
5.51522	177297
5.52333	184780
5.53147	185158
5.53958	172847
5.54770	178644
5.55583	181666
5.56395	174216
5.57208	183700
5.58020	185837
5.58832	188015
5.59645	181757
5.60457	180708
5.61268	178348
5.62082	184703
5.62893	182901
5.63707	180851
5.64518	188333
5.65330	178249
5.66143	175011
5.66955	181766
5.67768	182218
5.68580	186617
5.69392	184643
5.70205	178511
5.71017	169131
5.71828	171563
5.72642	177747
5.73453	175645
5.74267	171524
5.75078	171443
5.75890	170795
5.76703	169997
5.77515	168173
5.78328	169451
5.79140	171064
5.79952	174775
5.80765	189718
5.81577	218300
5.82390	235883
5.83202	250978
5.84013	231378
5.84827	217035
5.85638	193093
5.86450	175676
5.87263	168718
5.88075	163016
5.88888	161170
5.89700	160954
5.90512	166300
5.91325	154479
5.92137	154470
5.92950	159971
5.93762	155579
5.94573	148888
5.95387	144651
5.96198	140049
5.97012	142674
5.97823	145046
5.98635	148545
5.99448	148925
6.00260	132839
6.01072	125985
6.01885	124387
6.02697	122898
6.03510	123907
6.04322	119491
6.05133	116875
6.05947	119848
6.06758	110783
6.07572	114761
6.08383	113649
6.09195	111794
6.10008	108907
6.10820	110505
6.11632	108508
6.12445	108775
6.13257	115286
6.14070	115613
6.14882	125164
6.15693	114028
6.16507	116967
6.17318	126090
6.18132	132541
6.18943	125872
6.19755	131297
6.20568	131704
6.21380	133869
6.22193	141754
6.23005	137190
6.23817	140817
6.24630	142094
6.25442	138625
6.26253	144471
6.27067	147643
6.27878	147057
6.28692	149696
6.29503	154013
6.30315	160584
6.31128	155698
6.31940	160364
6.32753	162102
6.33565	165642
6.34377	167601
6.35190	173258
6.36002	173902
6.36815	173583
6.37627	172437
6.38438	178296
6.39252	175604
6.40063	185134
6.40875	177439
6.41688	186301
6.42500	193064
6.43313	195968
6.44125	198752
6.44937	201335
6.45750	191707
6.46562	204700
6.47375	207761
6.48187	209321
6.48998	211113
6.49812	207874
6.50623	212613
6.51435	212522
6.52248	213734
6.53060	220738
6.53873	222060
6.54685	221718
6.55497	221670
6.56310	218273
6.57122	218092
6.57935	215786
6.58747	157548
6.59558	141052
6.60372	129297
6.61183	120008
6.61997	119656
6.62808	117762
6.63620	107219
6.64433	106749
6.65245	104743
6.66057	102285
6.66870	108966
6.67682	109724
6.68495	103024
6.69307	101083
6.70118	101519
6.70932	103515
6.71743	105320
6.72557	108094
6.73368	103996
6.74180	103721
6.74993	96074
6.75805	90938
6.76617	92317
6.77430	91768
6.78242	92172
6.79055	88159
6.79867	85563
6.80678	89500
6.81492	89818
6.82303	87137
6.83117	102359
6.83928	113017
6.84740	125893
6.85553	136609
6.86365	128321
6.87178	125427
6.87990	110958
6.88802	95704
6.89615	76453
6.90427	73038
6.91238	69270
6.92052	67258
6.92863	66510
6.93677	63608
6.94488	64385
6.95300	63887
6.96113	63176
6.96925	60500
6.97738	62179
6.98550	65444
6.99362	70682
7.00175	77146
7.00987	81020
7.01800	86510
7.02612	75420
7.03423	75994
7.04237	70275
7.05048	64295
7.05860	62783
7.06673	60237
7.07485	59577
7.08298	61445
7.09110	60424
7.09922	57931
7.10735	57743
7.11547	63812
7.12360	55108
7.13172	59031
7.13983	58649
7.14797	58793
7.15608	57137
7.16422	58726
7.17233	57329
7.18045	59211
7.18858	59204
7.19670	57297
7.20482	57727
7.21295	56773
7.22107	56478
7.22920	53901
7.23732	59923
7.24543	59203
7.25357	63167
7.26168	57939
7.26982	65319
7.27793	58665
7.28605	59062
7.29418	57595
7.30230	61465
7.31042	60289
7.31855	56997
7.32667	56398
7.33480	60024
7.34292	58082
7.35103	55848
7.35917	59500
7.36728	63978
7.37542	63960
7.38353	64680
7.39165	66672
7.39978	62072
7.40790	60719
7.41603	55618
7.42415	58812
7.43227	57539
7.44040	54645
7.44852	58040
7.45663	55890
7.46477	57492
7.47288	62536
7.48102	54178
7.48913	59969
7.49725	59317
7.50538	59761
7.51350	56577
7.52163	54658
7.52975	54864
7.53787	48480
7.54600	50823
7.55412	49343
7.56223	48705
7.57037	52041
7.57848	55264
7.58662	51034
7.59473	52083
7.60285	48141
7.61098	51449
7.61910	49013
7.62723	50864
7.63535	49995
7.64347	49901
7.65160	47808
7.65972	48376
7.66785	50696
7.67597	46390
7.68408	53263
7.69222	49364
7.70033	50859
7.70845	48443
7.71658	50023
7.72470	51302
7.73283	49291
7.74095	51171
7.74907	49006
7.75720	46424
7.76532	46955
7.77345	43754
7.78157	46369
7.78968	46083
7.79782	47049
7.80593	47824
7.81405	50681
7.82218	47148
7.83030	46708
7.83843	43739
7.84655	44767
7.85467	45182
7.86280	45993
7.87092	43697
7.87905	47065
7.88717	47340
7.89528	43932
7.90342	47942
7.91153	41458
7.91967	43173
7.92778	48697
7.93590	41901
7.94403	44590
7.95215	44833
7.96027	52565
7.96840	49871
7.97652	50282
7.98465	52167
7.99277	45424
8.00088	46244
8.00902	49395
8.01713	45918
8.02527	43075
8.03338	43396
8.04150	45507
8.04963	41791
8.05775	46104
8.06588	45530
8.07400	45764
8.08212	44666
8.09025	43441
8.09837	43939
8.10648	46386
8.11462	42924
8.12273	44133
8.13087	45138
8.13898	46476
8.14710	49852
8.15523	47019
8.16335	50424
8.17148	48769
8.17960	48199
8.18772	45616
8.19585	46227
8.20397	43389
8.21210	46316
8.22022	46346
8.22833	43729
8.23647	47919
8.24458	48978
8.25270	48421
8.26083	43448
8.26895	45115
8.27708	45577
8.28520	48898
8.29332	45500
8.30145	46439
8.30957	44667
8.31770	55318
8.32582	57227
8.33393	54264
8.34207	59887
8.35018	55717
8.35830	53539
8.36643	48560
8.37455	49569
8.38268	48279
8.39080	43432
8.39892	46966
8.40705	45126
8.41517	44629
8.42330	49118
8.43142	46593
8.43953	44519
8.44767	44674
8.45578	44791
8.46392	47562
8.47203	45942
8.48015	44794
8.48828	43037
8.49640	47513
8.50452	49217
8.51265	46325
8.52077	53979
8.52890	54459
8.53702	52161
8.54513	50841
8.55327	47088
8.56138	43291
8.56952	42234
8.57763	44557
8.58575	47594
8.59388	46208
8.60200	46163
8.61012	46694
8.61825	47648
8.62637	42403
8.63450	41862
8.64262	44827
8.65073	47278
8.65887	44368
8.66698	43733
8.67512	42640
8.68323	47543
8.69135	43936
8.69948	45916
8.70760	56838
8.71573	81464
8.72385	145888
8.73197	248800
8.74010	375682
8.74822	457506
8.75633	415565
8.76447	321989
8.77258	230237
8.78072	166295
8.78883	141885
8.79695	139758
8.80508	123609
8.81320	110860
8.82133	110795
8.82945	100726
8.83757	99803
8.84570	96745
8.85382	97028
8.86195	85786
8.87007	85608
8.87818	83662
8.88632	77709
8.89443	77324
8.90255	75373
8.91068	78405
8.91880	78098
8.92693	70889
8.93505	72723
8.94317	69342
8.95130	69516
8.95942	69860
8.96755	67534
8.97567	71896
8.98378	67543
8.99192	65750
9.00003	67605
9.00815	65999
9.01628	62838
9.02440	61098
9.03253	64535
9.04065	60174
9.04877	57814
9.05690	56300
9.06502	61438
9.07315	57337
9.08127	60718
9.08938	56314
9.09752	56665
9.10563	60609
9.11377	58455
9.12188	54128
9.13000	57441
9.13813	59078
9.14625	55826
9.15437	54724
9.16250	57815
9.17062	58503
9.17875	54400
9.18687	57267
9.19498	51794
9.20312	54651
9.21123	54642
9.21937	50228
9.22748	51339
9.23560	56457
9.24373	54098
9.25185	53008
9.25998	50452
9.26810	56229
9.27622	57758
9.28435	50918
9.29247	52541
9.30058	53795
9.30872	49144
9.31683	49701
9.32497	53680
9.33308	44885
9.34120	49862
9.34933	46592
9.35745	49510
9.36558	51047
9.37370	50105
9.38182	50344
9.38995	50234
9.39807	48590
9.40618	48381
9.41432	49800
9.42243	52447
9.43057	49688
9.43868	48597
9.44680	49209
9.45493	45232
9.46305	50965
9.47118	44448
9.47930	48644
9.48742	46442
9.49555	45570
9.50367	45792
9.51180	45210
9.51992	46108
9.52803	43708
9.53617	40460
9.54428	43784
9.55240	40676
9.56053	38974
9.56865	41077
9.57678	39862
9.58490	35107
9.59302	40104
9.60115	36484
9.60927	33328
9.61740	35240
9.62552	35735
9.63363	33375
9.64177	35147
9.64988	33185
9.65800	33552
9.66613	33091
9.67425	32520
9.68238	32993
9.69050	34290
9.69862	32455
9.70675	35990
9.71487	33566
9.72300	34097
9.73112	32082
9.73923	34738
9.74737	33338
9.75548	29675
9.76362	28873
9.77173	29417
9.77985	31086
9.78798	30898
9.79610	35275
9.80422	32306
9.81235	31989
9.82047	31953
9.82860	31733
9.83672	31173
9.84483	33531
9.85297	31023
9.86108	33021
9.86922	32793
9.87733	33344
9.88545	33263
9.89358	31944
9.90170	32970
9.90983	33428
9.91795	32834
9.92607	33827
9.93420	33361
9.94232	32800
9.95043	32254
9.95857	32793
9.96668	35261
9.97482	35513
9.98293	35324
9.99105	35263
9.99918	35021
10.00730	32081
10.01543	33813
10.02355	33927
10.03167	36215
10.03980	33141
10.04792	35667
10.05603	32827
10.06417	34343
10.07228	34717
10.08042	33753
10.08853	35505
10.09665	31757
10.10478	30994
10.11290	31819
10.12103	30053
10.12915	33883
10.13727	29914
10.14540	32331
10.15352	29648
10.16165	31807
10.16977	29585
10.17788	31310
10.18602	30777
10.19413	30599
10.20225	30189
10.21038	32124
10.21850	32150
10.22663	30782
10.23475	34483
10.24287	31121
10.25100	32199
10.25912	31958
10.26725	35197
10.27537	31101
10.28348	33866
10.29162	34045
10.29973	28009
10.30787	30445
10.31598	30340
10.32410	30980
10.33223	31566
10.34035	33331
10.34847	32072
10.35660	30766
10.36472	30867
10.37285	30288
10.38097	30465
10.38908	32427
10.39722	32419
10.40533	29685
10.41347	32510
10.42158	32601
10.42970	31131
10.43783	30653
10.44595	31264
10.45407	32669
10.46220	29078
10.47032	28833
10.47845	29048
10.48657	29652
10.49468	30701
10.50282	32520
10.51093	29443
10.51907	32438
10.52718	32224
10.53530	29569
10.54343	29336
10.55155	27792
10.55968	27533
10.56780	27110
10.57592	29619
10.58405	30968
10.59217	29210
10.60028	30039
10.60842	29387
10.61653	28806
10.62467	30358
10.63278	30273
10.64090	30127
10.64903	29598
10.65715	29379
10.66528	27729
10.67340	30157
10.68152	28930
10.68965	26969
10.69777	32049
10.70590	31235
10.71402	32156
10.72213	30475
10.73027	35387
10.73838	31819
10.74650	29551
10.75463	32824
10.76275	32223
10.77088	31247
10.77900	28669
10.78712	32551
10.79525	26808
10.80337	27879
10.81150	28433
10.81962	29037
10.82773	30069
10.83587	28154
10.84398	28073
10.85210	29009
10.86023	32298
10.86835	26984
10.87648	27793
10.88460	31121
10.89272	29178
10.90085	27294
10.90897	27908
10.91710	29466
10.92522	25599
10.93333	27196
10.94147	29207
10.94958	27949
10.95772	26853
10.96583	27018
10.97395	26961
10.98208	29353
10.99020	26466
10.99832	29441
11.00645	24119
11.01457	26890
11.02270	29736
11.03082	28275
11.03893	29883
11.04707	25802
11.05518	26772
11.06332	29952
11.07143	29468
11.07955	26010
11.08768	29921
11.09580	32765
11.10392	38183
11.11205	32286
11.12017	33881
11.12830	33373
11.13642	31244
11.14453	37041
11.15267	36495
11.16078	36524
11.16892	32752
11.17703	32436
11.18515	32274
11.19328	34159
11.20140	32568
11.20953	37667
11.21765	34267
11.22577	34384
11.23390	32012
11.24202	30336
11.25013	34015
11.25827	35129
11.26638	36711
11.27452	38007
11.28263	42109
11.29075	44060
11.29888	45462
11.30700	42821
11.31513	42358
11.32325	38982
11.33137	45424
11.33950	42241
11.34762	37746
11.35575	34958
11.36387	33283
11.37198	34399
11.38012	38516
11.38823	37388
11.39635	35936
11.40448	34998
11.41260	32417
11.42073	36489
11.42885	33487
11.43697	32137
11.44510	33341
11.45322	33692
11.46135	31417
11.46947	32648
11.47758	31939
11.48572	33725
11.49383	32941
11.50195	30633
11.51008	34969
11.51820	33196
11.52633	34327
11.53445	35093
11.54257	34137
11.55070	34780
11.55882	33280
11.56695	34417
11.57507	32519
11.58318	35535
11.59132	35273
11.59943	33685
11.60757	38427
11.61568	31894
11.62380	31268
11.63193	31420
11.64005	33052
11.64817	32491
11.65630	31463
11.66442	30037
11.67255	31876
11.68067	31729
11.68878	34600
11.69692	37121
11.70503	39556
11.71317	42345
11.72128	40534
11.72940	41702
11.73753	38660
11.74565	37449
11.75378	37188
11.76190	36112
11.77002	38025
11.77815	32525
11.78627	36169
11.79438	35339
11.80252	35226
11.81063	33378
11.81877	33412
11.82688	34927
11.83500	31735
11.84313	30857
11.85125	32105
11.85938	31604
11.86750	30394
11.87562	29168
11.88375	31089
11.89187	26966
11.89998	30589
11.90812	30090
11.91623	29195
11.92437	28996
11.93248	30567
11.94060	34769
11.94873	32647
11.95685	32382
11.96498	29718
11.97310	33888
11.98122	30725
11.98935	30652
11.99747	29813
12.00560	30054
12.01372	33073
12.02183	29831
12.02997	28855
12.03808	32285
12.04620	32092
12.05433	30020
12.06245	34626
12.07058	37800
12.07870	36196
12.08682	40267
12.09495	34736
12.10307	30563
12.11120	28806
12.11932	32669
12.12743	32290
12.13557	31315
12.14368	29276
12.15180	30979
12.15993	31339
12.16805	30075
12.17618	30605
12.18430	28802
12.19242	27830
12.20055	30585
12.20867	28101
12.21680	26382
12.22492	28940
12.23303	28700
12.24117	29688
12.24928	26256
12.25742	31665
12.26553	26379
12.27365	27734
12.28178	30411
12.28990	30706
12.29802	29054
12.30615	30742
12.31427	32144
12.32240	30418
12.33052	31555
12.33863	30903
12.34677	26401
12.35488	28911
12.36302	30368
12.37113	39984
12.37925	65890
12.38738	113323
12.39550	184639
12.40363	273903
12.41175	332863
12.41987	327892
12.42800	264644
12.43612	184808
12.44423	128174
12.45237	98052
12.46048	81024
12.46862	68441
12.47673	65227
12.48485	53171
12.49298	48187
12.50110	48112
12.50923	46243
12.51735	40539
12.52547	44323
12.53360	39098
12.54172	38115
12.54985	36512
12.55797	37367
12.56608	36241
12.57422	34958
12.58233	33763
12.59045	30674
12.59858	32352
12.60670	30812
12.61483	32911
12.62295	33532
12.63107	30969
12.63920	32291
12.64732	33083
12.65545	29228
12.66357	28357
12.67168	28701
12.67982	28162
12.68793	29347
12.69605	30201
12.70418	33218
12.71230	30813
12.72043	31595
12.72855	29040
12.73667	30682
12.74480	29628
12.75292	32519
12.76105	31463
12.76917	27978
12.77728	26733
12.78542	26936
12.79353	31872
12.80167	28795
12.80978	30559
12.81790	27021
12.82603	28896
12.83415	30264
12.84227	30105
12.85040	28694
12.85852	29043
12.86665	27086
12.87477	27976
12.88288	30660
12.89102	28530
12.89913	25290
12.90727	28139
12.91538	30116
12.92350	31431
12.93163	28398
12.93975	30470
12.94787	31631
12.95600	37576
12.96412	36768
12.97225	38316
12.98037	39839
12.98848	36576
12.99662	35799
13.00473	36371
13.01287	32468
13.02098	34578
13.02910	33018
13.03723	30916
13.04535	28393
13.05348	31753
13.06160	30516
13.06972	28617
13.07785	28311
13.08597	27382
13.09408	29622
13.10222	29170
13.11033	29772
13.11847	25526
13.12658	26610
13.13470	27415
13.14283	32795
13.15095	28878
13.15908	28960
13.16720	26419
13.17532	25642
13.18345	28143
13.19157	28323
13.19970	27554
13.20782	25686
13.21593	29458
13.22407	28131
13.23218	26286
13.24030	26645
13.24843	27950
13.25655	28957
13.26468	27218
13.27280	29042
13.28092	27586
13.28905	27562
13.29717	27086
13.30530	29333
13.31342	32345
13.32153	26071
13.32967	28920
13.33778	29639
13.34590	27510
13.35403	26294
13.36215	28641
13.37028	29587
13.37840	27109
13.38652	26875
13.39465	25247
13.40277	26096
13.41090	26720
13.41902	25958
13.42713	25883
13.43527	26979
13.44338	27896
13.45152	27807
13.45963	29676
13.46775	26746
13.47588	25607
13.48400	25965
13.49212	27888
13.50025	24316
13.50837	25398
13.51650	24587
13.52462	27836
13.53273	28401
13.54087	25595
13.54898	28091
13.55712	29867
13.56523	24923
13.57335	27617
13.58148	27451
13.58960	30824
13.59773	28782
13.60585	29000
13.61397	29669
13.62210	28910
13.63022	31754
13.63833	31750
13.64647	30094
13.65458	29471
13.66272	30679
13.67083	29353
13.67895	27447
13.68708	25956
13.69520	27344
13.70333	27512
13.71145	28001
13.71957	27717
13.72770	25928
13.73582	28144
13.74393	26910
13.75207	25295
13.76018	25808
13.76832	27280
13.77643	26632
13.78455	25317
13.79268	25075
13.80080	26166
13.80893	26906
13.81705	24833
13.82517	28908
13.83330	27010
13.84142	26940
13.84955	25391
13.85767	24406
13.86578	27473
13.87392	27824
13.88203	26301
13.89015	25711
13.89828	27307
13.90640	28241
13.91453	31490
13.92265	30058
13.93077	28506
13.93890	28086
13.94702	23657
13.95515	26401
13.96327	27010
13.97138	25437
13.97952	26241
13.98763	23160
13.99575	26010
14.00388	26861
14.01200	25986
14.02013	27717
14.02825	29474
14.03637	29370
14.04450	29040
14.05262	30104
14.06075	29064
14.06887	29682
14.07698	28878
14.08512	29500
14.09323	28412
14.10137	28379
14.10948	33405
14.11760	43306
14.12573	54323
14.13385	67684
14.14197	81332
14.15010	91539
14.15822	99942
14.16635	86857
14.17447	75675
14.18258	69374
14.19072	64353
14.19883	57818
14.20697	57422
14.21508	51579
14.22320	51120
14.23133	53337
14.23945	52332
14.24758	44167
14.25570	47029
14.26382	44652
14.27195	42248
14.28007	41441
14.28818	40808
14.29632	33975
14.30443	33827
14.31257	31094
14.32068	28875
14.32880	29131
14.33693	31516
14.34505	23552
14.35318	24346
14.36130	23677
14.36942	26374
14.37755	24699
14.38567	28398
14.39378	23692
14.40192	27391
14.41003	24024
14.41817	27235
14.42628	25895
14.43440	24256
14.44253	26186
14.45065	26276
14.45878	26143
14.46690	25995
14.47502	25420
14.48315	26519
14.49127	27382
14.49940	24338
14.50752	25056
14.51563	26567
14.52377	24356
14.53188	28517
14.54000	25146
14.54813	25033
14.55625	24142
14.56438	25661
14.57250	23235
14.58062	27421
14.58875	25758
14.59687	25512
14.60500	25305
14.61312	29890
14.62123	24274
14.62937	26884
14.63748	28801
14.64562	25324
14.65373	24967
14.66185	25297
14.66998	25395
14.67810	23788
14.68622	24012
14.69435	23686
14.70247	23644
14.71060	24021
14.71872	26616
14.72683	25002
14.73497	23493
14.74308	22802
14.75122	28186
14.75933	24550
14.76745	25193
14.77558	25342
14.78370	25585
14.79182	27151
14.79995	25499
14.80807	30013
14.81620	25984
14.82432	25475
14.83243	28088
14.84057	26873
14.84868	25897
14.85682	29587
14.86493	27291
14.87305	27740
14.88118	25152
14.88930	25736
14.89743	29698
14.90555	26397
14.91367	29747
14.92180	27221
14.92992	28808
14.93803	29859
14.94617	27903
14.95428	26928
14.96242	28905
14.97053	26687
14.97865	26857
14.98678	26064
14.99490	29264
15.00303	24470
15.01115	28652
15.01927	25637
15.02740	25110
15.03552	22805
15.04363	25116
15.05177	28209
15.05988	27767
15.06802	27514
15.07613	31383
15.08425	27503
15.09238	25742
15.10050	29062
15.10863	23508
15.11675	26069
15.12487	24881
15.13300	27741
15.14112	25062
15.14925	26328
15.15737	23685
15.16548	26289
15.17362	24217
15.18173	24492
15.18985	24227
15.19798	26558
15.20610	23486
15.21423	25122
15.22235	28666
15.23047	22951
15.23860	26287
15.24672	24038
15.25485	25165
15.26297	27215
15.27108	24075
15.27922	29907
15.28733	24423
15.29547	22012
15.30358	23615
15.31170	23878
15.31983	21920
15.32795	20904
15.33607	21843
15.34420	20940
15.35232	23649
15.36045	23648
15.36857	23854
15.37668	26522
15.38482	25204
15.39293	25184
15.40107	23057
15.40918	25414
15.41730	26527
15.42543	21170
15.43355	27536
15.44167	25907
15.44980	25804
15.45792	24548
15.46605	21813
15.47417	24805
15.48228	22017
15.49042	23351
15.49853	21770
15.50667	23980
15.51478	21720
15.52290	24444
15.53103	25578
15.53915	25298
15.54728	29604
15.55540	23889
15.56352	21477
15.57165	21851
15.57977	22680
15.58788	25541
15.59602	23304
15.60413	27508
15.61227	24348
15.62038	24231
15.62850	23001
15.63663	23382
15.64475	25518
15.65288	24344
15.66100	24184
15.66912	23054
15.67725	23427
15.68537	24785
15.69350	21904
15.70162	21495
15.70973	24978
15.71787	24511
15.72598	24895
15.73410	26159
15.74223	21776
15.75035	24528
15.75848	24281
15.76660	22969
15.77472	25906
15.78285	22067
15.79097	26281
15.79910	24689
15.80722	23715
15.81533	22928
15.82347	27228
15.83158	23476
15.83970	24959
15.84783	24390
15.85595	24790
15.86408	25375
15.87220	26021
15.88032	28293
15.88845	24637
15.89657	25911
15.90470	26220
15.91282	24440
15.92093	22303
15.92907	21816
15.93718	23846
15.94532	26081
15.95343	23833
15.96155	24125
15.96968	27013
15.97780	32955
15.98592	37260
15.99405	41295
16.00217	41035
16.01030	39690
16.01842	38261
16.02653	35350
16.03467	34506
16.04278	32693
16.05092	30263
16.05903	26957
16.06715	31123
16.07528	28612
16.08340	27736
16.09153	28320
16.09965	25978
16.10777	25639
16.11590	24053
16.12402	24852
16.13213	26545
16.14027	25212
16.14838	22406
16.15652	25687
16.16463	24352
16.17275	24492
16.18088	22607
16.18900	27627
16.19713	24465
16.20525	24401
16.21337	25568
16.22150	22982
16.22962	24381
16.23773	23225
16.24587	25907
16.25398	24725
16.26212	24988
16.27023	24417
16.27835	27471
16.28648	23621
16.29460	24719
16.30273	25593
16.31085	25473
16.31897	27318
16.32710	30352
16.33522	31503
16.34335	28512
16.35147	27582
16.35958	27745
16.36772	27650
16.37583	31251
16.38395	26411
16.39208	25055
16.40020	23088
16.40833	22237
16.41645	25688
16.42457	29203
16.43270	28091
16.44082	24140
16.44895	26320
16.45707	28025
16.46518	26860
16.47332	27226
16.48143	25803
16.48955	26114
16.49768	24586
16.50580	25181
16.51393	26074
16.52205	24902
16.53017	24730
16.53830	25076
16.54642	24207
16.55455	24340
16.56267	22319
16.57078	25009
16.57892	30133
16.58703	27131
16.59517	24167
16.60328	22797
16.61140	25894
16.61953	25581
16.62765	25112
16.63577	26180
16.64390	24226
16.65202	21896
16.66015	22108
16.66827	26261
16.67638	25825
16.68452	26418
16.69263	24726
16.70077	26077
16.70888	24640
16.71700	24796
16.72513	26655
16.73325	28277
16.74138	24403
16.74950	25111
16.75762	25815
16.76575	28760
16.77387	26447
16.78198	23723
16.79012	25285
16.79823	26534
16.80637	24467
16.81448	24018
16.82260	25958
16.83073	27320
16.83885	26780
16.84698	25787
16.85510	24683
16.86322	25984
16.87135	24201
16.87947	24467
16.88758	24218
16.89572	26538
16.90383	26998
16.91197	27931
16.92008	23372
16.92820	24106
16.93633	26301
16.94445	24799
16.95258	23683
16.96070	28521
16.96882	27273
16.97695	25410
16.98507	25724
16.99320	26162
17.00132	27852
17.00943	24424
17.01757	24986
17.02568	26121
17.03380	25893
17.04193	22875
17.05005	22453
17.05818	23652
17.06630	24443
17.07442	26808
17.08255	25942
17.09067	28652
17.09880	27108
17.10692	27211
17.11503	26271
17.12317	24291
17.13128	24624
17.13942	25388
17.14753	28256
17.15565	24156
17.16378	25915
17.17190	25482
17.18002	27369
17.18815	22842
17.19627	25671
17.20440	23065
17.21252	26022
17.22063	24426
17.22877	24377
17.23688	24465
17.24502	24107
17.25313	24614
17.26125	26069
17.26938	25197
17.27750	27545
17.28562	25572
17.29375	27527
17.30187	27851
17.31000	24952
17.31812	24984
17.32623	24565
17.33437	26109
17.34248	26668
17.35062	28895
17.35873	27104
17.36685	25242
17.37498	28979
17.38310	30770
17.39123	29369
17.39935	30869
17.40747	27561
17.41560	27457
17.42372	27530
17.43183	30209
17.43997	29588
17.44808	30056
17.45622	27007
17.46433	28384
17.47245	28681
17.48058	32308
17.48870	28646
17.49683	25461
17.50495	28349
17.51307	25967
17.52120	29214
17.52932	26637
17.53743	30605
17.54557	30328
17.55368	29201
17.56182	25830
17.56993	28330
17.57805	29632
17.58618	27029
17.59430	27269
17.60243	26595
17.61055	25619
17.61867	28238
17.62680	27357
17.63492	25115
17.64305	28387
17.65117	30131
17.65928	28227
17.66742	32525
17.67553	30425
17.68365	27576
17.69178	31576
17.69990	30251
17.70803	28572
17.71615	27670
17.72427	25277
17.73240	25801
17.74052	26111
17.74865	26997
17.75677	25427
17.76488	28595
17.77302	29946
17.78113	25728
17.78927	28658
17.79738	28945
17.80550	26329
17.81363	29553
17.82175	24894
17.82987	27019
17.83800	27336
17.84612	27460
17.85425	27887
17.86237	26932
17.87048	24637
17.87862	26406
17.88673	28435
17.89487	27576
17.90298	27415
17.91110	24692
17.91923	24980
17.92735	23145
17.93548	25563
17.94360	30171
17.95172	24740
17.95985	24588
17.96797	24631
17.97608	25507
17.98422	26481
17.99233	27668
18.00047	28169
18.00858	30097
18.01670	28739
18.02483	30704
18.03295	28889
18.04108	26859
18.04920	26970
18.05732	27167
18.06545	27056
18.07357	26933
18.08168	31391
18.08982	31323
18.09793	30812
18.10607	29990
18.11418	31729
18.12230	28725
18.13043	29803
18.13855	27419
18.14668	29087
18.15480	29783
18.16292	28589
18.17105	34167
18.17917	30211
18.18730	28163
18.19542	28947
18.20353	28957
18.21167	28247
18.21978	29337
18.22790	33013
18.23603	30749
18.24415	30480
18.25228	30087
18.26040	29348
18.26852	30038
18.27665	28457
18.28477	29043
18.29290	25837
18.30102	26816
18.30913	26403
18.31727	25677
18.32538	25641
18.33350	28615
18.34163	25539
18.34975	24983
18.35788	28808
18.36600	26380
18.37412	25586
18.38225	28187
18.39037	25365
18.39850	27183
18.40662	24423
18.41473	26015
18.42287	24094
18.43098	27510
18.43912	23236
18.44723	25364
18.45535	24596
18.46348	28290
18.47160	25574
18.47972	27041
18.48785	27611
18.49597	24428
18.50410	26800
18.51222	28028
18.52033	29077
18.52847	26121
18.53658	25959
18.54472	27742
18.55283	26111
18.56095	24608
18.56908	27126
18.57720	24602
18.58532	28298
18.59345	27846
18.60157	25242
18.60970	28662
18.61782	26028
18.62593	29703
18.63407	25172
18.64218	28948
18.65032	25894
18.65843	27572
18.66655	24930
18.67468	24958
18.68280	26999
18.69093	27697
18.69905	25896
18.70717	29442
18.71530	36038
18.72342	28890
18.73153	33656
18.73967	35649
18.74778	31368
18.75592	32195
18.76403	37872
18.77215	31317
18.78028	35459
18.78840	30666
18.79653	32864
18.80465	33647
18.81277	31663
18.82090	32778
18.82902	33247
18.83715	31149
18.84527	35096
18.85338	31228
18.86152	38163
18.86963	35795
18.87775	31769
18.88588	35053
18.89400	35727
18.90213	35553
18.91025	35138
18.91837	32420
18.92650	34101
18.93462	34820
18.94275	33869
18.95087	34281
18.95898	33430
18.96712	34654
18.97523	35434
18.98337	34470
18.99148	34508
18.99960	34574
19.00773	37283
19.01585	31145
19.02397	31295
19.03210	30036
19.04022	34652
19.04835	32878
19.05647	33470
19.06458	35374
19.07272	33274
19.08083	36410
19.08897	36538
19.09708	36190
19.10520	37384
19.11333	33963
19.12145	35582
19.12957	35801
19.13770	34434
19.14582	35704
19.15395	35859
19.16207	32078
19.17018	37313
19.17832	34409
19.18643	32584
19.19457	33298
19.20268	34650
19.21080	32501
19.21893	31017
19.22705	30943
19.23518	32283
19.24330	32613
19.25142	28527
19.25955	31060
19.26767	32607
19.27578	36277
19.28392	31812
19.29203	33539
19.30017	34638
19.30828	35327
19.31640	31891
19.32453	33454
19.33265	34417
19.34078	33936
19.34890	31352
19.35702	30993
19.36515	31351
19.37327	30308
19.38138	34179
19.38952	31374
19.39763	32451
19.40577	33995
19.41388	41980
19.42200	48630
19.43013	60632
19.43825	77547
19.44638	83112
19.45450	81844
19.46262	71173
19.47075	56107
19.47887	46457
19.48700	40238
19.49512	34917
19.50323	36137
19.51137	32190
19.51948	31913
19.52760	31214
19.53573	32995
19.54385	32343
19.55198	36884
19.56010	34292
19.56822	28103
19.57635	29038
19.58447	29510
19.59260	28008
19.60072	30984
19.60883	34870
19.61697	35220
19.62508	44369
19.63322	56369
19.64133	63544
19.64945	81039
19.65758	82818
19.66570	77396
19.67382	71892
19.68195	63496
19.69007	53674
19.69820	47033
19.70632	41337
19.71443	40892
19.72257	38145
19.73068	32795
19.73882	33608
19.74693	32823
19.75505	31815
19.76318	33784
19.77130	28832
19.77942	31903
19.78755	28697
19.79567	30110
19.80380	27794
19.81192	30572
19.82003	29107
19.82817	28393
19.83628	32249
19.84442	29673
19.85253	31512
19.86065	31195
19.86878	33132
19.87690	34043
19.88503	37784
19.89315	44134
19.90127	49837
19.90940	52790
19.91752	55777
19.92563	54512
19.93377	55636
19.94188	51792
19.95002	53150
19.95813	47301
19.96625	52058
19.97438	43266
19.98250	44428
19.99063	48503
19.99875	48762
20.00687	45013
20.01500	44100
20.02312	40360
20.03125	40336
20.03937	38122
20.04748	41598
20.05562	35745
20.06373	35719
20.07185	32082
20.07998	34380
20.08810	31938
20.09623	31234
20.10435	32826
20.11247	29473
20.12060	33744
20.12872	32460
20.13685	28155
20.14497	32111
20.15308	31836
20.16122	30404
20.16933	28330
20.17745	32255
20.18558	29675
20.19370	32717
20.20183	33261
20.20995	35163
20.21807	40655
20.22620	45420
20.23432	54273
20.24245	54059
20.25057	63366
20.25868	69159
20.26682	64163
20.27493	60804
20.28307	50694
20.29118	46666
20.29930	43478
20.30743	41689
20.31555	33346
20.32367	31183
20.33180	31712
20.33992	33196
20.34805	31662
20.35617	31534
20.36428	29026
20.37242	30892
20.38053	30734
20.38867	31640
20.39678	35864
20.40490	41215
20.41303	39804
20.42115	40868
20.42927	37369
20.43740	35928
20.44552	34479
20.45365	35440
20.46177	30673
20.46988	29100
20.47802	34111
20.48613	31233
20.49427	29145
20.50238	28504
20.51050	27681
20.51863	27345
20.52675	27522
20.53488	31559
20.54300	26322
20.55112	28476
20.55925	29131
20.56737	27928
20.57548	32856
20.58362	29796
20.59173	32965
20.59987	26291
20.60798	28286
20.61610	28834
20.62423	26798
20.63235	26284
20.64048	26536
20.64860	29858
20.65672	26877
20.66485	27271
20.67297	27322
20.68110	28543
20.68922	28451
20.69733	30765
20.70547	28966
20.71358	27954
20.72170	26791
20.72983	30921
20.73795	28037
20.74608	26200
20.75420	25258
20.76232	26007
20.77045	30706
20.77857	26403
20.78670	27201
20.79482	28473
20.80293	27456
20.81107	28339
20.81918	28802
20.82730	29269
20.83543	28438
20.84355	28810
20.85168	30745
20.85980	27511
20.86792	27252
20.87605	25376
20.88417	30044
20.89230	26648
20.90042	24014
20.90853	29921
20.91667	28702
20.92478	27915
20.93292	26504
20.94103	27627
20.94915	26766
20.95728	26064
20.96540	26924
20.97352	29333
20.98165	26613
20.98977	27302
20.99790	25668
21.00602	30472
21.01413	29853
21.02227	28726
21.03038	28003
21.03852	30359
21.04663	28561
21.05475	27837
21.06288	27669
21.07100	26183
21.07913	27910
21.08725	24644
21.09537	28809
21.10350	26787
21.11162	28544
21.11973	27247
21.12787	28037
21.13598	28357
21.14412	26648
21.15223	24192
21.16035	29489
21.16848	29847
21.17660	29083
21.18473	31219
21.19285	26243
21.20097	28898
21.20910	29473
21.21722	26895
21.22533	28734
21.23347	29469
21.24158	30038
21.24972	29571
21.25783	30813
21.26595	27852
21.27408	27044
21.28220	30761
21.29033	33345
21.29845	29316
21.30657	29946
21.31470	27118
21.32282	25983
21.33095	25498
21.33907	30354
21.34718	27252
21.35532	30351
21.36343	29110
21.37155	27443
21.37968	28553
21.38780	26780
21.39593	28745
21.40405	28564
21.41217	31244
21.42030	29628
21.42842	31779
21.43655	27766
21.44467	30265
21.45278	28118
21.46092	29391
21.46903	30801
21.47717	34173
21.48528	30166
21.49340	29107
21.50153	30120
21.50965	26006
21.51777	33126
21.52590	29186
21.53402	28690
21.54215	28545
21.55027	31252
21.55838	31884
21.56652	30489
21.57463	35753
21.58277	39298
21.59088	39303
21.59900	39137
21.60713	44139
21.61525	40299
21.62337	34243
21.63150	35784
21.63962	36889
21.64775	36019
21.65587	32833
21.66398	32510
21.67212	29438
21.68023	29941
21.68837	29970
21.69648	30273
21.70460	28738
21.71273	27790
21.72085	29168
21.72898	31603
21.73710	31219
21.74522	32044
21.75335	32066
21.76147	32616
21.76958	37021
21.77772	40985
21.78583	41242
21.79397	39701
21.80208	38073
21.81020	36496
21.81833	32740
21.82645	31377
21.83458	31010
21.84270	30885
21.85082	31642
21.85895	27903
21.86707	32748
21.87518	30918
21.88332	29921
21.89143	29044
21.89957	31729
21.90768	29046
21.91580	26585
21.92393	28358
21.93205	30633
21.94018	28692
21.94830	27977
21.95642	29884
21.96455	26059
21.97267	27948
21.98080	26675
21.98892	27738
21.99703	29972
22.00517	26101
22.01328	27043
22.02140	29163
22.02953	30324
22.03765	33177
22.04578	31803
22.05390	31021
22.06202	30871
22.07015	31892
22.07827	36725
22.08640	32675
22.09452	32215
22.10263	29023
22.11077	32665
22.11888	31225
22.12702	28928
22.13513	31508
22.14325	28082
22.15138	28688
22.15950	28954
22.16762	29954
22.17575	28017
22.18387	31065
22.19200	32945
22.20012	29727
22.20823	29192
22.21637	25953
22.22448	26061
22.23262	28366
22.24073	28016
22.24885	27571
22.25698	26817
22.26510	29149
22.27322	30936
22.28135	28743
22.28947	29375
22.29760	30757
22.30572	34224
22.31383	27463
22.32197	30444
22.33008	34359
22.33822	31717
22.34633	32521
22.35445	28798
22.36258	30817
22.37070	26977
22.37883	30924
22.38695	31393
22.39507	32477
22.40320	26547
22.41132	28095
22.41943	29629
22.42757	31217
22.43568	28207
22.44382	29812
22.45193	27712
22.46005	30643
22.46818	28988
22.47630	29359
22.48443	30156
22.49255	27145
22.50067	29628
22.50880	30543
22.51692	27854
22.52505	26590
22.53317	28671
22.54128	26809
22.54942	27084
22.55753	26394
22.56565	29820
22.57378	27602
22.58190	29427
22.59003	27345
22.59815	28271
22.60627	27266
22.61440	30080
22.62252	27718
22.63065	26991
22.63877	28458
22.64688	26585
22.65502	28607
22.66313	27629
22.67125	30586
22.67938	27211
22.68750	29502
22.69563	26766
22.70375	27491
22.71187	29113
22.72000	27236
22.72812	25917
22.73625	28449
22.74437	31950
22.75248	31380
22.76062	29680
22.76873	27769
22.77687	27520
22.78498	30309
22.79310	28695
22.80123	29541
22.80935	28367
22.81747	27871
22.82560	28987
22.83372	29190
22.84185	26817
22.84997	28342
22.85808	28871
22.86622	32258
22.87433	32089
22.88247	35984
22.89058	34033
22.89870	38485
22.90683	39520
22.91495	46703
22.92307	46864
22.93120	51865
22.93932	46688
22.94745	48957
22.95557	49366
22.96368	50257
22.97182	47057
22.97993	47472
22.98807	45374
22.99618	44596
23.00430	42281
23.01243	39755
23.02055	39084
23.02868	34070
23.03680	37020
23.04492	35300
23.05305	31514
23.06117	32500
23.06928	30239
23.07742	37051
23.08553	37163
23.09367	32096
23.10178	32797
23.10990	31751
23.11803	34395
23.12615	30700
23.13428	31151
23.14240	30313
23.15052	31397
23.15865	33239
23.16677	31979
23.17490	29615
23.18302	30135
23.19113	28739
23.19927	32228
23.20738	31591
23.21550	32133
23.22363	31155
23.23175	31100
23.23988	30884
23.24800	31021
23.25612	30768
23.26425	36008
23.27237	31993
23.28050	30620
23.28862	31319
23.29673	33722
23.30487	33789
23.31298	32630
23.32112	36833
23.32923	31508
23.33735	31330
23.34548	30385
23.35360	32181
23.36172	35916
23.36985	34237
23.37797	35255
23.38610	41929
23.39422	34662
23.40233	33046
23.41047	37146
23.41858	35297
23.42672	34738
23.43483	36651
23.44295	37976
23.45108	32450
23.45920	33747
23.46732	36716
23.47545	33134
23.48357	38915
23.49170	36333
23.49982	37062
23.50793	36414
23.51607	34521
23.52418	35720
23.53232	35014
23.54043	37009
23.54855	35749
23.55668	35395
23.56480	37401
23.57293	35397
23.58105	34704
23.58917	34784
23.59730	40432
23.60542	39038
23.61353	35475
23.62167	33626
23.62978	34917
23.63792	36740
23.64603	37432
23.65415	39210
23.66228	39971
23.67040	38819
23.67853	38513
23.68665	39479
23.69477	37028
23.70290	37650
23.71102	37349
23.71913	45762
23.72727	64765
23.73538	124209
23.74352	275915
23.75163	613806
23.75975	1249919
23.76788	1996917
23.77600	2581956
23.78413	2741620
23.79225	2551616
23.80037	2045824
23.80850	1518202
23.81662	1071278
23.82475	804718
23.83287	597329
23.84098	462949
23.84912	378064
23.85723	321186
23.86535	273268
23.87348	246251
23.88160	209582
23.88973	190743
23.89785	171782
23.90597	155167
23.91410	140067
23.92222	136810
23.93035	122016
23.93847	120692
23.94658	116948
23.95472	105418
23.96283	100096
23.97097	95617
23.97908	90301
23.98720	88522
23.99533	89775
24.00345	83060
24.01157	80160
24.01970	81657
24.02782	74507
24.03595	78046
24.04407	71055
24.05218	74164
24.06032	71062
24.06843	73958
24.07657	67297
24.08468	70551
24.09280	70152
24.10093	69730
24.10905	63209
24.11717	61282
24.12530	59498
24.13342	64181
24.14155	61999
24.14967	62688
24.15778	61141
24.16592	60105
24.17403	64120
24.18217	63480
24.19028	59403
24.19840	56803
24.20653	58396
24.21465	59755
24.22278	54882
24.23090	55055
24.23902	54424
24.24715	50601
24.25527	54952
24.26338	44664
24.27152	52349
24.27963	52399
24.28777	48394
24.29588	51448
24.30400	62595
24.31213	68106
24.32025	86563
24.32838	89225
24.33650	86548
24.34462	73295
24.35275	66012
24.36087	58311
24.36900	48578
24.37712	49570
24.38523	47860
24.39337	46959
24.40148	41031
24.40960	43931
24.41773	46673
24.42585	46183
24.43398	48348
24.44210	49557
24.45022	53464
24.45835	50199
24.46647	47503
24.47460	46355
24.48272	42479
24.49083	41645
24.49897	41903
24.50708	39879
24.51520	46551
24.52333	39574
24.53145	39361
24.53958	39804
24.54770	42959
24.55582	39359
24.56395	44227
24.57207	37946
24.58020	41260
24.58832	38874
24.59643	41011
24.60457	39153
24.61268	40482
24.62082	37141
24.62893	37966
24.63705	37262
24.64518	37487
24.65330	37200
24.66142	37081
24.66955	40426
24.67767	37833
24.68580	35545
24.69392	34055
24.70203	33687
24.71017	38342
24.71828	39488
24.72642	34651
24.73453	33372
24.74265	39728
24.75078	38863
24.75890	35633
24.76702	34845
24.77515	36456
24.78327	34817
24.79140	34139
24.79952	35406
24.80763	34588
24.81577	34576
24.82388	36387
24.83202	37416
24.84013	34287
24.84825	34591
24.85638	32986
24.86450	30962
24.87263	35487
24.88075	36599
24.88887	35113
24.89700	33283
24.90512	34729
24.91323	33157
24.92137	34640
24.92948	31940
24.93762	33543
24.94573	33988
24.95385	33391
24.96198	32086
24.97010	32179
24.97823	36011
24.98635	34216
24.99447	32938
25.00260	34685
25.01072	34578
25.01885	35298
25.02697	30779
25.03508	34297
25.04322	30670
25.05133	33910
25.05945	33528
25.06758	35796
25.07570	34164
25.08383	32117
25.09195	33186
25.10007	31915
25.10820	32305
25.11632	34079
25.12445	33993
25.13257	36140
25.14068	36399
25.14882	36295
25.15693	34253
25.16505	33881
25.17318	36804
25.18130	38126
25.18943	34083
25.19755	36105
25.20567	31752
25.21380	34434
25.22192	33187
25.23005	36217
25.23817	35664
25.24628	33577
25.25442	31863
25.26253	35794
25.27067	32008
25.27878	34035
25.28690	35842
25.29503	41120
25.30315	37550
25.31127	41186
25.31940	38501
25.32752	40288
25.33565	36454
25.34377	34212
25.35188	35930
25.36002	32363
25.36813	32417
25.37627	31910
25.38438	32309
25.39250	33002
25.40063	34760
25.40875	34172
25.41688	31241
25.42500	36108
25.43312	31642
25.44125	34780
25.44937	30377
25.45748	31669
25.46562	31031
25.47373	34854
25.48187	33188
25.48998	30758
25.49810	32648
25.50623	32300
25.51435	32709
25.52248	30732
25.53060	31449
25.53872	30232
25.54685	34095
25.55497	30358
25.56308	32305
25.57122	27951
25.57933	35937
25.58747	32187
25.59558	31859
25.60370	29995
25.61183	31647
25.61995	29132
25.62808	31859
25.63620	36819
25.64432	33741
25.65245	35956
25.66057	31181
25.66870	30020
25.67682	34789
25.68493	30683
25.69307	32197
25.70118	29134
25.70930	31844
25.71743	32896
25.72555	30987
25.73368	33794
25.74180	31170
25.74992	28903
25.75805	35488
25.76617	32043
25.77430	31960
25.78242	30731
25.79053	31013
25.79867	34164
25.80678	32268
25.81490	31621
25.82303	31932
25.83115	33078
25.83928	30341
25.84740	32925
25.85552	34517
25.86365	35322
25.87177	34073
25.87990	30428
25.88802	29815
25.89613	33053
25.90427	30859
25.91238	33901
25.92052	32608
25.92863	31216
25.93675	37249
25.94488	32560
25.95300	30475
25.96112	31842
25.96925	29971
25.97737	29418
25.98550	31624
25.99362	33526
26.00173	31885
26.00987	29325
26.01798	27381
26.02612	31008
26.03423	33582
26.04235	31675
26.05048	28975
26.05860	32073
26.06673	32559
26.07485	29684
26.08297	31847
26.09110	28968
26.09922	32085
26.10733	32847
26.11547	38461
26.12358	35946
26.13172	39416
26.13983	35582
26.14795	36388
26.15608	37764
26.16420	39554
26.17233	39349
26.18045	32320
26.18857	35597
26.19670	32712
26.20482	31115
26.21293	34097
26.22107	31087
26.22918	31778
26.23732	29888
26.24543	30188
26.25355	28784
26.26168	29825
26.26980	31060
26.27793	30869
26.28605	28070
26.29417	33204
26.30230	30495
26.31042	29422
26.31855	31646
26.32667	28560
26.33478	27143
26.34292	29634
26.35103	27637
26.35915	30801
26.36728	27882
26.37540	30236
26.38353	31460
26.39165	29010
26.39977	25575
26.40790	33064
26.41602	26141
26.42415	30931
26.43227	28966
26.44038	26814
26.44852	29105
26.45663	29949
26.46477	30295
26.47288	28591
26.48100	29566
26.48913	28807
26.49725	26606
26.50537	32178
26.51350	30337
26.52162	27390
26.52975	29462
26.53787	30430
26.54598	28608
26.55412	25359
26.56223	28999
26.57037	28801
26.57848	26754
26.58660	28607
26.59473	28687
26.60285	28825
26.61097	28837
26.61910	30404
26.62722	31746
26.63535	28374
26.64347	28560
26.65158	30428
26.65972	29673
26.66783	30708
26.67597	29189
26.68408	29712
26.69220	28221
26.70033	30788
26.70845	31185
26.71658	31761
26.72470	28045
26.73282	31198
26.74095	31790
26.74907	29743
26.75718	29431
26.76532	26739
26.77343	30786
26.78157	30668
26.78968	35710
26.79780	36555
26.80593	34586
26.81405	33533
26.82218	36126
26.83030	31232
26.83842	32769
26.84655	32131
26.85467	28592
26.86280	30394
26.87092	29875
26.87903	29881
26.88717	28893
26.89528	33475
26.90340	33411
26.91153	33951
26.91965	31291
26.92778	37548
26.93590	41513
26.94402	58738
26.95215	87401
26.96027	146672
26.96840	219221
26.97652	311855
26.98463	413765
26.99277	497523
27.00088	520404
27.00900	510620
27.01713	438264
27.02525	361725
27.03338	282336
27.04150	222598
27.04962	165419
27.05775	136992
27.06587	122468
27.07400	105059
27.08212	88755
27.09023	84131
27.09837	80379
27.10648	70323
27.11462	67597
27.12273	58837
27.13085	58986
27.13898	57444
27.14710	54599
27.15522	52938
27.16335	52963
27.17147	56876
27.17960	54359
27.18772	50761
27.19583	50612
27.20397	48555
27.21208	44964
27.22022	46617
27.22833	44445
27.23645	40971
27.24458	44043
27.25270	47601
27.26082	39904
27.26895	43093
27.27707	41022
27.28520	39959
27.29332	38459
27.30143	38260
27.30957	36654
27.31768	41653
27.32582	36408
27.33393	35845
27.34205	38739
27.35018	37615
27.35830	34795
27.36643	36920
27.37455	35987
27.38267	39972
27.39080	38427
27.39892	35315
27.40703	35441
27.41517	34650
27.42328	40745
27.43142	36043
27.43953	37450
27.44765	32101
27.45578	34817
27.46390	32977
27.47203	37687
27.48015	32361
27.48827	34555
27.49640	32933
27.50452	30771
27.51265	34132
27.52077	33106
27.52888	37234
27.53702	33424
27.54513	36068
27.55325	35393
27.56138	32325
27.56950	32107
27.57763	28489
27.58575	32869
27.59387	35369
27.60200	32157
27.61012	31534
27.61825	35818
27.62637	32772
27.63448	31309
27.64262	30309
27.65073	32488
27.65885	32831
27.66698	30295
27.67510	28906
27.68323	30801
27.69135	30856
27.69947	30022
27.70760	32018
27.71572	32496
27.72385	29353
27.73197	31398
27.74008	31736
27.74822	33727
27.75633	30536
27.76447	29262
27.77258	29543
27.78070	33513
27.78883	33919
27.79695	30637
27.80507	30248
27.81320	32455
27.82132	30349
27.82945	30052
27.83757	30040
27.84568	28245
27.85382	31425
27.86193	29039
27.87007	30583
27.87818	30604
27.88630	30162
27.89443	31135
27.90255	29679
27.91068	28838
27.91880	33874
27.92692	29805
27.93505	32675
27.94317	31121
27.95128	34597
27.95942	30776
27.96753	30048
27.97567	27815
27.98378	29589
27.99190	29944
28.00003	32208
28.00815	29208
28.01628	28369
28.02440	27979
28.03252	31785
28.04065	30787
28.04877	31946
28.05688	34640
28.06502	29064
28.07313	31520
28.08127	33696
28.08938	31881
28.09750	32288
28.10563	34986
28.11375	35715
28.12188	37912
28.13000	38887
28.13812	35605
28.14625	36013
28.15437	35428
28.16250	33640
28.17062	30417
28.17873	32138
28.18687	28575
28.19498	29649
28.20310	29242
28.21123	34767
28.21935	33408
28.22748	32570
28.23560	35948
28.24372	41977
28.25185	43947
28.25997	54129
28.26810	64632
28.27622	82633
28.28433	100795
28.29247	119759
28.30058	133515
28.30870	145212
28.31683	141986
28.32495	139645
28.33308	134468
28.34120	126137
28.34932	111958
28.35745	105064
28.36557	95699
28.37370	83899
28.38182	78045
28.38993	71632
28.39807	64415
28.40618	61993
28.41432	58325
28.42243	57165
28.43055	50750
28.43868	49832
28.44680	48544
28.45492	48181
28.46305	45211
28.47117	45308
28.47930	41963
28.48742	46026
28.49553	41183
28.50367	39943
28.51178	40643
28.51992	39313
28.52803	41297
28.53615	37505
28.54428	38364
28.55240	36443
28.56053	36886
28.56865	38857
28.57677	39638
28.58490	34690
28.59302	38088
28.60113	35483
28.60927	35456
28.61738	36521
28.62552	37980
28.63363	41838
28.64175	37892
28.64988	38696
28.65800	39567
28.66613	46418
28.67425	47778
28.68237	55258
28.69050	62295
28.69862	64038
28.70675	55154
28.71487	47085
28.72298	47105
28.73112	37879
28.73923	36651
28.74735	35504
28.75548	34927
28.76360	32848
28.77173	34960
28.77985	34926
28.78797	33389
28.79610	34549
28.80422	34813
28.81235	37463
28.82047	32682
28.82858	32051
28.83672	32682
28.84483	32220
28.85295	33414
28.86108	34945
28.86920	33493
28.87733	37512
28.88545	33165
28.89357	34977
28.90170	30215
28.90982	32469
28.91795	30883
28.92607	30799
28.93418	30825
28.94232	37301
28.95043	39634
28.95857	39340
28.96668	33297
28.97480	34843
28.98293	36328
28.99105	36234
28.99917	33164
29.00730	32431
29.01542	31860
29.02355	32869
29.03167	33801
29.03978	34910
29.04792	32869
29.05603	31346
29.06417	30717
29.07228	31608
29.08040	33318
29.08853	36690
29.09665	29421
29.10477	33777
29.11290	33223
29.12102	29935
29.12915	34832
29.13727	31941
29.14538	33696
29.15352	31984
29.16163	31852
29.16977	29667
29.17788	31002
29.18600	31365
29.19413	31384
29.20225	33036
29.21038	31344
29.21850	32519
29.22662	29014
29.23475	32503
29.24287	32499
29.25098	34208
29.25912	30626
29.26723	31072
29.27537	29910
29.28348	34249
29.29160	31232
29.29973	31768
29.30785	32583
29.31598	30255
29.32410	31544
29.33222	32244
29.34035	31740
29.34847	33795
29.35660	29533
29.36472	30500
29.37283	30487
29.38097	31231
29.38908	36077
29.39720	31032
29.40533	29938
29.41345	33060
29.42158	29960
29.42970	30213
29.43782	29489
29.44595	34333
29.45407	29598
29.46220	31259
29.47032	29158
29.47843	32757
29.48657	33492
29.49468	29520
29.50280	32803
29.51093	30354
29.51905	29876
29.52718	28834
29.53530	30433
29.54342	31412
29.55155	31464
29.55967	31465
29.56780	31028
29.57592	30852
29.58403	30231
29.59217	33241
29.60028	31206
29.60842	33465
29.61653	30520
29.62465	31378
29.63278	32443
29.64090	29018
29.64902	28603
29.65715	29603
29.66527	29916
29.67340	32397
29.68152	29780
29.68963	28448
29.69777	29496
29.70588	32204
29.71402	32106
29.72213	30523
29.73025	28168
29.73838	31165
29.74650	31008
29.75463	30520
29.76275	32992
29.77087	26661
29.77900	25043
29.78712	25209
29.79523	29242
29.80337	31437
29.81148	33785
29.81962	28288
29.82773	28642
29.83585	31848
29.84398	33613
29.85210	32634
29.86023	33900
29.86835	36691
29.87647	41725
29.88460	45426
29.89272	46231
29.90083	54961
29.90897	59803
29.91708	68592
29.92522	66456
29.93333	66835
29.94145	71676
29.94958	67542
29.95770	70322
29.96583	73423
29.97395	68330
29.98207	67727
29.99020	64431
29.99832	61883
30.00645	56682
30.01457	56133
30.02268	51746
30.03082	52049
30.03893	51903
30.04705	49813
30.05518	45201
30.06330	47501
30.07143	42559
30.07955	43921
30.08767	46077
30.09580	44169
30.10392	40138
30.11205	42588
30.12017	40495
30.12828	36807
30.13642	37184
30.14453	35564
30.15265	36519
30.16078	38461
30.16890	37750
30.17703	36530
30.18515	37790
30.19327	35666
30.20140	36561
30.20952	36398
30.21765	37654
30.22577	33834
30.23388	36227
30.24202	32460
30.25013	34461
30.25827	35909
30.26638	32080
30.27450	30840
30.28263	34936
30.29075	35546
30.29887	32384
30.30700	33459
30.31512	33898
30.32325	31381
30.33137	35279
30.33948	37722
30.34762	30999
30.35573	32146
30.36387	30482
30.37198	30374
30.38010	34779
30.38823	30528
30.39635	29802
30.40448	35908
30.41260	36031
30.42072	32841
30.42885	31255
30.43697	34301
30.44508	33644
30.45322	33519
30.46133	33682
30.46947	34688
30.47758	35589
30.48570	32781
30.49383	31698
30.50195	33077
30.51008	33485
30.51820	31948
30.52632	30460
30.53445	34052
30.54257	32872
30.55068	34886
30.55882	31713
30.56693	33966
30.57507	33299
30.58318	32292
30.59130	36196
30.59943	35104
30.60755	30754
30.61568	33598
30.62380	33345
30.63192	34497
30.64005	36340
30.64817	34951
30.65630	34423
30.66442	35040
30.67253	35615
30.68067	32523
30.68878	34198
30.69690	33750
30.70503	35669
30.71315	32009
30.72128	39402
30.72940	32985
30.73752	36700
30.74565	38701
30.75377	36178
30.76190	35281
30.77002	35967
30.77813	34978
30.78627	38441
30.79438	37578
30.80252	37391
30.81063	39662
30.81875	38800
30.82688	39731
30.83500	37148
30.84312	38407
30.85125	35166
30.85937	39080
30.86750	35794
30.87562	33806
30.88373	38499
30.89187	37061
30.89998	37396
30.90812	40075
30.91623	37263
30.92435	38960
30.93248	36089
30.94060	37209
30.94872	35833
30.95685	37202
30.96497	38562
30.97310	34515
30.98122	37073
30.98933	36654
30.99747	38705
31.00558	33998
31.01372	35923
31.02183	36918
31.02995	34779
31.03808	32988
31.04620	37350
31.05433	34044
31.06245	35315
31.07057	35437
31.07870	36308
31.08682	40785
31.09493	41164
31.10307	39228
31.11118	38121
31.11932	38786
31.12743	40209
31.13555	37209
31.14368	37791
31.15180	37963
31.15993	44400
31.16805	56252
31.17617	64650
31.18430	91468
31.19242	107598
31.20053	121045
31.20867	122986
31.21678	116070
31.22492	102682
31.23303	82070
31.24115	64245
31.24928	50601
31.25740	41314
31.26553	40742
31.27365	34368
31.28177	37390
31.28990	36404
31.29802	37233
31.30615	37694
31.31427	36526
31.32238	37587
31.33052	40359
31.33863	36380
31.34675	35527
31.35488	35303
31.36300	40207
31.37113	33124
31.37925	33691
31.38737	34456
31.39550	35678
31.40362	35329
31.41175	34767
31.41987	36874
31.42798	36449
31.43612	34773
31.44423	34926
31.45237	34656
31.46048	34920
31.46860	35113
31.47673	35404
31.48485	32608
31.49297	36917
31.50110	34737
31.50922	31466
31.51735	37741
31.52547	37175
31.53358	32531
31.54172	34466
31.54983	38949
31.55797	34876
31.56608	36190
31.57420	37413
31.58233	31613
31.59045	36803
31.59857	36790
31.60670	40879
31.61482	37066
31.62295	36198
31.63107	36627
31.63918	34068
31.64732	34821
31.65543	33178
31.66357	36576
31.67168	34733
31.67980	34777
31.68793	34608
31.69605	37074
31.70418	37769
31.71230	38566
31.72042	31837
31.72855	33297
31.73667	34950
31.74478	32898
31.75292	37944
31.76103	31815
31.76917	35288
31.77728	35694
31.78540	36167
31.79353	34682
31.80165	34909
31.80978	38274
31.81790	37190
31.82602	40976
31.83415	46685
31.84227	54291
31.85040	56150
31.85852	61229
31.86663	59788
31.87477	62625
31.88288	67202
31.89100	66940
31.89913	62912
31.90725	62271
31.91538	59998
31.92350	55864
31.93162	54434
31.93975	51836
31.94787	52326
31.95600	55229
31.96412	51379
31.97223	44877
31.98037	47010
31.98848	48045
31.99660	46652
32.00473	46443
32.01285	42125
32.02098	40547
32.02910	44660
32.03722	41422
32.04535	38241
32.05347	39047
32.06160	38892
32.06972	38809
32.07783	41759
32.08597	35186
32.09408	36616
32.10222	39243
32.11033	36709
32.11845	36240
32.12658	39300
32.13470	36379
32.14282	38851
32.15095	38781
32.15907	37136
32.16720	36428
32.17532	40746
32.18343	37902
32.19157	33902
32.19968	38009
32.20782	40611
32.21593	37570
32.22405	39499
32.23218	39970
32.24030	43173
32.24843	38422
32.25655	38965
32.26467	39312
32.27280	41434
32.28092	42049
32.28903	42451
32.29717	39425
32.30528	38656
32.31342	39377
32.32153	42611
32.32965	43078
32.33778	44069
32.34590	40746
32.35403	40800
32.36215	42266
32.37027	41512
32.37840	40653
32.38652	40790
32.39463	42939
32.40277	38161
32.41088	38521
32.41902	40812
32.42713	37217
32.43525	39841
32.44338	39858
32.45150	34102
32.45963	32676
32.46775	36333
32.47587	34352
32.48400	34647
32.49212	36921
32.50025	38473
32.50837	34715
32.51648	36685
32.52462	34529
32.53273	35091
32.54085	38485
32.54898	38809
32.55710	45995
32.56523	47224
32.57335	51595
32.58147	55525
32.58960	56421
32.59772	54179
32.60585	44934
32.61397	42259
32.62208	42873
32.63022	37644
32.63833	37739
32.64645	36636
32.65458	34901
32.66270	43444
32.67083	35442
32.67895	38337
32.68707	37161
32.69520	36451
32.70332	37615
32.71145	40674
32.71957	37840
32.72768	40103
32.73582	39406
32.74393	35651
32.75207	36932
32.76018	35857
32.76830	37205
32.77643	33740
32.78455	36746
32.79267	38798
32.80080	35746
32.80892	36510
32.81705	33010
32.82517	37383
32.83328	38828
32.84142	35245
32.84953	34388
32.85767	36029
32.86578	37287
32.87390	35265
32.88203	38408
32.89015	35713
32.89828	36645
32.90640	38315
32.91452	36193
32.92265	34633
32.93077	35266
32.93888	38969
32.94702	37909
32.95513	35365
32.96327	36165
32.97138	35999
32.97950	37739
32.98763	37944
32.99575	38560
33.00388	36219
33.01200	36921
33.02012	38935
33.02825	37630
33.03637	38901
33.04448	38865
33.05262	39767
33.06073	37938
33.06887	40585
33.07698	40942
33.08510	38602
33.09323	42035
33.10135	43529
33.10948	46239
33.11760	48849
33.12572	47339
33.13385	42754
33.14197	43449
33.15010	39024
33.15822	40811
33.16633	38679
33.17447	39247
33.18258	39267
33.19070	35300
33.19883	38880
33.20695	37470
33.21508	38705
33.22320	37736
33.23132	35246
33.23945	36784
33.24757	36723
33.25570	38434
33.26382	38948
33.27193	39338
33.28007	38496
33.28818	38593
33.29632	39775
33.30443	46796
33.31255	44133
33.32068	44674
33.32880	54055
33.33692	57716
33.34505	63310
33.35317	76000
33.36130	79484
33.36942	86701
33.37753	92369
33.38567	101824
33.39378	106908
33.40192	107435
33.41003	116259
33.41815	118195
33.42628	126403
33.43440	134088
33.44252	153279
33.45065	154973
33.45877	161445
33.46690	168379
33.47502	181902
33.48313	194437
33.49127	188867
33.49938	188650
33.50752	188959
33.51563	190998
33.52375	193913
33.53188	193255
33.54000	190798
33.54813	202297
33.55625	190077
33.56437	182094
33.57250	179687
33.58062	183819
33.58873	173515
33.59687	169400
33.60498	170957
33.61312	161938
33.62123	157705
33.62935	159363
33.63748	158418
33.64560	157076
33.65373	158054
33.66185	150832
33.66997	153338
33.67810	156126
33.68622	153765
33.69433	154210
33.70247	152284
33.71058	155358
33.71872	153070
33.72683	151709
33.73495	151893
33.74308	139975
33.75120	145009
33.75933	136112
33.76745	134794
33.77557	128873
33.78370	121374
33.79182	127839
33.79995	118931
33.80807	111551
33.81618	110466
33.82432	103267
33.83243	102529
33.84055	105187
33.84868	110749
33.85680	103116
33.86493	102242
33.87305	102324
33.88117	100403
33.88930	100772
33.89742	104658
33.90555	96414
33.91367	98332
33.92178	90007
33.92992	96176
33.93803	95513
33.94617	87011
33.95428	89364
33.96240	87647
33.97053	87384
33.97865	82925
33.98677	84577
33.99490	77740
34.00302	79580
34.01115	77656
34.01927	77643
34.02738	77033
34.03552	76967
34.04363	73438
34.05177	72053
34.05988	71473
34.06800	76209
34.07613	74228
34.08425	71945
34.09238	70273
34.10050	69361
34.10862	70438
34.11675	67307
34.12487	65112
34.13298	71819
34.14112	73492
34.14923	71409
34.15737	68429
34.16548	68619
34.17360	63511
34.18173	64577
34.18985	69712
34.19798	65542
34.20610	66411
34.21422	68492
34.22235	64080
34.23047	68244
34.23858	70695
34.24672	67173
34.25483	72250
34.26297	73490
34.27108	77992
34.27920	79627
34.28733	81053
34.29545	88144
34.30358	87568
34.31170	87554
34.31982	97018
34.32795	94277
34.33607	100967
34.34420	107698
34.35232	105936
34.36043	106583
34.36857	114847
34.37668	114518
34.38480	123290
34.39293	123349
34.40105	126760
34.40918	135194
34.41730	142551
34.42542	149720
34.43355	154300
34.44167	158134
34.44980	162984
34.45792	166257
34.46603	169186
34.47417	166149
34.48228	164122
34.49040	157799
34.49853	151096
34.50665	144567
34.51478	135229
34.52290	117617
34.53102	113667
34.53915	113063
34.54727	103665
34.55540	103147
34.56352	91427
34.57163	94425
34.57977	94106
34.58788	90475
34.59602	85716
34.60413	79717
34.61225	79440
34.62038	80775
34.62850	74924
34.63662	73168
34.64475	73047
34.65287	67395
34.66100	69564
34.66912	68310
34.67723	63705
34.68537	68899
34.69348	64526
34.70162	61901
34.70973	63634
34.71785	59093
34.72598	59238
34.73410	63337
34.74223	61218
34.75035	58016
34.75847	61014
34.76660	57161
34.77472	61317
34.78283	59886
34.79097	61254
34.79908	57174
34.80722	63858
34.81533	58721
34.82345	60439
34.83158	58779
34.83970	60580
34.84783	60723
34.85595	61027
34.86407	61090
34.87220	58290
34.88032	59850
34.88843	56456
34.89657	56314
34.90468	59381
34.91282	61226
34.92093	59377
34.92905	59364
34.93718	57645
34.94530	60813
34.95343	57947
34.96155	60043
34.96967	58095
34.97780	59049
34.98592	55430
34.99405	56481
35.00217	59185
35.01028	55020
35.01842	56261
35.02653	54376
35.03465	55766
35.04278	54541
35.05090	61153
35.05903	59234
35.06715	59515
35.07527	61280
35.08340	57302
35.09152	61304
35.09965	56469
35.10777	56348
35.11588	59326
35.12402	56010
35.13213	51048
35.14027	51253
35.14838	57505
35.15650	56736
35.16463	56350
35.17275	58681
35.18087	61283
35.18900	54869
35.19712	57788
35.20525	60346
35.21337	54226
35.22148	57342
35.22962	62747
35.23773	59688
35.24587	60842
35.25398	64373
35.26210	58827
35.27023	59408
35.27835	63352
35.28647	60647
35.29460	59352
35.30272	60590
35.31085	60329
35.31897	61749
35.32708	63583
35.33522	58226
35.34333	63789
35.35147	59829
35.35958	55849
35.36770	59506
35.37583	59938
35.38395	59180
35.39208	59613
35.40020	64352
35.40832	58498
35.41645	57275
35.42457	57749
35.43268	58866
35.44082	57909
35.44893	59097
35.45707	63875
35.46518	61680
35.47330	58472
35.48143	58195
35.48955	60227
35.49768	59594
35.50580	62995
35.51392	59801
35.52205	62539
35.53017	57145
35.53828	56171
35.54642	56743
35.55453	56231
35.56267	60534
35.57078	58464
35.57890	59252
35.58703	64630
35.59515	60665
35.60328	63302
35.61140	62809
35.61952	59032
35.62765	58968
35.63577	56755
35.64390	58632
35.65202	57188
35.66013	56664
35.66827	58802
35.67638	60096
35.68450	55351
35.69263	60744
35.70075	58111
35.70888	59460
35.71700	60625
35.72512	58940
35.73325	57278
35.74137	57772
35.74950	62965
35.75762	59651
35.76573	59105
35.77387	60076
35.78198	59366
35.79012	58389
35.79823	59896
35.80635	54720
35.81448	59458
35.82260	57221
35.83072	56950
35.83885	60421
35.84697	63345
35.85510	60536
35.86322	56757
35.87133	60475
35.87947	58949
35.88758	57588
35.89572	58659
35.90383	58626
35.91195	55583
35.92008	62010
35.92820	60733
35.93632	57664
35.94445	57713
35.95257	58231
35.96070	56853
35.96882	55798
35.97693	54541
35.98507	59699
35.99318	57275
36.00132	58805
36.00943	53909
36.01755	59451
36.02568	65423
36.03380	62123
36.04193	58215
36.05005	58947
36.05817	58177
36.06630	61089
36.07442	61721
36.08253	59163
36.09067	62709
36.09878	57276
36.10692	57379
36.11503	60327
36.12315	59446
36.13128	56366
36.13940	58645
36.14753	62269
36.15565	58950
36.16377	54671
36.17190	56527
36.18002	58553
36.18815	58856
36.19627	60261
36.20438	68731
36.21252	72431
36.22063	82775
36.22875	82362
36.23688	83588
36.24500	76135
36.25313	66152
36.26125	68525
36.26937	62174
36.27750	59487
36.28562	59084
36.29375	59917
36.30187	53083
36.30998	61032
36.31812	57229
36.32623	53639
36.33435	60200
36.34248	59892
36.35060	59169
36.35873	57769
36.36685	60079
36.37497	60830
36.38310	60731
36.39122	60666
36.39935	57158
36.40747	58600
36.41558	59308
36.42372	61536
36.43183	58717
36.43997	59472
36.44808	57216
36.45620	63380
36.46433	61004
36.47245	61597
36.48057	53920
36.48870	60574
36.49682	59946
36.50495	58594
36.51307	61243
36.52118	59504
36.52932	60098
36.53743	61912
36.54557	61481
36.55368	60331
36.56180	59023
36.56993	61871
36.57805	56775
36.58617	58201
36.59430	59343
36.60242	59554
36.61055	59608
36.61867	61150
36.62678	61981
36.63492	59024
36.64303	59888
36.65117	59632
36.65928	57741
36.66740	61830
36.67553	64031
36.68365	61420
36.69178	61103
36.69990	62546
36.70802	61897
36.71615	61846
36.72427	62018
36.73238	63120
36.74052	60076
36.74863	57904
36.75677	60403
36.76488	65150
36.77300	58805
36.78113	59395
36.78925	61194
36.79738	59752
36.80550	61871
36.81362	62623
36.82175	62832
36.82987	57597
36.83800	62085
36.84612	66670
36.85423	66340
36.86237	60412
36.87048	59854
36.87860	62199
36.88673	63825
36.89485	62386
36.90298	61611
36.91110	61287
36.91922	63083
36.92735	63477
36.93547	64492
36.94360	61029
36.95172	64700
36.95983	66333
36.96797	63322
36.97608	59860
36.98420	65568
36.99233	63052
37.00045	61768
37.00858	62044
37.01670	66872
37.02482	65802
37.03295	64806
37.04107	66977
37.04920	67285
37.05732	65530
37.06543	63183
37.07357	62309
37.08168	64346
37.08982	69965
37.09793	69401
37.10605	70528
37.11418	64632
37.12230	63228
37.13042	64587
37.13855	64698
37.14667	62734
37.15480	64221
37.16292	64391
37.17103	68695
37.17917	68411
37.18728	61289
37.19542	65894
37.20353	64221
37.21165	67796
37.21978	64283
37.22790	69038
37.23603	68611
37.24415	78386
37.25227	87816
37.26040	99915
37.26852	103174
37.27663	107055
37.28477	96454
37.29288	99822
37.30102	97777
37.30913	88080
37.31725	89702
37.32538	79201
37.33350	71764
37.34163	75528
37.34975	79428
37.35787	79943
37.36600	75483
37.37412	76745
37.38223	76456
37.39037	75268
37.39848	71455
37.40662	72744
37.41473	73264
37.42285	71958
37.43098	71317
37.43910	74246
37.44723	74362
37.45535	79098
37.46347	72848
37.47160	75000
37.47972	71074
37.48785	67138
