C:\MassHunter\GCMS\1\data\JTB-E18\JTB-E18-036-06.D Thu Oct 17 13:04:38 2019
Start of data points
2.09537,221745
2.10350,228953
2.11162,208402
2.11975,200747
2.12787,191959
2.13598,194575
2.14412,184023
2.15223,189122
2.16035,172051
2.16848,169421
2.17660,163581
2.18473,164971
2.19285,153778
2.20097,145525
2.20910,145019
2.21722,140835
2.22535,136311
2.23347,138039
2.24158,294595
2.24972,1206975
2.25783,1866753
2.26595,1404800
2.27408,778227
2.28220,550630
2.29033,458853
2.29845,403474
2.30657,358664
2.31470,330392
2.32282,294835
2.33095,276416
2.33907,266155
2.34718,246922
2.35532,232246
2.36343,248301
2.37157,235596
2.37968,218882
2.38780,210500
2.39593,200449
2.40405,200854
2.41217,196115
2.42030,208162
2.42842,201529
2.43655,192928
2.44467,178373
2.45278,171272
2.46092,162230
2.46903,167554
2.47717,166133
2.48528,159636
2.49340,159977
2.50153,157548
2.50965,153829
2.51777,147130
2.52590,166020
2.53402,183933
2.54215,188012
2.55027,166556
2.55838,153054
2.56652,147883
2.57463,144464
2.58277,152873
2.59088,170557
2.59900,171362
2.60713,168253
2.61525,156043
2.62338,143309
2.63150,146687
2.63962,142800
2.64775,138624
2.65587,145089
2.66398,150839
2.67212,141631
2.68023,135614
2.68837,129343
2.69648,129643
2.70460,134398
2.71273,124810
2.72085,130418
2.72898,121680
2.73710,120115
2.74522,125886
2.75335,131112
2.76147,131691
2.76960,142382
2.77772,135694
2.78583,139065
2.79397,147874
2.80208,193658
2.81020,259453
2.81833,264149
2.82645,214972
2.83458,192428
2.84270,170095
2.85082,165587
2.85895,154863
2.86707,141934
2.87520,134051
2.88332,132384
2.89143,126738
2.89957,130703
2.90768,117383
2.91580,118032
2.92393,118461
2.93205,112435
2.94018,109325
2.94830,106218
2.95642,110329
2.96455,115921
2.97267,112010
2.98080,116280
2.98892,120833
2.99703,128893
3.00517,189857
3.01328,317958
3.02142,472478
3.02953,1139456
3.03765,2902228
3.04578,3839784
3.05390,2850278
3.06202,1755185
3.07015,1305440
3.07827,1858559
3.08640,3760048
3.09452,4963972
3.10263,3895596
3.11077,2553993
3.11888,1801152
3.12702,1375316
3.13513,1092307
3.14325,916074
3.15138,819936
3.15950,787935
3.16763,1026028
3.17575,1413729
3.18387,1382035
3.19200,1058798
3.20012,826583
3.20823,676189
3.21637,587208
3.22448,510145
3.23262,440690
3.24073,397480
3.24885,359322
3.25698,358081
3.26510,447977
3.27323,748296
3.28135,1306189
3.28947,1758002
3.29760,1785142
3.30572,1508174
3.31383,1197998
3.32197,1004532
3.33008,857950
3.33822,776123
3.34633,728779
3.35445,779160
3.36258,838501
3.37070,799231
3.37883,817503
3.38695,1149310
3.39507,1743036
3.40320,1883863
3.41132,1406304
3.41945,973674
3.42757,767693
3.43568,665281
3.44382,597128
3.45193,569300
3.46005,529608
3.46818,489314
3.47630,457270
3.48443,426681
3.49255,406943
3.50067,384418
3.50880,375897
3.51692,377230
3.52505,363559
3.53317,348364
3.54128,330182
3.54942,326943
3.55753,308416
3.56565,304135
3.57378,293925
3.58190,284422
3.59003,298975
3.59815,380024
3.60627,602205
3.61440,953186
3.62252,1072239
3.63065,898551
3.63877,709529
3.64688,915247
3.65502,1905970
3.66313,3074589
3.67127,3078930
3.67938,2312884
3.68750,1713546
3.69563,1355765
3.70375,1137005
3.71187,980882
3.72000,849796
3.72812,761590
3.73625,707262
3.74437,687901
3.75248,695459
3.76062,667946
3.76873,621048
3.77687,604803
3.78498,711155
3.79310,1040697
3.80123,1351065
3.80935,1294998
3.81748,1029928
3.82560,835816
3.83372,688831
3.84185,626724
3.84997,549689
3.85808,502375
3.86622,466034
3.87433,437084
3.88247,414323
3.89058,396292
3.89870,420414
3.90683,482039
3.91495,510363
3.92308,486597
3.93120,443758
3.93932,431098
3.94745,442597
3.95557,428311
3.96368,386053
3.97182,369523
3.97993,427647
3.98807,635584
3.99618,910626
4.00430,990856
4.01243,815652
4.02055,606050
4.02868,464915
4.03680,407332
4.04492,361253
4.05305,320966
4.06117,292482
4.06930,278264
4.07742,269252
4.08553,252384
4.09367,238845
4.10178,243618
4.10990,246346
4.11803,259158
4.12615,335991
4.13428,424177
4.14240,440812
4.15052,379592
4.15865,318012
4.16677,283426
4.17490,250871
4.18302,280452
4.19113,745701
4.19927,3067113
4.20738,8301380
4.21552,1.412653E+07
4.22363,1.740386E+07
4.23175,1.584218E+07
4.23988,1.073932E+07
4.24800,6375027
4.25612,4057705
4.26425,2858178
4.27237,2144803
4.28050,1689704
4.28862,1361621
4.29673,1152363
4.30487,978207
4.31298,866985
4.32112,785025
4.32923,720068
4.33735,677241
4.34548,638631
4.35360,592576
4.36172,552278
4.36985,507340
4.37797,479431
4.38610,453150
4.39422,425183
4.40233,401853
4.41047,393047
4.41858,375905
4.42672,358511
4.43483,363508
4.44295,366507
4.45108,347264
4.45920,329665
4.46733,317070
4.47545,307628
4.48357,299328
4.49170,286243
4.49982,280792
4.50793,275024
4.51607,271341
4.52418,261913
4.53232,258554
4.54043,252051
4.54855,256642
4.55668,237942
4.56480,238725
4.57293,234538
4.58105,227917
4.58917,229918
4.59730,223067
4.60542,248130
4.61355,289423
4.62167,350628
4.62978,375316
4.63792,349485
4.64603,308836
4.65415,276688
4.66228,255014
4.67040,240993
4.67853,237219
4.68665,216386
4.69477,218150
4.70290,202318
4.71102,204656
4.71915,206014
4.72727,193258
4.73538,186395
4.74352,189425
4.75163,179519
4.75975,192230
4.76788,191830
4.77600,235606
4.78413,328241
4.79225,434466
4.80037,454860
4.80850,407527
4.81662,359431
4.82475,322869
4.83287,301368
4.84098,273746
4.84912,254171
4.85723,241120
4.86537,226051
4.87348,217672
4.88160,207431
4.88973,200906
4.89785,210414
4.90597,244577
4.91410,342801
4.92222,510545
4.93035,655595
4.93847,720427
4.94658,674552
4.95472,578243
4.96283,499840
4.97097,427742
4.97908,393554
4.98720,363870
4.99533,348916
5.00345,365367
5.01157,459910
5.01970,679855
5.02782,901356
5.03595,937300
5.04407,824128
5.05218,706576
5.06032,610082
5.06843,538264
5.07657,504832
5.08468,481447
5.09280,470155
5.10093,478953
5.10905,455571
5.11718,426944
5.12530,390160
5.13342,361575
5.14155,357274
5.14967,366880
5.15778,383214
5.16592,407616
5.17403,410576
5.18217,396427
5.19028,373801
5.19840,339848
5.20653,323770
5.21465,319821
5.22278,332234
5.23090,334783
5.23902,307392
5.24715,276091
5.25527,268785
5.26340,260404
5.27152,244765
5.27963,243094
5.28777,229742
5.29588,214574
5.30400,219883
5.31213,219246
5.32025,216192
5.32838,221573
5.33650,223262
5.34462,213282
5.35275,203386
5.36087,199191
5.36900,205134
5.37712,198572
5.38523,189064
5.39337,196778
5.40148,191451
5.40960,187995
5.41773,181014
5.42585,179552
5.43398,178233
5.44210,184802
5.45022,173176
5.45835,167117
5.46647,173939
5.47460,173090
5.48272,163641
5.49083,166978
5.49897,167759
5.50708,171157
5.51522,169364
5.52333,166500
5.53145,163654
5.53958,163796
5.54770,163193
5.55582,172126
5.56395,179030
5.57207,184257
5.58020,179576
5.58832,171964
5.59643,173476
5.60457,164011
5.61268,171739
5.62082,169316
5.62893,173096
5.63705,172733
5.64518,165294
5.65330,164939
5.66143,162124
5.66955,180262
5.67767,199691
5.68580,218734
5.69392,228354
5.70203,224693
5.71017,219724
5.71828,219433
5.72642,210183
5.73453,201221
5.74265,197859
5.75078,203579
5.75890,210774
5.76703,205765
5.77515,197974
5.78327,203971
5.79140,258525
5.79952,384686
5.80763,598142
5.81577,825390
5.82388,915380
5.83202,809202
5.84013,621259
5.84825,441466
5.85638,337895
5.86450,285346
5.87263,252691
5.88075,238559
5.88887,248466
5.89700,273538
5.90512,346255
5.91325,419374
5.92137,435804
5.92948,423270
5.93762,361020
5.94573,314091
5.95385,292656
5.96198,284682
5.97010,293561
5.97823,292820
5.98635,284652
5.99447,260832
6.00260,235947
6.01072,209891
6.01885,187187
6.02697,182110
6.03508,163510
6.04322,155541
6.05133,152244
6.05945,146046
6.06758,147259
6.07570,133535
6.08383,133209
6.09195,130881
6.10007,133527
6.10820,141725
6.11632,172805
6.12445,221803
6.13257,271132
6.14068,283037
6.14882,274023
6.15693,252158
6.16507,220551
6.17318,210677
6.18130,208189
6.18943,210985
6.19755,206215
6.20567,204069
6.21380,190987
6.22192,187459
6.23005,183483
6.23817,178148
6.24628,185672
6.25442,184946
6.26253,185002
6.27067,185476
6.27878,180514
6.28690,192949
6.29503,190855
6.30315,184987
6.31128,198172
6.31940,209232
6.32752,222105
6.33565,219905
6.34377,223650
6.35188,211569
6.36002,207109
6.36813,219536
6.37627,200611
6.38438,200557
6.39250,207516
6.40063,206039
6.40875,203364
6.41688,207449
6.42500,207705
6.43312,205751
6.44125,211428
6.44937,218103
6.45750,216504
6.46562,218101
6.47373,218739
6.48187,216567
6.48998,223873
6.49810,224233
6.50623,226886
6.51435,231422
6.52248,227721
6.53060,245553
6.53872,237727
6.54685,241596
6.55497,229218
6.56310,239120
6.57122,230922
6.57933,234696
6.58747,236223
6.59558,237460
6.60370,235623
6.61183,237829
6.61995,238373
6.62808,230503
6.63620,237117
6.64432,256629
6.65245,277101
6.66057,303075
6.66870,321520
6.67682,351934
6.68493,364928
6.69307,364637
6.70118,326520
6.70932,287934
6.71743,273223
6.72555,245039
6.73368,187236
6.74180,150475
6.74992,138083
6.75805,136325
6.76617,145277
6.77430,190634
6.78242,284327
6.79053,416549
6.79867,523105
6.80678,568441
6.81492,490488
6.82303,355524
6.83115,248343
6.83928,195477
6.84740,151592
6.85552,134075
6.86365,118902
6.87177,107034
6.87990,98253
6.88802,98665
6.89613,92869
6.90427,88800
6.91238,97833
6.92052,114765
6.92863,146048
6.93675,188541
6.94488,214241
6.95300,220469
6.96113,207510
6.96925,177106
6.97737,146700
6.98550,125004
6.99362,104585
7.00173,95819
7.00987,87211
7.01798,89050
7.02612,90330
7.03423,83238
7.04235,87240
7.05048,86467
7.05860,78295
7.06673,77066
7.07485,74922
7.08297,69123
7.09110,74234
7.09922,67503
7.10735,71650
7.11547,68115
7.12358,72957
7.13172,71745
7.13983,78834
7.14795,86570
7.15608,97149
7.16420,103881
7.17233,114610
7.18045,117791
7.18857,128552
7.19670,171572
7.20482,323383
7.21295,680604
7.22107,1164111
7.22918,1396466
7.23732,1212610
7.24543,825256
7.25355,530595
7.26168,339040
7.26980,234509
7.27793,173260
7.28605,142219
7.29417,153465
7.30230,170292
7.31042,188260
7.31855,202119
7.32667,190505
7.33478,172520
7.34292,143780
7.35103,120220
7.35917,105387
7.36728,111122
7.37540,101570
7.38353,103672
7.39165,110343
7.39977,109144
7.40790,119238
7.41602,127347
7.42415,135202
7.43227,134676
7.44038,126986
7.44852,107026
7.45663,97772
7.46477,88802
7.47288,84187
7.48100,80334
7.48913,72279
7.49725,73740
7.50538,79061
7.51350,78938
7.52162,80104
7.52975,87654
7.53787,98205
7.54598,96424
7.55412,95470
7.56223,89379
7.57037,86611
7.57848,82191
7.58660,77600
7.59473,71341
7.60285,74107
7.61098,67534
7.61910,72633
7.62722,72725
7.63535,67809
7.64347,66509
7.65158,63041
7.65972,66952
7.66783,68554
7.67597,60022
7.68408,69272
7.69220,60603
7.70033,67381
7.70845,64194
7.71658,63705
7.72470,64560
7.73282,61254
7.74095,62429
7.74907,60860
7.75720,59725
7.76532,59971
7.77343,65020
7.78157,61846
7.78968,66838
7.79780,66296
7.80593,61443
7.81405,58804
7.82218,56741
7.83030,59497
7.83842,58084
7.84655,55136
7.85467,59996
7.86280,61684
7.87092,61066
7.87903,55751
7.88717,56751
7.89528,55272
7.90340,58660
7.91153,64426
7.91965,64736
7.92778,72966
7.93590,82346
7.94402,79594
7.95215,83305
7.96027,73984
7.96840,60439
7.97652,59872
7.98463,64628
7.99277,56241
8.00088,56582
8.00902,52680
8.01713,56952
8.02525,54954
8.03338,52775
8.04150,50251
8.04962,54817
8.05775,52531
8.06587,52313
8.07400,51232
8.08212,47607
8.09023,50584
8.09837,51209
8.10648,50144
8.11462,51659
8.12273,53050
8.13085,55039
8.13898,54317
8.14710,56300
8.15523,55469
8.16335,52350
8.17147,47293
8.17960,51234
8.18772,48520
8.19583,48263
8.20397,46913
8.21208,48433
8.22022,50729
8.22833,48421
8.23645,48340
8.24458,47734
8.25270,47609
8.26083,45125
8.26895,44976
8.27707,43809
8.28520,50480
8.29332,47298
8.30143,50969
8.30957,50179
8.31768,51901
8.32582,51729
8.33393,48992
8.34205,49872
8.35018,46540
8.35830,44037
8.36643,48556
8.37455,41345
8.38267,45707
8.39080,46303
8.39892,46239
8.40705,42425
8.41517,43339
8.42328,41476
8.43142,39175
8.43953,41594
8.44765,40149
8.45578,41958
8.46390,44674
8.47203,43476
8.48015,40380
8.48827,46589
8.49640,43027
8.50452,48608
8.51265,64923
8.52077,102306
8.52888,171794
8.53702,247720
8.54513,305853
8.55327,288322
8.56138,216801
8.56950,140534
8.57763,99143
8.58575,74478
8.59387,67425
8.60200,64083
8.61012,55019
8.61825,56344
8.62637,51209
8.63448,51153
8.64262,50046
8.65073,51305
8.65887,51964
8.66698,50237
8.67510,48974
8.68323,48768
8.69135,51388
8.69947,54463
8.70760,58793
8.71572,69919
8.72385,94230
8.73197,128596
8.74008,148354
8.74822,156446
8.75633,139282
8.76447,118343
8.77258,94254
8.78070,82894
8.78883,78928
8.79695,70551
8.80508,70907
8.81320,79711
8.82132,81893
8.82945,76373
8.83757,77409
8.84568,78478
8.85382,73524
8.86193,68981
8.87007,70223
8.87818,68433
8.88630,66348
8.89443,70684
8.90255,66672
8.91068,64445
8.91880,67945
8.92692,67711
8.93505,71930
8.94317,73029
8.95128,65734
8.95942,70287
8.96753,66132
8.97567,65718
8.98378,60653
8.99190,62131
9.00003,57682
9.00815,59816
9.01628,59212
9.02440,55203
9.03252,51936
9.04065,59795
9.04877,54431
9.05690,54841
9.06502,51489
9.07313,56693
9.08127,50376
9.08938,58550
9.09750,56221
9.10563,60446
9.11375,54771
9.12188,57061
9.13000,59582
9.13812,51446
9.14625,55730
9.15437,55172
9.16250,53304
9.17062,50566
9.17873,47776
9.18687,46636
9.19498,49734
9.20312,51650
9.21123,46256
9.21935,46760
9.22748,48694
9.23560,45797
9.24372,48584
9.25185,52061
9.25997,53741
9.26810,53526
9.27622,54118
9.28433,54751
9.29247,50706
9.30058,47606
9.30872,47630
9.31683,49121
9.32495,51749
9.33308,54042
9.34120,49714
9.34932,57808
9.35745,51200
9.36557,49678
9.37370,44440
9.38182,49251
9.38993,48833
9.39807,44529
9.40618,51142
9.41432,47258
9.42243,51100
9.43055,50759
9.43868,53900
9.44680,48882
9.45493,48399
9.46305,44638
9.47117,44966
9.47930,44528
9.48742,44680
9.49553,54351
9.50367,55971
9.51178,52973
9.51992,55391
9.52803,48248
9.53615,42129
9.54428,38662
9.55240,38431
9.56053,38211
9.56865,35106
9.57677,36296
9.58490,32158
9.59302,35348
9.60115,32449
9.60927,38457
9.61738,35325
9.62552,39728
9.63363,41089
9.64175,41027
9.64988,37956
9.65800,35748
9.66613,35327
9.67425,33075
9.68237,31737
9.69050,32691
9.69862,32648
9.70675,36868
9.71487,30013
9.72298,30042
9.73112,30420
9.73923,33936
9.74735,30416
9.75548,32222
9.76360,29191
9.77173,36007
9.77985,29749
9.78797,30829
9.79610,31655
9.80422,30019
9.81235,29704
9.82047,28764
9.82858,31030
9.83672,29421
9.84483,34047
9.85297,36501
9.86108,34246
9.86920,33936
9.87733,38333
9.88545,30962
9.89357,34042
9.90170,34675
9.90982,33524
9.91795,31201
9.92607,37963
9.93418,43059
9.94232,46396
9.95043,47241
9.95857,54274
9.96668,49716
9.97480,46843
9.98293,38686
9.99105,38592
9.99918,33747
10.00730,33283
10.01542,34471
10.02355,33777
10.03167,33936
10.03978,31888
10.04792,35519
10.05603,34544
10.06417,37486
10.07228,34870
10.08040,34508
10.08853,30751
10.09665,31194
10.10478,29753
10.11290,31677
10.12102,29056
10.12915,31084
10.13727,32186
10.14538,31256
10.15352,32246
10.16163,32994
10.16977,30180
10.17788,28485
10.18600,28762
10.19413,27624
10.20225,30229
10.21038,32612
10.21850,31774
10.22662,32198
10.23475,35290
10.24287,40515
10.25100,52950
10.25912,96658
10.26723,194380
10.27537,416149
10.28348,790466
10.29160,1365298
10.29973,2209810
10.30785,3471798
10.31598,5275775
10.32410,6596237
10.33222,6685020
10.34035,5222253
10.34847,3389699
10.35660,1897026
10.36472,1017051
10.37283,618372
10.38097,423927
10.38908,332566
10.39720,250062
10.40533,219262
10.41345,187326
10.42158,162005
10.42970,143901
10.43782,134952
10.44595,124029
10.45407,124924
10.46220,115051
10.47032,101041
10.47843,98775
10.48657,101018
10.49468,99588
10.50282,83768
10.51093,85621
10.51905,80582
10.52718,76222
10.53530,69706
10.54342,72131
10.55155,75710
10.55967,75470
10.56780,74269
10.57592,67708
10.58403,64770
10.59217,61351
10.60028,62232
10.60842,63842
10.61653,58899
10.62465,56172
10.63278,51688
10.64090,53430
10.64903,50817
10.65715,53279
10.66527,50486
10.67340,53117
10.68152,50769
10.68963,52462
10.69777,50513
10.70588,52587
10.71402,51678
10.72213,53419
10.73025,49260
10.73838,48026
10.74650,49497
10.75463,47648
10.76275,44963
10.77087,45742
10.77900,44882
10.78712,45878
10.79523,43261
10.80337,45147
10.81148,42611
10.81962,41698
10.82773,41599
10.83585,39959
10.84398,41594
10.85210,47582
10.86023,40426
10.86835,36581
10.87647,40393
10.88460,42296
10.89272,39502
10.90085,38985
10.90897,37984
10.91708,38626
10.92522,37243
10.93333,36942
10.94145,40064
10.94958,37737
10.95770,41274
10.96583,35495
10.97395,37054
10.98207,34921
10.99020,36270
10.99832,36668
11.00645,31507
11.01457,33854
11.02268,36378
11.03082,32017
11.03893,31531
11.04707,32954
11.05518,33807
11.06330,35870
11.07143,35957
11.07955,33796
11.08767,37435
11.09580,36462
11.10392,34362
11.11205,38322
11.12017,34282
11.12828,32051
11.13642,33043
11.14453,34931
11.15267,33578
11.16078,33463
11.16890,34048
11.17703,34973
11.18515,35882
11.19327,34108
11.20140,33342
11.20952,31870
11.21765,32981
11.22577,30818
11.23388,35996
11.24202,38026
11.25013,41725
11.25827,50390
11.26638,53199
11.27450,62953
11.28263,65178
11.29075,66651
11.29888,62927
11.30700,65648
11.31512,66364
11.32325,75484
11.33137,86296
11.33948,86414
11.34762,76547
11.35573,70175
11.36387,57736
11.37198,55803
11.38010,50114
11.38823,51192
11.39635,46687
11.40448,45750
11.41260,45373
11.42072,40607
11.42885,43643
11.43697,41387
11.44508,42994
11.45322,42552
11.46133,42499
11.46947,43585
11.47758,49542
11.48570,56846
11.49383,60097
11.50195,58668
11.51008,62178
11.51820,59376
11.52632,56118
11.53445,55173
11.54257,53012
11.55070,46731
11.55882,46142
11.56693,43660
11.57507,43560
11.58318,41819
11.59130,47353
11.59943,53735
11.60755,57758
11.61568,66171
11.62380,61842
11.63192,57678
11.64005,55106
11.64817,48571
11.65630,44319
11.66442,48511
11.67253,48295
11.68067,46423
11.68878,48292
11.69692,54021
11.70503,52124
11.71315,53977
11.72128,51584
11.72940,48287
11.73752,46776
11.74565,44051
11.75377,42025
11.76190,43803
11.77002,36292
11.77813,34533
11.78627,39739
11.79438,38847
11.80252,36675
11.81063,37324
11.81875,35007
11.82688,36653
11.83500,34242
11.84312,38358
11.85125,34726
11.85937,31032
11.86750,34542
11.87562,34343
11.88373,33507
11.89187,32073
11.89998,36567
11.90812,40336
11.91623,39675
11.92435,41469
11.93248,42038
11.94060,39755
11.94873,40438
11.95685,39901
11.96497,34896
11.97310,31986
11.98122,35931
11.98933,39581
11.99747,43054
12.00558,43176
12.01372,44097
12.02183,41718
12.02995,39749
12.03808,36553
12.04620,34574
12.05433,35395
12.06245,32045
12.07057,32438
12.07870,33632
12.08682,33762
12.09495,30858
12.10307,30723
12.11118,35671
12.11932,33957
12.12743,34011
12.13555,30577
12.14368,31928
12.15180,29057
12.15993,33030
12.16805,28598
12.17617,30895
12.18430,33626
12.19242,31315
12.20055,32904
12.20867,30837
12.21678,30032
12.22492,30028
12.23303,26458
12.24115,26425
12.24928,30047
12.25740,29686
12.26553,31546
12.27365,27943
12.28177,30660
12.28990,29721
12.29802,23872
12.30615,27037
12.31427,27292
12.32238,27180
12.33052,24215
12.33863,27979
12.34677,27732
12.35488,29222
12.36300,24694
12.37113,27809
12.37925,31216
12.38737,35442
12.39550,40765
12.40362,53913
12.41175,61037
12.41987,70458
12.42798,64694
12.43612,57162
12.44423,46225
12.45237,41049
12.46048,36785
12.46860,31826
12.47673,33279
12.48485,33559
12.49298,28324
12.50110,29085
12.50922,28807
12.51735,29200
12.52547,32309
12.53358,37024
12.54172,50099
12.54983,62222
12.55797,76667
12.56608,76291
12.57420,65477
12.58233,62101
12.59045,49637
12.59858,39719
12.60670,40146
12.61482,34622
12.62295,38831
12.63107,33605
12.63918,34676
12.64732,32455
12.65543,28738
12.66357,29771
12.67168,30477
12.67980,29944
12.68793,32203
12.69605,28315
12.70418,31880
12.71230,29853
12.72042,25835
12.72855,31276
12.73667,31326
12.74480,32156
12.75292,28516
12.76103,31155
12.76917,28350
12.77728,31233
12.78540,30903
12.79353,29578
12.80165,27436
12.80978,27723
12.81790,30613
12.82602,27176
12.83415,27399
12.84227,26547
12.85040,26579
12.85852,26812
12.86663,26977
12.87477,26915
12.88288,24899
12.89102,26533
12.89913,24621
12.90725,27860
12.91538,26803
12.92350,28002
12.93162,37977
12.93975,44795
12.94787,54760
12.95600,56977
12.96412,67777
12.97223,61205
12.98037,63215
12.98848,62464
12.99662,54067
13.00473,45270
13.01285,42293
13.02098,39127
13.02910,34647
13.03722,38323
13.04535,36151
13.05347,31596
13.06160,34848
13.06972,34560
13.07783,31324
13.08597,30033
13.09408,30284
13.10222,32419
13.11033,30539
13.11845,30601
13.12658,35313
13.13470,29160
13.14283,31586
13.15095,30663
13.15907,30401
13.16720,31724
13.17532,31603
13.18343,26451
13.19157,30059
13.19968,29075
13.20782,28967
13.21593,29038
13.22405,31039
13.23218,35377
13.24030,29647
13.24843,33747
13.25655,33445
13.26467,33282
13.27280,35440
13.28092,30922
13.28903,33192
13.29717,34034
13.30528,30127
13.31342,30099
13.32153,33346
13.32965,33263
13.33778,34513
13.34590,31939
13.35403,27342
13.36215,29400
13.37027,29188
13.37840,27749
13.38652,29322
13.39465,26952
13.40277,27472
13.41088,28241
13.41902,27087
13.42713,25210
13.43525,25194
13.44338,25740
13.45150,27122
13.45963,28515
13.46775,28747
13.47587,32881
13.48400,26873
13.49212,28116
13.50025,24394
13.50837,28777
13.51648,29461
13.52462,31607
13.53273,32955
13.54087,30064
13.54898,31518
13.55710,31854
13.56523,29060
13.57335,31396
13.58147,34506
13.58960,38643
13.59772,47250
13.60585,62955
13.61397,76728
13.62208,77213
13.63022,77315
13.63833,68657
13.64647,53385
13.65458,47865
13.66270,38076
13.67083,41205
13.67895,35131
13.68707,34359
13.69520,35108
13.70332,33664
13.71145,31104
13.71957,29589
13.72768,34592
13.73582,36745
13.74393,47886
13.75207,63398
13.76018,90985
13.76830,114882
13.77643,138390
13.78455,134440
13.79268,127423
13.80080,121477
13.80892,107662
13.81705,98012
13.82517,101879
13.83328,99586
13.84142,93378
13.84953,78211
13.85767,67899
13.86578,65739
13.87390,60991
13.88203,58304
13.89015,56787
13.89828,53842
13.90640,51362
13.91452,49675
13.92265,50294
13.93077,45865
13.93890,48202
13.94702,41150
13.95513,40831
13.96327,41577
13.97138,40468
13.97950,41850
13.98763,45166
13.99575,43457
14.00388,42045
14.01200,42234
14.02012,38926
14.02825,36168
14.03637,38408
14.04450,37225
14.05262,36861
14.06073,32899
14.06887,33725
14.07698,33469
14.08510,32693
14.09323,32737
14.10135,33888
14.10948,31895
14.11760,39836
14.12572,47333
14.13385,57735
14.14197,65312
14.15010,79212
14.15822,86461
14.16633,77794
14.17447,82228
14.18258,68598
14.19072,60493
14.19883,60471
14.20695,55768
14.21508,54445
14.22320,59258
14.23132,56572
14.23945,50342
14.24757,51977
14.25570,47216
14.26382,47455
14.27193,42353
14.28007,44353
14.28818,41823
14.29632,38735
14.30443,41684
14.31255,38106
14.32068,31419
14.32880,32582
14.33692,32750
14.34505,31197
14.35317,30837
14.36130,33666
14.36942,30359
14.37753,36419
14.38567,38499
14.39378,52791
14.40192,72782
14.41003,97299
14.41815,114973
14.42628,112476
14.43440,100051
14.44253,75504
14.45065,64820
14.45877,55669
14.46690,49488
14.47502,42886
14.48313,43806
14.49127,40303
14.49938,39005
14.50752,35926
14.51563,37099
14.52375,33544
14.53188,35199
14.54000,34087
14.54813,33063
14.55625,31660
14.56437,32600
14.57250,32819
14.58062,30727
14.58875,31816
14.59687,34292
14.60498,31717
14.61312,27971
14.62123,29747
14.62935,29908
14.63748,27348
14.64560,27816
14.65373,27756
14.66185,27428
14.66997,27303
14.67810,30416
14.68622,28639
14.69435,26709
14.70247,24957
14.71058,25978
14.71872,26260
14.72683,29044
14.73495,27571
14.74308,28791
14.75120,27924
14.75933,29807
14.76745,27999
14.77557,30504
14.78370,47365
14.79182,81302
14.79995,163422
14.80807,335208
14.81618,592723
14.82432,871259
14.83243,1009882
14.84057,911214
14.84868,677715
14.85680,451537
14.86493,317179
14.87305,236140
14.88117,175523
14.88930,144622
14.89742,124529
14.90555,111978
14.91367,100866
14.92178,93995
14.92992,89449
14.93803,80796
14.94617,71459
14.95428,69915
14.96240,65380
14.97053,60373
14.97865,59956
14.98678,61386
14.99490,57998
15.00302,55026
15.01115,58447
15.01927,50303
15.02738,46459
15.03552,45690
15.04363,46821
15.05177,45732
15.05988,39616
15.06800,42661
15.07613,44290
15.08425,40883
15.09238,42612
15.10050,41920
15.10862,40220
15.11675,41893
15.12487,41315
15.13298,41900
15.14112,43451
15.14923,42993
15.15737,40267
15.16548,39533
15.17360,41877
15.18173,32996
15.18985,33368
15.19798,32020
15.20610,31923
15.21422,31728
15.22235,32443
15.23047,29219
15.23860,29311
15.24672,29467
15.25483,30637
15.26297,30389
15.27108,30073
15.27920,29209
15.28733,31350
15.29545,28632
15.30358,27793
15.31170,27970
15.31982,31805
15.32795,30205
15.33607,27303
15.34420,28766
15.35232,27739
15.36043,29084
15.36857,28916
15.37668,31491
15.38482,26378
15.39293,29691
15.40105,27489
15.40918,29711
15.41730,27809
15.42542,29404
15.43355,27404
15.44167,26474
15.44980,28422
15.45792,27768
15.46603,29349
15.47417,35532
15.48228,38246
15.49042,40801
15.49853,38099
15.50665,39677
15.51478,39857
15.52290,38058
15.53102,37666
15.53915,35018
15.54727,34759
15.55540,33300
15.56352,32912
15.57163,31381
15.57977,30113
15.58788,28107
15.59602,32063
15.60413,28547
15.61225,27336
15.62038,30722
15.62850,28855
15.63663,27768
15.64475,28694
15.65287,25931
15.66100,29233
15.66912,27409
15.67723,30799
15.68537,29370
15.69348,25874
15.70162,26317
15.70973,28304
15.71785,25691
15.72598,28145
15.73410,30261
15.74223,34655
15.75035,40269
15.75847,53177
15.76660,69434
15.77472,88916
15.78283,96823
15.79097,101358
15.79908,87187
15.80722,75637
15.81533,59781
15.82345,51680
15.83158,52889
15.83970,45204
15.84783,42220
15.85595,41688
15.86407,41262
15.87220,43488
15.88032,40457
15.88845,42073
15.89657,41794
15.90468,37788
15.91282,35999
15.92093,36420
15.92905,37087
15.93718,35552
15.94530,34167
15.95343,34976
15.96155,33901
15.96967,37224
15.97780,36334
15.98592,35631
15.99405,37187
16.00217,35128
16.01028,35195
16.01842,40532
16.02653,36164
16.03467,36299
16.04278,33411
16.05090,28763
16.05903,28850
16.06715,26241
16.07527,29625
16.08340,30687
16.09152,28033
16.09965,26871
16.10777,27245
16.11588,28053
16.12402,29695
16.13213,29912
16.14027,31920
16.14838,30013
16.15650,27830
16.16463,30951
16.17275,35285
16.18087,27832
16.18900,27267
16.19712,30099
16.20525,27424
16.21337,30304
16.22148,28378
16.22962,27996
16.23773,26855
16.24587,28982
16.25398,28564
16.26210,25754
16.27023,27428
16.27835,30258
16.28648,26848
16.29460,27287
16.30272,28344
16.31085,28531
16.31897,29873
16.32708,28169
16.33522,26934
16.34333,28287
16.35147,27274
16.35958,29288
16.36770,28603
16.37583,31146
16.38395,33002
16.39208,27584
16.40020,29567
16.40832,32983
16.41645,26808
16.42457,30684
16.43270,27916
16.44082,35374
16.44893,43365
16.45707,55992
16.46518,74179
16.47330,95826
16.48143,99339
16.48955,96839
16.49768,77204
16.50580,62380
16.51392,51115
16.52205,49539
16.53017,42557
16.53830,40232
16.54642,39714
16.55453,37677
16.56267,33886
16.57078,34337
16.57890,35258
16.58703,34137
16.59515,34465
16.60328,33305
16.61140,31531
16.61952,31201
16.62765,33001
16.63577,34894
16.64390,30257
16.65202,28937
16.66013,28466
16.66827,29165
16.67638,28090
16.68452,29788
16.69263,27918
16.70075,30556
16.70888,29517
16.71700,28542
16.72512,28221
16.73325,27011
16.74137,27350
16.74950,28409
16.75762,26948
16.76573,28410
16.77387,25087
16.78198,28165
16.79012,25501
16.79823,28345
16.80635,26207
16.81448,29686
16.82260,29265
16.83072,27190
16.83885,26896
16.84697,27482
16.85510,28893
16.86322,26728
16.87133,28268
16.87947,24091
16.88758,25256
16.89572,30439
16.90383,29035
16.91195,25346
16.92008,28037
16.92820,23938
16.93633,25436
16.94445,26928
16.95257,27801
16.96070,24725
16.96882,29873
16.97693,27406
16.98507,24511
16.99318,28695
17.00132,28502
17.00943,28741
17.01755,30515
17.02568,27615
17.03380,28728
17.04193,29418
17.05005,26815
17.05817,27820
17.06630,29713
17.07442,27894
17.08255,28325
17.09067,25999
17.09878,32340
17.10692,31187
17.11503,31456
17.12315,28557
17.13128,30527
17.13940,30374
17.14753,26189
17.15565,27944
17.16377,26547
17.17190,27910
17.18002,28418
17.18815,27667
17.19627,27710
17.20438,26846
17.21252,24959
17.22063,27013
17.22877,24985
17.23688,28055
17.24500,28060
17.25313,25984
17.26125,24068
17.26937,26053
17.27750,28407
17.28562,25739
17.29375,30212
17.30187,26161
17.30998,24715
17.31812,26058
17.32623,27124
17.33437,31724
17.34248,26132
17.35060,27730
17.35873,29352
17.36685,30091
17.37497,27789
17.38310,28408
17.39122,33166
17.39935,29682
17.40747,26940
17.41558,31156
17.42372,32956
17.43183,26172
17.43997,29952
17.44808,28820
17.45620,28487
17.46433,27741
17.47245,24695
17.48058,29319
17.48870,26616
17.49682,29291
17.50495,29709
17.51307,32771
17.52118,32053
17.52932,37774
17.53743,35744
17.54557,35567
17.55368,40982
17.56180,46987
17.56993,67837
17.57805,82589
17.58618,99886
17.59430,115544
17.60242,121815
17.61055,111260
17.61867,96698
17.62678,77013
17.63492,67212
17.64303,55767
17.65117,54628
17.65928,47426
17.66740,47790
17.67553,45479
17.68365,43748
17.69178,47657
17.69990,41100
17.70802,38572
17.71615,38873
17.72427,39022
17.73240,35173
17.74052,34730
17.74863,36304
17.75677,34363
17.76488,31795
17.77300,33177
17.78113,33399
17.78925,30706
17.79738,31683
17.80550,33824
17.81362,35054
17.82175,33228
17.82987,37641
17.83800,33314
17.84612,35433
17.85423,38659
17.86237,37529
17.87048,38478
17.87862,35147
17.88673,33616
17.89485,31209
17.90298,34198
17.91110,32488
17.91922,26675
17.92735,29627
17.93547,29266
17.94360,28990
17.95172,35388
17.95983,29488
17.96797,29863
17.97608,28327
17.98422,31897
17.99233,30572
18.00045,32920
18.00858,34188
18.01670,36043
18.02482,38896
18.03295,41071
18.04107,44054
18.04920,45737
18.05732,43619
18.06543,53334
18.07357,82425
18.08168,138562
18.08982,210855
18.09793,256691
18.10605,275619
18.11418,287429
18.12230,312110
18.13043,305290
18.13855,318322
18.14667,315977
18.15480,319680
18.16292,314990
18.17103,318597
18.17917,308551
18.18728,303604
18.19542,294740
18.20353,297475
18.21165,292226
18.21978,298374
18.22790,282304
18.23603,277907
18.24415,274688
18.25227,265465
18.26040,259997
18.26852,252307
18.27665,259976
18.28477,241378
18.29288,242883
18.30102,231863
18.30913,225794
18.31725,223832
18.32538,224933
18.33350,214164
18.34163,213666
18.34975,211306
18.35787,214161
18.36600,197980
18.37412,192712
18.38225,190140
18.39037,186864
18.39848,185983
18.40662,189106
18.41473,187185
18.42285,180940
18.43098,175898
18.43910,181132
18.44723,185954
18.45535,196279
18.46347,195968
18.47160,201161
18.47972,196948
18.48785,195635
18.49597,185167
18.50408,173754
18.51222,161636
18.52033,155721
18.52847,152643
18.53658,140959
18.54470,141305
18.55283,136705
18.56095,136274
18.56907,136065
18.57720,128147
18.58532,125892
18.59345,131182
18.60157,125002
18.60968,128222
18.61782,126391
18.62593,118538
18.63407,115846
18.64218,112525
18.65030,112063
18.65843,107883
18.66655,107739
18.67467,101522
18.68280,104291
18.69092,105291
18.69905,107917
18.70717,99309
18.71528,97089
18.72342,92865
18.73153,93494
18.73967,91564
18.74778,86437
18.75590,89132
18.76403,88736
18.77215,84417
18.78028,89383
18.78840,83451
18.79652,79214
18.80465,80276
18.81277,76435
18.82088,75859
18.82902,79404
18.83713,79131
18.84527,79652
18.85338,72481
18.86150,71843
18.86963,74761
18.87775,69960
18.88588,74572
18.89400,65331
18.90212,68770
18.91025,66499
18.91837,67186
18.92650,73599
18.93462,68467
18.94273,74933
18.95087,69199
18.95898,69392
18.96710,66818
18.97523,64510
18.98335,62057
18.99148,64967
18.99960,63552
19.00772,56847
19.01585,59773
19.02397,56586
19.03210,57440
19.04022,58216
19.04833,60574
19.05647,55831
19.06458,58426
19.07270,65097
19.08083,69424
19.08895,79317
19.09708,79197
19.10520,83507
19.11332,81920
19.12145,74816
19.12957,74389
19.13770,71823
19.14582,68534
19.15393,67462
19.16207,60611
19.17018,61057
19.17832,59475
19.18643,57303
19.19455,55664
19.20268,53994
19.21080,53317
19.21892,52015
19.22705,51511
19.23517,48956
19.24330,50792
19.25142,44038
19.25953,49341
19.26767,50381
19.27578,48710
19.28392,50618
19.29203,49373
19.30015,47166
19.30828,45840
19.31640,51320
19.32453,45328
19.33265,45504
19.34077,50571
19.34890,51481
19.35702,48887
19.36513,51748
19.37327,53948
19.38138,53652
19.38952,45803
19.39763,50185
19.40575,48195
19.41388,51587
19.42200,51254
19.43013,60302
19.43825,73188
19.44637,74252
19.45450,84515
19.46262,83240
19.47073,69627
19.47887,59711
19.48698,51280
19.49512,48001
19.50323,46822
19.51135,45975
19.51948,44852
19.52760,41505
19.53573,40826
19.54385,42674
19.55197,41903
19.56010,42357
19.56822,42200
19.57635,44413
19.58447,38739
19.59258,40082
19.60072,39337
19.60883,44672
19.61695,51509
19.62508,66297
19.63320,94330
19.64133,122120
19.64945,150503
19.65757,165230
19.66570,167409
19.67382,157832
19.68195,142044
19.69007,112079
19.69818,95856
19.70632,87556
19.71443,76331
19.72255,70451
19.73068,64042
19.73880,53861
19.74693,52127
19.75505,51718
19.76317,50824
19.77130,46723
19.77942,51415
19.78755,54252
19.79567,49188
19.80378,48847
19.81192,47066
19.82003,41414
19.82817,44030
19.83628,39714
19.84440,44972
19.85253,47662
19.86065,62568
19.86877,82957
19.87690,110279
19.88502,147554
19.89315,177645
19.90127,198126
19.90938,181646
19.91752,156110
19.92563,132552
19.93377,113953
19.94188,97199
19.95000,84005
19.95813,78808
19.96625,76967
19.97438,73479
19.98250,71921
19.99062,71075
19.99875,67277
20.00687,71047
20.01498,61618
20.02312,60984
20.03123,56081
20.03937,56407
20.04748,52559
20.05560,50978
20.06373,46689
20.07185,51267
20.07998,48694
20.08810,46672
20.09622,47953
20.10435,47821
20.11247,43075
20.12058,42145
20.12872,42279
20.13683,40046
20.14497,42025
20.15308,45779
20.16120,43740
20.16933,43996
20.17745,44262
20.18558,42959
20.19370,42759
20.20182,45008
20.20995,48868
20.21807,52847
20.22620,61450
20.23432,80323
20.24243,102419
20.25057,106836
20.25868,107447
20.26680,106456
20.27493,99509
20.28305,82041
20.29118,70911
20.29930,66621
20.30742,59858
20.31555,52347
20.32367,45307
20.33180,42827
20.33992,41058
20.34803,38450
20.35617,39225
20.36428,35898
20.37242,35987
20.38053,40935
20.38865,45054
20.39678,47468
20.40490,54159
20.41302,57653
20.42115,53230
20.42927,53505
20.43740,52908
20.44552,50759
20.45363,44078
20.46177,39380
20.46988,39287
20.47802,39053
20.48613,33813
20.49425,34252
20.50238,35911
20.51050,38660
20.51862,35660
20.52675,36843
20.53487,34617
20.54300,31709
20.55112,33068
20.55923,35205
20.56737,34475
20.57548,32116
20.58362,30462
20.59173,31661
20.59985,36099
20.60798,37136
20.61610,32643
20.62423,31359
20.63235,33523
20.64047,30094
20.64860,31019
20.65672,31917
20.66483,32680
20.67297,36001
20.68108,33120
20.68922,34779
20.69733,34811
20.70545,32358
20.71358,37257
20.72170,33292
20.72983,30327
20.73795,30899
20.74607,31925
20.75420,35153
20.76232,36201
20.77045,32481
20.77857,38043
20.78668,47151
20.79482,52715
20.80293,60063
20.81105,67950
20.81918,63550
20.82730,58083
20.83543,54067
20.84355,46061
20.85167,46171
20.85980,39055
20.86792,38344
20.87605,38814
20.88417,35932
20.89228,35222
20.90042,33192
20.90853,31828
20.91665,31395
20.92478,30890
20.93290,31546
20.94103,34779
20.94915,30984
20.95727,30682
20.96540,33312
20.97352,32436
20.98165,32465
20.98977,31358
20.99788,33207
21.00602,31220
21.01413,31003
21.02227,28863
21.03038,30431
21.03850,31441
21.04663,31171
21.05475,33493
21.06287,30246
21.07100,32022
21.07912,28893
21.08725,30097
21.09537,29728
21.10348,31035
21.11162,33019
21.11973,34402
21.12787,35020
21.13598,38395
21.14410,45861
21.15223,45932
21.16035,47704
21.16847,43293
21.17660,44142
21.18472,38847
21.19285,36610
21.20097,34705
21.20908,37446
21.21722,33460
21.22533,33606
21.23347,34674
21.24158,34230
21.24970,35294
21.25783,39400
21.26595,41040
21.27408,45707
21.28220,39582
21.29032,42015
21.29845,44371
21.30657,42004
21.31468,43650
21.32282,45451
21.33093,43320
21.33907,43720
21.34718,43274
21.35530,43720
21.36343,45609
21.37155,42113
21.37968,41980
21.38780,42716
21.39592,44928
21.40405,52778
21.41217,46501
21.42030,45627
21.42842,48120
21.43653,47082
21.44467,47344
21.45278,42320
21.46090,41592
21.46903,44720
21.47715,42561
21.48528,41511
21.49340,44072
21.50152,43673
21.50965,44992
21.51777,45024
21.52590,47933
21.53402,44321
21.54213,47806
21.55027,49371
21.55838,44414
21.56650,51984
21.57463,61092
21.58275,61017
21.59088,65709
21.59900,66937
21.60712,66531
21.61525,64271
21.62337,55548
21.63150,50649
21.63962,46105
21.64773,43753
21.65587,43238
21.66398,43709
21.67212,45275
21.68023,41922
21.68835,37073
21.69648,37894
21.70460,36587
21.71272,35235
21.72085,35294
21.72897,36621
21.73710,37786
21.74522,33925
21.75333,35311
21.76147,38248
21.76958,44442
21.77772,52756
21.78583,53259
21.79395,60966
21.80208,51370
21.81020,49522
21.81833,44440
21.82645,38069
21.83457,37303
21.84270,39776
21.85082,33569
21.85893,33322
21.86707,32289
21.87518,35924
21.88332,31027
21.89143,37409
21.89955,33809
21.90768,31207
21.91580,33529
21.92393,33566
21.93205,29249
21.94017,37267
21.94830,46522
21.95642,62884
21.96453,78910
21.97267,92811
21.98078,92526
21.98892,95552
21.99703,99907
22.00515,102367
22.01328,104079
22.02140,102192
22.02953,101959
22.03765,107254
22.04577,103021
22.05390,109804
22.06202,105070
22.07015,100901
22.07827,103345
22.08638,103732
22.09452,100868
22.10263,106024
22.11075,101258
22.11888,98905
22.12700,100047
22.13513,95481
22.14325,92676
22.15137,92946
22.15950,92998
22.16762,88359
22.17575,88564
22.18387,96096
22.19198,87141
22.20012,87232
22.20823,86123
22.21635,81196
22.22448,83940
22.23260,72952
22.24073,79241
22.24885,70887
22.25697,74960
22.26510,68671
22.27322,69323
22.28135,68561
22.28947,71645
22.29758,64283
22.30572,68515
22.31383,64513
22.32197,65262
22.33008,66519
22.33820,66215
22.34633,58946
22.35445,59574
22.36257,56896
22.37070,53996
22.37882,60634
22.38695,60677
22.39507,62639
22.40318,63497
22.41132,59645
22.41943,67306
22.42757,61979
22.43568,55486
22.44380,54439
22.45193,55212
22.46005,57208
22.46818,51688
22.47630,50585
22.48442,51431
22.49255,46899
22.50067,53653
22.50878,48784
22.51692,47130
22.52503,47640
22.53317,45111
22.54128,46284
22.54940,43466
22.55753,46833
22.56565,42405
22.57378,40542
22.58190,41894
22.59002,40737
22.59815,40139
22.60627,38430
22.61440,40184
22.62252,37782
22.63063,38532
22.63877,38129
22.64688,40591
22.65500,35142
22.66313,37476
22.67125,39843
22.67938,39290
22.68750,41356
22.69562,44685
22.70375,44461
22.71187,42879
22.72000,41028
22.72812,45413
22.73623,44926
22.74437,41332
22.75248,41666
22.76060,41602
22.76873,38254
22.77685,39486
22.78498,39880
22.79310,40518
22.80122,40416
22.80935,43072
22.81747,41969
22.82560,38851
22.83372,47285
22.84183,36632
22.84997,39898
22.85808,39194
22.86622,40654
22.87433,43909
22.88245,43503
22.89058,50073
22.89870,63543
22.90682,70375
22.91495,101110
22.92307,118906
22.93120,128455
22.93932,144243
22.94743,129850
22.95557,120167
22.96368,108362
22.97182,99440
22.97993,87813
22.98805,81555
22.99618,75188
23.00430,71654
23.01242,65985
23.02055,59337
23.02867,52484
23.03680,50183
23.04492,47109
23.05303,46643
23.06117,44948
23.06928,43950
23.07742,43652
23.08553,41340
23.09365,43763
23.10178,39848
23.10990,41228
23.11803,39104
23.12615,41347
23.13427,37147
23.14240,37292
23.15052,37153
23.15863,36014
23.16677,34327
23.17488,35574
23.18302,35145
23.19113,32554
23.19925,33870
23.20738,31636
23.21550,33873
23.22363,34329
23.23175,33157
23.23987,35672
23.24800,32972
23.25612,31829
23.26425,32956
23.27237,34335
23.28048,32625
23.28862,31584
23.29673,33795
23.30485,34895
23.31298,33535
23.32110,36470
23.32923,34614
23.33735,35294
23.34547,37849
23.35360,38953
23.36172,41673
23.36985,43783
23.37797,45245
23.38608,41014
23.39422,37899
23.40233,38412
23.41045,35663
23.41858,37049
23.42670,31927
23.43483,39005
23.44295,33112
23.45107,34095
23.45920,31318
23.46732,36252
23.47545,33127
23.48357,31072
23.49168,31457
23.49982,31731
23.50793,28936
23.51607,36787
23.52418,31144
23.53230,37723
23.54043,29802
23.54855,34043
23.55667,37317
23.56480,38329
23.57292,40140
23.58105,44505
23.58917,47831
23.59728,52061
23.60542,53376
23.61353,53507
23.62167,47555
23.62978,52596
23.63790,45607
23.64603,49840
23.65415,49167
23.66228,50307
23.67040,49942
23.67852,43737
23.68665,47062
23.69477,46082
23.70288,45444
23.71102,56305
23.71913,79411
23.72727,105175
23.73538,176702
23.74350,326912
23.75163,723194
23.75975,1485537
23.76788,2852980
23.77600,4111506
23.78412,4738495
23.79225,4434545
23.80037,3826386
23.80848,2976932
23.81662,2187726
23.82473,1637602
23.83287,1208173
23.84098,930982
23.84910,758872
23.85723,637887
23.86535,548784
23.87348,489981
23.88160,440770
23.88972,394493
23.89785,359776
23.90597,344910
23.91410,311666
23.92222,307944
23.93033,277151
23.93847,264274
23.94658,254662
23.95470,239081
23.96283,230485
23.97095,214832
23.97908,211011
23.98720,198085
23.99532,199888
24.00345,192578
24.01157,182950
24.01970,182336
24.02782,185164
24.03593,182119
24.04407,175254
24.05218,166941
24.06030,168262
24.06843,159202
24.07655,147809
24.08468,146502
24.09280,139701
24.10092,138201
24.10905,128921
24.11717,131790
24.12530,128858
24.13342,128717
24.14153,133243
24.14967,137528
24.15778,130024
24.16592,131618
24.17403,121810
24.18215,122784
24.19028,115994
24.19840,106639
24.20652,102452
24.21465,110159
24.22277,94618
24.23090,97281
24.23902,86361
24.24713,88054
24.25527,86205
24.26338,86073
24.27152,88259
24.27963,83316
24.28775,87657
24.29588,84593
24.30400,85478
24.31213,96453
24.32025,100031
24.32837,100248
24.33650,105330
24.34462,95277
24.35273,87443
24.36087,80315
24.36898,70342
24.37712,70344
24.38523,73998
24.39335,67764
24.40148,69720
24.40960,68970
24.41773,69001
24.42585,70558
24.43397,78061
24.44210,78423
24.45022,78614
24.45833,76425
24.46647,78483
24.47458,67194
24.48272,66017
24.49083,63263
24.49895,62609
24.50708,61638
24.51520,56889
24.52333,59858
24.53145,60884
24.53957,61876
24.54770,59415
24.55582,62383
24.56395,57946
24.57207,57186
24.58018,59622
24.58832,53806
24.59643,56594
24.60455,54440
24.61268,53082
24.62080,49715
24.62893,49328
24.63705,49548
24.64517,48008
24.65330,54980
24.66142,56223
24.66955,51057
24.67767,51358
24.68578,48366
24.69392,49541
24.70203,43783
24.71017,47754
24.71828,53548
24.72640,50582
24.73453,44564
24.74265,46124
24.75077,49086
24.75890,47883
24.76702,51938
24.77515,46747
24.78327,46632
24.79138,50355
24.79952,49314
24.80763,47535
24.81577,46340
24.82388,49758
24.83200,54040
24.84013,56942
24.84825,60830
24.85637,66806
24.86450,81804
24.87262,89904
24.88075,98999
24.88887,102758
24.89698,95852
24.90512,83702
24.91323,74075
24.92137,70710
24.92948,64817
24.93760,74274
24.94573,86724
24.95385,103750
24.96198,121285
24.97010,117812
24.97822,124068
24.98635,130221
24.99447,125722
25.00258,125736
25.01072,126796
25.01883,127098
25.02697,128949
25.03508,134004
25.04320,123558
25.05133,128937
25.05945,127643
25.06758,128049
25.07570,125229
25.08382,126131
25.09195,136503
25.10007,152843
25.10818,198655
25.11632,258573
25.12443,349093
25.13257,472362
25.14068,522631
25.14880,557129
25.15693,530625
25.16505,416938
25.17318,338313
25.18130,257279
25.18942,193786
25.19755,169954
25.20567,152410
25.21380,142469
25.22192,135116
25.23003,141802
25.23817,160629
25.24628,193550
25.25440,242361
25.26253,271850
25.27065,273281
25.27878,265339
25.28690,232399
25.29502,194422
25.30315,155207
25.31127,133835
25.31940,123896
25.32752,108640
25.33563,96626
25.34377,93982
25.35188,88555
25.36002,90938
25.36813,82038
25.37625,78921
25.38438,81267
25.39250,79791
25.40062,80584
25.40875,78629
25.41687,78430
25.42500,74473
25.43312,69372
25.44123,72803
25.44937,68390
25.45748,64888
25.46562,62671
25.47373,62873
25.48185,62945
25.48998,62130
25.49810,62912
25.50622,58014
25.51435,61076
25.52247,55494
25.53060,55073
25.53872,59155
25.54683,53399
25.55497,51749
25.56308,53544
25.57122,54703
25.57933,55993
25.58745,54089
25.59558,53192
25.60370,48739
25.61183,50959
25.61995,50504
25.62807,49836
25.63620,47579
25.64432,48991
25.65243,47022
25.66057,50701
25.66868,48761
25.67682,48929
25.68493,47165
25.69305,44867
25.70118,49070
25.70930,48979
25.71743,42530
25.72555,44339
25.73367,47432
25.74180,44988
25.74992,44524
25.75805,46802
25.76617,40919
25.77428,41769
25.78242,47790
25.79053,42668
25.79865,46486
25.80678,42168
25.81490,39323
25.82303,41390
25.83115,41998
25.83927,43615
25.84740,45551
25.85552,43015
25.86365,42433
25.87177,40974
25.87988,41574
25.88802,41346
25.89613,40564
25.90425,42219
25.91238,40705
25.92050,44059
25.92863,40901
25.93675,41797
25.94487,43646
25.95300,42370
25.96112,47616
25.96925,41884
25.97737,39323
25.98548,41340
25.99362,43084
26.00173,38958
26.00987,40416
26.01798,38812
26.02610,40768
26.03423,39802
26.04235,40129
26.05047,40525
26.05860,42328
26.06672,42197
26.07485,37703
26.08297,41174
26.09108,40958
26.09922,39652
26.10733,39807
26.11547,43099
26.12358,40628
26.13170,42727
26.13983,41808
26.14795,42708
26.15608,41651
26.16420,42639
26.17232,37575
26.18045,41808
26.18857,40172
26.19668,37229
26.20482,40873
26.21293,39694
26.22107,39309
26.22918,37312
26.23730,38154
26.24543,38217
26.25355,37953
26.26168,37501
26.26980,37686
26.27792,35112
26.28605,44058
26.29417,35516
26.30228,39868
26.31042,38230
26.31853,39136
26.32667,37728
26.33478,37808
26.34290,37485
26.35103,38420
26.35915,36653
26.36728,37701
26.37540,37193
26.38352,38677
26.39165,41479
26.39977,38918
26.40790,37719
26.41602,37031
26.42413,37019
26.43227,40190
26.44038,35431
26.44850,37635
26.45663,38467
26.46475,34216
26.47288,35713
26.48100,36931
26.48912,38123
26.49725,34400
26.50537,33947
26.51350,34293
26.52162,34629
26.52973,35704
26.53787,34665
26.54598,32698
26.55410,33416
26.56223,33513
26.57035,38044
26.57848,37289
26.58660,35065
26.59472,36923
26.60285,35666
26.61097,35650
26.61910,38634
26.62722,34666
26.63533,41511
26.64347,36541
26.65158,32275
26.65972,34862
26.66783,38427
26.67595,40517
26.68408,36778
26.69220,34256
26.70032,40857
26.70845,37868
26.71657,38555
26.72470,35046
26.73282,37006
26.74093,38041
26.74907,33807
26.75718,33055
26.76532,36915
26.77343,34868
26.78155,38330
26.78968,36542
26.79780,35558
26.80593,36967
26.81405,38350
26.82217,37865
26.83030,34945
26.83842,33284
26.84653,34664
26.85467,31578
26.86278,35780
26.87092,32496
26.87903,32921
26.88715,38712
26.89528,35230
26.90340,35485
26.91153,30583
26.91965,40096
26.92777,40121
26.93590,44660
26.94402,55277
26.95213,79741
26.96027,131757
26.96838,210362
26.97652,310041
26.98463,430901
26.99275,544159
27.00088,597102
27.00900,591798
27.01713,556395
27.02525,471482
27.03337,362502
27.04150,279151
27.04962,219799
27.05775,180069
27.06587,151596
27.07398,125192
27.08212,106931
27.09023,94829
27.09835,90626
27.10648,81042
27.11460,81699
27.12273,77127
27.13085,74093
27.13897,70810
27.14710,66335
27.15522,66119
27.16335,71158
27.17147,64877
27.17958,66864
27.18772,65744
27.19583,57516
27.20397,55381
27.21208,55497
27.22020,51267
27.22833,51008
27.23645,54617
27.24457,50719
27.25270,47341
27.26082,46216
27.26895,45406
27.27707,47924
27.28518,41128
27.29332,42144
27.30143,43165
27.30957,40810
27.31768,46463
27.32580,44130
27.33393,43051
27.34205,44714
27.35017,45490
27.35830,44167
27.36642,43215
27.37455,42775
27.38267,42788
27.39078,40361
27.39892,43636
27.40703,40892
27.41517,44202
27.42328,40487
27.43140,39066
27.43953,38448
27.44765,42401
27.45578,39810
27.46390,42125
27.47202,37273
27.48015,39786
27.48827,36379
27.49638,35264
27.50452,38560
27.51263,38831
27.52077,38239
27.52888,40746
27.53700,38574
27.54513,38938
27.55325,37318
27.56138,40564
27.56950,41497
27.57762,41142
27.58575,38079
27.59387,36386
27.60198,37647
27.61012,37213
27.61823,35821
27.62637,35427
27.63448,35043
27.64260,34823
27.65073,34581
27.65885,32714
27.66698,32333
27.67510,32765
27.68322,36419
27.69135,32969
27.69947,32351
27.70760,36021
27.71572,36591
27.72383,36030
27.73197,37203
27.74008,35979
27.74820,39962
27.75633,39434
27.76445,39836
27.77258,43797
27.78070,40721
27.78882,39852
27.79695,36849
27.80507,38948
27.81320,35712
27.82132,35237
27.82943,37756
27.83757,38056
27.84568,36242
27.85382,37039
27.86193,37101
27.87005,34619
27.87818,33660
27.88630,32124
27.89442,34685
27.90255,34320
27.91067,35341
27.91880,33996
27.92692,34541
27.93503,30268
27.94317,32772
27.95128,30246
27.95942,37339
27.96753,35928
27.97565,34609
27.98378,36033
27.99190,34078
28.00003,38224
28.00815,35679
28.01627,38072
28.02440,37720
28.03252,37076
28.04063,37446
28.04877,37555
28.05688,37874
28.06502,37854
28.07313,32274
28.08125,34702
28.08938,34044
28.09750,33376
28.10563,37672
28.11375,41404
28.12187,42778
28.13000,39353
28.13812,39666
28.14623,34945
28.15437,33626
28.16248,36052
28.17062,36278
28.17873,33172
28.18685,36852
28.19498,34391
28.20310,33003
28.21123,35618
28.21935,37411
28.22747,40639
28.23560,39164
28.24372,35944
28.25185,35598
28.25997,41725
28.26808,47777
28.27622,57702
28.28433,75354
28.29245,80960
28.30058,98670
28.30870,102055
28.31683,107278
28.32495,109276
28.33307,108292
28.34120,107920
28.34932,98986
28.35745,89183
28.36557,86051
28.37368,77734
28.38182,65494
28.38993,64822
28.39805,62668
28.40618,57792
28.41430,54392
28.42243,51374
28.43055,48589
28.43867,48245
28.44680,44854
28.45492,41802
28.46305,43756
28.47117,41167
28.47928,39159
28.48742,40623
28.49553,37514
28.50367,39570
28.51178,38176
28.51990,35196
28.52803,35662
28.53615,40302
28.54427,41032
28.55240,33411
28.56052,37506
28.56865,32783
28.57677,36376
28.58488,36960
28.59302,37110
28.60113,35036
28.60927,35260
28.61738,35874
28.62550,36786
28.63363,36126
28.64175,36881
28.64988,38754
28.65800,39333
28.66612,43814
28.67425,44172
28.68237,45421
28.69048,50128
28.69862,48247
28.70673,47761
28.71487,44881
28.72298,43114
28.73110,39982
28.73923,34981
28.74735,32056
28.75548,35712
28.76360,36381
28.77172,30547
28.77985,32171
28.78797,32503
28.79608,34419
28.80422,31290
28.81233,34111
28.82047,35195
28.82858,31699
28.83670,32007
28.84483,30645
28.85295,31884
28.86108,30262
28.86920,32949
28.87732,31699
28.88545,29635
28.89357,37118
28.90170,30944
28.90982,36838
28.91793,30717
28.92607,35301
28.93418,37787
28.94230,32957
28.95043,36101
28.95855,36679
28.96668,34829
28.97480,32037
28.98292,30860
28.99105,34563
28.99917,32775
29.00730,28495
29.01542,30090
29.02353,33988
29.03167,30995
29.03978,33459
29.04792,32847
29.05603,31988
29.06415,35098
29.07228,33752
29.08040,38087
29.08852,34066
29.09665,29129
29.10477,37060
29.11290,32731
29.12102,31195
29.12913,29485
29.13727,32115
29.14538,33278
29.15352,31757
29.16163,27982
29.16975,31611
29.17788,32084
29.18600,30513
29.19412,36158
29.20225,32674
29.21037,37003
29.21850,38020
29.22662,35821
29.23473,37631
29.24287,37300
29.25098,34847
29.25912,32976
29.26723,32625
29.27535,34382
29.28348,33156
29.29160,33847
29.29973,28319
29.30785,33144
29.31597,31840
29.32410,33296
29.33222,27438
29.34033,30609
29.34847,31974
29.35658,28541
29.36472,27915
29.37283,28160
29.38095,28738
29.38908,29571
29.39720,33209
29.40533,33964
29.41345,34531
29.42157,34586
29.42970,31024
29.43782,28558
29.44593,28618
29.45407,29542
29.46218,29209
29.47032,29635
29.47843,30260
29.48655,31057
29.49468,27686
29.50280,29819
29.51093,31684
29.51905,36107
29.52717,31118
29.53530,33353
29.54342,33371
29.55155,34175
29.55967,29051
29.56778,28603
29.57592,29660
29.58403,33495
29.59215,29897
29.60028,32827
29.60840,32636
29.61653,31720
29.62465,32133
29.63277,32230
29.64090,27467
29.64902,28648
29.65715,26973
29.66527,29205
29.67338,28757
29.68152,29154
29.68963,28981
29.69777,28478
29.70588,33275
29.71400,31054
29.72213,27502
29.73025,30163
29.73837,30527
29.74650,29527
29.75462,27959
29.76275,27699
29.77087,28119
29.77898,30214
29.78712,32495
29.79523,30035
29.80337,29397
29.81148,28827
29.81960,28192
29.82773,27469
29.83585,30009
29.84397,28713
29.85210,27491
29.86022,33465
29.86835,37176
29.87647,44919
29.88458,48351
29.89272,53710
29.90083,62572
29.90897,64196
29.91708,62091
29.92520,65980
29.93333,66347
29.94145,64291
29.94958,58070
29.95770,65442
29.96582,63852
29.97395,59617
29.98207,59353
29.99018,57868
29.99832,50605
30.00643,58577
30.01457,50746
30.02268,49380
30.03080,46201
30.03893,47377
30.04705,45728
30.05518,47725
30.06330,46833
30.07142,50658
30.07955,50420
30.08767,52035
30.09580,45048
30.10392,48975
30.11203,48868
30.12017,46112
30.12828,49261
30.13640,47244
30.14453,43118
30.15265,48944
30.16078,44866
30.16890,45303
30.17702,40634
30.18515,43166
30.19327,41271
30.20140,42589
30.20952,43182
30.21763,42437
30.22577,40918
30.23388,37702
30.24200,40516
30.25013,39827
30.25825,38442
30.26638,37262
30.27450,36999
30.28262,40173
30.29075,35085
30.29887,40164
30.30700,37760
30.31512,38781
30.32323,36574
30.33137,34461
30.33948,33829
30.34762,36486
30.35573,34882
30.36385,37461
30.37198,33487
30.38010,36417
30.38822,36011
30.39635,31610
30.40447,35637
30.41260,33254
30.42072,32741
30.42883,34836
30.43697,33214
30.44508,34430
30.45322,33841
30.46133,32205
30.46945,32404
30.47758,33660
30.48570,30190
30.49382,35458
30.50195,30542
30.51007,32072
30.51820,29759
30.52632,29931
30.53443,30976
30.54257,31718
30.55068,29488
30.55882,29711
30.56693,31982
30.57505,30205
30.58318,30539
30.59130,31493
30.59943,30827
30.60755,27876
30.61567,29800
30.62380,28251
30.63192,33015
30.64003,31998
30.64817,30774
30.65628,33901
30.66442,30192
30.67253,30399
30.68065,25393
30.68878,26701
30.69690,29856
30.70503,28298
30.71315,27745
30.72127,30787
30.72940,28895
30.73752,31697
30.74565,27550
30.75377,30654
30.76188,32943
30.77002,37912
30.77813,39443
30.78625,44738
30.79438,54426
30.80250,58119
30.81063,52537
30.81875,46518
30.82687,44494
30.83500,46038
30.84312,33934
30.85125,33558
30.85937,33082
30.86748,29454
30.87562,30680
30.88373,30664
30.89185,29880
30.89998,33048
30.90810,30043
30.91623,29002
30.92435,32480
30.93247,27585
30.94060,29697
30.94872,28628
30.95685,29231
30.96497,30125
30.97308,26352
30.98122,29005
30.98933,28083
30.99747,29589
31.00558,28090
31.01370,29226
31.02183,30638
31.02995,30254
31.03807,28170
31.04620,30325
31.05432,34840
31.06245,37015
31.07057,30089
31.07868,33441
31.08682,41423
31.09493,35199
31.10307,36661
31.11118,39044
31.11930,36327
31.12743,33802
31.13555,34562
31.14368,34367
31.15180,31438
31.15992,32532
31.16805,37391
31.17617,41205
31.18428,47476
31.19242,55345
31.20053,61260
31.20867,56574
31.21678,57529
31.22490,51336
31.23303,44130
31.24115,44190
31.24928,35597
31.25740,32335
31.26552,32543
31.27365,30062
31.28177,29041
31.28988,32526
31.29802,32233
31.30613,30477
31.31427,31932
31.32238,32447
31.33050,30361
31.33863,34137
31.34675,33847
31.35488,31404
31.36300,29678
31.37112,31579
31.37925,29350
31.38737,32731
31.39550,30776
31.40362,27359
31.41173,28925
31.41987,27525
31.42798,32725
31.43610,31489
31.44423,31002
31.45235,32012
31.46048,33684
31.46860,37249
31.47672,36609
31.48485,35310
31.49297,35413
31.50110,33303
31.50922,34904
31.51733,33764
31.52547,36085
31.53358,33249
31.54172,33105
31.54983,37354
31.55795,36074
31.56608,33318
31.57420,32476
31.58232,32491
31.59045,33780
31.59857,30339
31.60670,28497
31.61482,30606
31.62293,31582
31.63107,32912
31.63918,29372
31.64732,30979
31.65543,31568
31.66355,32193
31.67168,30668
31.67980,30642
31.68792,32855
31.69605,33184
31.70417,26963
31.71230,31235
31.72042,34446
31.72853,30246
31.73667,27580
31.74478,30410
31.75292,28444
31.76103,30854
31.76915,30971
31.77728,30079
31.78540,33926
31.79353,32470
31.80165,33809
31.80977,33477
31.81790,31485
31.82602,31648
31.83413,38829
31.84227,42258
31.85038,44647
31.85852,50986
31.86663,50288
31.87475,49575
31.88288,59264
31.89100,56143
31.89913,56283
31.90725,53978
31.91537,52187
31.92350,55171
31.93162,45851
31.93973,44416
31.94787,45712
31.95598,42505
31.96412,45628
31.97223,47421
31.98035,46918
31.98848,47822
31.99660,46096
32.00473,42747
32.01285,36332
32.02097,38829
32.02910,35869
32.03722,36719
32.04535,35965
32.05347,33010
32.06158,32462
32.06972,33116
32.07783,31322
32.08595,32939
32.09408,29948
32.10220,31486
32.11033,32034
32.11845,31214
32.12657,30812
32.13470,33625
32.14282,29487
32.15095,30151
32.15907,29658
32.16718,30734
32.17532,31519
32.18343,28757
32.19157,33178
32.19968,31276
32.20780,33350
32.21593,31373
32.22405,29636
32.23217,31305
32.24030,31419
32.24842,31236
32.25655,30756
32.26467,29857
32.27278,29451
32.28092,28649
32.28903,30778
32.29717,30936
32.30528,28659
32.31340,28043
32.32153,30426
32.32965,31149
32.33777,30098
32.34590,30135
32.35402,29887
32.36215,32317
32.37027,28891
32.37838,27663
32.38652,30507
32.39463,31082
32.40277,28609
32.41088,27791
32.41900,28210
32.42713,29342
32.43525,25978
32.44338,32557
32.45150,29982
32.45962,29849
32.46775,29296
32.47587,28727
32.48398,31474
32.49212,26686
32.50023,26681
32.50837,30143
32.51648,29974
32.52460,30967
32.53273,29949
32.54085,28683
32.54898,28618
32.55710,31101
32.56522,33967
32.57335,36408
32.58147,38940
32.58960,41228
32.59772,38529
32.60583,35938
32.61397,31052
32.62208,30071
32.63020,30371
32.63833,29378
32.64645,28948
32.65458,30515
32.66270,28424
32.67082,30140
32.67895,26826
32.68707,30964
32.69520,30762
32.70332,29577
32.71143,32249
32.71957,30912
32.72768,31196
32.73580,29557
32.74393,29411
32.75205,30981
32.76018,27256
32.76830,30173
32.77642,32971
32.78455,27856
32.79267,30082
32.80080,31575
32.80892,29052
32.81703,28342
32.82517,26946
32.83328,28525
32.84142,27465
32.84953,30616
32.85765,29121
32.86578,29338
32.87390,28748
32.88202,32386
32.89015,29311
32.89827,30820
32.90640,27275
32.91452,30703
32.92263,29202
32.93077,27369
32.93888,29320
32.94702,30782
32.95513,31418
32.96325,35162
32.97138,40564
32.97950,47140
32.98762,49273
32.99575,50814
33.00387,52838
33.01200,50802
33.02012,43951
33.02823,38258
33.03637,36101
33.04448,36916
33.05262,36660
33.06073,34639
33.06885,34360
33.07698,36199
33.08510,36412
33.09323,37761
33.10135,37895
33.10947,41731
33.11760,42454
33.12572,40187
33.13383,37805
33.14197,36639
33.15008,34402
33.15822,33643
33.16633,32397
33.17445,30892
33.18258,30164
33.19070,31322
33.19883,30620
33.20695,31522
33.21507,30023
33.22320,30937
33.23132,31414
33.23945,31533
33.24757,32447
33.25568,33717
33.26382,31554
33.27193,29090
33.28005,31022
33.28818,27500
33.29630,30662
33.30443,29482
33.31255,31611
33.32067,31975
33.32880,29802
33.33692,32722
33.34505,29003
33.35317,31625
33.36128,31138
33.36942,31284
33.37753,29404
33.38567,29742
33.39378,31737
33.40190,30856
33.41003,29899
33.41815,29042
33.42627,32736
33.43440,29316
33.44252,31700
33.45065,28393
33.45877,30383
33.46688,30600
33.47502,30204
33.48313,32481
33.49127,30233
33.49938,30062
33.50750,31186
33.51563,30833
33.52375,28973
33.53187,31701
33.54000,31073
33.54812,36169
33.55625,34260
33.56437,31173
33.57248,31942
33.58062,31948
33.58873,30135
33.59687,28785
33.60498,29315
33.61310,33688
33.62123,33353
33.62935,31101
33.63748,32528
33.64560,30641
33.65372,29295
33.66185,35508
33.66997,32257
33.67808,34989
33.68622,30500
33.69433,33203
33.70247,28232
33.71058,30750
33.71870,34000
33.72683,32264
33.73495,34590
33.74308,33576
33.75120,33155
33.75932,30840
33.76745,34644
33.77557,32624
33.78368,33583
33.79182,31602
33.79993,31624
33.80807,32717
33.81618,36204
33.82430,34006
33.83243,35374
33.84055,30194
33.84868,29926
33.85680,34845
33.86492,32246
33.87305,32496
33.88117,30234
33.88930,35777
33.89742,30674
33.90553,29446
33.91367,30688
33.92178,31595
33.92990,28658
33.93803,32726
33.94615,30760
33.95428,30314
33.96240,31439
33.97052,32834
33.97865,31776
33.98677,33310
33.99490,31880
34.00302,30572
34.01113,36430
34.01927,31012
34.02738,33363
34.03552,31547
34.04363,36450
34.05175,33592
34.05988,32023
34.06800,31572
34.07612,31423
34.08425,31614
34.09237,28547
34.10050,29810
34.10862,34232
34.11673,37334
34.12487,32163
34.13298,32514
34.14112,33986
34.14923,31895
34.15735,31849
34.16548,34274
34.17360,33398
34.18172,32011
34.18985,30932
34.19797,29379
34.20610,30572
34.21422,33531
34.22233,29625
34.23047,31515
34.23858,30157
34.24672,32308
34.25483,31349
34.26295,33579
34.27108,30299
34.27920,32193
34.28733,30984
34.29545,34728
34.30357,28830
34.31170,32229
34.31982,33210
34.32793,30706
34.33607,31730
34.34418,31439
34.35232,34061
34.36043,32527
34.36855,32475
34.37668,31865
34.38480,38272
34.39293,31390
34.40105,31857
34.40917,30922
34.41730,33864
34.42542,35912
34.43355,38461
34.44167,40535
34.44978,46326
34.45792,49693
34.46603,58962
34.47415,60477
34.48228,58502
34.49040,61426
34.49853,56670
34.50665,53119
34.51477,49885
34.52290,46738
34.53102,45015
34.53915,39786
34.54727,40588
34.55538,38501
34.56352,38269
34.57163,39471
34.57975,41263
34.58788,37428
34.59600,35324
34.60413,33570
34.61225,35702
34.62037,38595
34.62850,38228
34.63662,36066
34.64475,36232
34.65287,35898
34.66098,36422
34.66912,33937
34.67723,34571
34.68537,32782
34.69348,34847
34.70160,35143
34.70973,35531
34.71785,33050
34.72597,40567
34.73410,35333
34.74222,33459
34.75035,33910
34.75847,38222
34.76658,34659
34.77472,34189
34.78283,34025
34.79097,37868
34.79908,32775
34.80720,34112
34.81533,33334
34.82345,33548
34.83157,31728
34.83970,32630
34.84782,34463
34.85595,32876
34.86407,36851
34.87218,34795
34.88032,36637
34.88843,34971
34.89657,33182
34.90468,33806
34.91280,35640
34.92093,32506
34.92905,35176
34.93718,33419
34.94530,33050
34.95342,33394
34.96155,35584
34.96967,36723
34.97778,36659
34.98592,35638
34.99403,34193
35.00217,33538
35.01028,35129
35.01840,35111
35.02653,35366
35.03465,35406
35.04278,33805
35.05090,35634
35.05902,38377
35.06715,36917
35.07527,36564
35.08340,35695
35.09152,35920
35.09963,37027
35.10777,38221
35.11588,33984
35.12400,32035
35.13213,37754
35.14025,37884
35.14838,36494
35.15650,36479
35.16462,35148
35.17275,32743
35.18087,32853
35.18900,35238
35.19712,38276
35.20523,34166
35.21337,32864
35.22148,34629
35.22960,36821
35.23773,32283
35.24585,38126
35.25398,38537
35.26210,37721
35.27022,37223
35.27835,36365
35.28647,36510
35.29460,33520
35.30272,34691
35.31083,33339
35.31897,33331
35.32708,33987
35.33522,33893
35.34333,41724
35.35145,33643
35.35958,34301
35.36770,33829
35.37582,32151
35.38395,33762
35.39207,33944
35.40020,35306
35.40832,35881
35.41643,36382
35.42457,37731
35.43268,35684
35.44082,39457
35.44893,38576
35.45705,36023
35.46518,42677
35.47330,40778
35.48143,42376
35.48955,35340
35.49767,39084
35.50580,39617
35.51392,38150
35.52203,37896
35.53017,37337
35.53828,35027
35.54642,37437
35.55453,37418
35.56265,37951
35.57078,42671
35.57890,43982
35.58703,45103
35.59515,47271
35.60327,44192
35.61140,43725
35.61952,40035
35.62763,37985
35.63577,37172
35.64388,37331
35.65202,37575
35.66013,35702
35.66825,41417
35.67638,35996
35.68450,35850
35.69263,37226
35.70075,36368
35.70887,35295
35.71700,35235
35.72512,38200
35.73325,34931
35.74137,37983
35.74948,39347
35.75762,40741
35.76573,41530
35.77385,37058
35.78198,39730
35.79010,37892
35.79823,36718
35.80635,40652
35.81447,40569
35.82260,39774
35.83072,36760
35.83885,35544
35.84697,39138
35.85508,38366
35.86322,37089
35.87133,36923
35.87947,39920
35.88758,36405
35.89570,36228
35.90383,35325
35.91195,37078
35.92007,40358
35.92820,37859
35.93632,40001
35.94445,37343
35.95257,41565
35.96068,37749
35.96882,38424
35.97693,40671
35.98507,37971
35.99318,39447
36.00130,43700
36.00943,43409
36.01755,43588
36.02567,42035
36.03380,41972
36.04192,44363
36.05005,42786
36.05817,37705
36.06628,43266
36.07442,42147
36.08253,40663
36.09067,40509
36.09878,43288
36.10690,37548
36.11503,36746
36.12315,38791
36.13128,37944
36.13940,40893
36.14752,37485
36.15565,38029
36.16377,37817
36.17188,38325
36.18002,40434
36.18813,38261
36.19627,39531
36.20438,43732
36.21250,49335
36.22063,46284
36.22875,49067
36.23688,50470
36.24500,49361
36.25312,44729
36.26125,42246
36.26937,38956
36.27748,41261
36.28562,38258
36.29373,40065
36.30187,40445
36.30998,43639
36.31810,40063
36.32623,39566
36.33435,36538
36.34248,37562
36.35060,40259
36.35872,41605
36.36685,44944
36.37497,43077
36.38310,40037
36.39122,43793
36.39933,40856
36.40747,46602
36.41558,41641
36.42370,39469
36.43183,40702
36.43995,37900
36.44808,42088
36.45620,41487
36.46432,40884
36.47245,38462
36.48057,37812
36.48870,40853
36.49682,39884
36.50493,40157
36.51307,39055
36.52118,41653
36.52932,43028
36.53743,43226
36.54555,40827
36.55368,43686
36.56180,43335
36.56992,45037
36.57805,39396
36.58617,40578
36.59430,40757
36.60242,41327
36.61053,40805
36.61867,40849
36.62678,44953
36.63492,44141
36.64303,40161
36.65115,45061
36.65928,42122
36.66740,42280
36.67552,41247
36.68365,40252
36.69177,40806
36.69990,47476
36.70802,43011
36.71613,43548
36.72427,40431
36.73238,42893
36.74052,44131
36.74863,40920
36.75675,42646
36.76488,41831
36.77300,40785
36.78113,45521
36.78925,41009
36.79737,39424
36.80550,43614
36.81362,40051
36.82173,38906
36.82987,46037
36.83798,41241
36.84612,37830
36.85423,44317
36.86235,41445
36.87048,42784
36.87860,44316
36.88673,42507
36.89485,48646
36.90297,41407
36.91110,46179
36.91922,40273
36.92735,40916
36.93547,45355
36.94358,44802
36.95172,51354
36.95983,53111
36.96795,50292
36.97608,49721
36.98420,48845
36.99233,48866
37.00045,47910
37.00857,51979
37.01670,52551
37.02482,51936
37.03295,53015
37.04107,52937
37.04918,47782
37.05732,47067
37.06543,43795
37.07355,41660
37.08168,45274
37.08980,46737
37.09793,43684
37.10605,45498
37.11417,43882
37.12230,44848
37.13042,45752
37.13855,45571
37.14667,43111
37.15478,46224
37.16292,47080
37.17103,45630
37.17917,44437
37.18728,46857
37.19540,44736
37.20353,46038
37.21165,45667
37.21977,40290
37.22790,46331
37.23602,51920
37.24415,52150
37.25227,62167
37.26038,67502
37.26852,71167
37.27663,71695
37.28477,65457
37.29288,69473
37.30100,62354
37.30913,62600
37.31725,55015
37.32537,54416
37.33350,53743
37.34162,52280
37.34975,53181
37.35787,47286
37.36598,50986
37.37412,52179
37.38223,48975
37.39037,50813
37.39848,49537
37.40660,47768
37.41473,46317
37.42285,46590
37.43098,50802
37.43910,48078
37.44722,46026
37.45535,49123
37.46347,45779
37.47158,44463
37.47972,50546
37.48783,49025
