C:\MassHunter\GCMS\1\data\JTB-E18\JTB-E18-035-13.D Wed Oct 16 10:37:21 2019
Start of data points
2.09533,121550
2.10347,121539
2.11158,118566
2.11972,123200
2.12783,112480
2.13595,118217
2.14408,113184
2.15220,119867
2.16033,119082
2.16845,107958
2.17657,109882
2.18470,111565
2.19282,108353
2.20093,109982
2.20907,107937
2.21718,108226
2.22532,104679
2.23343,102005
2.24155,99329
2.24968,102980
2.25780,100764
2.26593,128989
2.27405,831149
2.28217,3452273
2.29030,3587421
2.29842,1589787
2.30655,884929
2.31467,664632
2.32278,568252
2.33092,484499
2.33903,450612
2.34715,396546
2.35528,356057
2.36340,322662
2.37153,301334
2.37965,282857
2.38777,273920
2.39590,245396
2.40402,239404
2.41215,238440
2.42027,230098
2.42838,229521
2.43652,215030
2.44463,214417
2.45275,217770
2.46088,202151
2.46900,195524
2.47713,185044
2.48525,181372
2.49337,190603
2.50150,191122
2.50962,181343
2.51775,169043
2.52587,168584
2.53398,168060
2.54212,162865
2.55023,169380
2.55837,157912
2.56648,157988
2.57460,152918
2.58273,146276
2.59085,149195
2.59897,143432
2.60710,145411
2.61522,161465
2.62335,168189
2.63147,160640
2.63958,148934
2.64772,143432
2.65583,144065
2.66397,137239
2.67208,136544
2.68020,136064
2.68833,137410
2.69645,134243
2.70458,130785
2.71270,130089
2.72082,128727
2.72895,126146
2.73707,123880
2.74518,122879
2.75332,118128
2.76143,122114
2.76957,117345
2.77768,119816
2.78580,122802
2.79393,114907
2.80205,121669
2.81018,116669
2.81830,118166
2.82642,111406
2.83455,115505
2.84267,112137
2.85078,114288
2.85892,116284
2.86703,114212
2.87517,111884
2.88328,110443
2.89140,110621
2.89953,109048
2.90765,106029
2.91578,104426
2.92390,100135
2.93202,108689
2.94015,106573
2.94827,103922
2.95640,104175
2.96452,100511
2.97263,102654
2.98077,105076
2.98888,105399
2.99700,106118
3.00513,107321
3.01325,100883
3.02138,102524
3.02950,103924
3.03762,101055
3.04575,100211
3.05387,105701
3.06200,103961
3.07012,111634
3.07823,116971
3.08637,116130
3.09448,109019
3.10262,114051
3.11073,124679
3.11885,133305
3.12698,129358
3.13510,112034
3.14322,108224
3.15135,106710
3.15947,103896
3.16760,101761
3.17572,100718
3.18383,97230
3.19197,96634
3.20008,98274
3.20822,98328
3.21633,96185
3.22445,94992
3.23258,93994
3.24070,93945
3.24882,96688
3.25695,95985
3.26507,95818
3.27320,98994
3.28132,172826
3.28943,671451
3.29757,2640134
3.30568,6617119
3.31382,1.00258E+07
3.32193,9524370
3.33005,6956004
3.33818,4817240
3.34630,3527502
3.35443,2702194
3.36255,2186047
3.37067,1844083
3.37880,1566096
3.38692,1374380
3.39503,1220991
3.40317,1099411
3.41128,1024348
3.41942,920044
3.42753,880066
3.43565,822289
3.44378,776605
3.45190,716612
3.46003,668212
3.46815,657835
3.47627,612526
3.48440,587892
3.49252,572114
3.50065,549494
3.50877,530834
3.51688,514500
3.52502,485414
3.53313,457602
3.54125,454883
3.54938,436954
3.55750,429715
3.56563,427848
3.57375,403339
3.58187,396146
3.59000,392907
3.59812,386336
3.60625,376765
3.61437,373816
3.62248,359954
3.63062,345478
3.63873,347065
3.64685,342762
3.65498,333709
3.66310,322467
3.67123,309641
3.67935,313144
3.68747,309112
3.69560,304026
3.70372,291945
3.71185,287623
3.71997,294649
3.72808,281444
3.73622,277720
3.74433,272126
3.75247,260959
3.76058,262210
3.76870,264745
3.77683,264072
3.78495,258127
3.79307,258160
3.80120,244421
3.80932,250041
3.81745,248384
3.82557,243733
3.83368,247166
3.84182,239193
3.84993,232541
3.85807,221862
3.86618,224882
3.87430,225020
3.88243,216251
3.89055,220524
3.89868,203847
3.90680,213233
3.91492,210461
3.92305,207391
3.93117,204625
3.93928,204434
3.94742,203791
3.95553,204291
3.96367,208976
3.97178,194785
3.97990,207131
3.98803,201001
3.99615,187447
4.00428,190776
4.01240,196408
4.02052,191641
4.02865,194980
4.03677,183984
4.04488,183471
4.05302,193053
4.06113,177407
4.06927,186653
4.07738,178054
4.08550,177230
4.09363,178381
4.10175,175254
4.10988,179529
4.11800,174055
4.12612,165372
4.13425,178420
4.14237,192074
4.15050,217176
4.15862,225531
4.16673,211837
4.17487,198461
4.18298,177488
4.19110,179333
4.19923,168190
4.20735,170065
4.21548,172185
4.22360,176510
4.23172,186607
4.23985,202428
4.24797,196660
4.25610,196256
4.26422,178581
4.27233,170113
4.28047,168224
4.28858,156836
4.29670,162273
4.30483,160852
4.31295,162539
4.32108,157543
4.32920,161467
4.33732,165198
4.34545,160369
4.35357,158997
4.36170,166038
4.36982,163878
4.37793,162858
4.38607,160178
4.39418,158082
4.40232,153338
4.41043,149071
4.41855,147184
4.42668,144963
4.43480,148919
4.44292,143728
4.45105,132630
4.45917,140015
4.46730,142602
4.47542,139997
4.48353,137090
4.49167,144707
4.49978,134690
4.50792,139328
4.51603,138193
4.52415,143217
4.53228,144264
4.54040,148432
4.54853,158729
4.55665,152309
4.56477,141521
4.57290,132693
4.58102,135524
4.58913,125325
4.59727,131679
4.60538,131412
4.61352,131900
4.62163,138402
4.62975,128031
4.63788,125305
4.64600,127745
4.65413,131862
4.66225,129405
4.67037,131604
4.67850,125442
4.68662,130468
4.69473,121827
4.70287,127444
4.71098,127253
4.71912,125654
4.72723,126858
4.73535,120995
4.74348,124521
4.75160,121425
4.75973,123571
4.76785,124461
4.77597,126737
4.78410,118389
4.79222,122263
4.80035,122567
4.80847,120317
4.81658,117268
4.82472,124179
4.83283,118451
4.84095,119534
4.84908,118679
4.85720,123076
4.86533,117546
4.87345,117335
4.88157,115644
4.88970,113620
4.89782,116155
4.90595,136706
4.91407,205408
4.92218,493756
4.93032,1184898
4.93843,2246494
4.94657,3286770
4.95468,3573620
4.96280,2933784
4.97093,2053057
4.97905,1444171
4.98717,1069120
4.99530,841230
5.00342,708187
5.01155,654521
5.01967,584233
5.02778,545126
5.03592,501994
5.04403,476749
5.05217,452379
5.06028,438326
5.06840,410716
5.07653,402378
5.08465,373025
5.09277,363703
5.10090,357933
5.10902,346333
5.11715,324823
5.12527,324107
5.13338,308383
5.14152,303183
5.14963,306403
5.15777,286998
5.16588,297161
5.17400,285792
5.18213,263061
5.19025,270406
5.19838,261293
5.20650,254649
5.21462,262241
5.22275,277857
5.23087,326360
5.23898,412413
5.24712,423975
5.25523,384897
5.26337,324658
5.27148,273403
5.27960,246713
5.28773,231045
5.29585,217099
5.30398,222900
5.31210,212755
5.32022,207089
5.32835,204671
5.33647,210620
5.34458,198402
5.35272,195511
5.36083,195179
5.36897,189360
5.37708,187571
5.38520,186146
5.39333,180920
5.40145,178899
5.40958,181597
5.41770,177406
5.42582,177053
5.43395,178910
5.44207,172402
5.45020,170060
5.45832,169185
5.46643,175719
5.47457,164764
5.48268,167132
5.49080,171740
5.49893,167257
5.50705,172322
5.51518,165449
5.52330,162277
5.53142,159835
5.53955,159394
5.54767,157067
5.55580,156453
5.56392,159884
5.57203,152549
5.58017,155989
5.58828,149157
5.59642,154758
5.60453,151511
5.61265,150459
5.62078,160500
5.62890,154612
5.63702,161643
5.64515,156931
5.65327,155726
5.66140,157470
5.66952,154671
5.67763,175241
5.68577,186543
5.69388,203335
5.70202,204252
5.71013,186996
5.71825,170824
5.72638,159060
5.73450,150994
5.74262,143862
5.75075,151842
5.75887,141602
5.76700,142694
5.77512,139143
5.78323,150405
5.79137,137435
5.79948,136700
5.80762,132708
5.81573,137492
5.82385,138037
5.83198,134722
5.84010,133248
5.84823,140405
5.85635,132672
5.86447,134940
5.87260,132674
5.88072,130271
5.88883,131892
5.89697,129234
5.90508,128463
5.91322,106952
5.92133,108738
5.92945,98599
5.93758,97561
5.94570,91969
5.95383,100199
5.96195,100113
5.97007,108041
5.97820,111289
5.98632,109342
5.99445,107288
6.00257,105836
6.01068,101933
6.01882,102247
6.02693,101788
6.03505,96179
6.04318,93734
6.05130,95831
6.05943,99111
6.06755,95278
6.07567,92546
6.08380,91805
6.09192,92641
6.10005,96477
6.10817,91020
6.11628,96868
6.12442,86666
6.13253,95452
6.14065,96700
6.14878,100075
6.15690,99695
6.16503,102885
6.17315,102082
6.18127,102371
6.18940,103951
6.19752,105147
6.20565,116981
6.21377,120297
6.22188,117181
6.23002,124713
6.23813,126289
6.24627,135886
6.25438,133331
6.26250,137356
6.27063,136517
6.27875,142288
6.28687,141336
6.29500,144863
6.30312,147005
6.31125,152161
6.31937,149315
6.32748,152988
6.33562,158371
6.34373,161683
6.35187,158332
6.35998,161995
6.36810,166616
6.37623,167252
6.38435,168720
6.39248,171639
6.40060,167673
6.40872,180112
6.41685,176648
6.42497,183486
6.43308,187933
6.44122,200911
6.44933,195504
6.45747,197579
6.46558,190249
6.47370,195504
6.48183,200716
6.48995,203846
6.49808,198814
6.50620,200485
6.51432,205276
6.52245,198211
6.53057,203456
6.53868,208993
6.54682,196895
6.55493,205593
6.56307,206462
6.57118,205455
6.57930,212366
6.58743,209985
6.59555,212160
6.60368,192185
6.61180,141972
6.61992,128360
6.62805,115275
6.63617,107999
6.64430,107653
6.65242,100666
6.66053,102680
6.66867,98149
6.67678,92170
6.68490,95760
6.69303,95493
6.70115,92245
6.70928,90783
6.71740,91106
6.72552,85683
6.73365,89554
6.74177,80768
6.74990,89050
6.75802,88180
6.76613,83253
6.77427,81815
6.78238,82831
6.79050,79143
6.79863,80226
6.80675,78413
6.81488,80641
6.82300,83680
6.83112,74847
6.83925,77190
6.84737,68820
6.85550,63271
6.86362,55615
6.87173,58057
6.87987,61795
6.88798,55868
6.89612,56974
6.90423,57943
6.91235,53189
6.92048,48043
6.92860,52688
6.93672,51057
6.94485,53715
6.95297,49850
6.96110,53416
6.96922,50723
6.97733,49870
6.98547,46192
6.99358,44352
7.00172,47045
7.00983,49337
7.01795,54517
7.02608,48758
7.03420,46731
7.04233,45352
7.05045,47764
7.05857,45148
7.06670,45553
7.07482,47511
7.08293,45960
7.09107,45670
7.09918,51227
7.10732,44019
7.11543,44561
7.12355,44341
7.13168,46496
7.13980,46137
7.14793,45531
7.15605,45755
7.16417,46167
7.17230,47046
7.18042,48203
7.18853,44784
7.19667,43573
7.20478,46378
7.21292,45842
7.22103,43901
7.22915,43910
7.23728,47756
7.24540,46488
7.25353,41888
7.26165,43854
7.26977,46976
7.27790,45321
7.28602,44687
7.29415,43069
7.30227,42345
7.31038,42446
7.31852,43067
7.32663,43926
7.33475,42018
7.34288,41745
7.35100,44939
7.35913,42357
7.36725,42359
7.37537,42638
7.38350,49510
7.39162,45200
7.39975,49545
7.40787,42262
7.41598,48318
7.42412,43566
7.43223,47836
7.44037,47161
7.44848,44111
7.45660,44886
7.46473,43622
7.47285,38753
7.48097,43124
7.48910,40911
7.49722,41465
7.50535,44499
7.51347,46189
7.52158,44538
7.52972,44877
7.53783,39644
7.54597,45212
7.55408,42342
7.56220,42913
7.57033,44736
7.57845,42677
7.58657,40918
7.59470,41662
7.60282,38312
7.61095,40975
7.61907,42309
7.62718,42824
7.63532,41680
7.64343,41630
7.65157,40182
7.65968,41062
7.66780,39511
7.67593,41135
7.68405,41518
7.69218,41473
7.70030,41054
7.70842,41252
7.71655,40626
7.72467,42632
7.73278,43870
7.74092,43843
7.74903,39496
7.75717,40043
7.76528,42923
7.77340,44963
7.78153,41078
7.78965,38662
7.79778,41896
7.80590,42523
7.81402,41273
7.82215,43137
7.83027,39135
7.83838,40056
7.84652,36296
7.85463,38296
7.86277,40689
7.87088,38570
7.87900,40856
7.88713,39859
7.89525,37640
7.90338,37906
7.91150,37880
7.91962,38471
7.92775,40192
7.93587,38738
7.94400,39212
7.95212,39872
7.96023,40211
7.96837,38438
7.97648,36337
7.98460,38987
7.99273,39429
8.00085,41493
8.00898,36750
8.01710,41903
8.02522,39059
8.03335,45016
8.04147,37814
8.04960,35833
8.05772,39373
8.06583,38596
8.07397,39340
8.08208,39115
8.09022,38750
8.09833,36807
8.10645,37260
8.11458,37202
8.12270,37994
8.13082,37484
8.13895,36802
8.14707,40603
8.15520,37898
8.16332,38849
8.17143,38893
8.17957,40099
8.18768,37690
8.19582,36447
8.20393,37573
8.21205,38789
8.22018,37995
8.22830,38601
8.23643,39309
8.24455,38141
8.25267,36071
8.26080,35664
8.26892,36911
8.27703,36491
8.28517,37334
8.29328,32122
8.30142,34212
8.30953,42254
8.31765,40561
8.32578,38040
8.33390,38147
8.34203,40230
8.35015,37956
8.35827,38699
8.36640,34684
8.37452,38971
8.38263,34456
8.39077,36918
8.39888,35004
8.40702,35899
8.41513,36607
8.42325,37242
8.43138,32941
8.43950,38763
8.44763,36694
8.45575,34928
8.46387,36916
8.47200,34692
8.48012,35232
8.48825,34735
8.49637,39425
8.50448,34564
8.51262,40464
8.52073,39338
8.52885,38833
8.53698,39573
8.54510,42985
8.55323,41078
8.56135,36135
8.56947,35725
8.57760,34552
8.58572,32410
8.59385,33319
8.60197,36584
8.61008,36054
8.61822,35618
8.62633,35288
8.63445,36347
8.64258,36371
8.65070,34704
8.65883,35303
8.66695,33905
8.67507,33988
8.68320,34342
8.69132,34716
8.69945,40562
8.70757,46191
8.71568,67647
8.72382,135793
8.73193,262176
8.74007,400182
8.74818,509015
8.75630,509194
8.76443,397408
8.77255,286106
8.78067,201604
8.78880,176036
8.79692,159582
8.80505,155054
8.81317,148934
8.82128,136521
8.82942,128209
8.83753,123670
8.84567,117606
8.85378,112793
8.86190,104055
8.87003,106866
8.87815,100712
8.88628,96950
8.89440,96833
8.90252,92868
8.91065,91950
8.91877,89540
8.92688,81295
8.93502,84906
8.94313,79719
8.95127,82906
8.95938,79945
8.96750,79247
8.97563,75720
8.98375,78342
8.99188,76897
9.00000,71914
9.00812,68420
9.01625,70211
9.02437,70026
9.03248,67413
9.04062,69166
9.04873,62771
9.05687,63451
9.06498,61861
9.07310,64821
9.08123,66909
9.08935,61814
9.09748,66439
9.10560,62232
9.11372,60902
9.12185,61122
9.12997,58736
9.13810,60669
9.14622,59493
9.15433,57589
9.16247,58720
9.17058,57222
9.17870,54936
9.18683,57416
9.19495,55546
9.20308,56564
9.21120,59985
9.21932,55252
9.22745,55569
9.23557,58208
9.24370,52296
9.25182,53860
9.25993,53492
9.26807,52177
9.27618,53094
9.28432,50945
9.29243,50932
9.30055,51102
9.30868,48439
9.31680,52768
9.32492,45833
9.33305,51599
9.34117,51371
9.34930,56079
9.35742,48658
9.36553,48461
9.37367,45698
9.38178,48987
9.38992,46126
9.39803,48459
9.40615,48778
9.41428,51111
9.42240,45982
9.43052,47450
9.43865,43640
9.44677,45791
9.45490,46686
9.46302,42322
9.47113,44415
9.47927,44261
9.48738,46927
9.49552,45301
9.50363,44067
9.51175,44521
9.51988,38231
9.52800,38953
9.53613,36132
9.54425,34516
9.55237,32959
9.56050,38297
9.56862,35578
9.57673,32055
9.58487,34681
9.59298,32700
9.60112,31870
9.60923,31293
9.61735,29404
9.62548,30492
9.63360,31990
9.64173,32677
9.64985,30560
9.65797,30901
9.66610,31527
9.67422,30670
9.68233,34325
9.69047,31575
9.69858,30112
9.70672,32205
9.71483,26417
9.72295,30862
9.73108,33968
9.73920,32321
9.74733,30174
9.75545,31346
9.76357,27895
9.77170,29314
9.77982,29490
9.78795,29658
9.79607,30159
9.80418,29365
9.81232,26749
9.82043,30408
9.82855,33495
9.83668,33558
9.84480,33098
9.85293,32177
9.86105,34818
9.86917,35622
9.87730,32792
9.88542,30261
9.89355,31378
9.90167,30769
9.90978,25647
9.91792,27950
9.92603,28761
9.93417,28134
9.94228,33309
9.95040,30443
9.95853,35613
9.96665,44914
9.97477,44200
9.98290,51351
9.99102,49594
9.99915,42913
10.00727,43590
10.01538,40032
10.02352,39498
10.03163,37554
10.03977,36064
10.04788,38179
10.05600,35007
10.06413,34310
10.07225,32550
10.08037,31988
10.08850,35687
10.09662,33990
10.10475,31083
10.11287,33438
10.12098,29917
10.12912,30922
10.13723,29989
10.14537,31188
10.15348,33602
10.16160,30548
10.16973,30560
10.17785,32349
10.18598,30208
10.19410,32929
10.20222,31129
10.21035,32150
10.21847,33486
10.22658,31042
10.23472,36178
10.24283,33840
10.25097,33495
10.25908,38279
10.26720,31877
10.27533,29634
10.28345,31004
10.29158,31233
10.29970,32127
10.30782,32369
10.31595,34380
10.32407,33659
10.33220,33878
10.34032,32858
10.34843,31349
10.35657,31951
10.36468,32298
10.37280,31532
10.38093,29941
10.38905,32303
10.39718,31412
10.40530,28713
10.41342,27703
10.42155,31218
10.42967,28555
10.43780,30161
10.44592,29396
10.45403,30943
10.46217,29399
10.47028,28380
10.47840,30901
10.48653,30005
10.49465,28049
10.50278,30258
10.51090,30990
10.51902,29250
10.52715,29297
10.53527,30180
10.54340,27940
10.55152,28308
10.55963,28457
10.56777,28320
10.57588,30401
10.58402,29217
10.59213,25393
10.60025,26009
10.60838,26457
10.61650,28183
10.62462,27971
10.63275,28892
10.64087,30956
10.64900,30039
10.65712,28346
10.66523,27722
10.67337,28843
10.68148,31217
10.68962,29426
10.69773,31687
10.70585,30692
10.71398,29894
10.72210,29405
10.73023,32558
10.73835,35014
10.74647,31181
10.75460,27186
10.76272,30516
10.77083,29153
10.77897,30654
10.78708,26868
10.79522,28866
10.80333,28861
10.81145,26495
10.81958,29271
10.82770,30506
10.83583,27678
10.84395,27499
10.85207,116021
10.86020,652273
10.86832,984372
10.87643,475847
10.88457,193050
10.89268,125406
10.90082,96013
10.90893,80213
10.91705,71891
10.92518,67237
10.93330,62574
10.94143,63011
10.94955,61398
10.95767,53040
10.96580,52090
10.97392,49008
10.98205,47435
10.99017,45502
10.99828,50001
11.00642,53930
11.01453,53017
11.02265,41813
11.03078,47594
11.03890,42179
11.04703,43055
11.05515,38315
11.06327,36406
11.07140,36043
11.07952,38832
11.08765,37497
11.09577,37320
11.10388,36399
11.11202,40775
11.12013,37880
11.12825,39853
11.13638,44059
11.14450,48609
11.15263,285640
11.16075,1307489
11.16887,1843799
11.17700,1281824
11.18512,938332
11.19325,723352
11.20137,603591
11.20948,491752
11.21762,420458
11.22573,367884
11.23387,321458
11.24198,276331
11.25010,250787
11.25823,219747
11.26635,200423
11.27447,183759
11.28260,167462
11.29072,155020
11.29885,155993
11.30697,144283
11.31508,133647
11.32322,128349
11.33133,119735
11.33947,114785
11.34758,116746
11.35570,118390
11.36383,100469
11.37195,97513
11.38008,95456
11.38820,97586
11.39632,86549
11.40445,86596
11.41257,85704
11.42068,83633
11.42882,84506
11.43693,91203
11.44507,95119
11.45318,102368
11.46130,114745
11.46943,267557
11.47755,644014
11.48568,753527
11.49380,547641
11.50192,408718
11.51005,335376
11.51817,278622
11.52628,246683
11.53442,227733
11.54253,202826
11.55067,188363
11.55878,173543
11.56690,158399
11.57503,147016
11.58315,142582
11.59128,129458
11.59940,119138
11.60752,120324
11.61565,111156
11.62377,105371
11.63190,101842
11.64002,98212
11.64813,93372
11.65627,92387
11.66438,88682
11.67250,88553
11.68063,82220
11.68875,83400
11.69688,81420
11.70500,83099
11.71312,80111
11.72125,79529
11.72937,74070
11.73750,77309
11.74562,74040
11.75373,69312
11.76187,74267
11.76998,71650
11.77812,67330
11.78623,65764
11.79435,67350
11.80248,68285
11.81060,66822
11.81872,63145
11.82685,63733
11.83497,62422
11.84310,64329
11.85122,63278
11.85933,64053
11.86747,77791
11.87558,93753
11.88372,127277
11.89183,102256
11.89995,85911
11.90808,77922
11.91620,67408
11.92432,67863
11.93245,60890
11.94057,59897
11.94870,56964
11.95682,55472
11.96493,56546
11.97307,53458
11.98118,54139
11.98932,56861
11.99743,57723
12.00555,56018
12.01368,56259
12.02180,67944
12.02993,76129
12.03805,96594
12.04617,112964
12.05430,133362
12.06242,139212
12.07053,154999
12.07867,127042
12.08678,94555
12.09492,83097
12.10303,81572
12.11115,70501
12.11928,68775
12.12740,70633
12.13553,62877
12.14365,63419
12.15177,62538
12.15990,59289
12.16802,63694
12.17613,57766
12.18427,57041
12.19238,59087
12.20052,57499
12.20863,54614
12.21675,54496
12.22488,52427
12.23300,51976
12.24113,54134
12.24925,49573
12.25737,55708
12.26550,51228
12.27362,51107
12.28175,47799
12.28987,49132
12.29798,53214
12.30612,46468
12.31423,49651
12.32235,48180
12.33048,47541
12.33860,44611
12.34673,51589
12.35485,45740
12.36297,46747
12.37110,47859
12.37922,49163
12.38735,45159
12.39547,43782
12.40358,48553
12.41172,46119
12.41983,44326
12.42797,43610
12.43608,48271
12.44420,46368
12.45233,49013
12.46045,49061
12.46857,44558
12.47670,44767
12.48482,45596
12.49295,45923
12.50107,62778
12.50918,90403
12.51732,124240
12.52543,121601
12.53357,107282
12.54168,94145
12.54980,78723
12.55793,72419
12.56605,68815
12.57417,63601
12.58230,60438
12.59042,59637
12.59855,55965
12.60667,56571
12.61478,55686
12.62292,55964
12.63103,51398
12.63917,55898
12.64728,50380
12.65540,45124
12.66353,45754
12.67165,48120
12.67978,46173
12.68790,51190
12.69602,51033
12.70415,47913
12.71227,46137
12.72038,47842
12.72852,47261
12.73663,48926
12.74477,50228
12.75288,46296
12.76100,47031
12.76913,47897
12.77725,44965
12.78538,42096
12.79350,40422
12.80162,40395
12.80975,42861
12.81787,39125
12.82600,41066
12.83412,42407
12.84223,43204
12.85037,39230
12.85848,42448
12.86660,41330
12.87473,44605
12.88285,39721
12.89098,38911
12.89910,40750
12.90722,44077
12.91535,38583
12.92347,45279
12.93160,39703
12.93972,43469
12.94783,37918
12.95597,41134
12.96408,41319
12.97220,41759
12.98033,39339
12.98845,40667
12.99658,40203
13.00470,42603
13.01282,40432
13.02095,43133
13.02907,39735
13.03720,41107
13.04532,37455
13.05343,38958
13.06157,40773
13.06968,39181
13.07782,41544
13.08593,41263
13.09405,39246
13.10218,37907
13.11030,39369
13.11842,42547
13.12655,48669
13.13467,44830
13.14280,48951
13.15092,48217
13.15903,43607
13.16717,45702
13.17528,42262
13.18342,43325
13.19153,39640
13.19965,40992
13.20778,41361
13.21590,39290
13.22402,40987
13.23215,38459
13.24027,43140
13.24840,41608
13.25652,45299
13.26463,44032
13.27277,43340
13.28088,42930
13.28902,43669
13.29713,41187
13.30525,38972
13.31338,40507
13.32150,41673
13.32963,40228
13.33775,41432
13.34587,36143
13.35400,38208
13.36212,37833
13.37023,39462
13.37837,35847
13.38648,40298
13.39462,36695
13.40273,37938
13.41085,38564
13.41898,37479
13.42710,39207
13.43523,39812
13.44335,37650
13.45147,36281
13.45960,37100
13.46772,34470
13.47585,41794
13.48397,36229
13.49208,35073
13.50022,38484
13.50833,33680
13.51645,36390
13.52458,37975
13.53270,38184
13.54083,41088
13.54895,40385
13.55707,40940
13.56520,36642
13.57332,37529
13.58145,34949
13.58957,38800
13.59768,37247
13.60582,38072
13.61393,36796
13.62207,37674
13.63018,39546
13.63830,37894
13.64643,35069
13.65455,38364
13.66267,40924
13.67080,38546
13.67892,34604
13.68705,37314
13.69517,36211
13.70328,37879
13.71142,35008
13.71953,36673
13.72767,36636
13.73578,34397
13.74390,36784
13.75203,33636
13.76015,34637
13.76827,37870
13.77640,36905
13.78452,36535
13.79265,37491
13.80077,39849
13.80888,41354
13.81702,38052
13.82513,40254
13.83327,40815
13.84138,39395
13.84950,39834
13.85763,39852
13.86575,41215
13.87388,41150
13.88200,43430
13.89012,47336
13.89825,47098
13.90637,38371
13.91448,40020
13.92262,38435
13.93073,41875
13.93887,36914
13.94698,37568
13.95510,38998
13.96323,40244
13.97135,38817
13.97948,36546
13.98760,37710
13.99572,38517
14.00385,42077
14.01197,41377
14.02008,39031
14.02822,41731
14.03633,38694
14.04447,39952
14.05258,35875
14.06070,37097
14.06883,38079
14.07695,38641
14.08508,37112
14.09320,37796
14.10132,38951
14.10945,46426
14.11757,57825
14.12570,78852
14.13382,108257
14.14193,142003
14.15007,158337
14.15818,155258
14.16630,133979
14.17443,121059
14.18255,101329
14.19068,88555
14.19880,80291
14.20692,77671
14.21505,74292
14.22317,69375
14.23130,67267
14.23942,61623
14.24753,63027
14.25567,59219
14.26378,58610
14.27192,57219
14.28003,57378
14.28815,50166
14.29628,48126
14.30440,49372
14.31252,41979
14.32065,39881
14.32877,38693
14.33690,39379
14.34502,40689
14.35313,36606
14.36127,36832
14.36938,34743
14.37752,38744
14.38563,38228
14.39375,34028
14.40188,37353
14.41000,38396
14.41812,38366
14.42625,36681
14.43437,36724
14.44250,33943
14.45062,38018
14.45873,34736
14.46687,38660
14.47498,41267
14.48312,35867
14.49123,36861
14.49935,34862
14.50748,36153
14.51560,34139
14.52373,33402
14.53185,34502
14.53997,37489
14.54810,36686
14.55622,32301
14.56433,31381
14.57247,33688
14.58058,32939
14.58872,35478
14.59683,32922
14.60495,33926
14.61308,32437
14.62120,35088
14.62933,34330
14.63745,32738
14.64557,33052
14.65370,37597
14.66182,34815
14.66995,33275
14.67807,32863
14.68618,33764
14.69432,32038
14.70243,34438
14.71055,33885
14.71868,31927
14.72680,33240
14.73493,35287
14.74305,31402
14.75117,32603
14.75930,30267
14.76742,32993
14.77555,34804
14.78367,34319
14.79178,34218
14.79992,36832
14.80803,35295
14.81615,36367
14.82428,38657
14.83240,39412
14.84053,37860
14.84865,37795
14.85677,36461
14.86490,39118
14.87302,37943
14.88115,38351
14.88927,35722
14.89738,36737
14.90552,36274
14.91363,36270
14.92177,33771
14.92988,35206
14.93800,36770
14.94613,37765
14.95425,39111
14.96237,36654
14.97050,37021
14.97862,40931
14.98675,35434
14.99487,38201
15.00298,36445
15.01112,38280
15.01923,35300
15.02737,31353
15.03548,36520
15.04360,35434
15.05173,36975
15.05985,34333
15.06797,31715
15.07610,36305
15.08422,34256
15.09235,37136
15.10047,31807
15.10858,35583
15.11672,35587
15.12483,35116
15.13297,30592
15.14108,34878
15.14920,34734
15.15733,32821
15.16545,35355
15.17358,36669
15.18170,29397
15.18982,35240
15.19795,32197
15.20607,36220
15.21418,35505
15.22232,33064
15.23043,35770
15.23857,33664
15.24668,32510
15.25480,31824
15.26293,32658
15.27105,34825
15.27918,31841
15.28730,32388
15.29542,33180
15.30355,34027
15.31167,37692
15.31980,31630
15.32792,33568
15.33603,33754
15.34417,35705
15.35228,43826
15.36040,46740
15.36853,49153
15.37665,52254
15.38478,47844
15.39290,40400
15.40102,40046
15.40915,36958
15.41727,36379
15.42540,36099
15.43352,36059
15.44163,36021
15.44977,35418
15.45788,33571
15.46600,36852
15.47413,35946
15.48225,35186
15.49038,33595
15.49850,32103
15.50662,32583
15.51475,37000
15.52287,36146
15.53100,32210
15.53912,31430
15.54723,33555
15.55537,31070
15.56348,33582
15.57162,33819
15.57973,37255
15.58785,32495
15.59598,31286
15.60410,33866
15.61222,33024
15.62035,35957
15.62847,34627
15.63660,32423
15.64472,34108
15.65283,32592
15.66097,34816
15.66908,28516
15.67722,31801
15.68533,33353
15.69345,34439
15.70158,31523
15.70970,31593
15.71783,33660
15.72595,31866
15.73407,30105
15.74220,29407
15.75032,33043
15.75843,31603
15.76657,32864
15.77468,31179
15.78282,31302
15.79093,33760
15.79905,33292
15.80718,33385
15.81530,31202
15.82343,35277
15.83155,31712
15.83967,28983
15.84780,34354
15.85592,33961
15.86403,31831
15.87217,30293
15.88028,33490
15.88842,29625
15.89653,33222
15.90465,31976
15.91278,32071
15.92090,29810
15.92903,33573
15.93715,30528
15.94527,29356
15.95340,30399
15.96152,29804
15.96965,29368
15.97777,33077
15.98588,30908
15.99402,30591
16.00213,32163
16.01025,30641
16.01838,34103
16.02650,33152
16.03463,33159
16.04275,35966
16.05087,32071
16.05900,31387
16.06712,32378
16.07525,31746
16.08337,30139
16.09148,31181
16.09962,31978
16.10773,33630
16.11587,31604
16.12398,39508
16.13210,31602
16.14023,30518
16.14835,33244
16.15647,32106
16.16460,30017
16.17272,33682
16.18085,30766
16.18897,32716
16.19708,33497
16.20522,33059
16.21333,34450
16.22147,30946
16.22958,33713
16.23770,32649
16.24583,32792
16.25395,30234
16.26207,32584
16.27020,35872
16.27832,33498
16.28645,30748
16.29457,30236
16.30268,29951
16.31082,32472
16.31893,34570
16.32707,33303
16.33518,31351
16.34330,29914
16.35143,29814
16.35955,32141
16.36768,32913
16.37580,31587
16.38392,35074
16.39205,30033
16.40017,30591
16.40828,31939
16.41642,33354
16.42453,34143
16.43267,28432
16.44078,33346
16.44890,30562
16.45703,29792
16.46515,32644
16.47328,33055
16.48140,31600
16.48952,36490
16.49765,31469
16.50577,32285
16.51388,30981
16.52202,33956
16.53013,32864
16.53827,31478
16.54638,31337
16.55450,31920
16.56263,31601
16.57075,30261
16.57888,32744
16.58700,32618
16.59512,32133
16.60325,33147
16.61137,31675
16.61950,30035
16.62762,33473
16.63573,30662
16.64387,30625
16.65198,31394
16.66010,33254
16.66823,32711
16.67635,33069
16.68448,31350
16.69260,33641
16.70072,30169
16.70885,30646
16.71697,30296
16.72510,34921
16.73322,32814
16.74133,30189
16.74947,33320
16.75758,30530
16.76572,30635
16.77383,31065
16.78195,30705
16.79008,32956
16.79820,32682
16.80632,34366
16.81445,34156
16.82257,33709
16.83070,29477
16.83882,32645
16.84693,32725
16.85507,31959
16.86318,32223
16.87132,33911
16.87943,33273
16.88755,31820
16.89568,29743
16.90380,31290
16.91192,30599
16.92005,32424
16.92817,33185
16.93630,32924
16.94442,31717
16.95253,33329
16.96067,34530
16.96878,33710
16.97692,31191
16.98503,34098
16.99315,30934
17.00128,35531
17.00940,32644
17.01753,29989
17.02565,31984
17.03377,32188
17.04190,33508
17.05002,31024
17.05813,33917
17.06627,33578
17.07438,34099
17.08252,32843
17.09063,34348
17.09875,34040
17.10688,34940
17.11500,34261
17.12313,33489
17.13125,32491
17.13937,31151
17.14750,30647
17.15562,31138
17.16375,33401
17.17187,35347
17.17998,37914
17.18812,34972
17.19623,31284
17.20435,33441
17.21248,34707
17.22060,31804
17.22873,31325
17.23685,35779
17.24497,34028
17.25310,32017
17.26122,32585
17.26935,34481
17.27747,30770
17.28558,33938
17.29372,33433
17.30183,37026
17.30995,36190
17.31808,37216
17.32620,33378
17.33433,37836
17.34245,33469
17.35057,35979
17.35870,34177
17.36682,36215
17.37495,35454
17.38307,36546
17.39118,39379
17.39932,30409
17.40743,39063
17.41557,37643
17.42368,33288
17.43180,35515
17.43993,34751
17.44805,32763
17.45617,34700
17.46430,29832
17.47242,31953
17.48055,34024
17.48867,30095
17.49678,31609
17.50492,33072
17.51303,34838
17.52117,33769
17.52928,34803
17.53740,33396
17.54553,31706
17.55365,33215
17.56177,32268
17.56990,37873
17.57802,33019
17.58615,35165
17.59427,33975
17.60238,39608
17.61052,36257
17.61863,33638
17.62677,34947
17.63488,33444
17.64300,37149
17.65113,38476
17.65925,34752
17.66738,33721
17.67550,37459
17.68362,34389
17.69175,36215
17.69987,36772
17.70798,35544
17.71612,36369
17.72423,33062
17.73237,36295
17.74048,32408
17.74860,35448
17.75673,32401
17.76485,33650
17.77298,31962
17.78110,34268
17.78922,34146
17.79735,33301
17.80547,30728
17.81360,34340
17.82172,33947
17.82983,33841
17.83797,33237
17.84608,33782
17.85420,30898
17.86233,31552
17.87045,34147
17.87858,31981
17.88670,32464
17.89482,34957
17.90295,30684
17.91107,27886
17.91920,29590
17.92732,34102
17.93543,31089
17.94357,29617
17.95168,33155
17.95982,32277
17.96793,32019
17.97605,34025
17.98418,33565
17.99230,32823
18.00042,31672
18.00855,32829
18.01667,34438
18.02480,36136
18.03292,38451
18.04103,32620
18.04917,33137
18.05728,30573
18.06542,31193
18.07353,31913
18.08165,35594
18.08978,34866
18.09790,36440
18.10602,41343
18.11415,36261
18.12227,35006
18.13040,34527
18.13852,37416
18.14663,35668
18.15477,37190
18.16288,36070
18.17102,34992
18.17913,34434
18.18725,35168
18.19538,36158
18.20350,37560
18.21163,34710
18.21975,33820
18.22787,33367
18.23600,31772
18.24412,33097
18.25223,36370
18.26037,33337
18.26848,37673
18.27662,33601
18.28473,32680
18.29285,32077
18.30098,35549
18.30910,33035
18.31723,31415
18.32535,33542
18.33347,33224
18.34160,32861
18.34972,31003
18.35783,26589
18.36597,28074
18.37408,33652
18.38222,28112
18.39033,28548
18.39845,29214
18.40658,28488
18.41470,28300
18.42283,30457
18.43095,48401
18.43907,378455
18.44720,862855
18.45532,530498
18.46345,195374
18.47157,121325
18.47968,88299
18.48782,82369
18.49593,73296
18.50405,63240
18.51218,60592
18.52030,57439
18.52843,57448
18.53655,53666
18.54467,51888
18.55280,52169
18.56092,64281
18.56905,331911
18.57717,825935
18.58528,507978
18.59342,325728
18.60153,233391
18.60967,196372
18.61778,162000
18.62590,143693
18.63403,140652
18.64215,125502
18.65027,214158
18.65840,410270
18.66652,296140
18.67465,210168
18.68277,178907
18.69088,158663
18.69902,142592
18.70713,137940
18.71527,121344
18.72338,116280
18.73150,116185
18.73963,105021
18.74775,104180
18.75587,101911
18.76400,99344
18.77212,89325
18.78025,92078
18.78837,91623
18.79648,86676
18.80462,89448
18.81273,83141
18.82087,80850
18.82898,82610
18.83710,90886
18.84523,85821
18.85335,76706
18.86148,73645
18.86960,78124
18.87772,98758
18.88585,177188
18.89397,246027
18.90208,241121
18.91022,193475
18.91833,183779
18.92647,166940
18.93458,135215
18.94270,115957
18.95083,102471
18.95895,97268
18.96708,90428
18.97520,91295
18.98332,82400
18.99145,77879
18.99957,78070
19.00770,77163
19.01582,75153
19.02393,71080
19.03207,71389
19.04018,71322
19.04830,67564
19.05643,68725
19.06455,66761
19.07268,66450
19.08080,67525
19.08892,67747
19.09705,71468
19.10517,71649
19.11330,71714
19.12142,74128
19.12953,65357
19.13767,68254
19.14578,61673
19.15390,67227
19.16203,62199
19.17015,61594
19.17828,62161
19.18640,61975
19.19452,58593
19.20265,60738
19.21077,57934
19.21890,60270
19.22702,58853
19.23513,52576
19.24327,54024
19.25138,52283
19.25952,54759
19.26763,57700
19.27575,52411
19.28388,54916
19.29200,56699
19.30012,58453
19.30825,50778
19.31637,55399
19.32450,51880
19.33262,51155
19.34073,49736
19.34887,50532
19.35698,52174
19.36512,45501
19.37323,51619
19.38135,50684
19.38948,45915
19.39760,52762
19.40572,53858
19.41385,60024
19.42197,73135
19.43010,94451
19.43822,111024
19.44633,115512
19.45447,115116
19.46258,93394
19.47072,77973
19.47883,63736
19.48695,56237
19.49508,57648
19.50320,50350
19.51133,48908
19.51945,46657
19.52757,45391
19.53570,49285
19.54382,46701
19.55193,43381
19.56007,46051
19.56818,45105
19.57632,50485
19.58443,44867
19.59255,50325
19.60068,46230
19.60880,64191
19.61693,87315
19.62505,134665
19.63317,220569
19.64130,319336
19.64942,404615
19.65755,449261
19.66567,420822
19.67378,348416
19.68192,263553
19.69003,199227
19.69815,146976
19.70628,123514
19.71440,106785
19.72253,102217
19.73065,95886
19.73877,78558
19.74690,76167
19.75502,72123
19.76315,64937
19.77127,61374
19.77938,58914
19.78752,56991
19.79563,52423
19.80375,56802
19.81188,57025
19.82000,55212
19.82813,54373
19.83625,49509
19.84437,52908
19.85250,51241
19.86062,52489
19.86875,50997
19.87687,60339
19.88498,66739
19.89312,74814
19.90123,74544
19.90937,85754
19.91748,85663
19.92560,83203
19.93373,86581
19.94185,81989
19.94997,79829
19.95810,75782
19.96622,73953
19.97435,73806
19.98247,70100
19.99058,70396
19.99872,72206
20.00683,68764
20.01497,68997
20.02308,64135
20.03120,64975
20.03933,62570
20.04745,57718
20.05558,53057
20.06370,54249
20.07182,51657
20.07995,52880
20.08807,48451
20.09618,51351
20.10432,49625
20.11243,48134
20.12057,47122
20.12868,47484
20.13680,47984
20.14493,46010
20.15305,49907
20.16118,56062
20.16930,66918
20.17742,73397
20.18555,87733
20.19367,102902
20.20178,113484
20.20992,119701
20.21803,135971
20.22617,186232
20.23428,228599
20.24240,284092
20.25053,303279
20.25865,291187
20.26678,263465
20.27490,204791
20.28302,160058
20.29115,131030
20.29927,99887
20.30740,87783
20.31552,77199
20.32363,64614
20.33177,61969
20.33988,58054
20.34800,54561
20.35613,58589
20.36425,58095
20.37238,59164
20.38050,71057
20.38862,80175
20.39675,96852
20.40487,111342
20.41300,120474
20.42112,116975
20.42923,108757
20.43737,94003
20.44548,82352
20.45360,72993
20.46173,67628
20.46985,59335
20.47798,58532
20.48610,52518
20.49422,50434
20.50235,50253
20.51047,50627
20.51860,48936
20.52672,46997
20.53483,47157
20.54297,47442
20.55108,47518
20.55922,45320
20.56733,46230
20.57545,45422
20.58358,44514
20.59170,46502
20.59982,51268
20.60795,61295
20.61607,74550
20.62420,83078
20.63232,91371
20.64043,86362
20.64857,82230
20.65668,70999
20.66482,64352
20.67293,56299
20.68105,53725
20.68918,48152
20.69730,46950
20.70543,46188
20.71355,46656
20.72167,48605
20.72980,44826
20.73792,45187
20.74603,42547
20.75417,44997
20.76228,49049
20.77042,52251
20.77853,50905
20.78665,54556
20.79478,52522
20.80290,47851
20.81103,51243
20.81915,49009
20.82727,45994
20.83540,45680
20.84352,51326
20.85163,44291
20.85977,46598
20.86788,43497
20.87602,42951
20.88413,44608
20.89225,46577
20.90038,42578
20.90850,40708
20.91663,41316
20.92475,40332
20.93287,40642
20.94100,42347
20.94912,38898
20.95725,38689
20.96537,37423
20.97348,38256
20.98162,44843
20.98973,43379
20.99785,40651
21.00598,39379
21.01410,41313
21.02223,38859
21.03035,41320
21.03847,41802
21.04660,41596
21.05472,39221
21.06285,40574
21.07097,35110
21.07908,37463
21.08722,37773
21.09533,39255
21.10347,41267
21.11158,41096
21.11970,38717
21.12783,40903
21.13595,37939
21.14407,42423
21.15220,39517
21.16032,40577
21.16845,40238
21.17657,40948
21.18468,39816
21.19282,38676
21.20093,37915
21.20907,37490
21.21718,35893
21.22530,40160
21.23343,37461
21.24155,39743
21.24967,38327
21.25780,35837
21.26592,39470
21.27405,41006
21.28217,35798
21.29028,37359
21.29842,37091
21.30653,37026
21.31467,35084
21.32278,36317
21.33090,39991
21.33903,38345
21.34715,40957
21.35528,35357
21.36340,39781
21.37152,34102
21.37965,38008
21.38777,44653
21.39588,35866
21.40402,37012
21.41213,38515
21.42027,39458
21.42838,36597
21.43650,37717
21.44463,36717
21.45275,36825
21.46088,41608
21.46900,36233
21.47712,40466
21.48525,38695
21.49337,36744
21.50150,38233
21.50962,38532
21.51773,36825
21.52587,38575
21.53398,39339
21.54210,39630
21.55023,40123
21.55835,48578
21.56648,64096
21.57460,84526
21.58272,101123
21.59085,111885
21.59897,111961
21.60710,99494
21.61522,80915
21.62333,73583
21.63147,61743
21.63958,54545
21.64770,50417
21.65583,45388
21.66395,47900
21.67208,41384
21.68020,44088
21.68832,43318
21.69645,44220
21.70457,42802
21.71270,41476
21.72082,41231
21.72893,40730
21.73707,42033
21.74518,43750
21.75332,54108
21.76143,68056
21.76955,78899
21.77768,100672
21.78580,110440
21.79392,116534
21.80205,112015
21.81017,89053
21.81830,79512
21.82642,69616
21.83453,62443
21.84267,51508
21.85078,50609
21.85892,48083
21.86703,50476
21.87515,45400
21.88328,43108
21.89140,43886
21.89952,43599
21.90765,43436
21.91577,41859
21.92390,42069
21.93202,39170
21.94013,38716
21.94827,41188
21.95638,41799
21.96452,40737
21.97263,42376
21.98075,46578
21.98888,50087
21.99700,50941
22.00513,49656
22.01325,48193
22.02137,45250
22.02950,41522
22.03762,39507
22.04573,42718
22.05387,40770
22.06198,42097
22.07012,41632
22.07823,42143
22.08635,40825
22.09448,40120
22.10260,37754
22.11073,39048
22.11885,38211
22.12697,40674
22.13510,39953
22.14322,44313
22.15135,48074
22.15947,51085
22.16758,57364
22.17572,52496
22.18383,52685
22.19195,49788
22.20008,46628
22.20820,44118
22.21633,41080
22.22445,36429
22.23257,36747
22.24070,36672
22.24882,37499
22.25695,36066
22.26507,34476
22.27318,36128
22.28132,41085
22.28943,39677
22.29755,38376
22.30568,33842
22.31380,37945
22.32193,35734
22.33005,37054
22.33817,35306
22.34630,35386
22.35442,34144
22.36255,37867
22.37067,35460
22.37878,35025
22.38692,40178
22.39503,37179
22.40317,36533
22.41128,42057
22.41940,34970
22.42753,35769
22.43565,35265
22.44377,33331
22.45190,31877
22.46002,31648
22.46815,32997
22.47627,34433
22.48438,38078
22.49252,48073
22.50063,57191
22.50877,66547
22.51688,65018
22.52500,60843
22.53313,55105
22.54125,48734
22.54938,46036
22.55750,44575
22.56562,40979
22.57375,42972
22.58187,41299
22.58998,38809
22.59812,40651
22.60623,40530
22.61437,44838
22.62248,51018
22.63060,58107
22.63873,53720
22.64685,50445
22.65498,46487
22.66310,48847
22.67122,41166
22.67935,39099
22.68747,37533
22.69558,38128
22.70372,37489
22.71183,37226
22.71997,43755
22.72808,44671
22.73620,44422
22.74433,43631
22.75245,42116
22.76058,42211
22.76870,48304
22.77682,38037
22.78495,37297
22.79307,37969
22.80120,33790
22.80932,37422
22.81743,40248
22.82557,35979
22.83368,35875
22.84180,33866
22.84993,37380
22.85805,36657
22.86618,39128
22.87430,37967
22.88242,42173
22.89055,50475
22.89867,62636
22.90680,85319
22.91492,115522
22.92303,147298
22.93117,183602
22.93928,200092
22.94740,191279
22.95553,172059
22.96365,158556
22.97178,140329
22.97990,132708
22.98802,119169
22.99615,97918
23.00427,88081
23.01240,79747
23.02052,67442
23.02863,62627
23.03677,53029
23.04488,53948
23.05302,49850
23.06113,48305
23.06925,51802
23.07738,48977
23.08550,46414
23.09362,46367
23.10175,43657
23.10987,45133
23.11800,44186
23.12612,46732
23.13423,42277
23.14237,46299
23.15048,38587
23.15862,41428
23.16673,44075
23.17485,42226
23.18298,42747
23.19110,43227
23.19923,40480
23.20735,43045
23.21547,38045
23.22360,35848
23.23172,41873
23.23983,38820
23.24797,37902
23.25608,41683
23.26422,46651
23.27233,46573
23.28045,43946
23.28858,45343
23.29670,41554
23.30483,42740
23.31295,40553
23.32107,40303
23.32920,39095
23.33732,36044
23.34543,35933
23.35357,36985
23.36168,37005
23.36982,41059
23.37793,36229
23.38605,38412
23.39418,36589
23.40230,40492
23.41043,39074
23.41855,44580
23.42667,49401
23.43480,51124
23.44292,54204
23.45105,56734
23.45917,51901
23.46728,52202
23.47542,50497
23.48353,46675
23.49165,46942
23.49978,45419
23.50790,43718
23.51603,45150
23.52415,43998
23.53227,41275
23.54040,41786
23.54852,42789
23.55665,43754
23.56477,44415
23.57288,45497
23.58102,45869
23.58913,41920
23.59727,39967
23.60538,43283
23.61350,40870
23.62163,40087
23.62975,39784
23.63787,41718
23.64600,43355
23.65412,39556
23.66225,44800
23.67037,45607
23.67848,43175
23.68662,41959
23.69473,43957
23.70287,42443
23.71098,45688
23.71910,58236
23.72723,109256
23.73535,273942
23.74347,721135
23.75160,1929321
23.75972,4497362
23.76785,7360135
23.77597,8868958
23.78408,8921308
23.79222,7679568
23.80033,5897942
23.80847,4206263
23.81658,2783706
23.82470,1957083
23.83283,1366877
23.84095,1045396
23.84908,829639
23.85720,674148
23.86532,572255
23.87345,497362
23.88157,420779
23.88968,380235
23.89782,335905
23.90593,298042
23.91407,283257
23.92218,264521
23.93030,241469
23.93843,224420
23.94655,216449
23.95468,221733
23.96280,257355
23.97092,369175
23.97905,579805
23.98717,916090
23.99530,1336782
24.00342,1626071
24.01153,1651045
24.01967,1519908
24.02778,1231803
24.03590,982413
24.04403,740994
24.05215,595079
24.06028,496031
24.06840,413203
24.07652,364471
24.08465,323362
24.09277,280828
24.10090,253005
24.10902,217824
24.11713,227926
24.12527,212221
24.13338,210914
24.14150,221615
24.14963,214364
24.15775,206537
24.16588,201571
24.17400,190727
24.18212,174279
24.19025,154341
24.19837,143988
24.20650,138452
24.21462,135103
24.22273,121854
24.23087,128690
24.23898,123905
24.24712,116738
24.25523,120812
24.26335,118495
24.27148,110829
24.27960,106562
24.28772,106859
24.29585,116172
24.30397,121596
24.31210,132804
24.32022,151367
24.32833,162735
24.33647,148404
24.34458,134553
24.35272,120164
24.36083,107396
24.36895,104137
24.37708,98753
24.38520,96769
24.39333,99344
24.40145,94845
24.40957,109561
24.41770,111619
24.42582,125553
24.43393,131750
24.44207,141114
24.45018,142427
24.45832,134308
24.46643,121645
24.47455,103184
24.48268,97923
24.49080,91962
24.49893,95886
24.50705,93676
24.51517,95866
24.52330,95442
24.53142,93411
24.53953,91675
24.54767,83632
24.55578,83163
24.56392,79345
24.57203,84370
24.58015,79544
24.58828,78810
24.59640,73960
24.60453,74271
24.61265,78137
24.62077,73670
24.62890,73330
24.63702,72764
24.64515,79632
24.65327,72333
24.66138,77167
24.66952,76741
24.67763,75143
24.68575,73816
24.69388,71613
24.70200,67434
24.71013,67219
24.71825,64323
24.72637,62298
24.73450,62911
24.74262,63661
24.75075,65357
24.75887,67945
24.76698,62469
24.77512,65599
24.78323,61212
24.79135,63865
24.79948,58689
24.80760,59018
24.81573,62528
24.82385,56293
24.83197,58517
24.84010,57131
24.84822,56934
24.85635,62049
24.86447,57649
24.87258,59452
24.88072,59384
24.88883,61260
24.89697,58810
24.90508,55573
24.91320,53791
24.92133,57427
24.92945,58112
24.93757,57092
24.94570,54479
24.95382,55481
24.96195,56533
24.97007,54411
24.97818,53065
24.98632,50039
24.99443,55090
25.00257,54102
25.01068,57750
25.01880,54223
25.02693,52490
25.03505,52401
25.04318,50362
25.05130,49433
25.05942,49676
25.06755,52753
25.07567,51260
25.08378,47579
25.09192,48663
25.10003,47337
25.10817,49824
25.11628,52094
25.12440,55890
25.13253,56014
25.14065,56014
25.14878,61750
25.15690,57387
25.16502,65648
25.17315,56867
25.18127,60604
25.18938,68761
25.19752,114374
25.20563,234528
25.21377,460952
25.22188,804898
25.23000,1037785
25.23813,1091066
25.24625,960824
25.25438,746537
25.26250,572221
25.27062,418202
25.27875,322274
25.28687,263040
25.29500,206583
25.30312,181116
25.31123,165958
25.31937,144092
25.32748,128860
25.33560,116899
25.34373,112329
25.35185,101779
25.35998,95083
25.36810,89334
25.37622,90468
25.38435,85106
25.39247,90429
25.40060,90564
25.40872,93336
25.41683,86297
25.42497,79609
25.43308,79258
25.44122,74900
25.44933,73964
25.45745,65452
25.46558,73452
25.47370,66810
25.48182,62917
25.48995,65337
25.49807,64560
25.50620,60474
25.51432,55557
25.52243,60825
25.53057,58526
25.53868,57015
25.54682,56500
25.55493,57152
25.56305,58471
25.57118,54425
25.57930,52996
25.58742,55034
25.59555,49860
25.60367,48845
25.61180,53706
25.61992,48699
25.62803,48051
25.63617,45554
25.64428,49283
25.65242,50130
25.66053,46921
25.66865,50776
25.67678,47441
25.68490,47098
25.69303,46694
25.70115,46386
25.70927,46649
25.71740,44142
25.72552,46343
25.73363,46723
25.74177,46977
25.74988,46088
25.75802,41481
25.76613,47118
25.77425,46930
25.78238,48970
25.79050,43797
25.79863,44619
25.80675,42868
25.81487,44683
25.82300,49261
25.83112,43065
25.83923,39498
25.84737,42741
25.85548,44439
25.86362,41377
25.87173,40296
25.87985,47251
25.88798,35437
25.89610,40923
25.90423,46752
25.91235,41136
25.92047,40783
25.92860,43130
25.93672,39272
25.94485,43409
25.95297,44820
25.96108,42897
25.96922,41707
25.97733,42530
25.98545,40913
25.99358,43154
26.00170,40860
26.00983,44032
26.01795,43080
26.02607,41882
26.03420,41980
26.04232,42060
26.05045,42755
26.05857,39828
26.06668,43739
26.07482,40512
26.08293,41478
26.09107,40846
26.09918,44284
26.10730,43244
26.11543,45468
26.12355,42216
26.13167,42472
26.13980,45648
26.14792,45168
26.15605,45182
26.16417,45128
26.17228,45315
26.18042,48221
26.18853,43887
26.19667,44099
26.20478,42293
26.21290,41776
26.22103,41106
26.22915,43111
26.23727,38831
26.24540,39104
26.25352,38904
26.26165,39381
26.26977,41829
26.27788,38559
26.28602,38887
26.29413,38736
26.30227,41175
26.31038,37574
26.31850,41039
26.32663,38130
26.33475,40243
26.34288,41101
26.35100,40012
26.35912,38226
26.36725,37981
26.37537,39430
26.38348,39825
26.39162,43275
26.39973,38625
26.40787,40590
26.41598,38163
26.42410,37518
26.43223,38030
26.44035,37647
26.44848,37271
26.45660,38143
26.46472,39403
26.47285,38774
26.48097,37941
26.48910,40886
26.49722,40107
26.50533,36612
26.51347,39023
26.52158,35341
26.52970,38467
26.53783,35830
26.54595,37344
26.55408,35705
26.56220,39399
26.57032,39229
26.57845,39029
26.58657,36180
26.59470,35415
26.60282,38436
26.61093,40292
26.61907,39241
26.62718,38057
26.63530,42665
26.64343,39322
26.65155,40771
26.65968,42199
26.66780,42232
26.67592,41553
26.68405,42121
26.69217,41660
26.70030,45488
26.70842,41213
26.71653,41751
26.72467,46859
26.73278,40007
26.74092,41529
26.74903,42938
26.75715,41948
26.76528,48173
26.77340,46212
26.78152,46098
26.78965,49339
26.79777,45219
26.80590,48559
26.81402,44160
26.82213,46302
26.83027,45085
26.83838,44652
26.84652,42311
26.85463,46613
26.86275,47651
26.87088,48574
26.87900,49729
26.88713,51542
26.89525,52254
26.90337,52461
26.91150,52918
26.91962,63726
26.92773,85114
26.93587,156372
26.94398,315783
26.95212,685072
26.96023,1523972
26.96835,3367198
26.97648,6527522
26.98460,9743892
26.99273,1.096276E+07
27.00085,1.040536E+07
27.00897,8669467
27.01710,6380614
27.02522,4611140
27.03333,3559689
27.04147,3155350
27.04958,3134612
27.05772,3229099
27.06583,3307210
27.07395,3156025
27.08208,2781491
27.09020,2250149
27.09833,1749783
27.10645,1307022
27.11457,980188
27.12270,772066
27.13082,603182
27.13895,481777
27.14707,404987
27.15518,356606
27.16332,310352
27.17143,279131
27.17955,259342
27.18768,227748
27.19580,212667
27.20393,202887
27.21205,190268
27.22017,176087
27.22830,167574
27.23642,153915
27.24455,147917
27.25267,138754
27.26078,139244
27.26892,130072
27.27703,131010
27.28515,120138
27.29328,112963
27.30140,108344
27.30953,108739
27.31765,108781
27.32577,104311
27.33390,98956
27.34202,96482
27.35015,90504
27.35827,89318
27.36638,89158
27.37452,95635
27.38263,83665
27.39077,92580
27.39888,89995
27.40700,87480
27.41513,85768
27.42325,89445
27.43137,92384
27.43950,96983
27.44762,100764
27.45575,94195
27.46387,93663
27.47198,82975
27.48012,79808
27.48823,82131
27.49637,70518
27.50448,76093
27.51260,74333
27.52073,78165
27.52885,79591
27.53698,79674
27.54510,75088
27.55322,70837
27.56135,65159
27.56947,67229
27.57758,68419
27.58572,71307
27.59383,65313
27.60197,74549
27.61008,91242
27.61820,126847
27.62633,181090
27.63445,255615
27.64258,346629
27.65070,412355
27.65882,457449
27.66695,444477
27.67507,415923
27.68318,368552
27.69132,302691
27.69943,242157
27.70757,215433
27.71568,183408
27.72380,151108
27.73193,139162
27.74005,116501
27.74818,112420
27.75630,102084
27.76442,89835
27.77255,88578
27.78067,87806
27.78880,79138
27.79692,82117
27.80503,81373
27.81317,78233
27.82128,78773
27.82940,72963
27.83753,69878
27.84565,66846
27.85378,63861
27.86190,68374
27.87002,63103
27.87815,65521
27.88627,59309
27.89440,63627
27.90252,57865
27.91063,58973
27.91877,53699
27.92688,60920
27.93502,53505
27.94313,55720
27.95125,51902
27.95938,52848
27.96750,54483
27.97562,54576
27.98375,51236
27.99187,52052
28.00000,51337
28.00812,49163
28.01623,51065
28.02437,49011
28.03248,52119
28.04062,50164
28.04873,50033
28.05685,51315
28.06498,46950
28.07310,47832
28.08122,56642
28.08935,53791
28.09747,58232
28.10560,62860
28.11372,74139
28.12183,80509
28.12997,81264
28.13808,78590
28.14622,79024
28.15433,65589
28.16245,56863
28.17058,51684
28.17870,54490
28.18683,48506
28.19495,46297
28.20307,49942
28.21120,49447
28.21932,52229
28.22743,60674
28.23557,83034
28.24368,118249
28.25182,197119
28.25993,314973
28.26805,481925
28.27618,695521
28.28430,923562
28.29243,1156824
28.30055,1385547
28.30867,1525323
28.31680,1671482
28.32492,1745922
28.33303,1748525
28.34117,1708043
28.34928,1587656
28.35742,1436472
28.36553,1289319
28.37365,1154668
28.38178,1010959
28.38990,847691
28.39803,726781
28.40615,615982
28.41427,527535
28.42240,450178
28.43052,384483
28.43865,336041
28.44677,296248
28.45488,258923
28.46302,232616
28.47113,207853
28.47925,178815
28.48738,173080
28.49550,162987
28.50363,149844
28.51175,139938
28.51987,127339
28.52800,124569
28.53612,113246
28.54425,113260
28.55237,108495
28.56048,103630
28.56862,95065
28.57673,94192
28.58487,92585
28.59298,91707
28.60110,90813
28.60923,91475
28.61735,85693
28.62547,87416
28.63360,84050
28.64172,84296
28.64985,88399
28.65797,96886
28.66608,95816
28.67422,102209
28.68233,108956
28.69047,119165
28.69858,123448
28.70670,117161
28.71483,119739
28.72295,121806
28.73107,127535
28.73920,135427
28.74732,149736
28.75545,161748
28.76357,173552
28.77168,173902
28.77982,172171
28.78793,170067
28.79607,169735
28.80418,160182
28.81230,156946
28.82043,144419
28.82855,135534
28.83668,132628
28.84480,118983
28.85292,106004
28.86105,105815
28.86917,95768
28.87728,93052
28.88542,88740
28.89353,85299
28.90167,81968
28.90978,81408
28.91790,77590
28.92603,75732
28.93415,73935
28.94228,71075
28.95040,70126
28.95852,69638
28.96665,71200
28.97477,65487
28.98290,67220
28.99102,65175
28.99913,63642
29.00727,57528
29.01538,57675
29.02350,61660
29.03163,57430
29.03975,57723
29.04788,60624
29.05600,55345
29.06412,54634
29.07225,59551
29.08037,52674
29.08850,57217
29.09662,54950
29.10473,51428
29.11287,49137
29.12098,48545
29.12910,50186
29.13723,48149
29.14535,47405
29.15348,49513
29.16160,51193
29.16972,47826
29.17785,51711
29.18597,54546
29.19410,47950
29.20222,50648
29.21033,53000
29.21847,43623
29.22658,48016
29.23472,50659
29.24283,50015
29.25095,50426
29.25908,48081
29.26720,47086
29.27532,49534
29.28345,51158
29.29157,48933
29.29970,46089
29.30782,47849
29.31593,46327
29.32407,48440
29.33218,43013
29.34032,43797
29.34843,41127
29.35655,46963
29.36468,44802
29.37280,50140
29.38092,48705
29.38905,46994
29.39717,54700
29.40530,52040
29.41342,56215
29.42153,52218
29.42967,49407
29.43778,52272
29.44592,46199
29.45403,40329
29.46215,40626
29.47028,42472
29.47840,43083
29.48653,43567
29.49465,46659
29.50277,45266
29.51090,47077
29.51902,45548
29.52713,42919
29.53527,46506
29.54338,42711
29.55152,40903
29.55963,40674
29.56775,42344
29.57588,41557
29.58400,43006
29.59213,39897
29.60025,40170
29.60837,42137
29.61650,43960
29.62462,42309
29.63275,41619
29.64087,42218
29.64898,39124
29.65712,39636
29.66523,35711
29.67335,39381
29.68148,35848
29.68960,36964
29.69773,36648
29.70585,39405
29.71397,37359
29.72210,34342
29.73022,35935
29.73835,36832
29.74647,36374
29.75458,39551
29.76272,36977
29.77083,37856
29.77897,36908
29.78708,37815
29.79520,38402
29.80333,35813
29.81145,36945
29.81957,37407
29.82770,34532
29.83582,37071
29.84395,38151
29.85207,43824
29.86018,58390
29.86832,69870
29.87643,100198
29.88457,139527
29.89268,193677
29.90080,243271
29.90893,301745
29.91705,369653
29.92517,418946
29.93330,478889
29.94142,500036
29.94955,511943
29.95767,511218
29.96578,504985
29.97392,487927
29.98203,455065
29.99017,425786
29.99828,397881
30.00640,356682
30.01453,329228
30.02265,290806
30.03078,253676
30.03890,241153
30.04702,211910
30.05515,201842
30.06327,174613
30.07138,175445
30.07952,151379
30.08763,144342
30.09577,131971
30.10388,119244
30.11200,109382
30.12013,107971
30.12825,98575
30.13638,92799
30.14450,86094
30.15262,97880
30.16075,96335
30.16887,100100
30.17698,97917
30.18512,101629
30.19323,102910
30.20137,102615
30.20948,106773
30.21760,102496
30.22573,104261
30.23385,98716
30.24198,96970
30.25010,94790
30.25822,89817
30.26635,90536
30.27447,92124
30.28260,82102
30.29072,79123
30.29883,81359
30.30697,76507
30.31508,72128
30.32320,72328
30.33133,68614
30.33945,68153
30.34758,62545
30.35570,60993
30.36382,65975
30.37195,59230
30.38007,59301
30.38820,52507
30.39632,52381
30.40443,51493
30.41257,53660
30.42068,52737
30.42882,52279
30.43693,53661
30.44505,48467
30.45318,50712
30.46130,47674
30.46942,45287
30.47755,47822
30.48567,48023
30.49380,47552
30.50192,44406
30.51003,44892
30.51817,42170
30.52628,43435
30.53442,45030
30.54253,43657
30.55065,41591
30.55878,41687
30.56690,40878
30.57502,39126
30.58315,45198
30.59127,42369
30.59940,44024
30.60752,46997
30.61563,39102
30.62377,43880
30.63188,42077
30.64002,38748
30.64813,39541
30.65625,38542
30.66438,40650
30.67250,39146
30.68063,39105
30.68875,40012
30.69687,38523
30.70500,40435
30.71312,39749
30.72123,38478
30.72937,39854
30.73748,46858
30.74562,35431
30.75373,37030
30.76185,38966
30.76998,42599
30.77810,39078
30.78623,39184
30.79435,38393
30.80247,38677
30.81060,39634
30.81872,45150
30.82685,40329
30.83497,36722
30.84308,37483
30.85122,41498
30.85933,38342
30.86745,36791
30.87558,39604
30.88370,37229
30.89183,37510
30.89995,37830
30.90807,36993
30.91620,36858
30.92432,37601
30.93245,33126
30.94057,36220
30.94868,33620
30.95682,34175
30.96493,31871
30.97305,37724
30.98118,37842
30.98930,40857
30.99743,33555
31.00555,34504
31.01367,34794
31.02180,36385
31.02992,37465
31.03805,38561
31.04617,35650
31.05428,40253
31.06242,39434
31.07053,45794
31.07867,51561
31.08678,57702
31.09490,60104
31.10303,58482
31.11115,58788
31.11927,52564
31.12740,50001
31.13552,49132
31.14365,49596
31.15177,46903
31.15988,46468
31.16802,48915
31.17613,53493
31.18427,54386
31.19238,56943
31.20050,58733
31.20863,59397
31.21675,62347
31.22487,59287
31.23300,50979
31.24112,47916
31.24925,44173
31.25737,41857
31.26548,40282
31.27362,37319
31.28173,37999
31.28987,37265
31.29798,41145
31.30610,43733
31.31423,48201
31.32235,49790
31.33048,49044
31.33860,48620
31.34672,46323
31.35485,42204
31.36297,39338
31.37108,40231
31.37922,38071
31.38733,37347
31.39547,37346
31.40358,35589
31.41170,39275
31.41983,38520
31.42795,37444
31.43608,36130
31.44420,37233
31.45232,34690
31.46045,32966
31.46857,34471
31.47670,37363
31.48482,37515
31.49293,37126
31.50107,36915
31.50918,32972
31.51730,37811
31.52543,34382
31.53355,35282
31.54168,33570
31.54980,31620
31.55792,35474
31.56605,38368
31.57417,38149
31.58230,39449
31.59042,39429
31.59853,38309
31.60667,36947
31.61478,37188
31.62290,36703
31.63103,34010
31.63915,35261
31.64728,37677
31.65540,35253
31.66352,34951
31.67165,35224
31.67977,31399
31.68790,34099
31.69602,32834
31.70413,35989
31.71227,33185
31.72038,31506
31.72852,32098
31.73663,38422
31.74475,31056
31.75288,32520
31.76100,31493
31.76912,31180
31.77725,36235
31.78537,35615
31.79350,39661
31.80162,40718
31.80973,51557
31.81787,67861
31.82598,88523
31.83412,118405
31.84223,155371
31.85035,190865
31.85848,218755
31.86660,252536
31.87473,275460
31.88285,271968
31.89097,284281
31.89910,271446
31.90722,254803
31.91533,239350
31.92347,229281
31.93158,200908
31.93972,180241
31.94783,172701
31.95595,163148
31.96408,160542
31.97220,160630
31.98033,157932
31.98845,156158
31.99657,142572
32.00470,129692
32.01282,122262
32.02093,113402
32.02907,106189
32.03718,95309
32.04532,100938
32.05343,91210
32.06155,91558
32.06968,82790
32.07780,82470
32.08593,79296
32.09405,71563
32.10217,74955
32.11030,62813
32.11842,63150
32.12655,61207
32.13467,61177
32.14278,57822
32.15092,56291
32.15903,49763
32.16715,52073
32.17528,47056
32.18340,52701
32.19153,47493
32.19965,46080
32.20777,47639
32.21590,44800
32.22402,47027
32.23215,43566
32.24027,42785
32.24838,46975
32.25652,42948
32.26463,47364
32.27277,40835
32.28088,47488
32.28900,43232
32.29713,43692
32.30525,47608
32.31337,40331
32.32150,45317
32.32962,42243
32.33775,43316
32.34587,45446
32.35398,43454
32.36212,38697
32.37023,40644
32.37837,39535
32.38648,43777
32.39460,40391
32.40273,42056
32.41085,41451
32.41897,44952
32.42710,42765
32.43522,41328
32.44335,40150
32.45147,39770
32.45958,37077
32.46772,35528
32.47583,37375
32.48397,36756
32.49208,37027
32.50020,38949
32.50833,35060
32.51645,35908
32.52458,37091
32.53270,38717
32.54082,37514
32.54895,41406
32.55707,44429
32.56518,50190
32.57332,59184
32.58143,65404
32.58957,67261
32.59768,58414
32.60580,53340
32.61393,47942
32.62205,42710
32.63018,43962
32.63830,37657
32.64642,40907
32.65455,41543
32.66267,37076
32.67078,43215
32.67892,39821
32.68703,41661
32.69517,37933
32.70328,39093
32.71140,39820
32.71953,38678
32.72765,41413
32.73578,42982
32.74390,41926
32.75202,36869
32.76015,40035
32.76827,37258
32.77640,42204
32.78452,36618
32.79263,37592
32.80077,36799
32.80888,31617
32.81700,35814
32.82513,37212
32.83325,37524
32.84138,35679
32.84950,31788
32.85762,36450
32.86575,36512
32.87387,37659
32.88200,35645
32.89012,38691
32.89823,38635
32.90637,35412
32.91448,35941
32.92262,35774
32.93073,32608
32.93885,32158
32.94698,35993
32.95510,35419
32.96322,37127
32.97135,34396
32.97947,33975
32.98760,34338
32.99572,32829
33.00383,39350
33.01197,36250
33.02008,34762
33.02822,36583
33.03633,40781
33.04445,35269
33.05258,38240
33.06070,35312
33.06882,37478
33.07695,36373
33.08507,43404
33.09320,44769
33.10132,52940
33.10943,58193
33.11757,52308
33.12568,52378
33.13382,50514
33.14193,47044
33.15005,46156
33.15818,44391
33.16630,47289
33.17443,41242
33.18255,40428
33.19067,37261
33.19880,39372
33.20692,39219
33.21503,38179
33.22317,37017
33.23128,38417
33.23942,36704
33.24753,37211
33.25565,35717
33.26378,34739
33.27190,35226
33.28003,37186
33.28815,37653
33.29627,42989
33.30440,37443
33.31252,34153
33.32065,36244
33.32877,37508
33.33688,35962
33.34502,35082
33.35313,34239
33.36125,36856
33.36938,33439
33.37750,31863
33.38563,36180
33.39375,32176
33.40187,32110
33.41000,35247
33.41812,34007
33.42625,34168
33.43437,34386
33.44248,38163
33.45062,33418
33.45873,33870
33.46685,36034
33.47498,36919
33.48310,34190
33.49123,34571
33.49935,35701
33.50747,30229
33.51560,36875
33.52372,34424
33.53185,33118
33.53997,33140
33.54808,33208
33.55622,35359
33.56433,34855
33.57247,35003
33.58058,32992
33.58870,35530
33.59683,34364
33.60495,37878
33.61307,35514
33.62120,37068
33.62932,35318
33.63745,34671
33.64557,39263
33.65368,32460
33.66182,37487
33.66993,38254
33.67807,32497
33.68618,33724
33.69430,34948
33.70243,33064
33.71055,34569
33.71867,33669
33.72680,38888
33.73492,37995
33.74305,45113
33.75117,42644
33.75928,43814
33.76742,40930
33.77553,38859
33.78367,37978
33.79178,33726
33.79990,35663
33.80803,38124
33.81615,40510
33.82428,38460
33.83240,38334
33.84052,38833
33.84865,37217
33.85677,39372
33.86488,38128
33.87302,35499
33.88113,36477
33.88927,35900
33.89738,38540
33.90550,37536
33.91363,33153
33.92175,35339
33.92988,36394
33.93800,38276
33.94612,34076
33.95425,36550
33.96237,39024
33.97050,31935
33.97862,37148
33.98673,34486
33.99487,35205
34.00298,33745
34.01110,32013
34.01923,34846
34.02735,37420
34.03548,32380
34.04360,33275
34.05172,40373
34.05985,34738
34.06797,32639
34.07610,36846
34.08422,35544
34.09233,31640
34.10047,33495
34.10858,34091
34.11670,35886
34.12483,34782
34.13295,37598
34.14108,36413
34.14920,33130
34.15732,34721
34.16545,31813
34.17357,35450
34.18170,33449
34.18982,33693
34.19793,32514
34.20607,30992
34.21418,34835
34.22232,33159
34.23043,34093
34.23855,34165
34.24668,33290
34.25480,32919
34.26292,33631
34.27105,33644
34.27917,32480
34.28730,33039
34.29542,34279
34.30353,33571
34.31167,34466
34.31978,38097
34.32792,31034
34.33603,34808
34.34415,33656
34.35228,37749
34.36040,38243
34.36853,31874
34.37665,35465
34.38477,35038
34.39290,33305
34.40102,35432
34.40913,37215
34.41727,51280
34.42538,58073
34.43352,81700
34.44163,115305
34.44975,160262
34.45788,190798
34.46600,225478
34.47413,232217
34.48225,239646
34.49037,211177
34.49850,202464
34.50662,182230
34.51473,161521
34.52287,146645
34.53098,124608
34.53912,122800
34.54723,110495
34.55535,98654
34.56348,88163
34.57160,80208
34.57973,78397
34.58785,70668
34.59597,70415
34.60410,68741
34.61222,68274
34.62035,62490
34.62847,61128
34.63658,60327
34.64472,58436
34.65283,53263
34.66095,52859
34.66908,54897
34.67720,53625
34.68533,53264
34.69345,50031
34.70157,47467
34.70970,45137
34.71782,49019
34.72595,48772
34.73407,47255
34.74218,46405
34.75032,46240
34.75843,46342
34.76655,43987
34.77468,42994
34.78280,44426
34.79093,42069
34.79905,41480
34.80717,41211
34.81530,46502
34.82342,45365
34.83155,42008
34.83967,43076
34.84778,47075
34.85592,48844
34.86403,50731
34.87217,45894
34.88028,47311
34.88840,47177
34.89653,43361
34.90465,43277
34.91277,46737
34.92090,41898
34.92902,42145
34.93715,42158
34.94527,43647
34.95338,40372
34.96152,41937
34.96963,42442
34.97777,42610
34.98588,41143
34.99400,40509
35.00213,38263
35.01025,40839
35.01838,44387
35.02650,39911
35.03462,43855
35.04275,51038
35.05087,51854
35.05898,53827
35.06712,52527
35.07523,51305
35.08337,51558
35.09148,46925
35.09960,51302
35.10773,45945
35.11585,43631
35.12398,40971
35.13210,41530
35.14022,40996
35.14835,43004
35.15647,40609
35.16460,41929
35.17272,40672
35.18083,45249
35.18897,39212
35.19708,48150
35.20520,39407
35.21333,45977
35.22145,42302
35.22958,39735
35.23770,39741
35.24582,41890
35.25395,43810
35.26207,41297
35.27020,44537
35.27832,43530
35.28643,38473
35.29457,40373
35.30268,39058
35.31080,40659
35.31893,41467
35.32705,43828
35.33518,38151
35.34330,38741
35.35142,39578
35.35955,39917
35.36767,39017
35.37580,38608
35.38392,40541
35.39203,36549
35.40017,41954
35.40828,43625
35.41642,43714
35.42453,39273
35.43265,44522
35.44078,43430
35.44890,49636
35.45702,47640
35.46515,42563
35.47327,45499
35.48140,44521
35.48952,45515
35.49763,46527
35.50577,48694
35.51388,40806
35.52202,40222
35.53013,45059
35.53825,46891
35.54638,47877
35.55450,56798
35.56262,61800
35.57075,71497
35.57887,79822
35.58700,80123
35.59512,76824
35.60323,67405
35.61137,56159
35.61948,55259
35.62762,45536
35.63573,52319
35.64385,46045
35.65198,44607
35.66010,47391
35.66823,45418
35.67635,47025
35.68447,46119
35.69260,45090
35.70072,44181
35.70883,46770
35.71697,41583
35.72508,43435
35.73322,41122
35.74133,46915
35.74945,41524
35.75758,44281
35.76570,44635
35.77383,42474
35.78195,43115
35.79007,45467
35.79820,48577
35.80632,47979
35.81445,48208
35.82257,46331
35.83068,49634
35.83882,45877
35.84693,45522
35.85505,46237
35.86318,42145
35.87130,43539
35.87943,47883
35.88755,44584
35.89567,36975
35.90380,44019
35.91192,40939
35.92005,44165
35.92817,42711
35.93628,40541
35.94442,42459
35.95253,43062
35.96065,38906
35.96878,42769
35.97690,42258
35.98503,43738
35.99315,47755
36.00127,46261
36.00940,51029
36.01752,52169
36.02565,46508
36.03377,44567
36.04188,45772
36.05002,48783
36.05813,44813
36.06627,44528
36.07438,46609
36.08250,42398
36.09063,44761
36.09875,44128
36.10687,43202
36.11500,42392
36.12312,43918
36.13125,45115
36.13937,43204
36.14748,42756
36.15562,46799
36.16373,43406
36.17187,39262
36.17998,44374
36.18810,46566
36.19623,49665
36.20435,55713
36.21248,68042
36.22060,73851
36.22872,75847
36.23685,75361
36.24497,66806
36.25308,61800
36.26122,53535
36.26933,53086
36.27747,46354
36.28558,45462
36.29370,46798
36.30183,42339
36.30995,45400
36.31808,46030
36.32620,44720
36.33432,46843
36.34245,44027
36.35057,47149
36.35868,44091
36.36682,44953
36.37493,47854
36.38307,45194
36.39118,48370
36.39930,46712
36.40743,43723
36.41555,45696
36.42368,42933
36.43180,44635
36.43992,46195
36.44805,46963
36.45617,50585
36.46430,46651
36.47242,44096
36.48053,49175
36.48867,45318
36.49678,47584
36.50490,45850
36.51303,46875
36.52115,46597
36.52928,48537
36.53740,51066
36.54552,53779
36.55365,56490
36.56177,60850
36.56990,57591
36.57802,58181
36.58613,51428
36.59427,49345
36.60238,48187
36.61050,47567
36.61863,49718
36.62675,46185
36.63488,46675
36.64300,43719
36.65112,49368
36.65925,46430
36.66737,45475
36.67550,46380
36.68362,46251
36.69173,45195
36.69987,46130
36.70798,47798
36.71612,44733
36.72423,43587
36.73235,44962
36.74048,42220
36.74860,44228
36.75672,44906
36.76485,45466
36.77297,47537
36.78110,47755
36.78922,47851
36.79733,44810
36.80547,46639
36.81358,44011
36.82172,40956
36.82983,44884
36.83795,47272
36.84608,41205
36.85420,48590
36.86233,44525
36.87045,45331
36.87857,44537
36.88670,42210
36.89482,45460
36.90293,46325
36.91107,50030
36.91918,45938
36.92732,48575
36.93543,46629
36.94355,48640
36.95168,47985
36.95980,52416
36.96793,44822
36.97605,44078
36.98417,44976
36.99230,45480
37.00042,48012
37.00853,46816
37.01667,43865
37.02478,46230
37.03292,46959
37.04103,50532
37.04915,47590
37.05728,51611
37.06540,46536
37.07353,51749
37.08165,50665
37.08977,59648
37.09790,53950
37.10602,54357
37.11415,51865
37.12227,51257
37.13038,45549
37.13852,47685
37.14663,50503
37.15475,51517
37.16288,51924
37.17100,43831
37.17913,50337
37.18725,43629
37.19537,48548
37.20350,49880
37.21162,59192
37.21975,63056
37.22787,83854
37.23598,105783
37.24412,143962
37.25223,180156
37.26037,216953
37.26848,230121
37.27660,224681
37.28473,209182
37.29285,182913
37.30097,151463
37.30910,136421
37.31722,118928
37.32535,104722
37.33347,94713
37.34158,89121
37.34972,89125
37.35783,85818
37.36597,78212
37.37408,75321
37.38220,78526
37.39033,67628
37.39845,63305
37.40657,67317
37.41470,65098
37.42282,64051
37.43095,61084
37.43907,61357
37.44718,61196
37.45532,66337
37.46343,65852
37.47157,64600
37.47968,56565
37.48780,62337
