Z:\data\JTB-E02\BACandBLUE\JTB-E02-204-13.D Sat Mar 09 11:57:29 2019
Start of data points
2.09530	68691
2.10342	67246
2.11155	64832
2.11967	67957
2.12780	66246
2.13592	64451
2.14403	68927
2.15217	64353
2.16028	68122
2.16842	67919
2.17653	61686
2.18465	72774
2.19278	62586
2.20090	61148
2.20902	57804
2.21715	58449
2.22527	58451
2.23340	57166
2.24152	57460
2.24963	60436
2.25777	61515
2.26588	291534
2.27402	1300964
2.28213	1730115
2.29025	936725
2.29838	521510
2.30650	405726
2.31462	363825
2.32275	305618
2.33087	274221
2.33900	257163
2.34712	227416
2.35523	210336
2.36337	196976
2.37148	182865
2.37962	179895
2.38773	176150
2.39585	157865
2.40398	152134
2.41210	155436
2.42023	161949
2.42835	155720
2.43647	144733
2.44460	145604
2.45272	144339
2.46083	132047
2.46897	128949
2.47708	128297
2.48522	130668
2.49333	133137
2.50145	127066
2.50958	123633
2.51770	126728
2.52583	120009
2.53395	119920
2.54207	127948
2.55020	151669
2.55832	270372
2.56643	339741
2.57457	261850
2.58268	215633
2.59082	190192
2.59893	295768
2.60705	946530
2.61518	1521884
2.62330	1091237
2.63143	657069
2.63955	462657
2.64767	363495
2.65580	298177
2.66392	260420
2.67205	226966
2.68017	196767
2.68828	184858
2.69642	168599
2.70453	157716
2.71265	150664
2.72078	150640
2.72890	135135
2.73703	133268
2.74515	130357
2.75327	127023
2.76140	121512
2.76952	158637
2.77765	532773
2.78577	1335553
2.79388	1364134
2.80202	778996
2.81013	534805
2.81827	459934
2.82638	413469
2.83450	344174
2.84263	303840
2.85075	261607
2.85887	236951
2.86700	221254
2.87512	204737
2.88325	200075
2.89137	187653
2.89948	173457
2.90762	161988
2.91573	155903
2.92387	148933
2.93198	142736
2.94010	146179
2.94823	142047
2.95635	158123
2.96447	182195
2.97260	187622
2.98072	158848
2.98885	152184
2.99697	144412
3.00508	149290
3.01322	145456
3.02133	136770
3.02947	131661
3.03758	123338
3.04570	119113
3.05383	119815
3.06195	124529
3.07008	141231
3.07820	410564
3.08632	1858904
3.09445	4255604
3.10257	6074720
3.11068	7437321
3.11882	6332762
3.12693	4073801
3.13507	2882652
3.14318	2301774
3.15130	1859230
3.15943	1566676
3.16755	1371205
3.17568	1242482
3.18380	1408761
3.19192	2049681
3.20005	2313982
3.20817	1811999
3.21630	1371268
3.22442	1145063
3.23253	996768
3.24067	888540
3.24878	799086
3.25690	711764
3.26503	643573
3.27315	596917
3.28128	609054
3.28940	1000152
3.29752	2668603
3.30565	5914004
3.31377	8224603
3.32190	7618480
3.33002	5484159
3.33813	3807467
3.34627	2885265
3.35438	2326634
3.36250	1962046
3.37063	1677174
3.37875	1472304
3.38688	1314553
3.39500	1193846
3.40312	1079622
3.41125	990904
3.41937	934839
3.42750	869658
3.43562	839468
3.44373	778988
3.45187	738495
3.45998	698762
3.46812	687491
3.47623	674440
3.48435	642542
3.49248	614792
3.50060	572296
3.50872	548021
3.51685	528362
3.52497	498607
3.53310	517263
3.54122	499591
3.54933	511892
3.55747	483706
3.56558	564700
3.57372	792909
3.58183	883168
3.58995	748650
3.59808	610569
3.60620	541778
3.61433	497861
3.62245	500961
3.63057	485274
3.63870	460010
3.64682	438831
3.65493	517337
3.66307	1757708
3.67118	7182750
3.67932	1.52899E+07
3.68743	1.699694E+07
3.69555	1.209573E+07
3.70368	7423339
3.71180	5335559
3.71993	4338141
3.72805	3661843
3.73617	3187754
3.74430	2837138
3.75242	2529679
3.76053	2309162
3.76867	2085303
3.77678	1920087
3.78492	1835216
3.79303	1747260
3.80115	1960731
3.80928	3038956
3.81740	4373058
3.82553	4413543
3.83365	3373392
3.84177	2572050
3.84990	2164378
3.85802	1915970
3.86615	1730883
3.87427	1621834
3.88238	1500475
3.89052	1393408
3.89863	1315348
3.90675	1236366
3.91488	1239418
3.92300	1337983
3.93113	1441319
3.93925	1445571
3.94737	1781737
3.95550	3528286
3.96362	6646262
3.97175	8240370
3.97987	6765080
3.98798	4679554
3.99612	5569516
4.00423	1.378263E+07
4.01235	2.796892E+07
4.02048	3.510711E+07
4.02860	2.927995E+07
4.03673	1.749831E+07
4.04485	9616096
4.05297	6428709
4.06110	4834044
4.06922	3860928
4.07735	3242459
4.08547	2747328
4.09358	2409855
4.10172	2128475
4.10983	1899809
4.11797	1735229
4.12608	1600169
4.13420	1489003
4.14233	1394237
4.15045	1366085
4.15857	1302363
4.16670	1239106
4.17482	1235160
4.18295	1180843
4.19107	1107046
4.19918	1043662
4.20732	1231793
4.21543	2712676
4.22357	7205606
4.23168	1.366799E+07
4.23980	1.782642E+07
4.24793	1.711684E+07
4.25605	1.256766E+07
4.26418	8617163
4.27230	6310402
4.28042	4812875
4.28855	3798439
4.29667	3133724
4.30478	2625960
4.31292	2235751
4.32103	1951725
4.32917	1715015
4.33728	1553125
4.34540	1432866
4.35353	1359256
4.36165	1298558
4.36978	1283662
4.37790	1208679
4.38602	1120629
4.39415	1009414
4.40227	937857
4.41038	882975
4.41852	839465
4.42663	806813
4.43477	774399
4.44288	737328
4.45100	701972
4.45913	681819
4.46725	646326
4.47538	630169
4.48350	606210
4.49162	608026
4.49975	582985
4.50787	568982
4.51600	574491
4.52412	545448
4.53223	536985
4.54037	536167
4.54848	528764
4.55660	534119
4.56473	517794
4.57285	493977
4.58098	477586
4.58910	458422
4.59722	462050
4.60535	449282
4.61347	450940
4.62160	481949
4.62972	602212
4.63783	789033
4.64597	927651
4.65408	891151
4.66222	728694
4.67033	610187
4.67845	555909
4.68658	536700
4.69470	490935
4.70282	458593
4.71095	436928
4.71907	418133
4.72720	398263
4.73532	399900
4.74343	383652
4.75157	372371
4.75968	368569
4.76782	362307
4.77593	359103
4.78405	355005
4.79218	394864
4.80030	470398
4.80842	561738
4.81655	567429
4.82467	516856
4.83280	477863
4.84092	462096
4.84903	492495
4.85717	505673
4.86528	465436
4.87342	437072
4.88153	394958
4.88965	368280
4.89778	356104
4.90590	340562
4.91403	336038
4.92215	329159
4.93027	347144
4.93840	417831
4.94652	693516
4.95463	1334954
4.96277	2216455
4.97088	2901676
4.97902	2898071
4.98713	2409664
4.99525	1808198
5.00338	1397340
5.01150	1132777
5.01963	1001430
5.02775	930198
5.03587	953546
5.04400	1009868
5.05212	986774
5.06023	884049
5.06837	767939
5.07648	710227
5.08462	654809
5.09273	607433
5.10085	584535
5.10898	580688
5.11710	530579
5.12523	521172
5.13335	487292
5.14147	479576
5.14960	504844
5.15772	557061
5.16585	621667
5.17397	662776
5.18208	622799
5.19022	569181
5.19833	549987
5.20645	581162
5.21458	603308
5.22270	595224
5.23083	544603
5.23895	508372
5.24707	490937
5.25520	457062
5.26332	428674
5.27145	385472
5.27957	380323
5.28768	352891
5.29582	349170
5.30393	343609
5.31207	339720
5.32018	346879
5.32830	358644
5.33643	386129
5.34455	415414
5.35267	409902
5.36080	390653
5.36892	361794
5.37705	338016
5.38517	352002
5.39328	367127
5.40142	372172
5.40953	371182
5.41767	357144
5.42578	329718
5.43390	313499
5.44203	312414
5.45015	322604
5.45828	346835
5.46640	340661
5.47452	323616
5.48265	305785
5.49077	288584
5.49888	281315
5.50702	281468
5.51513	280003
5.52327	289969
5.53138	291657
5.53950	293102
5.54763	276466
5.55575	312126
5.56388	395273
5.57200	530534
5.58012	637230
5.58825	666547
5.59637	594158
5.60448	490417
5.61262	408800
5.62073	340595
5.62887	328510
5.63698	323200
5.64510	309815
5.65323	293844
5.66135	277741
5.66948	272552
5.67760	283615
5.68572	330401
5.69385	370316
5.70197	405654
5.71010	380948
5.71822	330986
5.72633	302950
5.73447	276061
5.74258	263140
5.75070	246265
5.75883	249927
5.76695	234275
5.77508	242922
5.78320	224800
5.79132	233870
5.79945	222027
5.80757	225453
5.81570	230334
5.82382	222503
5.83193	215067
5.84007	229188
5.84818	226490
5.85630	222481
5.86443	225524
5.87255	215260
5.88068	212344
5.88880	211203
5.89692	211162
5.90505	196036
5.91317	196692
5.92130	189496
5.92942	202972
5.93753	191341
5.94567	196886
5.95378	207776
5.96192	235028
5.97003	269093
5.97815	325367
5.98628	396826
5.99440	437598
6.00252	428595
6.01065	375208
6.01877	316487
6.02690	278208
6.03502	238497
6.04313	218255
6.05127	200892
6.05938	196771
6.06752	191506
6.07563	184107
6.08375	184590
6.09188	175873
6.10000	180413
6.10812	167734
6.11625	176874
6.12437	187391
6.13250	267105
6.14062	409035
6.14873	528483
6.15687	567025
6.16498	493375
6.17312	383560
6.18123	310354
6.18935	271807
6.19748	254626
6.20560	232961
6.21373	222236
6.22185	206285
6.22997	207538
6.23810	206040
6.24622	200346
6.25433	216205
6.26247	233031
6.27058	228299
6.27872	225517
6.28683	211637
6.29495	207639
6.30308	212489
6.31120	207428
6.31933	201362
6.32745	209267
6.33557	211309
6.34370	215843
6.35182	216928
6.35995	209062
6.36807	204426
6.37618	212756
6.38432	204851
6.39243	208307
6.40055	203512
6.40868	207498
6.41680	193604
6.42493	199225
6.43305	206281
6.44117	201292
6.44930	202754
6.45742	205067
6.46555	207139
6.47367	207135
6.48178	209050
6.48992	204502
6.49803	205506
6.50617	215068
6.51428	208886
6.52240	214021
6.53053	209437
6.53865	208319
6.54677	211496
6.55490	223158
6.56302	232948
6.57115	285437
6.57927	350693
6.58738	425374
6.59552	416580
6.60363	348327
6.61177	284261
6.61988	254824
6.62800	254009
6.63613	244500
6.64425	267139
6.65237	408772
6.66050	829636
6.66862	1544527
6.67675	2084127
6.68487	1963314
6.69298	1406377
6.70112	902430
6.70923	617278
6.71737	482482
6.72548	419996
6.73360	383092
6.74173	367474
6.74985	312992
6.75798	284260
6.76610	274879
6.77422	249712
6.78235	232505
6.79047	225879
6.79858	214518
6.80672	198650
6.81483	193724
6.82297	186556
6.83108	187105
6.83920	188673
6.84733	198688
6.85545	226356
6.86358	247182
6.87170	265639
6.87982	254363
6.88795	212961
6.89607	175694
6.90418	152497
6.91232	140066
6.92043	127204
6.92857	128754
6.93668	128950
6.94480	124634
6.95293	123325
6.96105	130478
6.96918	147866
6.97730	184044
6.98542	213306
6.99355	208000
7.00167	189848
7.00980	158814
7.01792	145820
7.02603	139123
7.03417	129291
7.04228	142332
7.05040	135729
7.05853	142224
7.06665	144702
7.07478	152200
7.08290	144627
7.09102	137369
7.09915	129453
7.10727	121719
7.11540	119833
7.12352	115814
7.13163	112201
7.13977	120811
7.14788	142909
7.15602	188062
7.16413	238592
7.17225	264563
7.18038	248883
7.18850	205474
7.19662	172081
7.20475	175106
7.21287	281929
7.22100	653099
7.22912	1420418
7.23723	2218266
7.24537	2611384
7.25348	2224202
7.26162	1447153
7.26973	893158
7.27785	573859
7.28598	378908
7.29410	258053
7.30222	174985
7.31035	142934
7.31847	145329
7.32660	137472
7.33472	135807
7.34283	142243
7.35097	132424
7.35908	117789
7.36722	119913
7.37533	119457
7.38345	119697
7.39158	123649
7.39970	118601
7.40783	119458
7.41595	125375
7.42407	113111
7.43220	110924
7.44032	110053
7.44843	101543
7.45657	106225
7.46468	110793
7.47282	105284
7.48093	103406
7.48905	100346
7.49718	93325
7.50530	95530
7.51343	107808
7.52155	143087
7.52967	223574
7.53780	385258
7.54592	619697
7.55405	889568
7.56217	1083511
7.57028	1066297
7.57842	949591
7.58653	724581
7.59465	507903
7.60278	353838
7.61090	247498
7.61903	204668
7.62715	160798
7.63527	149432
7.64340	128535
7.65152	116007
7.65965	111667
7.66777	112886
7.67588	103052
7.68402	101358
7.69213	98487
7.70025	95964
7.70838	93596
7.71650	96155
7.72463	100804
7.73275	91841
7.74087	89418
7.74900	89785
7.75712	92278
7.76525	94247
7.77337	102101
7.78148	106667
7.78962	108137
7.79773	119086
7.80587	132425
7.81398	141965
7.82210	138279
7.83023	128884
7.83835	121088
7.84647	103841
7.85460	106630
7.86272	102517
7.87085	109274
7.87897	124052
7.88708	126446
7.89522	134862
7.90333	127787
7.91147	119083
7.91958	120458
7.92770	145336
7.93583	226140
7.94395	354705
7.95207	419611
7.96020	421568
7.96832	352412
7.97645	264186
7.98457	184803
7.99268	147081
8.00082	121182
8.00893	111122
8.01707	99607
8.02518	95343
8.03330	97503
8.04143	93545
8.04955	90516
8.05768	91986
8.06580	93662
8.07392	88314
8.08205	84880
8.09017	86641
8.09828	85784
8.10642	84760
8.11453	78843
8.12267	79420
8.13078	84870
8.13890	93917
8.14703	110788
8.15515	120969
8.16328	128893
8.17140	124259
8.17952	107688
8.18765	95250
8.19577	88586
8.20390	83390
8.21202	81515
8.22013	82834
8.22827	73605
8.23638	77663
8.24450	73259
8.25263	79773
8.26075	69890
8.26888	72429
8.27700	70650
8.28512	74858
8.29325	70791
8.30137	81376
8.30950	79887
8.31762	92917
8.32573	89944
8.33387	89439
8.34198	92434
8.35010	84236
8.35823	82746
8.36635	79203
8.37448	76621
8.38260	87656
8.39072	75699
8.39885	81527
8.40697	76724
8.41510	72150
8.42322	75451
8.43133	68942
8.43947	69541
8.44758	65903
8.45572	70009
8.46383	70514
8.47195	70433
8.48008	68839
8.48820	72558
8.49632	68087
8.50445	63040
8.51257	67431
8.52070	74209
8.52882	106538
8.53693	185740
8.54507	309746
8.55318	450606
8.56132	494148
8.56943	454042
8.57755	310376
8.58568	205688
8.59380	146977
8.60193	121646
8.61005	114095
8.61817	106237
8.62630	106139
8.63442	96006
8.64253	91275
8.65067	89023
8.65878	93711
8.66692	81817
8.67503	80372
8.68315	79900
8.69128	76613
8.69940	75107
8.70753	78019
8.71565	79535
8.72377	71928
8.73190	76692
8.74002	78059
8.74813	71753
8.75627	72225
8.76438	87381
8.77252	128235
8.78063	225901
8.78875	340707
8.79688	480187
8.80500	544420
8.81313	496294
8.82125	403951
8.82937	293903
8.83750	238819
8.84562	219098
8.85375	205179
8.86187	208533
8.86998	206417
8.87812	196165
8.88623	188481
8.89435	181295
8.90248	170985
8.91060	158962
8.91873	151606
8.92685	151155
8.93497	158274
8.94310	175091
8.95122	191973
8.95935	206814
8.96747	195511
8.97558	181644
8.98372	168157
8.99183	169460
8.99997	155839
9.00808	148950
9.01620	143957
9.02433	128995
9.03245	122453
9.04057	118662
9.04870	112611
9.05682	116324
9.06495	110177
9.07307	107714
9.08118	109784
9.08932	118598
9.09743	115970
9.10557	136238
9.11368	152832
9.12180	170887
9.12993	172261
9.13805	168885
9.14617	144194
9.15430	132348
9.16242	117899
9.17055	117656
9.17867	111654
9.18678	97739
9.19492	100524
9.20303	100817
9.21117	95313
9.21928	103312
9.22740	93568
9.23553	97577
9.24365	104933
9.25178	103464
9.25990	96503
9.26802	100933
9.27615	96672
9.28427	100890
9.29238	98154
9.30052	87404
9.30863	91035
9.31677	88020
9.32488	84971
9.33300	95253
9.34113	95075
9.34925	85494
9.35738	86627
9.36550	93506
9.37362	83616
9.38175	81993
9.38987	83150
9.39798	85422
9.40612	86432
9.41423	96581
9.42237	115313
9.43048	131805
9.43860	158058
9.44673	156926
9.45485	145844
9.46298	136263
9.47110	115876
9.47922	102825
9.48735	97325
9.49547	86453
9.50360	84445
9.51172	96950
9.51983	103397
9.52797	112460
9.53608	117256
9.54420	124482
9.55233	109407
9.56045	99514
9.56858	93873
9.57670	95849
9.58482	101144
9.59295	107902
9.60107	110615
9.60920	95176
9.61732	91078
9.62543	83793
9.63357	71925
9.64168	75757
9.64982	65324
9.65793	64340
9.66605	64433
9.67418	59971
9.68230	63259
9.69042	61966
9.69855	61170
9.70667	57358
9.71480	54435
9.72292	57099
9.73103	59812
9.73917	64515
9.74728	52198
9.75542	57441
9.76353	57670
9.77165	50171
9.77978	54512
9.78790	53705
9.79602	54397
9.80415	53560
9.81227	54358
9.82040	55606
9.82852	59143
9.83663	51663
9.84477	50062
9.85288	54504
9.86102	60143
9.86913	59020
9.87725	59118
9.88538	61000
9.89350	68328
9.90163	57134
9.90975	55377
9.91787	54079
9.92600	56041
9.93412	64325
9.94223	83493
9.95037	99887
9.95848	122524
9.96662	138482
9.97473	127387
9.98285	121825
9.99098	95199
9.99910	95055
10.00723	94170
10.01535	85324
10.02347	90673
10.03160	82152
10.03972	90040
10.04785	83595
10.05597	68767
10.06408	67338
10.07222	65788
10.08033	67942
10.08845	73671
10.09658	79490
10.10470	85567
10.11283	75999
10.12095	79163
10.12907	71684
10.13720	66670
10.14532	62897
10.15345	60099
10.16157	56702
10.16968	59450
10.17782	59779
10.18593	56537
10.19405	52919
10.20218	55270
10.21030	54866
10.21843	52070
10.22655	54126
10.23467	61059
10.24280	66137
10.25092	69983
10.25905	87948
10.26717	134815
10.27528	286942
10.28342	672863
10.29153	1363283
10.29967	2332119
10.30778	3337713
10.31590	4599108
10.32403	6663741
10.33215	9473990
10.34027	1.209915E+07
10.34840	1.296674E+07
10.35652	1.090046E+07
10.36465	7419034
10.37277	4180730
10.38088	2406624
10.38902	1513008
10.39713	1024209
10.40527	749269
10.41338	552321
10.42150	439229
10.42963	362744
10.43775	328497
10.44587	311455
10.45400	292110
10.46212	293100
10.47025	274396
10.47837	251632
10.48648	240482
10.49462	214359
10.50273	200052
10.51087	186747
10.51898	184040
10.52710	187174
10.53523	164488
10.54335	169430
10.55148	168914
10.55960	161084
10.56772	153303
10.57585	155365
10.58397	150633
10.59208	141593
10.60022	137120
10.60833	134263
10.61647	126712
10.62458	128780
10.63270	121438
10.64083	109867
10.64895	111068
10.65708	104099
10.66520	111278
10.67332	111993
10.68145	111691
10.68957	104671
10.69770	104727
10.70582	111867
10.71393	108325
10.72207	105514
10.73018	105136
10.73830	96529
10.74643	101579
10.75455	100546
10.76268	104685
10.77080	106728
10.77892	96150
10.78705	90284
10.79517	87758
10.80330	86233
10.81142	88398
10.81953	92299
10.82767	102524
10.83578	94487
10.84390	83577
10.85203	83723
10.86015	80652
10.86828	74018
10.87640	71759
10.88452	72591
10.89265	76679
10.90077	70619
10.90890	75914
10.91702	68562
10.92513	70667
10.93327	69927
10.94138	69373
10.94952	69652
10.95763	68680
10.96575	73516
10.97388	71322
10.98200	68954
10.99012	75444
10.99825	71811
11.00637	70648
11.01450	76855
11.02262	69294
11.03073	67496
11.03887	65656
11.04698	64875
11.05512	60032
11.06323	64355
11.07135	60297
11.07948	69094
11.08760	70926
11.09573	74191
11.10385	70023
11.11197	76076
11.12010	68001
11.12822	64198
11.13633	60391
11.14447	56587
11.15258	55253
11.16072	55475
11.16883	56552
11.17695	60753
11.18508	66105
11.19320	66885
11.20133	71585
11.20945	68065
11.21757	65605
11.22570	64349
11.23382	57182
11.24193	56754
11.25007	56315
11.25818	52685
11.26632	54496
11.27443	54493
11.28255	49753
11.29068	50788
11.29880	57736
11.30693	80708
11.31505	128677
11.32317	226767
11.33130	373291
11.33942	534088
11.34755	661062
11.35567	687663
11.36378	606200
11.37192	455166
11.38003	316498
11.38815	212992
11.39628	170366
11.40440	139389
11.41253	138333
11.42065	129565
11.42877	130451
11.43690	124829
11.44502	103994
11.45315	105032
11.46127	93710
11.46938	96286
11.47752	103171
11.48563	117699
11.49375	157315
11.50188	185027
11.51000	201408
11.51813	203298
11.52625	170009
11.53437	151276
11.54250	125851
11.55062	117862
11.55875	106308
11.56687	108343
11.57498	103334
11.58312	92577
11.59123	101785
11.59937	94538
11.60748	109487
11.61560	145327
11.62373	172635
11.63185	179345
11.63997	181335
11.64810	147301
11.65622	115610
11.66435	99901
11.67247	86370
11.68058	81375
11.68872	77561
11.69683	75618
11.70497	75145
11.71308	76256
11.72120	80751
11.72933	73694
11.73745	74766
11.74558	74102
11.75370	72333
11.76182	67498
11.76995	71732
11.77807	63772
11.78618	65714
11.79432	60904
11.80243	62339
11.81057	60524
11.81868	56980
11.82680	65103
11.83493	64731
11.84305	63136
11.85118	75874
11.85930	80668
11.86742	89826
11.87555	91156
11.88367	84377
11.89180	79971
11.89992	64124
11.90803	61641
11.91617	64561
11.92428	63850
11.93240	58971
11.94053	64534
11.94865	61417
11.95678	62375
11.96490	61557
11.97302	54999
11.98115	48595
11.98927	57544
11.99740	61991
12.00552	65633
12.01363	84380
12.02177	98980
12.02988	82544
12.03800	83587
12.04613	69606
12.05425	65439
12.06238	60717
12.07050	57028
12.07862	57691
12.08675	64501
12.09487	59101
12.10300	62302
12.11112	74614
12.11923	96503
12.12737	116463
12.13548	150476
12.14362	147676
12.15173	152029
12.15985	126534
12.16798	100301
12.17610	80220
12.18422	67264
12.19235	60244
12.20047	63500
12.20860	63704
12.21672	74235
12.22483	64282
12.23297	64930
12.24108	65335
12.24922	64942
12.25733	60007
12.26545	62147
12.27358	60144
12.28170	57119
12.28982	56851
12.29795	56827
12.30607	55138
12.31420	53970
12.32232	55298
12.33043	54361
12.33857	53912
12.34668	53362
12.35482	52964
12.36293	50456
12.37105	48725
12.37918	60490
12.38730	54749
12.39543	56755
12.40355	59336
12.41167	70877
12.41980	87058
12.42792	113048
12.43603	130680
12.44417	134378
12.45228	122059
12.46042	109001
12.46853	92577
12.47665	79923
12.48478	77128
12.49290	67953
12.50103	63669
12.50915	60806
12.51727	59879
12.52540	58759
12.53352	58589
12.54165	63068
12.54977	64598
12.55788	71528
12.56602	80429
12.57413	94710
12.58225	93408
12.59038	82174
12.59850	74382
12.60663	66694
12.61475	63464
12.62287	59835
12.63100	58041
12.63912	53031
12.64725	56343
12.65537	51992
12.66348	54116
12.67162	51440
12.67973	53055
12.68785	51113
12.69598	48807
12.70410	50648
12.71223	49768
12.72035	57132
12.72847	59303
12.73660	63898
12.74472	68181
12.75285	70958
12.76097	63522
12.76908	62673
12.77722	57284
12.78533	49825
12.79347	50303
12.80158	58577
12.80970	45061
12.81783	50656
12.82595	41607
12.83407	50060
12.84220	44151
12.85032	41533
12.85845	41626
12.86657	44753
12.87468	39015
12.88282	43226
12.89093	45151
12.89907	39657
12.90718	41217
12.91530	41331
12.92343	41724
12.93155	43697
12.93968	39624
12.94780	42745
12.95592	44822
12.96405	41985
12.97217	45071
12.98028	51673
12.98842	48241
12.99653	52536
13.00467	49958
13.01278	48380
13.02090	47054
13.02903	46212
13.03715	42094
13.04528	44474
13.05340	45017
13.06152	44037
13.06965	46065
13.07777	42584
13.08588	44137
13.09402	44808
13.10213	46572
13.11027	45652
13.11838	49056
13.12650	42064
13.13463	42864
13.14275	39703
13.15088	42017
13.15900	42117
13.16712	45059
13.17525	49443
13.18337	45563
13.19150	46968
13.19962	44658
13.20773	52832
13.21587	45396
13.22398	51279
13.23210	51960
13.24023	50640
13.24835	49016
13.25648	49552
13.26460	45338
13.27272	43154
13.28085	43822
13.28897	45780
13.29710	42727
13.30522	39092
13.31333	41043
13.32147	41276
13.32958	43943
13.33770	37931
13.34583	35462
13.35395	37907
13.36208	39741
13.37020	40952
13.37832	42683
13.38645	39684
13.39457	46696
13.40270	40145
13.41082	37114
13.41893	40660
13.42707	38498
13.43518	43277
13.44332	38529
13.45143	36420
13.45955	47627
13.46768	44254
13.47580	40240
13.48392	41516
13.49205	42442
13.50017	42150
13.50830	43101
13.51642	41238
13.52453	41588
13.53267	40283
13.54078	42392
13.54892	43538
13.55703	45754
13.56515	41241
13.57328	45441
13.58140	49377
13.58953	48556
13.59765	44748
13.60577	50921
13.61390	50646
13.62202	52117
13.63013	57013
13.63827	62150
13.64638	54308
13.65452	49832
13.66263	43929
13.67075	37070
13.67888	39399
13.68700	41838
13.69513	39452
13.70325	40245
13.71137	44270
13.71950	41984
13.72762	40307
13.73573	43515
13.74387	45091
13.75198	51847
13.76012	66979
13.76823	84702
13.77635	116805
13.78448	154808
13.79260	190027
13.80073	202075
13.80885	201840
13.81697	211458
13.82510	236246
13.83322	247402
13.84135	260656
13.84947	263865
13.85758	240709
13.86572	199729
13.87383	170958
13.88195	140859
13.89008	114429
13.89820	96311
13.90633	92386
13.91445	77987
13.92257	74716
13.93070	67699
13.93882	68099
13.94695	67886
13.95507	68451
13.96318	75487
13.97132	103193
13.97943	122512
13.98757	157189
13.99568	174552
14.00380	169536
14.01193	148759
14.02005	114433
14.02817	98033
14.03630	89913
14.04442	77598
14.05255	73861
14.06067	70807
14.06878	65334
14.07692	65446
14.08503	64866
14.09317	62679
14.10128	60609
14.10940	58086
14.11753	59578
14.12565	55971
14.13377	56964
14.14190	58007
14.15002	56439
14.15815	64184
14.16627	64328
14.17438	65315
14.18252	62217
14.19063	63359
14.19877	83525
14.20688	102612
14.21500	132357
14.22313	167370
14.23125	195685
14.23938	204246
14.24750	196175
14.25562	198817
14.26375	180780
14.27187	164260
14.27998	145115
14.28812	127403
14.29623	114251
14.30437	102601
14.31248	97276
14.32060	93469
14.32873	85654
14.33685	87477
14.34498	88732
14.35310	77371
14.36122	77533
14.36935	71782
14.37747	66405
14.38560	59928
14.39372	55459
14.40183	55891
14.40997	61094
14.41808	64230
14.42620	70128
14.43433	73972
14.44245	70261
14.45058	66183
14.45870	61515
14.46682	55542
14.47495	59613
14.48307	55439
14.49120	59752
14.49932	53473
14.50743	56613
14.51557	53456
14.52368	52482
14.53180	48905
14.53993	55285
14.54805	57165
14.55618	51208
14.56430	53301
14.57242	45510
14.58055	45615
14.58867	50086
14.59680	45066
14.60492	44980
14.61303	45789
14.62117	42815
14.62928	41097
14.63742	40620
14.64553	42990
14.65365	43145
14.66178	44393
14.66990	39887
14.67802	41222
14.68615	41765
14.69427	39082
14.70240	37928
14.71052	39864
14.71863	43000
14.72677	40662
14.73488	44234
14.74302	50425
14.75113	43513
14.75925	45506
14.76738	44980
14.77550	46395
14.78362	44847
14.79175	62836
14.79987	113607
14.80800	289600
14.81612	737710
14.82423	1612165
14.83237	2873320
14.84048	4038504
14.84862	4391499
14.85673	3864450
14.86485	2904491
14.87298	1805833
14.88110	1127035
14.88923	691430
14.89735	494311
14.90547	386316
14.91360	336191
14.92172	287826
14.92983	271257
14.93797	246436
14.94608	222128
14.95422	209882
14.96233	185938
14.97045	172722
14.97858	170924
14.98670	163456
14.99483	160396
15.00295	149270
15.01107	143762
15.01920	133366
15.02732	128549
15.03545	130012
15.04357	122931
15.05168	125679
15.05982	113000
15.06793	108506
15.07605	106230
15.08418	106278
15.09230	98337
15.10043	92263
15.10855	97829
15.11667	89592
15.12480	94750
15.13292	94133
15.14105	98461
15.14917	111926
15.15728	108104
15.16542	107697
15.17353	100380
15.18165	86226
15.18978	70609
15.19790	68492
15.20603	60864
15.21415	63474
15.22227	61435
15.23040	64973
15.23852	59361
15.24665	55257
15.25477	49477
15.26288	48987
15.27102	54026
15.27913	51527
15.28727	48253
15.29538	47733
15.30350	46900
15.31163	47997
15.31975	48674
15.32787	46093
15.33600	46222
15.34412	48478
15.35225	53352
15.36037	50192
15.36848	48603
15.37662	51060
15.38473	52577
15.39287	47746
15.40098	44013
15.40910	46665
15.41723	47327
15.42535	46984
15.43348	43139
15.44160	43330
15.44972	42742
15.45785	43386
15.46597	51183
15.47408	59104
15.48222	64487
15.49033	79181
15.49847	98893
15.50658	114943
15.51470	121343
15.52283	120621
15.53095	115606
15.53908	111372
15.54720	91246
15.55532	89230
15.56345	84504
15.57157	76767
15.57968	67337
15.58782	58908
15.59593	57932
15.60407	59420
15.61218	53797
15.62030	58549
15.62843	56419
15.63655	50787
15.64468	50078
15.65280	50964
15.66092	47094
15.66905	46255
15.67717	47016
15.68530	45595
15.69342	45937
15.70153	48844
15.70967	45712
15.71778	43222
15.72590	46493
15.73403	41416
15.74215	45541
15.75028	54031
15.75840	58105
15.76652	74403
15.77465	104322
15.78277	162761
15.79090	233478
15.79902	298004
15.80713	305645
15.81527	266787
15.82338	209679
15.83150	149279
15.83963	108922
15.84775	90064
15.85588	78066
15.86400	69634
15.87212	73378
15.88025	66981
15.88837	64586
15.89650	63662
15.90462	66519
15.91273	64918
15.92087	61680
15.92898	50949
15.93712	57852
15.94523	57106
15.95335	59969
15.96148	57875
15.96960	62214
15.97772	71924
15.98585	74415
15.99397	81939
16.00210	76391
16.01022	84107
16.01833	87605
16.02647	89155
16.03458	93901
16.04272	93678
16.05083	88879
16.05895	80413
16.06708	69663
16.07520	63510
16.08333	61394
16.09145	57890
16.09957	57560
16.10770	53844
16.11582	53134
16.12393	52373
16.13207	54709
16.14018	59311
16.14832	61055
16.15643	56656
16.16455	63104
16.17268	57523
16.18080	58887
16.18893	59466
16.19705	52632
16.20517	51248
16.21330	54188
16.22142	54868
16.22955	52321
16.23767	48399
16.24578	52747
16.25392	46842
16.26203	46189
16.27015	51157
16.27828	53591
16.28640	53224
16.29453	51000
16.30265	56628
16.31077	58234
16.31890	59739
16.32702	53061
16.33515	55340
16.34327	60732
16.35138	56142
16.35952	66432
16.36763	66997
16.37575	81862
16.38388	89062
16.39200	92173
16.40013	84758
16.40825	80350
16.41637	73619
16.42450	63714
16.43262	58959
16.44075	59870
16.44887	73036
16.45698	95236
16.46512	178156
16.47323	346293
16.48137	569101
16.48948	829491
16.49760	937083
16.50573	843350
16.51385	627477
16.52197	418968
16.53010	260377
16.53822	181305
16.54635	137281
16.55447	118559
16.56258	98955
16.57072	94902
16.57883	96266
16.58697	91051
16.59508	92344
16.60320	82712
16.61133	91444
16.61945	89707
16.62757	88484
16.63570	84328
16.64382	79806
16.65195	76038
16.66007	70771
16.66818	66012
16.67632	63712
16.68443	62275
16.69257	62012
16.70068	57408
16.70880	52657
16.71693	55108
16.72505	57260
16.73318	55255
16.74130	51585
16.74942	52258
16.75755	54841
16.76567	63867
16.77378	61868
16.78192	62465
16.79003	65433
16.79817	56508
16.80628	55321
16.81440	51919
16.82253	46336
16.83065	48271
16.83878	46331
16.84690	52826
16.85502	44309
16.86315	47792
16.87127	41995
16.87940	42901
16.88752	43630
16.89563	43174
16.90377	40130
16.91188	43253
16.92000	39992
16.92813	41703
16.93625	44811
16.94438	49005
16.95250	42541
16.96062	42269
16.96875	40496
16.97687	41635
16.98500	41097
16.99312	40775
17.00123	43060
17.00937	45519
17.01748	41690
17.02560	43307
17.03373	43366
17.04185	44839
17.04998	49270
17.05810	50683
17.06622	52436
17.07435	51041
17.08247	50861
17.09060	48270
17.09872	47085
17.10683	46068
17.11497	45483
17.12308	47221
17.13122	46005
17.13933	46170
17.14745	47524
17.15558	46382
17.16370	48677
17.17182	44876
17.17995	53941
17.18807	38685
17.19620	48141
17.20432	40059
17.21243	44908
17.22057	43518
17.22868	41359
17.23682	38625
17.24493	46997
17.25305	43826
17.26118	46861
17.26930	41780
17.27743	46525
17.28555	47131
17.29367	45071
17.30180	43005
17.30992	41139
17.31803	44281
17.32617	47313
17.33428	49764
17.34242	55919
17.35053	56286
17.35865	58248
17.36678	61821
17.37490	64628
17.38303	57300
17.39115	63871
17.39927	60683
17.40740	60612
17.41552	64135
17.42363	58288
17.43177	53632
17.43988	54841
17.44802	52728
17.45613	52023
17.46425	50481
17.47238	52188
17.48050	48586
17.48863	45757
17.49675	45676
17.50487	44996
17.51300	49579
17.52112	50404
17.52925	47025
17.53737	42063
17.54548	45139
17.55362	48667
17.56173	49274
17.56985	66163
17.57798	87549
17.58610	139066
17.59423	219928
17.60235	327151
17.61047	436662
17.61860	507212
17.62672	509939
17.63485	444838
17.64297	354844
17.65108	283431
17.65922	261361
17.66733	271176
17.67545	278433
17.68358	290151
17.69170	262754
17.69983	219268
17.70795	182006
17.71607	137217
17.72420	123035
17.73232	106697
17.74045	98775
17.74857	88249
17.75668	82618
17.76482	77700
17.77293	71142
17.78107	73276
17.78918	77054
17.79730	72793
17.80543	74930
17.81355	85551
17.82167	105852
17.82980	123082
17.83792	137118
17.84605	141694
17.85417	142884
17.86228	128803
17.87042	120832
17.87853	108143
17.88667	97260
17.89478	90650
17.90290	78175
17.91103	72675
17.91915	64861
17.92728	61010
17.93540	59634
17.94352	58061
17.95165	61160
17.95977	57622
17.96788	54501
17.97602	51036
17.98413	50017
17.99227	49553
18.00038	48481
18.00850	53161
18.01663	53382
18.02475	61325
18.03288	64665
18.04100	78420
18.04912	92420
18.05725	115592
18.06537	165380
18.07348	293355
18.08162	558749
18.08973	995666
18.09787	1456658
18.10598	1735017
18.11410	1770025
18.12223	1456842
18.13035	1093518
18.13848	771860
18.14660	574812
18.15472	443485
18.16285	378384
18.17097	338139
18.17910	301365
18.18722	267363
18.19533	237471
18.20347	216915
18.21158	203322
18.21970	186932
18.22783	177340
18.23595	168319
18.24408	148109
18.25220	145634
18.26032	135439
18.26845	125323
18.27657	121433
18.28470	110177
18.29282	95791
18.30093	85118
18.30907	70258
18.31718	62799
18.32532	61726
18.33343	58393
18.34155	59103
18.34968	56279
18.35780	53090
18.36592	53342
18.37405	53173
18.38217	52961
18.39030	53508
18.39842	53159
18.40653	51765
18.41467	53746
18.42278	51242
18.43092	54610
18.43903	56959
18.44715	71946
18.45528	76763
18.46340	91117
18.47152	123524
18.47965	155918
18.48777	181172
18.49590	193810
18.50402	190361
18.51213	165939
18.52027	141276
18.52838	108389
18.53652	94972
18.54463	78872
18.55275	68201
18.56088	63024
18.56900	65007
18.57713	60293
18.58525	62831
18.59337	60513
18.60150	58697
18.60962	60813
18.61773	63059
18.62587	62578
18.63398	61020
18.64212	62308
18.65023	55620
18.65835	54450
18.66648	62278
18.67460	50358
18.68273	49655
18.69085	51909
18.69897	48672
18.70710	47653
18.71522	53158
18.72335	48083
18.73147	47816
18.73958	46177
18.74772	49604
18.75583	47037
18.76395	44074
18.77208	46240
18.78020	46612
18.78833	44854
18.79645	46370
18.80457	47029
18.81270	48953
18.82082	55270
18.82895	68161
18.83707	104765
18.84518	126106
18.85332	159201
18.86143	174384
18.86955	178241
18.87768	192232
18.88580	193566
18.89393	196066
18.90205	199685
18.91017	200496
18.91830	208366
18.92642	208281
18.93455	215064
18.94267	218256
18.95078	232355
18.95892	220206
18.96703	224355
18.97517	224486
18.98328	221084
18.99140	220007
18.99953	229222
19.00765	217139
19.01577	208143
19.02390	207032
19.03202	206254
19.04015	206785
19.04827	204630
19.05638	197214
19.06452	202855
19.07263	204519
19.08077	200371
19.08888	206969
19.09700	209738
19.10513	232536
19.11325	244392
19.12137	253376
19.12950	254254
19.13762	246506
19.14575	235311
19.15387	222342
19.16198	222534
19.17012	224745
19.17823	221251
19.18637	217680
19.19448	215405
19.20260	223239
19.21073	214428
19.21885	205487
19.22698	206383
19.23510	194889
19.24322	186840
19.25135	185508
19.25947	186510
19.26758	184541
19.27572	180872
19.28383	185155
19.29197	191964
19.30008	197485
19.30820	202390
19.31633	204267
19.32445	197110
19.33258	195594
19.34070	189881
19.34882	190418
19.35695	189375
19.36507	192654
19.37320	212525
19.38132	219887
19.38943	221906
19.39757	227953
19.40568	212458
19.41380	202788
19.42193	175633
19.43005	169831
19.43818	168772
19.44630	168168
19.45442	159294
19.46255	161596
19.47067	159034
19.47880	153574
19.48692	159943
19.49503	162534
19.50317	169726
19.51128	185627
19.51940	221006
19.52753	244536
19.53565	252589
19.54378	253615
19.55190	242252
19.56002	200474
19.56815	180325
19.57627	172922
19.58440	158759
19.59252	147135
19.60063	147618
19.60877	144270
19.61688	143368
19.62502	149906
19.63313	154501
19.64125	161213
19.64938	218524
19.65750	296274
19.66562	415516
19.67375	561013
19.68187	695995
19.69000	732351
19.69812	701097
19.70623	607397
19.71437	494633
19.72248	395833
19.73062	334979
19.73873	278813
19.74685	238880
19.75498	219486
19.76310	210298
19.77123	193301
19.77935	180900
19.78747	183259
19.79560	178484
19.80372	190550
19.81183	195619
19.81997	179810
19.82808	178102
19.83622	171263
19.84433	185642
19.85245	243436
19.86058	548515
19.86870	1484084
19.87683	3917585
19.88495	8649816
19.89307	1.588187E+07
19.90120	2.394762E+07
19.90932	2.999706E+07
19.91743	3.213473E+07
19.92557	2.921603E+07
19.93368	2.343984E+07
19.94182	1.709345E+07
19.94993	1.114605E+07
19.95805	7630480
19.96618	5517083
19.97430	4439091
19.98243	3733691
19.99055	3389341
19.99867	3012974
20.00680	2800436
20.01492	2559828
20.02305	2386396
20.03117	2185290
20.03928	1985658
20.04742	1765130
20.05553	1518285
20.06365	1203230
20.07178	980339
20.07990	746187
20.08803	607862
20.09615	516687
20.10427	444813
20.11240	421464
20.12052	397914
20.12865	373969
20.13677	367873
20.14488	348355
20.15302	338712
20.16113	339946
20.16925	346256
20.17738	350976
20.18550	383700
20.19363	390286
20.20175	393444
20.20987	385846
20.21800	377192
20.22612	346140
20.23425	324367
20.24237	310031
20.25048	317546
20.25862	329505
20.26673	401675
20.27487	478895
20.28298	594526
20.29110	695710
20.29923	742772
20.30735	736377
20.31547	652073
20.32360	524142
20.33172	451016
20.33985	357554
20.34797	298116
20.35608	253380
20.36422	211556
20.37233	194061
20.38047	164537
20.38858	148095
20.39670	135780
20.40483	138563
20.41295	127584
20.42108	132149
20.42920	145219
20.43732	160897
20.44545	174329
20.45357	189346
20.46168	202173
20.46982	198818
20.47793	184116
20.48607	171206
20.49418	164938
20.50230	145574
20.51043	132782
20.51855	123677
20.52668	111049
20.53480	113524
20.54292	120128
20.55105	105352
20.55917	115338
20.56728	112959
20.57542	104654
20.58353	102474
20.59167	98251
20.59978	100321
20.60790	104228
20.61603	96488
20.62415	95062
20.63228	91951
20.64040	104903
20.64852	96731
20.65665	98844
20.66477	96325
20.67290	103577
20.68102	95417
20.68913	96407
20.69727	95511
20.70538	95017
20.71350	88356
20.72163	83781
20.72975	89611
20.73788	85524
20.74600	85880
20.75412	85182
20.76225	85184
20.77037	92404
20.77850	87874
20.78662	100495
20.79473	113885
20.80287	148236
20.81098	182097
20.81912	235125
20.82723	290398
20.83535	307369
20.84348	278188
20.85160	227877
20.85972	173749
20.86785	136202
20.87597	115070
20.88410	100714
20.89222	92308
20.90033	97969
20.90847	91052
20.91658	92092
20.92472	88129
20.93283	84840
20.94095	88967
20.94908	86008
20.95720	88087
20.96532	84153
20.97345	81765
20.98157	80740
20.98970	81021
20.99782	81855
21.00593	76952
21.01407	78613
21.02218	77005
21.03032	76894
21.03843	80054
21.04655	79240
21.05468	78005
21.06280	78284
21.07093	85312
21.07905	76422
21.08717	73733
21.09530	75365
21.10342	71610
21.11153	72019
21.11967	74620
21.12778	74509
21.13592	83794
21.14403	87860
21.15215	103775
21.16028	115444
21.16840	123388
21.17653	130710
21.18465	126496
21.19277	118246
21.20090	104515
21.20902	95577
21.21713	96380
21.22527	88749
21.23338	84287
21.24152	84675
21.24963	84313
21.25775	82556
21.26588	77615
21.27400	80940
21.28213	80436
21.29025	77510
21.29837	77779
21.30650	75646
21.31462	74294
21.32275	75699
21.33087	79069
21.33898	73443
21.34712	78105
21.35523	73786
21.36335	73718
21.37148	76603
21.37960	78845
21.38773	82409
21.39585	85705
21.40397	90257
21.41210	105488
21.42022	119970
21.42835	130382
21.43647	134008
21.44458	122293
21.45272	111141
21.46083	103977
21.46897	94165
21.47708	91114
21.48520	82766
21.49333	83505
21.50145	79056
21.50957	76071
21.51770	77004
21.52582	70222
21.53395	71761
21.54207	73759
21.55018	67512
21.55832	66418
21.56643	70727
21.57457	75652
21.58268	75138
21.59080	76954
21.59893	79356
21.60705	83599
21.61518	79940
21.62330	83183
21.63142	99001
21.63955	103046
21.64767	113004
21.65578	134115
21.66392	147634
21.67203	144151
21.68017	128020
21.68828	122406
21.69640	108889
21.70453	96455
21.71265	90924
21.72078	84149
21.72890	76336
21.73702	70472
21.74515	66352
21.75327	65271
21.76138	70415
21.76952	61421
21.77763	61979
21.78577	57713
21.79388	57656
21.80200	62252
21.81013	58317
21.81825	61228
21.82638	61624
21.83450	72591
21.84262	88366
21.85075	102296
21.85887	123778
21.86700	115517
21.87512	111614
21.88323	99580
21.89137	88099
21.89948	80574
21.90760	69139
21.91573	67502
21.92385	64224
21.93198	61579
21.94010	56619
21.94822	51540
21.95635	52862
21.96447	53206
21.97260	54401
21.98072	54232
21.98883	53259
21.99697	49319
22.00508	48299
22.01320	49259
22.02133	49494
22.02945	48198
22.03758	52155
22.04570	53639
22.05382	53615
22.06195	59226
22.07007	49876
22.07820	55847
22.08632	52768
22.09443	50590
22.10257	53703
22.11068	48695
22.11882	49919
22.12693	51022
22.13505	53141
22.14318	56724
22.15130	52643
22.15942	53214
22.16755	54659
22.17567	51819
22.18380	51296
22.19192	49708
22.20003	53050
22.20817	48729
22.21628	47139
22.22442	52297
22.23253	56302
22.24065	56957
22.24878	59419
22.25690	57365
22.26503	57398
22.27315	55522
22.28127	58068
22.28940	56498
22.29752	59962
22.30563	64466
22.31377	71170
22.32188	91024
22.33002	108463
22.33813	124574
22.34625	144242
22.35438	147487
22.36250	133171
22.37063	118729
22.37875	99256
22.38687	92377
22.39500	93500
22.40312	109593
22.41123	124330
22.41937	138511
22.42748	160881
22.43562	168575
22.44373	161760
22.45185	152009
22.45998	136605
22.46810	125215
22.47623	120621
22.48435	113420
22.49247	117417
22.50060	117202
22.50872	122149
22.51685	125619
22.52497	126319
22.53308	125504
22.54122	113890
22.54933	115715
22.55745	112589
22.56558	110059
22.57370	108798
22.58183	97078
22.58995	100740
22.59807	98512
22.60620	99000
22.61432	102993
22.62245	98596
22.63057	94567
22.63868	92850
22.64682	92100
22.65493	91626
22.66307	92164
22.67118	93338
22.67930	102371
22.68743	105957
22.69555	114248
22.70367	117306
22.71180	119241
22.71992	119489
22.72805	117873
22.73617	114657
22.74428	109476
22.75242	104455
22.76053	106758
22.76867	93187
22.77678	92709
22.78490	91892
22.79303	103016
22.80115	107944
22.80927	114173
22.81740	124018
22.82552	128935
22.83365	123151
22.84177	112976
22.84988	106702
22.85802	106167
22.86613	93569
22.87427	88529
22.88238	94185
22.89050	95720
22.89863	100029
22.90675	90560
22.91488	105122
22.92300	123442
22.93112	147308
22.93925	157019
22.94737	166911
22.95548	172857
22.96362	150975
22.97173	140643
22.97987	125709
22.98798	110705
22.99610	109963
23.00423	100480
23.01235	96165
23.02048	82879
23.02860	82351
23.03672	71326
23.04485	70437
23.05297	66961
23.06108	69497
23.06922	62206
23.07733	61063
23.08547	64259
23.09358	57901
23.10170	62247
23.10983	63506
23.11795	58117
23.12608	57752
23.13420	58926
23.14232	59723
23.15045	67613
23.15857	83406
23.16670	94099
23.17482	101723
23.18293	110845
23.19107	115116
23.19918	115231
23.20730	114711
23.21543	112479
23.22355	111746
23.23168	122223
23.23980	128298
23.24792	131705
23.25605	143186
23.26417	156137
23.27230	159733
23.28042	165349
23.28853	165091
23.29667	159442
23.30478	138542
23.31292	130231
23.32103	134620
23.32915	131019
23.33728	128440
23.34540	141280
23.35352	154881
23.36165	190228
23.36977	215407
23.37790	259791
23.38602	322437
23.39413	377115
23.40227	431502
23.41038	500466
23.41852	547323
23.42663	560708
23.43475	554007
23.44288	586341
23.45100	552054
23.45912	545243
23.46725	497895
23.47537	476301
23.48350	453708
23.49162	407753
23.49973	378582
23.50787	354416
23.51598	341275
23.52412	317567
23.53223	291604
23.54035	278095
23.54848	277412
23.55660	254456
23.56473	252680
23.57285	239479
23.58097	240509
23.58910	250580
23.59722	266427
23.60533	267289
23.61347	287252
23.62158	275291
23.62972	259329
23.63783	263265
23.64595	299866
23.65408	357899
23.66220	472786
23.67033	588517
23.67845	649639
23.68657	654689
23.69470	563381
23.70282	464065
23.71095	369155
23.71907	285915
23.72718	240779
23.73532	205783
23.74343	191448
23.75155	196159
23.75968	255127
23.76780	410875
23.77593	810669
23.78405	1521282
23.79217	2427591
23.80030	3239393
23.80842	3569927
23.81655	3511234
23.82467	2945175
23.83278	2323253
23.84092	1694319
23.84903	1269051
23.85715	947052
23.86528	755178
23.87340	617812
23.88153	522482
23.88965	463828
23.89777	428911
23.90590	391554
23.91402	370773
23.92215	353885
23.93027	326432
23.93838	311820
23.94652	291455
23.95463	277134
23.96277	258621
23.97088	250196
23.97900	230987
23.98713	220405
23.99525	212479
24.00337	202877
24.01150	202229
24.01962	198137
24.02775	202131
24.03587	205880
24.04398	210107
24.05212	207923
24.06023	207355
24.06837	206187
24.07648	193512
24.08460	187607
24.09273	178037
24.10085	166959
24.10898	155394
24.11710	154135
24.12522	146959
24.13335	154316
24.14147	149931
24.14958	152528
24.15772	161353
24.16583	160344
24.17397	160873
24.18208	156864
24.19020	151384
24.19833	145704
24.20645	142919
24.21458	150278
24.22270	145228
24.23082	142759
24.23895	144601
24.24707	143109
24.25518	138102
24.26332	134166
24.27143	130476
24.27957	120514
24.28768	118354
24.29580	115267
24.30393	121357
24.31205	120261
24.32018	117524
24.32830	109895
24.33642	109771
24.34455	107439
24.35267	99175
24.36080	96406
24.36892	96212
24.37703	93356
24.38517	88172
24.39328	93961
24.40140	106957
24.40953	115317
24.41765	134053
24.42578	137027
24.43390	125321
24.44202	116525
24.45015	99413
24.45827	101036
24.46640	94661
24.47452	96291
24.48263	99840
24.49077	103707
24.49888	114425
24.50700	120432
24.51513	133794
24.52325	159228
24.53138	175934
24.53950	201837
24.54762	219246
24.55575	230783
24.56387	216001
24.57200	195288
24.58012	180829
24.58823	158755
24.59637	140786
24.60448	128376
24.61262	115094
24.62073	106855
24.62885	97870
24.63698	97264
24.64510	94517
24.65322	94133
24.66135	90677
24.66947	93940
24.67760	91876
24.68572	83644
24.69383	85836
24.70197	78493
24.71008	82156
24.71822	81680
24.72633	77328
24.73445	70477
24.74258	81224
24.75070	73325
24.75883	76373
24.76695	73622
24.77507	76892
24.78320	70237
24.79132	81192
24.79943	84548
24.80757	79885
24.81568	75149
24.82382	78211
24.83193	82709
24.84005	85993
24.84818	107266
24.85630	153132
24.86443	212367
24.87255	268745
24.88067	348638
24.88880	445255
24.89692	522143
24.90503	574400
24.91317	559732
24.92128	523131
24.92942	435644
24.93753	353551
24.94565	289618
24.95378	251028
24.96190	228114
24.97003	213750
24.97815	201351
24.98627	204336
24.99440	199366
25.00252	193186
25.01065	192826
25.01877	199312
25.02688	197774
25.03502	199553
25.04313	197590
25.05125	203762
25.05938	196500
25.06750	200908
25.07563	197206
25.08375	197672
25.09187	209361
25.10000	215393
25.10812	238058
25.11625	322127
25.12437	506812
25.13248	865640
25.14062	1366716
25.14873	1963905
25.15687	2389864
25.16498	2429956
25.17310	2081972
25.18123	1612193
25.18935	1093678
25.19747	731169
25.20560	497035
25.21372	364108
25.22185	294930
25.22997	270540
25.23808	239612
25.24622	236482
25.25433	249025
25.26247	268341
25.27058	283722
25.27870	309010
25.28683	302031
25.29495	292542
25.30307	266166
25.31120	245294
25.31932	223840
25.32745	211432
25.33557	195598
25.34368	195493
25.35182	182219
25.35993	182297
25.36807	171174
25.37618	176852
25.38430	164114
25.39243	164359
25.40055	162661
25.40868	157129
25.41680	159181
25.42492	156676
25.43305	150176
25.44117	143923
25.44928	138923
25.45742	132277
25.46553	119145
25.47367	98320
25.48178	99009
25.48990	99588
25.49803	97741
25.50615	88781
25.51428	88221
25.52240	84415
25.53052	80115
25.53865	75293
25.54677	79347
25.55488	77261
25.56302	72542
25.57113	74730
25.57927	71606
25.58738	79096
25.59550	72549
25.60363	67625
25.61175	69682
25.61988	64205
25.62800	70863
25.63612	69324
25.64425	73740
25.65237	73053
25.66050	77168
25.66862	78512
25.67673	76497
25.68487	75557
25.69298	72612
25.70110	67637
25.70923	63888
25.71735	62628
25.72548	72413
25.73360	66107
25.74172	67066
25.74985	66511
25.75797	62738
25.76610	65805
25.77422	65276
25.78233	61979
25.79047	57666
25.79858	63589
25.80672	63038
25.81483	62066
25.82295	60535
25.83108	70531
25.83920	77644
25.84732	92505
25.85545	119619
25.86357	152166
25.87170	196598
25.87982	229790
25.88793	223308
25.89607	237689
25.90418	243411
25.91232	258649
25.92043	256815
25.92855	244466
25.93668	247525
25.94480	262625
25.95293	258878
25.96105	257948
25.96917	253386
25.97730	260513
25.98542	251217
25.99353	260477
26.00167	259436
26.00978	255021
26.01792	243272
26.02603	245308
26.03415	237738
26.04228	240035
26.05040	262189
26.05853	244987
26.06665	244388
26.07477	246314
26.08290	247445
26.09102	236974
26.09913	234935
26.10727	243633
26.11538	241351
26.12352	234606
26.13163	239166
26.13975	241574
26.14788	230805
26.15600	238636
26.16413	244608
26.17225	245767
26.18037	233914
26.18850	226393
26.19662	221672
26.20475	228394
26.21287	215423
26.22098	216324
26.22912	209515
26.23723	207370
26.24535	194226
26.25348	208530
26.26160	200291
26.26973	197638
26.27785	200144
26.28597	189247
26.29410	190893
26.30222	197214
26.31035	184310
26.31847	184536
26.32658	182571
26.33472	184935
26.34283	185310
26.35095	189748
26.35908	178441
26.36720	181360
26.37533	185864
26.38345	197760
26.39157	200156
26.39970	200839
26.40782	205934
26.41595	212188
26.42407	206789
26.43218	208994
26.44032	195057
26.44843	191450
26.45657	171560
26.46468	162509
26.47280	167564
26.48093	157775
26.48905	163390
26.49717	159096
26.50530	153116
26.51342	153360
26.52155	151033
26.52967	148948
26.53778	143648
26.54592	144828
26.55403	143969
26.56217	141731
26.57028	143200
26.57840	136219
26.58653	135816
26.59465	141199
26.60278	131964
26.61090	132250
26.61902	136164
26.62715	131565
26.63527	128159
26.64338	122779
26.65152	127158
26.65963	128809
26.66777	127614
26.67588	126854
26.68400	134112
26.69213	135514
26.70025	127040
26.70838	125275
26.71650	120288
26.72462	129731
26.73275	118009
26.74087	114019
26.74898	120554
26.75712	113553
26.76523	111478
26.77337	107944
26.78148	110283
26.78960	114357
26.79773	111364
26.80585	112916
26.81398	117307
26.82210	116150
26.83022	115372
26.83835	113239
26.84647	110372
26.85460	104241
26.86272	102373
26.87083	106081
26.87897	107614
26.88708	104840
26.89520	102524
26.90333	101084
26.91145	103297
26.91958	96027
26.92770	97566
26.93582	98812
26.94395	92903
26.95207	95989
26.96020	95848
26.96832	103776
26.97643	113169
26.98457	153823
26.99268	226684
27.00082	368102
27.00893	630940
27.01705	952318
27.02518	1359692
27.03330	1599103
27.04142	1663566
27.04955	1568616
27.05767	1345968
27.06580	1037392
27.07392	800949
27.08203	633549
27.09017	481581
27.09828	404260
27.10642	347481
27.11453	306825
27.12265	275661
27.13078	252769
27.13890	234733
27.14702	222987
27.15515	208693
27.16327	198497
27.17140	197942
27.17952	191831
27.18763	196165
27.19577	187882
27.20388	183821
27.21202	171698
27.22013	167999
27.22825	152924
27.23638	144327
27.24450	141226
27.25263	130995
27.26075	128304
27.26887	121822
27.27700	129718
27.28512	114486
27.29323	120939
27.30137	119853
27.30948	121695
27.31762	111816
27.32573	115769
27.33385	105401
27.34198	106360
27.35010	104248
27.35823	102304
27.36635	98734
27.37447	101942
27.38260	102986
27.39072	104915
27.39883	101376
27.40697	99878
27.41508	99750
27.42322	98282
27.43133	93708
27.43945	92691
27.44758	87635
27.45570	87478
27.46383	91810
27.47195	88405
27.48007	87407
27.48820	91157
27.49632	86516
27.50445	89204
27.51257	89868
27.52068	85551
27.52882	87794
27.53693	85909
27.54505	84469
27.55318	85029
27.56130	84029
27.56943	86081
27.57755	88127
27.58567	90978
27.59380	92686
27.60192	98170
27.61005	106333
27.61817	102481
27.62628	101298
27.63442	91058
27.64253	95720
27.65067	82675
27.65878	78107
27.66690	77929
27.67503	74031
27.68315	73157
27.69127	73518
27.69940	74577
27.70752	73767
27.71565	73317
27.72377	70978
27.73188	69182
27.74002	66961
27.74813	67836
27.75627	64501
27.76438	73453
27.77250	70108
27.78063	68825
27.78875	65304
27.79687	68909
27.80500	74951
27.81312	70458
27.82125	75022
27.82937	73626
27.83748	77587
27.84562	72205
27.85373	66829
27.86187	68096
27.86998	72430
27.87810	64674
27.88623	67639
27.89435	64886
27.90248	63680
27.91060	67529
27.91872	63171
27.92685	57739
27.93497	61554
27.94308	66486
27.95122	62293
27.95933	61279
27.96747	59146
27.97558	58692
27.98370	55065
27.99183	58106
27.99995	63640
28.00808	65482
28.01620	58057
28.02432	63317
28.03245	68125
28.04057	68181
28.04870	72046
28.05682	71123
28.06493	75462
28.07307	73092
28.08118	74148
28.08930	74757
28.09743	71200
28.10555	71368
28.11368	70464
28.12180	64837
28.12992	66541
28.13805	59962
28.14617	61393
28.15430	57427
28.16242	55294
28.17053	61571
28.17867	55485
28.18678	58568
28.19490	61008
28.20303	66917
28.21115	73714
28.21928	84179
28.22740	94367
28.23552	97759
28.24365	96749
28.25177	89931
28.25990	83289
28.26802	80477
28.27613	76764
28.28427	68811
28.29238	66386
28.30052	69814
28.30863	68593
28.31675	72926
28.32488	90078
28.33300	99034
28.34112	116693
28.34925	148058
28.35737	173639
28.36550	199913
28.37362	217753
28.38173	235682
28.38987	252813
28.39798	253366
28.40612	261180
28.41423	246235
28.42235	242271
28.43048	208135
28.43860	185174
28.44673	177498
28.45485	167976
28.46297	155877
28.47110	135817
28.47922	132925
28.48733	119372
28.49547	116976
28.50358	114092
28.51172	112894
28.51983	105082
28.52795	98744
28.53608	99344
28.54420	93185
28.55233	95743
28.56045	89578
28.56857	86360
28.57670	84915
28.58482	85902
28.59293	80913
28.60107	80446
28.60918	80656
28.61732	78772
28.62543	76373
28.63355	77090
28.64168	80706
28.64980	76771
28.65793	83582
28.66605	86136
28.67417	84965
28.68230	79889
28.69042	84716
28.69855	78036
28.70667	77606
28.71478	75871
28.72292	69803
28.73103	73486
28.73915	76093
28.74728	68631
28.75540	69522
28.76353	70902
28.77165	70068
28.77977	78552
28.78790	85332
28.79602	87104
28.80415	92793
28.81227	91885
28.82038	81926
28.82852	78302
28.83663	72921
28.84475	74802
28.85288	70980
28.86100	68918
28.86913	70732
28.87725	75400
28.88537	69017
28.89350	71746
28.90162	76749
28.90975	83950
28.91787	83190
28.92598	76485
28.93412	79726
28.94223	82427
28.95037	76896
28.95848	74830
28.96660	78327
28.97473	81562
28.98285	77560
28.99097	79370
28.99910	67331
29.00722	65465
29.01535	67365
29.02347	63388
29.03158	69043
29.03972	63954
29.04783	65572
29.05597	62367
29.06408	62139
29.07220	62142
29.08033	69707
29.08845	64711
29.09658	62467
29.10470	66964
29.11282	63855
29.12095	60020
29.12907	68721
29.13718	62725
29.14532	60552
29.15343	57022
29.16157	58071
29.16968	63048
29.17780	63556
29.18593	68782
29.19405	67864
29.20218	79398
29.21030	86559
29.21842	88923
29.22655	99241
29.23467	98741
29.24278	90301
29.25092	79304
29.25903	82484
29.26717	71714
29.27528	74386
29.28340	63881
29.29153	64006
29.29965	61071
29.30778	58704
29.31590	61801
29.32402	57460
29.33215	60477
29.34027	55543
29.34840	58242
29.35652	56280
29.36463	57337
29.37277	59099
29.38088	57602
29.38900	59020
29.39713	56193
29.40525	52728
29.41338	53235
29.42150	57672
29.42962	58790
29.43775	53176
29.44587	52716
29.45400	55293
29.46212	50757
29.47023	53871
29.47837	53156
29.48648	55539
29.49462	56945
29.50273	62018
29.51085	64374
29.51898	62909
29.52710	66059
29.53522	61745
29.54335	55786
29.55147	58892
29.55960	55111
29.56772	57200
29.57583	53356
29.58397	56375
29.59208	53058
29.60022	58843
29.60833	52969
29.61645	56942
29.62458	51546
29.63270	48890
29.64082	49732
29.64895	53900
29.65707	53363
29.66520	51878
29.67332	56234
29.68143	54250
29.68957	52752
29.69768	56247
29.70582	56020
29.71393	58654
29.72205	53331
29.73018	54184
29.73830	55825
29.74643	53013
29.75455	50087
29.76267	55284
29.77080	50226
29.77892	49032
29.78703	48081
29.79517	49326
29.80328	49390
29.81142	50132
29.81953	46320
29.82765	48296
29.83578	50255
29.84390	49019
29.85203	49124
29.86015	49361
29.86827	50618
29.87640	56972
29.88452	71703
29.89263	91173
29.90077	123894
29.90888	143185
29.91702	144135
29.92513	140778
29.93325	122582
29.94138	98500
29.94950	74235
29.95763	68711
29.96575	63081
29.97387	66409
29.98200	73270
29.99012	78191
29.99825	87610
30.00637	93278
30.01448	105286
30.02262	112435
30.03073	113195
30.03885	115011
30.04698	123977
30.05510	123298
30.06323	127383
30.07135	126697
30.07947	118631
30.08760	113467
30.09572	113923
30.10385	111893
30.11197	102986
30.12008	97865
30.12822	96721
30.13633	91443
30.14447	99645
30.15258	90666
30.16070	82828
30.16883	82703
30.17695	78354
30.18507	79596
30.19320	78336
30.20132	72139
30.20945	70674
30.21757	72905
30.22568	73648
30.23382	79006
30.24193	70288
30.25007	66723
30.25818	65414
30.26630	68161
30.27443	63069
30.28255	58686
30.29067	60165
30.29880	66336
30.30692	60112
30.31505	64154
30.32317	60898
30.33128	57129
30.33942	60708
30.34753	57802
30.35567	59062
30.36378	54407
30.37190	62326
30.38003	56040
30.38815	52247
30.39628	58596
30.40440	58855
30.41252	59536
30.42065	54102
30.42877	53220
30.43688	52706
30.44502	53185
30.45313	52112
30.46127	52032
30.46938	54413
30.47750	56817
30.48563	54505
30.49375	49611
30.50188	50695
30.51000	58972
30.51812	52455
30.52625	52483
30.53437	58894
30.54250	55752
30.55062	58087
30.55873	55312
30.56687	58201
30.57498	55544
30.58310	55518
30.59123	55893
30.59935	55539
30.60748	57303
30.61560	54952
30.62372	52214
30.63185	52518
30.63997	54705
30.64810	56725
30.65622	57017
30.66433	55719
30.67247	50949
30.68058	56859
30.68870	50912
30.69683	52414
30.70495	54691
30.71308	52559
30.72120	53501
30.72932	54605
30.73745	55309
30.74557	60801
30.75370	56417
30.76182	53797
30.76993	56169
30.77807	62654
30.78618	58247
30.79432	69838
30.80243	78085
30.81055	81427
30.81868	86872
30.82680	91494
30.83492	83284
30.84305	79899
30.85117	70993
30.85930	58063
30.86742	59187
30.87553	54663
30.88367	58373
30.89178	57753
30.89992	56493
30.90803	50876
30.91615	49041
30.92428	51883
30.93240	53774
30.94052	50814
30.94865	52499
30.95677	51779
30.96490	55652
30.97302	56106
30.98113	54047
30.98927	55941
30.99738	47479
31.00552	49517
31.01363	57546
31.02175	57514
31.02988	58471
31.03800	61780
31.04613	62142
31.05425	70795
31.06237	65916
31.07050	61833
31.07862	66759
31.08673	77703
31.09487	93169
31.10298	129942
31.11112	161213
31.11923	180091
31.12735	187792
31.13548	158818
31.14360	134005
31.15173	101080
31.15985	78809
31.16797	72345
31.17610	63771
31.18422	59146
31.19235	65691
31.20047	66503
31.20858	74622
31.21672	84793
31.22483	94679
31.23295	99080
31.24108	96364
31.24920	93670
31.25733	82609
31.26545	73058
31.27357	60866
31.28170	63167
31.28982	55780
31.29795	53267
31.30607	52367
31.31418	50534
31.32232	56271
31.33043	59962
31.33857	55061
31.34668	56085
31.35480	51885
31.36293	53408
31.37105	57860
31.37917	59417
31.38730	69047
31.39542	69679
31.40355	80602
31.41167	65547
31.41978	73745
31.42792	61195
31.43603	52794
31.44417	59252
31.45228	58020
31.46040	59557
31.46853	64725
31.47665	67123
31.48477	66339
31.49290	63114
31.50102	69146
31.50915	73851
31.51727	74039
31.52538	73116
31.53352	71048
31.54163	74563
31.54977	68198
31.55788	72070
31.56600	74285
31.57413	71497
31.58225	70185
31.59038	68292
31.59850	70807
31.60662	70561
31.61475	72714
31.62287	69986
31.63098	77548
31.63912	68772
31.64723	71813
31.65537	77428
31.66348	75090
31.67160	74498
31.67973	77338
31.68785	72889
31.69598	76401
31.70410	74820
31.71222	67911
31.72035	68632
31.72847	68581
31.73658	71084
31.74472	76148
31.75283	68351
31.76097	68188
31.76908	65852
31.77720	67812
31.78533	69388
31.79345	63996
31.80158	69464
31.80970	72176
31.81782	71000
31.82595	66520
31.83407	69544
31.84220	72073
31.85032	67864
31.85843	75199
31.86657	74134
31.87468	79079
31.88280	82940
31.89093	82868
31.89905	78040
31.90718	80144
31.91530	88232
31.92342	85154
31.93155	90330
31.93967	93298
31.94780	94519
31.95592	95218
31.96403	98037
31.97217	97698
31.98028	112337
31.98842	105051
31.99653	108874
32.00465	111984
32.01278	105416
32.02090	107829
32.02902	101131
32.03715	98103
32.04527	89476
32.05340	90030
32.06152	82955
32.06963	84332
32.07777	82201
32.08588	77226
32.09402	83181
32.10213	80708
32.11025	81361
32.11838	74256
32.12650	70257
32.13462	64929
32.14275	65771
32.15087	67170
32.15900	62175
32.16712	62081
32.17523	59694
32.18337	60877
32.19148	63736
32.19962	62660
32.20773	59210
32.21585	58243
32.22398	57866
32.23210	56170
32.24023	57944
32.24835	54380
32.25647	61841
32.26460	60761
32.27272	56863
32.28083	70324
32.28897	61691
32.29708	62659
32.30522	61157
32.31333	57548
32.32145	58750
32.32958	56817
32.33770	54850
32.34583	62028
32.35395	62838
32.36207	59006
32.37020	56643
32.37832	64115
32.38645	58499
32.39457	53781
32.40268	57259
32.41082	57822
32.41893	51778
32.42705	51963
32.43518	51294
32.44330	56703
32.45143	53936
32.45955	52245
32.46767	57369
32.47580	49550
32.48392	52099
32.49205	53504
32.50017	51599
32.50828	52293
32.51642	51646
32.52453	52142
32.53265	48684
32.54078	51018
32.54890	53131
32.55703	48847
32.56515	48002
32.57327	52438
32.58140	54383
32.58952	50540
32.59765	56834
32.60577	51532
32.61388	54550
32.62202	48069
32.63013	46844
32.63827	49720
32.64638	47350
32.65450	51345
32.66263	51057
32.67075	52105
32.67887	62132
32.68700	66904
32.69512	65015
32.70325	61903
32.71137	68857
32.71948	62441
32.72762	64713
32.73573	53268
32.74387	58880
32.75198	51207
32.76010	48179
32.76823	55199
32.77635	52532
32.78447	49631
32.79260	53005
32.80072	50964
32.80885	47970
32.81697	52990
32.82508	49301
32.83322	49358
32.84133	47768
32.84947	47274
32.85758	47992
32.86570	51149
32.87383	44767
32.88195	47947
32.89008	47786
32.89820	48615
32.90632	49231
32.91445	53264
32.92257	53151
32.93068	48011
32.93882	47501
32.94693	48258
32.95507	50871
32.96318	52333
32.97130	54427
32.97943	53043
32.98755	56718
32.99568	57136
33.00380	63738
33.01192	65563
33.02005	64664
33.02817	60308
33.03630	63067
33.04442	55111
33.05253	60439
33.06067	51858
33.06878	65939
33.07690	56936
33.08503	59798
33.09315	66171
33.10128	75296
33.10940	83832
33.11752	90450
33.12565	99681
33.13377	97558
33.14190	96622
33.15002	81823
33.15813	75089
33.16627	70725
33.17438	61707
33.18250	57142
33.19063	54942
33.19875	57287
33.20688	53615
33.21500	53808
33.22312	53517
33.23125	51959
33.23937	53370
33.24750	55844
33.25562	47120
33.26373	49602
33.27187	57166
33.27998	49943
33.28812	53846
33.29623	49988
33.30435	51212
33.31248	50551
33.32060	46996
33.32872	48437
33.33685	47866
33.34497	48787
33.35310	48632
33.36122	49783
33.36933	51686
33.37747	52399
33.38558	54743
33.39372	53144
33.40183	50403
33.40995	48357
33.41808	49458
33.42620	46650
33.43433	46376
33.44245	45302
33.45057	50096
33.45870	48846
33.46682	50440
33.47493	49157
33.48307	46171
33.49118	44906
33.49932	46435
33.50743	48053
33.51555	48762
33.52368	49753
33.53180	51472
33.53993	50164
33.54805	49564
33.55617	53151
33.56430	58549
33.57242	60098
33.58053	52140
33.58867	52720
33.59678	50875
33.60492	50742
33.61303	48893
33.62115	48593
33.62928	50706
33.63740	50040
33.64553	51639
33.65365	50924
33.66177	52399
33.66990	49782
33.67802	50324
33.68615	51125
33.69427	51174
33.70238	47227
33.71052	46832
33.71863	48576
33.72675	47433
33.73488	49019
33.74300	51028
33.75113	42244
33.75925	48371
33.76737	43136
33.77550	48869
33.78362	44443
33.79175	45858
33.79987	44967
33.80798	44163
33.81612	50806
33.82423	39972
33.83237	47419
33.84048	49054
33.84860	51935
33.85673	54053
33.86485	53367
33.87297	53644
33.88110	51796
33.88922	52488
33.89735	53354
33.90547	46896
33.91358	60210
33.92172	53169
33.92983	45111
33.93797	48231
33.94608	47624
33.95420	47972
33.96233	50095
33.97045	51117
33.97857	50333
33.98670	45150
33.99482	49142
34.00295	45129
34.01107	48581
34.01918	48675
34.02732	48373
34.03543	51496
34.04357	46900
34.05168	50121
34.05980	53078
34.06793	50286
34.07605	44889
34.08418	48980
34.09230	48687
34.10042	52088
34.10855	50413
34.11667	49250
34.12478	51224
34.13292	50802
34.14103	49239
34.14917	44711
34.15728	47480
34.16540	47784
34.17353	45208
34.18165	47229
34.18978	48458
34.19790	46806
34.20602	52109
34.21415	44167
34.22227	47848
34.23038	49283
34.23852	42035
34.24663	43519
34.25477	45719
34.26288	45172
34.27100	45055
34.27913	43746
34.28725	46865
34.29538	46229
34.30350	45150
34.31162	44250
34.31975	43262
34.32787	48812
34.33600	47963
34.34412	45297
34.35223	45907
34.36037	45460
34.36848	48324
34.37660	44055
34.38473	53431
34.39285	49836
34.40098	43944
34.40910	49796
34.41722	47412
34.42535	48068
34.43347	45892
34.44160	49132
34.44972	48045
34.45783	49378
34.46597	42856
34.47408	46657
34.48222	44237
34.49033	49298
34.49845	44894
34.50658	48623
34.51470	43250
34.52282	51578
34.53095	51454
34.53907	56154
34.54720	61311
34.55532	65798
34.56343	69108
34.57157	75343
34.57968	73029
34.58782	70279
34.59593	75207
34.60405	71259
34.61218	67600
34.62030	65304
34.62842	61496
34.63655	62205
34.64467	56928
34.65280	57348
34.66092	58287
34.66903	54072
34.67717	51488
34.68528	53785
34.69342	50045
34.70153	51968
34.70965	51175
34.71778	51192
34.72590	47900
34.73403	48555
34.74215	54177
34.75027	51877
34.75840	52113
34.76652	49980
34.77463	48979
34.78277	47947
34.79088	53205
34.79902	49838
34.80713	47409
34.81525	53062
34.82338	48873
34.83150	52163
34.83963	50228
34.84775	56966
34.85587	51670
34.86400	52483
34.87212	54054
34.88025	45810
34.88837	49267
34.89648	49330
34.90462	52518
34.91273	50621
34.92085	54232
34.92898	52696
34.93710	54969
34.94523	60174
34.95335	77155
34.96147	114012
34.96960	166924
34.97772	239594
34.98585	312671
34.99397	346507
35.00208	307887
35.01022	234979
35.01833	149452
35.02645	113099
35.03458	81597
35.04270	68643
35.05083	66948
35.05895	63010
35.06707	61997
35.07520	56446
35.08332	62937
35.09145	57273
35.09957	56415
35.10768	59839
35.11582	58039
35.12393	52893
35.13207	51686
35.14018	52159
35.14830	57291
35.15643	52336
35.16455	54901
35.17267	55210
35.18080	56053
35.18892	55469
35.19705	56957
35.20517	57494
35.21328	53369
35.22142	52654
35.22953	53510
35.23767	50959
35.24578	52564
35.25390	56518
35.26203	58907
35.27015	54291
35.27827	56785
35.28640	64046
35.29452	61962
35.30265	59848
35.31077	55517
35.31888	62660
35.32702	56994
35.33513	52195
35.34327	50465
35.35138	48498
35.35950	54124
35.36763	51023
35.37575	50160
35.38388	52425
35.39200	55939
35.40012	50063
35.40825	53208
35.41637	50388
35.42448	53857
35.43262	55349
35.44073	53041
35.44887	54114
35.45698	52578
35.46510	57892
35.47323	61477
35.48135	59458
35.48948	60544
35.49760	59378
35.50572	54433
35.51385	56416
35.52197	60578
35.53010	58801
35.53822	56887
35.54633	58321
35.55447	54684
35.56258	54570
35.57070	59374
35.57883	55085
35.58695	52102
35.59508	54956
35.60320	55330
35.61132	53486
35.61945	49909
35.62757	50276
35.63570	47537
35.64382	53787
35.65193	53973
35.66007	52897
35.66818	55348
35.67632	52987
35.68443	50602
35.69255	52046
35.70068	53435
35.70880	55179
35.71692	55808
35.72505	53209
35.73317	53825
35.74130	57235
35.74942	59251
35.75753	57638
35.76567	62585
35.77378	57938
35.78192	63801
35.79003	59485
35.79815	58871
35.80628	56100
35.81440	55241
35.82252	59338
35.83065	53192
35.83877	50792
35.84690	56499
35.85502	53936
35.86313	54341
35.87127	52808
35.87938	56057
35.88752	55704
35.89563	53194
35.90375	54586
35.91188	54226
35.92000	55553
35.92813	48744
35.93625	50945
35.94437	51621
35.95250	50506
35.96062	50333
35.96873	50047
35.97687	50864
35.98498	50557
35.99312	52806
36.00123	55218
36.00935	50450
36.01748	59709
36.02560	52629
36.03373	54441
36.04185	58155
36.04997	53310
36.05810	55136
36.06622	56087
36.07433	55933
36.08247	53962
36.09058	49034
36.09872	52498
36.10683	52452
36.11495	56925
36.12308	52132
36.13120	52129
36.13933	53187
36.14745	57376
36.15557	57290
36.16370	56536
36.17182	61498
36.17995	56719
36.18807	53792
36.19618	53808
36.20432	55209
36.21243	54619
36.22055	52673
36.22868	53424
36.23680	54033
36.24493	52286
36.25305	52726
36.26117	55677
36.26930	53672
36.27742	58983
36.28555	49929
36.29367	52287
36.30178	53779
36.30992	54847
36.31803	58484
36.32615	58799
36.33428	64948
36.34240	63604
36.35053	65466
36.35865	59893
36.36677	58229
36.37490	62831
36.38302	52796
36.39115	57410
36.39927	59154
36.40738	56649
36.41552	53323
36.42363	54139
36.43177	57113
36.43988	53036
36.44800	61073
36.45613	54938
36.46425	55532
36.47237	59141
36.48050	54134
36.48862	58085
36.49675	50815
36.50487	53691
36.51298	54052
36.52112	56838
36.52923	53407
36.53737	51800
36.54548	56298
36.55360	53814
36.56173	51394
36.56985	51823
36.57798	54216
36.58610	55615
36.59422	53368
36.60235	54455
36.61047	52376
36.61858	57235
36.62672	53265
36.63483	54463
36.64297	53901
36.65108	55496
36.65920	55591
36.66733	57177
36.67545	56077
36.68358	55784
36.69170	55845
36.69982	54783
36.70795	54451
36.71607	56352
36.72420	52024
36.73232	57244
36.74043	49145
36.74857	55250
36.75668	59074
36.76480	53955
36.77293	66526
36.78105	56139
36.78918	56431
36.79730	59694
36.80542	61330
36.81355	55331
36.82167	58599
36.82980	57414
36.83792	61941
36.84603	51831
36.85417	53480
36.86228	54960
36.87040	57540
36.87853	61702
36.88665	54527
36.89478	58438
36.90290	64523
36.91102	64648
36.91915	67500
36.92727	66977
36.93540	65785
36.94352	73103
36.95163	69277
36.95977	72803
36.96788	74551
36.97602	81604
36.98413	77211
36.99225	81769
37.00038	77016
37.00850	78427
37.01662	73539
37.02475	68878
37.03287	71970
37.04100	71793
37.04912	71644
37.05723	71441
37.06537	71371
37.07348	71311
37.08162	73190
37.08973	71489
37.09785	69082
37.10598	72317
37.11410	73055
37.12222	71564
37.13035	69948
37.13847	69907
37.14660	72513
37.15472	70843
37.16283	71641
37.17097	71457
37.17908	69128
37.18722	72067
37.19533	74506
37.20345	75342
37.21158	70020
37.21970	67878
37.22783	70190
37.23595	72392
37.24407	68756
37.25220	67810
37.26032	64632
37.26843	66608
37.27657	70515
37.28468	70290
37.29282	65927
37.30093	68065
37.30905	65625
37.31718	69716
37.32530	71362
37.33343	68592
37.34155	67051
37.34967	79652
37.35780	72774
37.36592	76083
37.37405	75507
37.38217	73076
37.39028	72734
37.39842	74554
37.40653	77481
37.41465	76367
37.42278	76347
37.43090	74131
37.43903	70521
37.44715	68444
37.45527	69614
37.46340	73507
37.47152	69711
37.47965	66312
37.48777	72693
