D:\MassHunter\GCMS\1\data\JTB-E02\BACandSTRAW\JTB-E12-002-05.D Fri Mar 15 09:42:11 2019
Start of data points
2.09535	108974
2.10348	121133
2.11160	120618
2.11973	125373
2.12785	126237
2.13597	135810
2.14410	139377
2.15222	131262
2.16033	142754
2.16847	136800
2.17658	129608
2.18472	130000
2.19283	123681
2.20095	123238
2.20908	116356
2.21720	109126
2.22533	107648
2.23345	102325
2.24157	101003
2.24970	94283
2.25782	102196
2.26595	99645
2.27407	94305
2.28218	92870
2.29032	88337
2.29843	90116
2.30655	83695
2.31468	79738
2.32280	83946
2.33093	82772
2.33905	83503
2.34717	81846
2.35530	78946
2.36342	79196
2.37155	83568
2.37967	81685
2.38778	79742
2.39592	88125
2.40403	500890
2.41217	4555225
2.42028	7686004
2.42840	4088363
2.43653	1755054
2.44465	1136716
2.45277	897233
2.46090	820800
2.46902	685454
2.47715	614907
2.48527	544992
2.49338	480643
2.50152	434476
2.50963	399171
2.51777	371160
2.52588	375925
2.53400	369857
2.54213	333121
2.55025	348615
2.55838	335410
2.56650	377676
2.57462	413078
2.58275	345672
2.59087	327224
2.59898	323930
2.60712	297004
2.61523	274227
2.62337	267465
2.63148	261696
2.63960	250224
2.64773	252094
2.65585	244373
2.66398	227004
2.67210	240246
2.68022	236895
2.68835	227076
2.69647	236632
2.70458	254555
2.71272	257466
2.72083	264423
2.72897	234537
2.73708	219343
2.74520	222439
2.75333	211292
2.76145	217790
2.76958	243544
2.77770	240712
2.78582	227797
2.79395	212757
2.80207	209750
2.81020	196244
2.81832	197368
2.82643	193026
2.83457	193641
2.84268	197262
2.85080	186310
2.85893	189012
2.86705	185631
2.87518	182304
2.88330	176519
2.89142	173686
2.89955	177566
2.90767	160167
2.91580	167746
2.92392	168664
2.93203	163664
2.94017	158836
2.94828	164079
2.95642	162745
2.96453	177875
2.97265	184765
2.98078	172214
2.98890	172998
2.99702	167720
3.00515	169122
3.01327	160805
3.02140	162899
3.02952	170620
3.03763	168456
3.04577	161484
3.05388	159449
3.06202	156917
3.07013	163443
3.07825	165322
3.08638	158435
3.09450	152928
3.10262	149415
3.11075	148953
3.11887	149871
3.12700	147732
3.13512	149313
3.14323	145570
3.15137	146415
3.15948	146863
3.16762	143552
3.17573	145394
3.18385	152618
3.19198	145252
3.20010	141993
3.20823	149101
3.21635	144795
3.22447	143420
3.23260	143378
3.24072	139085
3.24883	145000
3.25697	139094
3.26508	138400
3.27322	138860
3.28133	143353
3.28945	164895
3.29758	209264
3.30570	212375
3.31383	191154
3.32195	181338
3.33007	171009
3.33820	168644
3.34632	163631
3.35445	154822
3.36257	149782
3.37068	152892
3.37882	154072
3.38693	166052
3.39505	168473
3.40318	158347
3.41130	155454
3.41943	150053
3.42755	155827
3.43567	150535
3.44380	144850
3.45192	152394
3.46005	183634
3.46817	617739
3.47628	2656955
3.48442	6510891
3.49253	8412784
3.50065	7152868
3.50878	5426966
3.51690	4258997
3.52503	3566504
3.53315	2974267
3.54127	2591811
3.54940	2230142
3.55752	1963955
3.56565	1748342
3.57377	1583516
3.58188	1457116
3.59002	1323608
3.59813	1222867
3.60627	1145501
3.61438	1074951
3.62250	999603
3.63063	944453
3.63875	874807
3.64687	839964
3.65500	805533
3.66312	761702
3.67125	738060
3.67937	701540
3.68748	692275
3.69562	668243
3.70373	634426
3.71187	598008
3.71998	583437
3.72810	569503
3.73623	562249
3.74435	526841
3.75248	518888
3.76060	495791
3.76872	493326
3.77685	492309
3.78497	474972
3.79308	463823
3.80122	446559
3.80933	441452
3.81747	424770
3.82558	421447
3.83370	420781
3.84183	399393
3.84995	391445
3.85808	389426
3.86620	378093
3.87432	377298
3.88245	373815
3.89057	392038
3.89870	385032
3.90682	380944
3.91493	373110
3.92307	370751
3.93118	363681
3.93930	358082
3.94743	357074
3.95555	337605
3.96368	340536
3.97180	327643
3.97992	335647
3.98805	319199
3.99617	328225
4.00430	343350
4.01242	338112
4.02053	312981
4.02867	332851
4.03678	329041
4.04490	326308
4.05303	310316
4.06115	311066
4.06928	307490
4.07740	298472
4.08552	290498
4.09365	286556
4.10177	301648
4.10990	281878
4.11802	287382
4.12613	281443
4.13427	283419
4.14238	275730
4.15052	269356
4.15863	273054
4.16675	254593
4.17488	270995
4.18300	263779
4.19112	260514
4.19925	259818
4.20737	256547
4.21550	256048
4.22362	257475
4.23173	254728
4.23987	252370
4.24798	244952
4.25612	247781
4.26423	256260
4.27235	249671
4.28048	237044
4.28860	242088
4.29673	241224
4.30485	231787
4.31297	239930
4.32110	243837
4.32922	226477
4.33733	225119
4.34547	231913
4.35358	233429
4.36172	240843
4.36983	253117
4.37795	250980
4.38608	257970
4.39420	265836
4.40233	266816
4.41045	261006
4.41857	244448
4.42670	230223
4.43482	227016
4.44293	225758
4.45107	230135
4.45918	225977
4.46732	228229
4.47543	235900
4.48355	252197
4.49168	251625
4.49980	238423
4.50793	225819
4.51605	222578
4.52417	217857
4.53230	220005
4.54042	211451
4.54855	222384
4.55667	218897
4.56478	226236
4.57292	237486
4.58103	233471
4.58915	229265
4.59728	225072
4.60540	215953
4.61353	218553
4.62165	204648
4.62977	210966
4.63790	205879
4.64602	206536
4.65415	208456
4.66227	200798
4.67038	199453
4.67852	209396
4.68663	202186
4.69477	208979
4.70288	195926
4.71100	194137
4.71913	190383
4.72725	197981
4.73537	205417
4.74350	194305
4.75162	191169
4.75975	196784
4.76787	202703
4.77598	198832
4.78412	196504
4.79223	189455
4.80037	203856
4.80848	195601
4.81660	185394
4.82473	188964
4.83285	189745
4.84097	180716
4.84910	194069
4.85722	185171
4.86535	181082
4.87347	183801
4.88158	189316
4.88972	184040
4.89783	183139
4.90597	182224
4.91408	178580
4.92220	178513
4.93033	187554
4.93845	184910
4.94658	181492
4.95470	180741
4.96282	178470
4.97095	183573
4.97907	179542
4.98718	178430
4.99532	177192
5.00343	183603
5.01157	177436
5.01968	171182
5.02780	174387
5.03593	174123
5.04405	175586
5.05218	179111
5.06030	175799
5.06842	181146
5.07655	176461
5.08467	170975
5.09280	174867
5.10092	174280
5.10903	173924
5.11717	178617
5.12528	179979
5.13340	187060
5.14153	240677
5.14965	483688
5.15778	1164815
5.16590	2265734
5.17402	3240826
5.18215	3336097
5.19027	2777635
5.19840	2202005
5.20652	1774411
5.21463	1477480
5.22277	1274795
5.23088	1143275
5.23902	1060889
5.24713	990974
5.25525	899136
5.26338	864768
5.27150	795404
5.27962	741775
5.28775	713651
5.29587	671204
5.30400	661396
5.31212	631989
5.32023	603946
5.32837	582523
5.33648	557626
5.34462	544233
5.35273	536085
5.36085	507360
5.36898	493966
5.37710	481800
5.38522	477724
5.39335	466957
5.40147	453298
5.40960	418174
5.41772	420504
5.42583	421650
5.43397	422144
5.44208	415786
5.45022	404288
5.45833	388078
5.46645	373198
5.47458	377519
5.48270	381522
5.49083	363887
5.49895	370241
5.50707	406525
5.51520	404530
5.52332	395246
5.53143	359884
5.53957	349060
5.54768	336174
5.55582	329998
5.56393	323759
5.57205	329855
5.58018	321313
5.58830	323985
5.59643	315517
5.60455	313644
5.61267	327562
5.62080	314467
5.62892	300258
5.63705	299432
5.64517	317919
5.65328	315540
5.66142	289740
5.66953	293675
5.67765	298855
5.68578	295117
5.69390	278582
5.70203	289291
5.71015	285241
5.71827	289255
5.72640	291372
5.73452	284258
5.74265	279812
5.75077	281800
5.75888	285125
5.76702	275089
5.77513	280098
5.78325	272160
5.79138	264716
5.79950	266258
5.80763	266494
5.81575	258762
5.82387	259613
5.83200	272890
5.84012	265647
5.84825	273365
5.85637	257301
5.86448	270617
5.87262	282774
5.88073	263077
5.88887	266335
5.89698	293025
5.90510	304935
5.91323	338677
5.92135	321641
5.92947	306729
5.93760	295427
5.94572	271771
5.95385	270024
5.96197	283322
5.97008	338101
5.97822	368176
5.98633	378614
5.99447	358243
6.00258	319387
6.01070	281678
6.01883	275802
6.02695	261481
6.03508	255005
6.04320	251924
6.05132	249483
6.05945	250089
6.06757	230282
6.07568	205823
6.08382	208408
6.09193	193295
6.10007	198279
6.10818	195095
6.11630	197633
6.12443	189227
6.13255	188492
6.14068	198606
6.14880	183640
6.15692	181881
6.16505	183624
6.17317	184828
6.18128	180992
6.18942	191527
6.19753	211808
6.20567	229079
6.21378	254859
6.22190	257224
6.23003	257201
6.23815	248492
6.24628	252457
6.25440	259165
6.26252	273895
6.27065	286279
6.27877	300298
6.28690	296572
6.29502	301717
6.30313	297497
6.31127	288575
6.31938	271296
6.32750	277289
6.33563	270847
6.34375	270110
6.35188	265337
6.36000	266712
6.36812	262173
6.37625	259127
6.38437	251051
6.39250	247423
6.40062	254288
6.40873	249522
6.41687	250615
6.42498	237888
6.43312	244649
6.44123	236933
6.44935	243079
6.45748	240536
6.46560	232387
6.47372	231873
6.48185	239133
6.48997	229472
6.49810	234641
6.50622	236768
6.51433	235117
6.52247	236324
6.53058	237311
6.53872	241224
6.54683	237330
6.55495	248618
6.56308	242483
6.57120	241694
6.57933	249585
6.58745	251600
6.59557	245749
6.60370	249972
6.61182	251733
6.61993	233079
6.62807	243758
6.63618	242390
6.64432	249256
6.65243	249790
6.66055	257165
6.66868	248262
6.67680	244014
6.68493	254183
6.69305	255399
6.70117	268437
6.70930	270288
6.71742	265885
6.72553	263423
6.73367	263782
6.74178	256493
6.74992	264439
6.75803	273448
6.76615	258111
6.77428	274954
6.78240	275062
6.79053	275431
6.79865	274530
6.80677	277882
6.81490	283084
6.82302	269868
6.83115	276130
6.83927	267322
6.84738	269000
6.85552	279002
6.86363	281280
6.87175	278932
6.87988	275280
6.88800	272984
6.89613	276272
6.90425	268842
6.91237	262388
6.92050	261334
6.92862	257523
6.93675	250829
6.94487	245340
6.95298	238265
6.96112	242196
6.96923	247479
6.97737	249789
6.98548	256985
6.99360	249911
7.00173	243278
7.00985	241381
7.01797	244186
7.02610	242666
7.03422	236523
7.04235	220538
7.05047	209373
7.05858	195354
7.06672	194639
7.07483	198652
7.08297	193696
7.09108	186805
7.09920	189673
7.10733	182616
7.11545	180260
7.12357	189436
7.13170	183381
7.13982	175849
7.14795	173632
7.15607	179455
7.16418	181265
7.17232	183698
7.18043	189326
7.18857	192096
7.19668	214004
7.20480	200240
7.21293	193847
7.22105	188246
7.22918	197736
7.23730	174761
7.24542	177999
7.25355	177873
7.26167	185256
7.26978	184004
7.27792	169980
7.28603	175108
7.29417	170907
7.30228	167491
7.31040	148526
7.31853	149654
7.32665	161317
7.33478	142413
7.34290	149217
7.35102	143386
7.35915	146462
7.36727	147425
7.37540	149316
7.38352	147956
7.39163	145877
7.39977	147861
7.40788	140586
7.41600	142313
7.42413	135629
7.43225	134963
7.44038	141871
7.44850	139707
7.45662	136543
7.46475	141569
7.47287	136194
7.48100	134942
7.48912	136866
7.49723	152381
7.50537	150625
7.51348	155204
7.52160	151920
7.52973	137073
7.53785	144298
7.54598	133548
7.55410	131713
7.56222	135027
7.57035	132886
7.57847	131241
7.58660	133022
7.59472	130814
7.60283	136980
7.61097	129250
7.61908	133374
7.62722	131666
7.63533	136521
7.64345	128442
7.65158	127587
7.65970	125472
7.66782	126796
7.67595	123086
7.68407	125905
7.69220	124798
7.70032	121498
7.70843	121573
7.71657	129297
7.72468	121601
7.73282	126252
7.74093	132601
7.74905	133339
7.75718	133118
7.76530	144372
7.77343	145482
7.78155	149647
7.78967	146324
7.79780	141131
7.80592	129303
7.81403	130229
7.82217	123578
7.83028	129403
7.83842	132612
7.84653	129608
7.85465	129684
7.86278	136731
7.87090	126353
7.87903	124063
7.88715	125997
7.89527	123846
7.90340	116237
7.91152	116226
7.91965	119913
7.92777	126047
7.93588	123597
7.94402	121942
7.95213	123046
7.96025	124807
7.96838	123744
7.97650	116327
7.98463	104986
7.99275	96738
8.00087	99223
8.00900	98003
8.01712	96122
8.02525	93192
8.03337	97956
8.04148	100693
8.04962	88214
8.05773	82349
8.06585	83440
8.07398	81603
8.08210	84419
8.09023	89190
8.09835	82546
8.10647	82964
8.11460	85705
8.12272	77422
8.13085	88348
8.13897	86130
8.14708	91575
8.15522	90347
8.16333	77744
8.17147	88088
8.17958	75609
8.18770	77060
8.19583	78432
8.20395	77318
8.21207	90013
8.22020	85682
8.22832	97583
8.23645	91535
8.24457	95553
8.25268	98064
8.26082	86674
8.26893	84260
8.27707	95664
8.28518	88734
8.29330	92989
8.30143	102446
8.30955	105350
8.31768	107991
8.32580	103069
8.33392	100777
8.34205	101909
8.35017	99964
8.35828	101695
8.36642	98768
8.37453	97225
8.38267	94676
8.39078	94325
8.39890	93640
8.40703	105171
8.41515	94563
8.42328	98043
8.43140	98746
8.43952	91583
8.44765	95003
8.45577	92859
8.46388	91490
8.47202	96018
8.48013	94381
8.48827	94261
8.49638	112302
8.50450	110331
8.51263	117449
8.52075	107204
8.52888	102625
8.53700	92499
8.54512	93697
8.55325	88344
8.56137	98099
8.56950	85955
8.57762	86897
8.58573	81548
8.59387	82816
8.60198	84032
8.61010	83880
8.61823	78744
8.62635	82816
8.63448	85072
8.64260	81806
8.65072	84789
8.65885	82840
8.66697	90646
8.67510	98678
8.68322	113086
8.69133	125473
8.69947	114217
8.70758	99873
8.71572	96154
8.72383	87310
8.73195	85438
8.74008	79995
8.74820	93682
8.75632	83875
8.76445	83283
8.77257	88425
8.78070	85741
8.78882	84348
8.79693	85280
8.80507	83598
8.81318	85563
8.82132	83217
8.82943	82153
8.83755	88682
8.84568	81963
8.85380	81059
8.86192	84044
8.87005	87261
8.87817	96285
8.88630	97085
8.89442	101725
8.90253	104323
8.91067	99564
8.91878	95802
8.92692	87264
8.93503	89994
8.94315	83634
8.95128	88724
8.95940	82666
8.96753	84758
8.97565	81517
8.98377	79994
8.99190	76446
9.00002	85153
9.00813	98710
9.01627	148719
9.02438	285490
9.03252	567485
9.04063	895586
9.04875	1111684
9.05688	1075011
9.06500	858233
9.07313	639936
9.08125	514553
9.08937	452525
9.09750	413836
9.10562	373444
9.11375	333882
9.12187	302320
9.12998	278290
9.13812	269797
9.14623	251730
9.15435	235559
9.16248	222786
9.17060	220306
9.17873	209059
9.18685	198587
9.19497	192400
9.20310	185878
9.21122	185615
9.21935	173967
9.22747	174528
9.23558	162451
9.24372	167596
9.25183	161895
9.25997	165482
9.26808	164544
9.27620	159354
9.28433	152212
9.29245	153048
9.30057	156521
9.30870	150539
9.31682	157648
9.32495	150234
9.33307	149928
9.34118	153248
9.34932	151440
9.35743	163515
9.36557	155761
9.37368	155886
9.38180	146488
9.38993	146290
9.39805	146106
9.40617	142107
9.41430	144484
9.42242	138881
9.43055	138165
9.43867	146577
9.44678	154547
9.45492	150687
9.46303	150466
9.47117	143068
9.47928	148103
9.48740	137720
9.49553	140319
9.50365	127439
9.51178	139225
9.51990	125460
9.52802	124790
9.53615	119712
9.54427	121473
9.55238	118024
9.56052	111783
9.56863	121357
9.57677	117580
9.58488	112905
9.59300	118325
9.60113	113638
9.60925	119486
9.61738	120043
9.62550	114539
9.63362	118325
9.64175	112828
9.64987	104029
9.65800	109721
9.66612	108196
9.67423	101178
9.68237	108302
9.69048	106247
9.69860	105307
9.70673	104183
9.71485	102466
9.72298	102809
9.73110	98997
9.73922	106640
9.74735	102315
9.75547	103341
9.76360	101073
9.77172	103939
9.77983	105119
9.78797	90430
9.79608	99721
9.80420	84374
9.81233	82216
9.82045	80989
9.82858	78164
9.83670	77181
9.84482	75240
9.85295	75170
9.86107	69944
9.86920	70401
9.87732	74445
9.88543	92314
9.89357	82757
9.90168	95994
9.90982	90926
9.91793	92342
9.92605	87122
9.93418	84203
9.94230	84887
9.95042	81548
9.95855	83655
9.96667	84389
9.97480	83606
9.98292	77112
9.99103	77276
9.99917	84144
10.00728	79682
10.01542	97293
10.02353	120885
10.03165	164032
10.03978	193480
10.04790	202220
10.05603	213243
10.06415	207583
10.07227	223602
10.08040	257749
10.08852	277849
10.09663	290009
10.10477	295536
10.11288	292811
10.12102	291030
10.12913	278911
10.13725	284057
10.14538	285481
10.15350	303757
10.16163	290879
10.16975	271907
10.17787	287584
10.18600	280177
10.19412	282501
10.20223	284085
10.21037	302331
10.21848	299657
10.22662	303408
10.23473	297237
10.24285	279734
10.25098	272952
10.25910	278841
10.26723	286271
10.27535	298802
10.28347	291618
10.29160	306957
10.29972	297310
10.30785	292952
10.31597	291001
10.32408	298092
10.33222	306338
10.34033	301086
10.34845	305222
10.35658	286530
10.36470	272564
10.37283	251606
10.38095	253421
10.38907	260244
10.39720	242676
10.40532	243884
10.41345	234199
10.42157	235244
10.42968	234127
10.43782	230925
10.44593	224814
10.45407	225107
10.46218	224764
10.47030	211823
10.47843	215728
10.48655	213501
10.49467	226690
10.50280	213533
10.51092	212834
10.51905	223250
10.52717	214926
10.53528	208753
10.54342	211503
10.55153	209512
10.55967	210011
10.56778	212653
10.57590	227527
10.58403	224872
10.59215	226026
10.60028	208542
10.60840	213634
10.61652	198533
10.62465	200727
10.63277	201896
10.64088	202934
10.64902	196734
10.65713	191100
10.66527	197608
10.67338	191666
10.68150	184592
10.68963	192789
10.69775	192015
10.70588	194388
10.71400	208334
10.72212	204552
10.73025	189797
10.73837	182922
10.74648	195930
10.75462	183590
10.76273	183505
10.77087	184046
10.77898	181769
10.78710	180943
10.79523	181075
10.80335	172589
10.81148	173124
10.81960	165068
10.82772	173806
10.83585	170036
10.84397	173665
10.85210	174685
10.86022	172933
10.86833	168523
10.87647	178723
10.88458	166568
10.89270	165237
10.90083	166328
10.90895	165358
10.91708	167524
10.92520	162002
10.93332	159126
10.94145	159635
10.94957	156717
10.95770	158352
10.96582	153485
10.97393	142457
10.98207	125016
10.99018	109622
10.99832	84751
11.00643	77260
11.01455	72604
11.02268	75280
11.03080	72502
11.03892	74368
11.04705	74415
11.05517	78641
11.06330	78503
11.07142	77417
11.07953	75740
11.08767	72058
11.09578	69171
11.10392	68967
11.11203	71607
11.12015	76085
11.12828	82306
11.13640	77728
11.14452	87349
11.15265	86423
11.16077	79565
11.16890	72785
11.17702	73460
11.18513	68821
11.19327	68675
11.20138	70647
11.20952	69356
11.21763	71107
11.22575	68483
11.23388	66326
11.24200	70152
11.25013	68833
11.25825	65523
11.26637	66708
11.27450	64076
11.28262	67705
11.29073	65026
11.29887	62519
11.30698	61006
11.31512	60048
11.32323	62279
11.33135	64294
11.33948	63454
11.34760	63973
11.35573	62176
11.36385	61690
11.37197	61697
11.38010	56145
11.38822	63122
11.39635	62997
11.40447	65894
11.41258	69196
11.42072	79575
11.42883	107748
11.43695	123617
11.44508	146850
11.45320	174582
11.46133	227236
11.46945	257221
11.47757	279504
11.48570	317064
11.49382	328389
11.50195	325828
11.51007	341608
11.51818	331204
11.52632	325907
11.53443	311210
11.54255	306808
11.55068	297902
11.55880	299484
11.56693	308919
11.57505	296739
11.58317	296127
11.59130	292070
11.59942	294297
11.60755	285436
11.61567	285541
11.62378	281071
11.63192	282296
11.64003	277053
11.64817	274883
11.65628	281289
11.66440	264175
11.67253	263297
11.68065	271793
11.68877	263974
11.69690	266754
11.70502	264573
11.71315	262095
11.72127	273557
11.72938	248225
11.73752	251379
11.74563	251958
11.75377	252652
11.76188	246518
11.77000	250816
11.77813	243004
11.78625	240124
11.79438	230013
11.80250	245411
11.81062	238264
11.81875	228287
11.82687	231373
11.83498	215978
11.84312	221402
11.85123	225898
11.85937	220512
11.86748	227681
11.87560	234401
11.88373	221982
11.89185	221277
11.89998	221321
11.90810	220563
11.91622	211582
11.92435	202827
11.93247	206903
11.94060	218405
11.94872	205734
11.95683	213832
11.96497	212646
11.97308	206384
11.98120	221322
11.98933	203779
11.99745	204436
12.00558	199816
12.01370	197808
12.02182	202584
12.02995	196591
12.03807	203621
12.04620	199900
12.05432	198757
12.06243	190839
12.07057	198882
12.07868	195425
12.08680	193287
12.09493	205042
12.10305	205255
12.11118	207440
12.11930	211160
12.12742	201657
12.13555	201667
12.14367	195856
12.15180	188437
12.15992	165104
12.16803	157697
12.17617	141160
12.18428	126289
12.19242	106841
12.20053	103802
12.20865	99958
12.21678	93855
12.22490	90787
12.23302	92053
12.24115	89587
12.24927	104246
12.25740	98276
12.26552	94620
12.27363	92257
12.28177	92310
12.28988	83190
12.29802	81856
12.30613	81815
12.31425	78414
12.32238	81253
12.33050	77057
12.33863	78141
12.34675	83119
12.35487	77023
12.36300	80323
12.37112	79089
12.37923	80444
12.38737	78662
12.39548	80922
12.40362	80830
12.41173	73408
12.41985	89506
12.42798	78284
12.43610	77745
12.44423	82210
12.45235	82381
12.46047	83509
12.46860	88482
12.47672	97656
12.48483	86446
12.49297	95963
12.50108	93367
12.50922	96323
12.51733	96193
12.52545	93979
12.53358	98996
12.54170	95152
12.54983	89704
12.55795	89098
12.56607	89707
12.57420	88001
12.58232	92335
12.59045	84485
12.59857	82289
12.60668	83489
12.61482	83804
12.62293	87507
12.63105	89430
12.63918	94310
12.64730	106692
12.65543	120194
12.66355	135023
12.67167	144049
12.67980	157573
12.68792	176010
12.69605	169103
12.70417	170053
12.71228	167339
12.72042	171377
12.72853	165360
12.73667	165732
12.74478	155335
12.75290	167340
12.76103	159984
12.76915	166130
12.77727	150873
12.78540	154297
12.79352	151623
12.80165	149950
12.80977	144017
12.81788	145091
12.82602	148853
12.83413	146306
12.84227	157372
12.85038	166859
12.85850	169265
12.86663	167540
12.87475	160151
12.88287	154142
12.89100	140962
12.89912	139010
12.90725	147218
12.91537	136302
12.92348	137171
12.93162	140101
12.93973	130205
12.94787	130500
12.95598	129727
12.96410	130651
12.97223	129297
12.98035	129779
12.98848	141063
12.99660	130768
13.00472	136757
13.01285	130605
13.02097	126475
13.02908	125099
13.03722	126246
13.04533	118651
13.05347	114579
13.06158	111695
13.06970	109196
13.07783	108434
13.08595	113548
13.09408	104906
13.10220	109144
13.11032	105011
13.11845	112870
13.12657	126049
13.13470	122853
13.14282	120938
13.15093	114155
13.15907	119515
13.16718	103549
13.17530	107053
13.18343	108970
13.19155	115837
13.19968	105262
13.20780	114137
13.21592	94500
13.22405	86797
13.23217	79903
13.24030	71869
13.24842	69129
13.25653	69081
13.26467	62506
13.27278	63346
13.28092	63627
13.28903	63438
13.29715	65919
13.30528	70901
13.31340	59785
13.32152	56739
13.32965	59224
13.33777	59320
13.34590	55796
13.35402	50716
13.36213	49058
13.37027	52519
13.37838	50215
13.38652	54722
13.39463	56070
13.40275	56309
13.41088	56319
13.41900	64405
13.42712	57196
13.43525	61000
13.44337	64203
13.45150	63160
13.45962	64955
13.46773	66343
13.47587	66106
13.48398	65160
13.49212	62514
13.50023	59431
13.50835	59920
13.51648	59447
13.52460	59563
13.53273	55426
13.54085	53872
13.54897	53522
13.55710	63817
13.56522	54371
13.57333	58238
13.58147	53952
13.58958	65585
13.59772	56253
13.60583	50275
13.61395	55544
13.62208	48141
13.63020	47591
13.63833	48023
13.64645	50396
13.65457	53793
13.66270	48112
13.67082	52849
13.67895	48354
13.68707	48423
13.69518	45262
13.70332	47866
13.71143	47406
13.71955	48436
13.72768	48830
13.73580	45976
13.74393	45009
13.75205	40656
13.76017	42391
13.76830	43314
13.77642	45877
13.78455	44753
13.79267	46977
13.80078	42472
13.80892	47995
13.81703	47032
13.82515	39168
13.83328	46228
13.84140	42562
13.84953	44177
13.85765	45719
13.86577	40999
13.87390	43122
13.88202	42340
13.89015	39846
13.89827	36542
13.90638	38449
13.91452	42217
13.92263	37787
13.93077	35971
13.93888	38473
13.94700	36007
13.95513	34565
13.96325	36013
13.97137	33546
13.97950	38764
13.98762	37312
13.99575	36654
14.00387	38892
14.01198	37188
14.02012	39020
14.02823	48680
14.03637	50250
14.04448	41437
14.05260	41844
14.06073	45460
14.06885	44270
14.07698	43579
14.08510	42556
14.09322	41352
14.10135	41839
14.10947	42681
14.11758	39694
14.12572	44571
14.13383	44246
14.14197	43114
14.15008	38378
14.15820	43875
14.16633	45167
14.17445	42212
14.18258	43339
14.19070	48696
14.19882	57013
14.20695	46717
14.21507	44068
14.22318	46910
14.23132	46850
14.23943	43757
14.24757	49057
14.25568	44662
14.26380	45133
14.27193	51280
14.28005	43561
14.28818	50265
14.29630	44379
14.30442	45476
14.31255	41468
14.32067	53485
14.32880	44169
14.33692	49973
14.34503	48002
14.35317	43213
14.36128	55164
14.36940	45352
14.37753	41044
14.38565	38862
14.39378	45890
14.40190	37262
14.41002	38136
14.41815	44119
14.42627	37930
14.43440	48566
14.44252	44915
14.45063	54396
14.45877	65130
14.46688	101490
14.47502	176512
14.48313	249778
14.49125	297948
14.49938	311641
14.50750	255107
14.51562	212096
14.52375	181406
14.53187	152625
14.54000	124385
14.54812	135818
14.55623	116213
14.56437	111777
14.57248	115588
14.58062	107549
14.58873	100892
14.59685	96295
14.60498	92469
14.61310	82655
14.62123	77517
14.62935	70855
14.63747	71074
14.64560	57255
14.65372	57005
14.66183	57943
14.66997	59424
14.67808	61505
14.68622	57947
14.69433	48483
14.70245	47346
14.71058	41766
14.71870	44889
14.72683	43499
14.73495	40486
14.74307	40871
14.75120	40046
14.75932	38079
14.76743	37892
14.77557	39588
14.78368	43115
14.79182	40836
14.79993	37376
14.80805	44026
14.81618	43667
14.82430	39771
14.83243	37921
14.84055	39094
14.84867	39675
14.85680	39829
14.86492	41410
14.87305	41257
14.88117	37561
14.88928	38824
14.89742	42392
14.90553	38673
14.91365	42144
14.92178	35868
14.92990	38222
14.93803	37176
14.94615	38730
14.95427	35930
14.96240	38462
14.97052	41699
14.97865	38487
14.98677	35448
14.99488	40094
15.00302	53775
15.01113	38620
15.01927	40409
15.02738	48543
15.03550	35154
15.04363	34186
15.05175	35939
15.05987	35534
15.06800	39100
15.07612	33954
15.08425	35298
15.09237	33206
15.10048	34222
15.10862	33490
15.11673	33117
15.12487	34601
15.13298	47398
15.14110	40090
15.14923	37825
15.15735	48007
15.16547	33728
15.17360	35805
15.18172	37490
15.18985	37596
15.19797	38567
15.20608	40289
15.21422	53768
15.22233	38915
15.23047	41472
15.23858	42550
15.24670	39578
15.25483	45843
15.26295	52615
15.27108	52832
15.27920	57699
15.28732	57615
15.29545	57443
15.30357	58869
15.31168	56642
15.31982	58123
15.32793	56523
15.33607	52598
15.34418	53282
15.35230	59685
15.36043	61423
15.36855	50830
15.37668	59734
15.38480	41031
15.39292	44495
15.40105	45981
15.40917	48626
15.41730	49806
15.42542	46167
15.43353	42476
15.44167	47734
15.44978	47574
15.45790	45178
15.46603	45730
15.47415	45992
15.48228	45683
15.49040	44271
15.49852	56432
15.50665	43556
15.51477	42434
15.52290	53252
15.53102	42406
15.53913	38810
15.54727	39966
15.55538	39494
15.56350	37115
15.57163	38424
15.57975	36491
15.58788	37429
15.59600	34344
15.60412	40078
15.61225	40330
15.62037	36039
15.62850	35067
15.63662	32737
15.64473	35687
15.65287	35464
15.66098	35000
15.66912	37829
15.67723	32786
15.68535	39699
15.69348	34094
15.70160	33393
15.70972	33149
15.71785	33657
15.72597	34300
15.73410	31621
15.74222	28587
15.75033	31083
15.75847	30904
15.76658	29118
15.77472	29470
15.78283	31679
15.79095	35905
15.79908	33482
15.80720	33226
15.81533	43115
15.82345	34028
15.83157	31610
15.83970	28709
15.84782	32368
15.85593	30494
15.86407	30786
15.87218	32115
15.88032	31695
15.88843	31579
15.89655	29953
15.90468	32154
15.91280	34796
15.92093	31632
15.92905	31087
15.93717	31721
15.94530	29434
15.95342	31302
15.96155	29407
15.96967	30819
15.97778	37875
15.98592	29792
15.99403	30104
16.00215	29215
16.01028	28320
16.01840	27050
16.02653	28278
16.03465	26578
16.04277	29599
16.05090	29207
16.05902	39539
16.06715	30854
16.07527	30280
16.08338	31489
16.09152	29752
16.09963	28409
16.10775	26307
16.11588	29427
16.12400	30132
16.13213	27060
16.14025	28919
16.14837	29890
16.15650	33220
16.16462	30102
16.17275	30848
16.18087	31992
16.18898	30964
16.19712	29038
16.20523	31339
16.21337	39495
16.22148	31259
16.22960	26621
16.23773	33874
16.24585	31791
16.25397	38079
16.26210	31269
16.27022	32433
16.27835	29679
16.28647	27461
16.29458	30357
16.30272	29564
16.31083	30308
16.31897	31309
16.32708	33085
16.33520	30050
16.34333	32084
16.35145	28976
16.35958	33411
16.36770	32936
16.37582	37404
16.38395	32915
16.39207	34297
16.40018	46269
16.40832	37569
16.41643	42018
16.42457	55754
16.43268	71097
16.44080	90917
16.44893	99082
16.45705	95438
16.46518	80065
16.47330	68481
16.48142	63578
16.48955	51141
16.49767	49017
16.50578	43862
16.51392	42039
16.52203	42869
16.53017	39874
16.53828	41522
16.54640	39273
16.55453	39802
16.56265	36959
16.57078	38293
16.57890	39342
16.58702	43257
16.59515	48723
16.60327	37561
16.61140	33351
16.61952	37638
16.62763	37048
16.63577	34903
16.64388	36266
16.65200	35800
16.66013	35587
16.66825	37624
16.67638	32129
16.68450	43102
16.69262	36109
16.70075	37423
16.70887	35450
16.71700	36619
16.72512	35446
16.73323	33682
16.74137	30607
16.74948	45082
16.75762	32040
16.76573	30225
16.77385	30907
16.78198	33456
16.79010	33873
16.79822	37565
16.80635	35934
16.81447	37335
16.82260	36076
16.83072	36917
16.83883	33396
16.84697	34970
16.85508	36432
16.86322	33238
16.87133	36202
16.87945	33379
16.88758	37726
16.89570	33450
16.90383	36935
16.91195	32289
16.92007	31497
16.92820	35978
16.93632	37555
16.94443	34391
16.95257	42572
16.96068	34122
16.96882	36387
16.97693	32530
16.98505	36856
16.99318	33200
17.00130	33910
17.00943	31290
17.01755	33721
17.02567	33659
17.03380	31323
17.04192	32527
17.05003	33198
17.05817	32201
17.06628	31871
17.07442	30305
17.08253	29383
17.09065	32185
17.09878	34726
17.10690	34087
17.11503	31650
17.12315	31144
17.13127	32171
17.13940	32351
17.14752	31344
17.15565	30403
17.16377	44286
17.17188	37061
17.18002	45807
17.18813	39465
17.19625	44096
17.20438	46435
17.21250	50032
17.22063	48209
17.22875	49464
17.23687	46576
17.24500	45137
17.25312	49345
17.26125	48368
17.26937	47778
17.27748	46227
17.28562	43223
17.29373	47246
17.30187	43903
17.30998	43403
17.31810	43963
17.32623	41479
17.33435	44921
17.34247	52718
17.35060	42647
17.35872	44632
17.36685	44168
17.37497	55978
17.38308	43023
17.39122	39267
17.39933	39349
17.40747	39845
17.41558	37686
17.42370	34677
17.43183	34050
17.43995	32393
17.44808	34084
17.45620	41999
17.46432	34498
17.47245	34020
17.48057	29975
17.48868	41952
17.49682	33726
17.50493	31997
17.51307	36124
17.52118	35080
17.52930	46892
17.53743	36017
17.54555	35910
17.55368	36901
17.56180	35826
17.56992	35554
17.57805	32203
17.58617	34573
17.59428	36378
17.60242	30624
17.61053	33679
17.61867	32124
17.62678	35767
17.63490	36579
17.64303	36822
17.65115	39050
17.65928	37138
17.66740	38989
17.67552	37186
17.68365	35964
17.69177	37870
17.69990	38856
17.70802	47036
17.71613	39155
17.72427	38464
17.73238	36956
17.74050	37919
17.74863	33397
17.75675	34761
17.76488	35977
17.77300	40827
17.78112	45260
17.78925	48159
17.79737	56116
17.80550	56108
17.81362	58383
17.82173	55465
17.82987	52028
17.83798	51593
17.84612	45089
17.85423	48001
17.86235	50642
17.87048	43731
17.87860	44076
17.88672	43141
17.89485	52547
17.90297	38894
17.91110	40117
17.91922	41921
17.92733	35845
17.93547	36958
17.94358	39173
17.95172	48679
17.95983	42128
17.96795	49917
17.97608	40720
17.98420	43667
17.99232	47975
18.00045	40737
18.00857	37913
18.01670	35885
18.02482	36910
18.03293	34386
18.04107	33901
18.04918	36978
18.05732	33275
18.06543	44720
18.07355	42851
18.08168	33748
18.08980	38987
18.09793	50673
18.10605	42886
18.11417	49277
18.12230	48684
18.13042	51587
18.13853	49070
18.14667	43415
18.15478	46881
18.16292	49446
18.17103	38960
18.17915	42859
18.18728	38863
18.19540	39722
18.20353	41287
18.21165	40797
18.21977	37276
18.22790	41170
18.23602	38485
18.24415	37633
18.25227	42168
18.26038	47417
18.26852	45413
18.27663	45468
18.28475	43399
18.29288	41480
18.30100	39080
18.30913	36699
18.31725	38699
18.32537	38357
18.33350	35088
18.34162	30875
18.34975	30947
18.35787	32962
18.36598	34394
18.37412	41008
18.38223	40661
18.39035	43870
18.39848	43001
18.40660	38073
18.41473	39000
18.42285	37939
18.43097	37227
18.43910	36768
18.44722	33804
18.45535	34287
18.46347	29924
18.47158	43264
18.47972	31141
18.48783	30121
18.49597	30005
18.50408	34047
18.51220	32378
18.52033	31562
18.52845	31852
18.53657	37135
18.54470	37202
18.55282	41431
18.56095	40645
18.56907	39331
18.57718	38090
18.58532	42420
18.59343	39478
18.60157	37792
18.60968	40958
18.61780	41788
18.62593	54012
18.63405	48595
18.64218	63319
18.65030	92063
18.65842	111325
18.66655	113667
18.67467	119341
18.68278	131594
18.69092	125101
18.69903	132498
18.70717	116979
18.71528	118230
18.72340	113822
18.73153	113450
18.73965	120062
18.74778	110861
18.75590	111269
18.76402	104238
18.77215	102963
18.78027	95270
18.78840	87798
18.79652	85765
18.80463	85878
18.81277	82404
18.82088	81155
18.82900	80436
18.83713	79394
18.84525	76576
18.85338	72075
18.86150	71482
18.86962	66912
18.87775	66416
18.88587	66804
18.89400	65266
18.90212	59221
18.91023	61240
18.91837	63076
18.92648	59534
18.93460	56260
18.94273	59963
18.95085	58385
18.95898	55179
18.96710	56954
18.97522	54353
18.98335	47899
18.99147	50283
18.99960	67651
19.00772	49479
19.01583	50390
19.02397	47994
19.03208	50062
19.04022	47084
19.04833	51792
19.05645	55443
19.06458	72404
19.07270	62437
19.08082	60278
19.08895	58612
19.09707	54314
19.10520	52570
19.11332	47973
19.12143	49348
19.12957	50414
19.13768	47261
19.14582	52933
19.15393	49150
19.16205	48150
19.17018	49081
19.17830	48640
19.18643	45520
19.19455	42944
19.20267	40800
19.21080	39070
19.21892	41039
19.22703	36987
19.23517	40807
19.24328	37117
19.25142	38238
19.25953	39205
19.26765	39211
19.27578	41273
19.28390	41137
19.29203	40635
19.30015	39663
19.30827	36429
19.31640	37214
19.32452	37186
19.33263	35928
19.34077	38570
19.34888	47254
19.35702	38067
19.36513	37120
19.37325	35988
19.38138	36660
19.38950	35304
19.39763	37344
19.40575	33333
19.41387	35386
19.42200	39008
19.43012	37444
19.43825	35238
19.44637	33700
19.45448	33017
19.46262	43709
19.47073	35423
19.47885	34886
19.48698	34245
19.49510	40265
19.50323	37726
19.51135	41746
19.51947	43538
19.52760	51992
19.53572	72358
19.54385	68597
19.55197	87484
19.56008	89979
19.56822	83316
19.57633	79181
19.58447	67987
19.59258	58596
19.60070	61867
19.60883	56973
19.61695	55443
19.62507	64472
19.63320	56282
19.64132	57280
19.64945	54441
19.65757	50742
19.66568	45190
19.67382	46819
19.68193	44595
19.69007	49160
19.69818	52938
19.70630	71415
19.71443	85839
19.72255	107622
19.73067	118229
19.73880	110866
19.74692	98712
19.75505	81580
19.76317	70100
19.77128	78876
19.77942	75334
19.78753	96383
19.79567	126878
19.80378	167655
19.81190	190043
19.82003	167220
19.82815	139507
19.83628	103356
19.84440	73828
19.85252	58557
19.86065	49103
19.86877	50201
19.87688	45508
19.88502	47231
19.89313	41464
19.90127	43996
19.90938	40928
19.91750	39617
19.92563	37456
19.93375	39760
19.94188	43211
19.95000	39456
19.95812	37274
19.96625	37139
19.97437	36123
19.98250	38518
19.99062	38241
19.99873	39860
20.00687	47745
20.01498	61179
20.02310	110338
20.03123	194198
20.03935	352151
20.04748	529258
20.05560	691584
20.06372	806240
20.07185	756607
20.07997	617490
20.08810	447864
20.09622	309272
20.10433	238224
20.11247	184314
20.12058	155983
20.12872	133105
20.13683	108082
20.14495	98078
20.15308	84001
20.16120	75078
20.16932	79234
20.17745	59521
20.18557	62470
20.19370	57528
20.20182	59501
20.20993	66351
20.21807	61843
20.22618	62285
20.23432	66925
20.24243	73483
20.25055	74490
20.25868	77430
20.26680	74140
20.27492	67148
20.28305	58952
20.29117	52286
20.29930	47120
20.30742	45392
20.31553	46677
20.32367	53208
20.33178	37886
20.33992	43400
20.34803	48317
20.35615	54312
20.36428	62599
20.37240	81050
20.38053	93006
20.38865	102547
20.39677	107753
20.40490	100963
20.41302	90564
20.42113	87532
20.42927	77148
20.43738	70182
20.44552	68691
20.45363	65361
20.46175	65793
20.46988	68847
20.47800	61476
20.48613	60618
20.49425	57208
20.50237	57330
20.51050	55139
20.51862	50540
20.52675	46204
20.53487	57573
20.54298	46914
20.55112	45313
20.55923	43792
20.56735	43123
20.57548	47836
20.58360	62754
20.59173	98850
20.59985	174594
20.60797	293901
20.61610	422909
20.62422	520594
20.63235	541531
20.64047	471520
20.64858	367345
20.65672	267450
20.66483	182418
20.67295	133599
20.68108	109239
20.68920	89953
20.69733	86664
20.70545	69123
20.71357	64417
20.72170	59124
20.72982	53591
20.73795	53274
20.74607	53520
20.75418	66544
20.76232	77009
20.77043	103531
20.77857	132309
20.78668	174602
20.79480	178544
20.80293	171435
20.81105	145576
20.81917	123501
20.82730	110744
20.83542	82223
20.84355	79288
20.85167	67713
20.85978	73367
20.86792	59112
20.87603	51541
20.88417	48328
20.89228	49828
20.90040	56410
20.90853	41968
20.91665	44138
20.92478	40943
20.93290	41214
20.94102	38790
20.94915	36188
20.95727	35170
20.96538	39602
20.97352	40364
20.98163	40627
20.98977	45611
20.99788	36240
21.00600	36879
21.01413	35341
21.02225	38186
21.03038	35874
21.03850	38575
21.04662	36972
21.05475	34805
21.06287	32231
21.07098	35382
21.07912	33918
21.08723	33903
21.09537	44745
21.10348	37386
21.11160	32310
21.11973	32011
21.12785	32487
21.13598	31840
21.14410	34686
21.15222	33438
21.16035	44899
21.16847	36256
21.17660	34214
21.18472	34760
21.19283	32900
21.20097	33070
21.20908	33970
21.21720	34024
21.22533	35261
21.23345	36973
21.24158	40730
21.24970	46686
21.25782	52248
21.26595	59679
21.27407	55732
21.28220	62008
21.29032	53672
21.29843	45068
21.30657	41675
21.31468	40476
21.32282	37550
21.33093	36365
21.33905	32038
21.34718	35836
21.35530	39040
21.36342	36186
21.37155	33087
21.37967	36160
21.38780	37043
21.39592	36069
21.40403	38327
21.41217	37112
21.42028	37697
21.42842	34024
21.43653	34114
21.44465	35538
21.45278	32837
21.46090	34153
21.46903	36926
21.47715	51319
21.48527	37021
21.49340	36090
21.50152	35722
21.50963	35204
21.51777	35676
21.52588	31418
21.53402	35448
21.54213	31353
21.55025	33975
21.55838	29332
21.56650	32480
21.57463	30009
21.58275	34195
21.59087	31182
21.59900	35049
21.60712	33389
21.61523	34895
21.62337	37232
21.63148	40129
21.63962	37812
21.64773	41807
21.65585	40114
21.66398	36465
21.67210	38473
21.68023	38352
21.68835	41298
21.69647	58049
21.70460	49609
21.71272	51986
21.72085	55690
21.72897	55034
21.73708	52332
21.74522	46421
21.75333	40729
21.76145	42220
21.76958	37945
21.77770	49583
21.78583	39084
21.79395	40191
21.80207	39499
21.81020	39911
21.81832	40016
21.82645	38345
21.83457	36687
21.84268	41382
21.85082	37110
21.85893	38048
21.86707	37882
21.87518	38410
21.88330	37855
21.89143	38146
21.89955	36033
21.90767	39122
21.91580	39070
21.92392	51937
21.93205	69665
21.94017	98932
21.94828	136299
21.95642	163007
21.96453	164363
21.97267	143724
21.98078	116574
21.98890	92992
21.99703	67861
22.00515	64313
22.01327	53331
22.02140	58871
22.02952	43556
22.03765	47733
22.04577	44249
22.05388	43183
22.06202	41844
22.07013	40161
22.07827	39157
22.08638	41348
22.09450	36207
22.10263	37877
22.11075	38422
22.11888	42231
22.12700	49099
22.13512	66417
22.14325	87597
22.15137	125051
22.15948	147019
22.16762	157081
22.17573	150518
22.18387	106605
22.19198	91693
22.20010	70326
22.20823	58495
22.21635	56122
22.22448	55222
22.23260	60128
22.24072	56689
22.24885	58040
22.25697	54268
22.26510	50969
22.27322	49714
22.28133	42488
22.28947	40870
22.29758	41447
22.30570	39595
22.31383	40380
22.32195	37322
22.33008	38450
22.33820	37394
22.34632	41960
22.35445	39866
22.36257	44472
22.37070	46200
22.37882	45120
22.38693	44490
22.39507	46070
22.40318	42081
22.41130	38161
22.41943	40714
22.42755	39579
22.43568	43625
22.44380	44319
22.45192	46904
22.46005	47317
22.46817	42611
22.47630	54395
22.48442	40406
22.49253	40101
22.50067	37012
22.50878	42919
22.51692	40295
22.52503	45803
22.53315	53640
22.54128	57637
22.54940	66571
22.55752	80615
22.56565	87282
22.57377	93114
22.58190	89878
22.59002	90100
22.59813	84130
22.60627	81916
22.61438	75936
22.62252	79005
22.63063	62072
22.63875	59178
22.64688	54688
22.65500	51148
22.66313	51358
22.67125	49680
22.67937	46568
22.68750	46921
22.69562	46500
22.70373	57190
22.71187	45776
22.71998	42382
22.72812	45442
22.73623	42446
22.74435	47449
22.75248	43042
22.76060	45444
22.76873	47313
22.77685	49426
22.78497	47938
22.79310	45803
22.80122	46725
22.80935	48677
22.81747	48124
22.82558	46857
22.83372	57688
22.84183	51059
22.84995	46372
22.85808	44574
22.86620	47820
22.87433	44017
22.88245	47360
22.89057	49326
22.89870	48208
22.90682	51584
22.91495	58398
22.92307	47656
22.93118	47058
22.93932	44051
22.94743	40487
22.95555	41756
22.96368	44264
22.97180	43037
22.97993	42408
22.98805	39694
22.99617	39312
23.00430	40551
23.01242	39403
23.02055	39244
23.02867	39376
23.03678	40021
23.04492	39270
23.05303	37149
23.06117	35778
23.06928	39535
23.07740	49232
23.08553	39716
23.09365	36459
23.10177	38636
23.10990	36763
23.11802	39982
23.12615	37922
23.13427	45181
23.14238	44522
23.15052	41808
23.15863	40371
23.16677	40411
23.17488	40087
23.18300	46813
23.19113	44536
23.19925	45527
23.20738	47000
23.21550	54332
23.22362	46773
23.23175	44970
23.23987	41865
23.24798	40308
23.25612	38271
23.26423	51616
23.27237	39845
23.28048	38495
23.28860	40030
23.29673	43200
23.30485	42038
23.31298	37758
23.32110	40101
23.32922	37645
23.33735	42028
23.34547	45716
23.35358	47805
23.36172	56567
23.36983	56351
23.37797	57061
23.38608	56909
23.39420	54253
23.40233	63259
23.41045	52386
23.41858	50116
23.42670	63265
23.43482	62250
23.44295	59765
23.45107	65303
23.45920	70810
23.46732	81427
23.47543	86568
23.48357	101333
23.49168	92754
23.49980	90044
23.50793	84327
23.51605	79844
23.52418	75936
23.53230	68272
23.54042	64841
23.54855	59156
23.55667	53883
23.56480	58164
23.57292	43211
23.58103	43455
23.58917	40237
23.59728	42438
23.60542	49014
23.61353	48608
23.62165	40525
23.62978	40623
23.63790	43920
23.64602	45234
23.65415	40229
23.66227	41937
23.67040	44063
23.67852	50433
23.68663	40841
23.69477	40611
23.70288	37775
23.71102	41710
23.71913	38458
23.72725	38251
23.73538	40871
23.74350	41831
23.75162	38031
23.75975	36036
23.76787	39120
23.77600	40973
23.78412	37291
23.79223	40831
23.80037	37845
23.80848	36568
23.81662	35800
23.82473	36398
23.83285	36383
23.84098	33985
23.84910	36086
23.85723	37361
23.86535	31289
23.87347	35442
23.88160	36317
23.88972	37411
23.89783	34226
23.90597	32446
23.91408	34613
23.92222	35271
23.93033	34256
23.93845	36305
23.94658	36352
23.95470	38977
23.96283	48272
23.97095	36838
23.97907	40948
23.98720	44857
23.99532	47016
24.00345	51525
24.01157	55802
24.01968	61942
24.02782	74408
24.03593	87505
24.04405	95987
24.05218	102780
24.06030	94853
24.06843	89115
24.07655	93537
24.08467	75403
24.09280	72031
24.10092	72130
24.10905	66414
24.11717	68934
24.12528	72680
24.13342	69511
24.14153	70104
24.14967	80257
24.15778	82651
24.16590	86286
24.17403	94860
24.18215	104977
24.19027	87756
24.19840	87461
24.20652	89565
24.21465	93544
24.22277	123369
24.23088	303873
24.23902	938815
24.24713	2758113
24.25527	6294328
24.26338	1.025743E+07
24.27150	1.271994E+07
24.27963	1.289737E+07
24.28775	1.132354E+07
24.29587	9180937
24.30400	6872125
24.31212	5046414
24.32025	3767250
24.32837	2829528
24.33648	2188565
24.34462	1660558
24.35273	1322277
24.36087	1073812
24.36898	864011
24.37710	721076
24.38523	601219
24.39335	517225
24.40148	450983
24.40960	409403
24.41772	354086
24.42585	328990
24.43397	306765
24.44208	293270
24.45022	277578
24.45833	263827
24.46647	243429
24.47458	200373
24.48270	184573
24.49083	163866
24.49895	159256
24.50708	155654
24.51520	152039
24.52332	161422
24.53145	168835
24.53957	171444
24.54770	164292
24.55582	153335
24.56393	130282
24.57207	132297
24.58018	110493
24.58830	98380
24.59643	98868
24.60455	100774
24.61268	100582
24.62080	97283
24.62892	90938
24.63705	86664
24.64517	84275
24.65330	88618
24.66142	80409
24.66953	88871
24.67767	90181
24.68578	103900
24.69390	127380
24.70203	154785
24.71015	163953
24.71828	163634
24.72640	148561
24.73452	117329
24.74265	98070
24.75077	79744
24.75890	76143
24.76702	80381
24.77513	79478
24.78327	82770
24.79138	92526
24.79952	105088
24.80763	120560
24.81575	136015
24.82388	140247
24.83200	126338
24.84012	111286
24.84825	96324
24.85637	84128
24.86450	78324
24.87262	70938
24.88073	68182
24.88887	74027
24.89698	75860
24.90512	67092
24.91323	64649
24.92135	60556
24.92948	62565
24.93760	58072
24.94573	58767
24.95385	55792
24.96197	54139
24.97010	55998
24.97822	56952
24.98633	55857
24.99447	57446
25.00258	52687
25.01072	52341
25.01883	54041
25.02695	55191
25.03508	53504
25.04320	56759
25.05133	56268
25.05945	58894
25.06757	55629
25.07570	53668
25.08382	56524
25.09193	57899
25.10007	67325
25.10818	64279
25.11632	57036
25.12443	59903
25.13255	69236
25.14068	60119
25.14880	65065
25.15693	70455
25.16505	69422
25.17317	67631
25.18130	65944
25.18942	60238
25.19755	56294
25.20567	53266
25.21378	54556
25.22192	53096
25.23003	50252
25.23815	52423
25.24628	49023
25.25440	48403
25.26253	48139
25.27065	46743
25.27877	49638
25.28690	49208
25.29502	49667
25.30315	53419
25.31127	52365
25.31938	50436
25.32752	52538
25.33563	53825
25.34377	53378
25.35188	48466
25.36000	51126
25.36813	47736
25.37625	49526
25.38437	53297
25.39250	51217
25.40062	53778
25.40875	46488
25.41687	52989
25.42498	44983
25.43312	50719
25.44123	42029
25.44937	51925
25.45748	46666
25.46560	45471
25.47373	42913
25.48185	44466
25.48998	46063
25.49810	49089
25.50622	44276
25.51435	45640
25.52247	52101
25.53058	47785
25.53872	55064
25.54683	51207
25.55497	50442
25.56308	50863
25.57120	49003
25.57933	46298
25.58745	53659
25.59558	47413
25.60370	46912
25.61182	47153
25.61995	53529
25.62807	57494
25.63618	54405
25.64432	62022
25.65243	65445
25.66057	63580
25.66868	61270
25.67680	56525
25.68493	51395
25.69305	52418
25.70118	51740
25.70930	49031
25.71742	52365
25.72555	48921
25.73367	46984
25.74180	49022
25.74992	50987
25.75803	54419
25.76617	59057
25.77428	62266
25.78240	71359
25.79053	87470
25.79865	88739
25.80678	97301
25.81490	100895
25.82302	99177
25.83115	90826
25.83927	84573
25.84740	74028
25.85552	66473
25.86363	64012
25.87177	50729
25.87988	50515
25.88802	49788
25.89613	50311
25.90425	48343
25.91238	49129
25.92050	46329
25.92862	61960
25.93675	50827
25.94487	51973
25.95300	49374
25.96112	54737
25.96923	47340
25.97737	43401
25.98548	49726
25.99362	48902
26.00173	47794
26.00985	46194
26.01798	56897
26.02610	46548
26.03422	42683
26.04235	47148
26.05047	49026
26.05860	45544
26.06672	45680
26.07483	41939
26.08297	40835
26.09108	40124
26.09922	41760
26.10733	43414
26.11545	54250
26.12358	45490
26.13170	42187
26.13983	44138
26.14795	45795
26.15607	41899
26.16420	40980
26.17232	41515
26.18043	42770
26.18857	42830
26.19668	40834
26.20482	40188
26.21293	44226
26.22105	41939
26.22918	45768
26.23730	36973
26.24543	40150
26.25355	42181
26.26167	40293
26.26980	41136
26.27792	44751
26.28605	55489
26.29417	43605
26.30228	47136
26.31042	50182
26.31853	45759
26.32665	61448
26.33478	59803
26.34290	63972
26.35103	75843
26.35915	84873
26.36727	88203
26.37540	98011
26.38352	99224
26.39165	86101
26.39977	82014
26.40788	73082
26.41602	68624
26.42413	67174
26.43225	66045
26.44038	64534
26.44850	65112
26.45663	67502
26.46475	61736
26.47287	51629
26.48100	47487
26.48912	46056
26.49725	48287
26.50537	45788
26.51348	42923
26.52162	41913
26.52973	41219
26.53787	46031
26.54598	51931
26.55410	50653
26.56223	47564
26.57035	51640
26.57847	49230
26.58660	47134
26.59472	43728
26.60285	52559
26.61097	49462
26.61908	47952
26.62722	55669
26.63533	63896
26.64347	69611
26.65158	74075
26.65970	84248
26.66783	85186
26.67595	80625
26.68408	76823
26.69220	82461
26.70032	63708
26.70845	60113
26.71657	57140
26.72468	55593
26.73282	53683
26.74093	52168
26.74907	49384
26.75718	57976
26.76530	44122
26.77343	44304
26.78155	46949
26.78968	39762
26.79780	46385
26.80592	42155
26.81405	45064
26.82217	42673
26.83030	45562
26.83842	46661
26.84653	43824
26.85467	44093
26.86278	43882
26.87090	44187
26.87903	45058
26.88715	49532
26.89528	45852
26.90340	42856
26.91152	44016
26.91965	43050
26.92777	43442
26.93590	42239
26.94402	41013
26.95213	44155
26.96027	43113
26.96838	55013
26.97650	44534
26.98463	47364
26.99275	47970
27.00088	48737
27.00900	48522
27.01712	46916
27.02525	60463
27.03337	55139
27.04150	55281
27.04962	58466
27.05773	62308
27.06587	58065
27.07398	62956
27.08212	62888
27.09023	62860
27.09835	63789
27.10648	63345
27.11460	58237
27.12272	61461
27.13085	55093
27.13897	57470
27.14710	51864
27.15522	57322
27.16333	61034
27.17147	64785
27.17958	62436
27.18772	75470
27.19583	64460
27.20395	63462
27.21208	63536
27.22020	55568
27.22833	59745
27.23645	58746
27.24457	54790
27.25270	57238
27.26082	55779
27.26893	58680
27.27707	57402
27.28518	59351
27.29332	56431
27.30143	54513
27.30955	55194
27.31768	54823
27.32580	56493
27.33393	52376
27.34205	58191
27.35017	60607
27.35830	58863
27.36642	61283
27.37453	64601
27.38267	68417
27.39078	79077
27.39892	108288
27.40703	218830
27.41515	481806
27.42328	1152081
27.43140	2624197
27.43953	4956423
27.44765	7266792
27.45577	8501662
27.46390	8487127
27.47202	7540558
27.48015	6440883
27.48827	5238314
27.49638	4122904
27.50452	3127527
27.51263	2391108
27.52075	1828702
27.52888	1451043
27.53700	1172009
27.54513	940040
27.55325	754632
27.56137	622892
27.56950	522979
27.57762	430304
27.58575	356692
27.59387	318974
27.60198	273726
27.61012	247512
27.61823	234419
27.62637	195253
27.63448	182263
27.64260	169294
27.65073	156003
27.65885	152337
27.66697	143153
27.67510	137809
27.68322	135874
27.69135	133436
27.69947	127338
27.70758	123388
27.71572	116942
27.72383	106693
27.73197	103737
27.74008	100839
27.74820	97541
27.75633	92307
27.76445	92195
27.77257	91363
27.78070	84821
27.78882	87004
27.79695	79928
27.80507	83893
27.81318	83319
27.82132	95438
27.82943	90301
27.83757	92576
27.84568	91069
27.85380	91410
27.86193	86545
27.87005	77548
27.87818	77766
27.88630	72266
27.89442	84956
27.90255	75390
27.91067	77399
27.91878	77054
27.92692	73901
27.93503	79743
27.94317	78762
27.95128	70909
27.95940	73496
27.96753	68794
27.97565	73519
27.98378	67242
27.99190	66589
28.00002	65396
28.00815	64953
28.01627	63967
28.02440	74738
28.03252	65809
28.04063	62680
28.04877	65846
28.05688	55236
28.06500	62842
28.07313	62339
28.08125	62058
28.08938	72595
28.09750	66553
28.10562	63984
28.11375	63706
28.12187	63632
28.13000	60210
28.13812	61504
28.14623	60349
28.15437	57182
28.16248	57812
28.17062	57885
28.17873	59705
28.18685	53485
28.19498	58067
28.20310	56839
28.21122	57611
28.21935	56807
28.22747	56168
28.23560	59686
28.24372	59447
28.25183	56702
28.25997	60426
28.26808	55580
28.27622	56747
28.28433	56658
28.29245	54575
28.30058	71884
28.30870	58376
28.31682	55716
28.32495	56902
28.33307	59370
28.34120	60677
28.34932	62619
28.35743	62397
28.36557	71197
28.37368	57135
28.38182	58803
28.38993	59163
28.39805	55367
28.40618	52264
28.41430	60182
28.42243	55707
28.43055	56471
28.43867	59148
28.44680	56133
28.45492	59405
28.46303	59220
28.47117	55932
28.47928	67620
28.48742	65721
28.49553	71927
28.50365	81736
28.51178	84389
28.51990	84906
28.52803	82993
28.53615	73595
28.54427	67054
28.55240	65206
28.56052	63408
28.56865	62656
28.57677	61277
28.58488	61163
28.59302	73433
28.60113	61741
28.60925	64076
28.61738	64566
28.62550	59950
28.63363	64014
28.64175	65466
28.64987	59041
28.65800	64509
28.66612	64347
28.67425	76433
28.68237	95639
28.69048	129460
28.69862	230202
28.70673	393118
28.71485	629454
28.72298	920520
28.73110	1267845
28.73923	1531822
28.74735	1761844
28.75547	1863494
28.76360	1970513
28.77172	1945947
28.77985	1877095
28.78797	1766734
28.79608	1657077
28.80422	1553486
28.81233	1452207
28.82047	1309373
28.82858	1231608
28.83670	1124235
28.84483	1029570
28.85295	903617
28.86107	851404
28.86920	775314
28.87732	712613
28.88545	639351
28.89357	574568
28.90168	539193
28.90982	487492
28.91793	459901
28.92607	413605
28.93418	393219
28.94230	365788
28.95043	330797
28.95855	305418
28.96668	284600
28.97480	266769
28.98292	244689
28.99105	239791
28.99917	223558
29.00728	204743
29.01542	191683
29.02353	184021
29.03167	177865
29.03978	173143
29.04790	157355
29.05603	156414
29.06415	150070
29.07228	153285
29.08040	166327
29.08852	165879
29.09665	165020
29.10477	155780
29.11288	140880
29.12102	121903
29.12913	118098
29.13727	106434
29.14538	110179
29.15350	105441
29.16163	115363
29.16975	112987
29.17788	120463
29.18600	125921
29.19412	120626
29.20225	111394
29.21037	108819
29.21850	103417
29.22662	93446
29.23473	86674
29.24287	81052
29.25098	85899
29.25910	83459
29.26723	78736
29.27535	78021
29.28348	79217
29.29160	77306
29.29972	74415
29.30785	75224
29.31597	83557
29.32410	76285
29.33222	77592
29.34033	77860
29.34847	73560
29.35658	83262
29.36472	68775
29.37283	80296
29.38095	66962
29.38908	65799
29.39720	63438
29.40532	73364
29.41345	63660
29.42157	63181
29.42970	63873
29.43782	66921
29.44593	62351
29.45407	68308
29.46218	61162
29.47032	62598
29.47843	63637
29.48655	64574
29.49468	70695
29.50280	66771
29.51093	64865
29.51905	64971
29.52717	64743
29.53530	57035
29.54342	65917
29.55153	54203
29.55967	59812
29.56778	72452
29.57592	60319
29.58403	58933
29.59215	58074
29.60028	56561
29.60840	57986
29.61653	53470
29.62465	55075
29.63277	67797
29.64090	60394
29.64902	60498
29.65713	58483
29.66527	55519
29.67338	57843
29.68152	57919
29.68963	58336
29.69775	68975
29.70588	59771
29.71400	63623
29.72213	61063
29.73025	59032
29.73837	62021
29.74650	58590
29.75462	57387
29.76275	65041
29.77087	61383
29.77898	69382
29.78712	62856
29.79523	66576
29.80335	60612
29.81148	63915
29.81960	61294
29.82773	58777
29.83585	58716
29.84397	61192
29.85210	52454
29.86022	60805
29.86835	60599
29.87647	61838
29.88458	72167
29.89272	57551
29.90083	57974
29.90897	57704
29.91708	53412
29.92520	57037
29.93333	54537
29.94145	55632
29.94957	58804
29.95770	52407
29.96582	52479
29.97395	52178
29.98207	57494
29.99018	53859
29.99832	53776
30.00643	62917
30.01457	59067
30.02268	66537
30.03080	68705
30.03893	68178
30.04705	73580
30.05517	73593
30.06330	74048
30.07142	68212
30.07955	61025
30.08767	56891
30.09578	56634
30.10392	56819
30.11203	52868
30.12017	59036
30.12828	56752
30.13640	60743
30.14453	68465
30.15265	64275
30.16078	65084
30.16890	67232
30.17702	69095
30.18515	66565
30.19327	62516
30.20138	67765
30.20952	59421
30.21763	59793
30.22577	61105
30.23388	61612
30.24200	60374
30.25013	61498
30.25825	77049
30.26638	60634
30.27450	65377
30.28262	69667
30.29075	80149
30.29887	101187
30.30700	152156
30.31512	205254
30.32323	277349
30.33137	384082
30.33948	463015
30.34760	507047
30.35573	592860
30.36385	630409
30.37198	651135
30.38010	660029
30.38822	659677
30.39635	675313
30.40447	658430
30.41260	618032
30.42072	626388
30.42883	618560
30.43697	614324
30.44508	582535
30.45320	532558
30.46133	490163
30.46945	457968
30.47758	433348
30.48570	399101
30.49382	369038
30.50195	349825
30.51007	325891
30.51820	307494
30.52632	292875
30.53443	268555
30.54257	259410
30.55068	243498
30.55882	224044
30.56693	219795
30.57505	195200
30.58318	194249
30.59130	181059
30.59942	174070
30.60755	167277
30.61567	160587
30.62380	164934
30.63192	147316
30.64003	148066
30.64817	151544
30.65628	130065
30.66442	130856
30.67253	132149
30.68065	119999
30.68878	116041
30.69690	111118
30.70503	107528
30.71315	105157
30.72127	99925
30.72940	99197
30.73752	95428
30.74563	92867
30.75377	89061
30.76188	94362
30.77002	86970
30.77813	81477
30.78625	82094
30.79438	83405
30.80250	78905
30.81063	82848
30.81875	80816
30.82687	76130
30.83500	93094
30.84312	83433
30.85125	83107
30.85937	79048
30.86748	73295
30.87562	70072
30.88373	74211
30.89185	74798
30.89998	70246
30.90810	66113
30.91623	75981
30.92435	77564
30.93247	67746
30.94060	67460
30.94872	68200
30.95685	78492
30.96497	61927
30.97308	59094
30.98122	60136
30.98933	60083
30.99745	60046
31.00558	63254
31.01370	59822
31.02183	61650
31.02995	58082
31.03807	60967
31.04620	72615
31.05432	63148
31.06245	63436
31.07057	60669
31.07868	59539
31.08682	65994
31.09493	61387
31.10307	67859
31.11118	62209
31.11930	60487
31.12743	61247
31.13555	55483
31.14367	56791
31.15180	58471
31.15992	57467
31.16805	61095
31.17617	57621
31.18428	56150
31.19242	57996
31.20053	58743
31.20867	58018
31.21678	72417
31.22490	55514
31.23303	57567
31.24115	55449
31.24928	63885
31.25740	56080
31.26552	57851
31.27365	55646
31.28177	58172
31.28988	54382
31.29802	51137
31.30613	61320
31.31427	56437
31.32238	51925
31.33050	58460
31.33863	57816
31.34675	56436
31.35488	63747
31.36300	65618
31.37112	61065
31.37925	58024
31.38737	59695
31.39548	56737
31.40362	59422
31.41173	56496
31.41987	56874
31.42798	58165
31.43610	55070
31.44423	53587
31.45235	55886
31.46048	53856
31.46860	52727
31.47672	55723
31.48485	57025
31.49297	54507
31.50110	62484
31.50922	55753
31.51733	55203
31.52547	57692
31.53358	54237
31.54170	54428
31.54983	67165
31.55795	59582
31.56608	64777
31.57420	58826
31.58232	55758
31.59045	59099
31.59857	65749
31.60670	62237
31.61482	67267
31.62293	81317
31.63107	106778
31.63918	142900
31.64732	173314
31.65543	199934
31.66355	207979
31.67168	196958
31.67980	161515
31.68792	124384
31.69605	109052
31.70417	80147
31.71230	69138
31.72042	70012
31.72853	69958
31.73667	70534
31.74478	77888
31.75292	66218
31.76103	62459
31.76915	57552
31.77728	70637
31.78540	57896
31.79352	57865
31.80165	59153
31.80977	56722
31.81790	56342
31.82602	57737
31.83413	58982
31.84227	53658
31.85038	52639
31.85852	54646
31.86663	57068
31.87475	58543
31.88288	53709
31.89100	54782
31.89913	51861
31.90725	53997
31.91537	53314
31.92350	57079
31.93162	58969
31.93973	54614
31.94787	53623
31.95598	55156
31.96412	57508
31.97223	57328
31.98035	54463
31.98848	51176
31.99660	49286
32.00473	50027
32.01285	52518
32.02097	58805
32.02910	54184
32.03722	54258
32.04535	50742
32.05347	53555
32.06158	55574
32.06972	55980
32.07783	54893
32.08595	51084
32.09408	55169
32.10220	52662
32.11033	64266
32.11845	56718
32.12657	55992
32.13470	57476
32.14282	59207
32.15095	52337
32.15907	59303
32.16718	57544
32.17532	54668
32.18343	53867
32.19157	54305
32.19968	59480
32.20780	53937
32.21593	55298
32.22405	61729
32.23217	78438
32.24030	93719
32.24842	127064
32.25655	168037
32.26467	230412
32.27278	282012
32.28092	336877
32.28903	379257
32.29717	390775
32.30528	412080
32.31340	416708
32.32153	386671
32.32965	373670
32.33777	355747
32.34590	332154
32.35402	307086
32.36215	295204
32.37027	269533
32.37838	262500
32.38652	241987
32.39463	237736
32.40277	216485
32.41088	199115
32.41900	180983
32.42713	176588
32.43525	166883
32.44338	160838
32.45150	153840
32.45962	139459
32.46775	129344
32.47587	115209
32.48398	120072
32.49212	105769
32.50023	96888
32.50837	101534
32.51648	94086
32.52460	92156
32.53273	92392
32.54085	93225
32.54898	97668
32.55710	84725
32.56522	80597
32.57335	82775
32.58147	78448
32.58960	78483
32.59772	72448
32.60583	81459
32.61397	76180
32.62208	73318
32.63020	71536
32.63833	68188
32.64645	77179
32.65458	68908
32.66270	70417
32.67082	66123
32.67895	70217
32.68707	73420
32.69520	68181
32.70332	73370
32.71143	63474
32.71957	72220
32.72768	61260
32.73580	65248
32.74393	63901
32.75205	76601
32.76018	68416
32.76830	66605
32.77642	65278
32.78455	68028
32.79267	68159
32.80080	66761
32.80892	70842
32.81703	74936
32.82517	70718
32.83328	69395
32.84142	69826
32.84953	65020
32.85765	62365
32.86578	63476
32.87390	67022
32.88202	69382
32.89015	61416
32.89827	64585
32.90640	74134
32.91452	61601
32.92263	64380
32.93077	61128
32.93888	62370
32.94702	63785
32.95513	64247
32.96325	71802
32.97138	68751
32.97950	78602
32.98763	86965
32.99575	92721
33.00387	88114
33.01200	78954
33.02012	80215
33.02823	68671
33.03637	64690
33.04448	64013
33.05262	59000
33.06073	62846
33.06885	62896
33.07698	61698
33.08510	60629
33.09323	59273
33.10135	66033
33.10947	58474
33.11760	60194
33.12572	59573
33.13383	62647
33.14197	61536
33.15008	59323
33.15822	60766
33.16633	60057
33.17445	55317
33.18258	59006
33.19070	61761
33.19883	58492
33.20695	66915
33.21507	62151
33.22320	59285
33.23132	63360
33.23945	66033
33.24757	65300
33.25568	63900
33.26382	68029
33.27193	64492
33.28005	68457
33.28818	62002
33.29630	63990
33.30443	59858
33.31255	54896
33.32067	63187
33.32880	59806
33.33692	68856
33.34505	59566
33.35317	59770
33.36128	58260
33.36942	60107
33.37753	57811
33.38567	58091
33.39378	57109
33.40190	59408
33.41003	58708
33.41815	57331
33.42627	57681
33.43440	57346
33.44252	61966
33.45065	59023
33.45877	59177
33.46688	58475
33.47502	61171
33.48313	63712
33.49127	62676
33.49938	66112
33.50750	68281
33.51563	65855
33.52375	71154
33.53188	65799
33.54000	61682
33.54812	57962
33.55625	58267
33.56437	61982
33.57248	59573
33.58062	61004
33.58873	58786
33.59687	60942
33.60498	64342
33.61310	64261
33.62123	74646
33.62935	75309
33.63748	86169
33.64560	91130
33.65372	99060
33.66185	101740
33.66997	103303
33.67808	86637
33.68622	74560
33.69433	73249
33.70247	68825
33.71058	60602
33.71870	64282
33.72683	58718
33.73495	58676
33.74308	56134
33.75120	65122
33.75932	57068
33.76745	60991
33.77557	58337
33.78370	59651
33.79182	62513
33.79993	62897
33.80807	63614
33.81618	64609
33.82430	64029
33.83243	61563
33.84055	63864
33.84868	65646
33.85680	60711
33.86492	63657
33.87305	63133
33.88117	60303
33.88930	64529
33.89742	58900
33.90553	60220
33.91367	56288
33.92178	60136
33.92992	54171
33.93803	58831
33.94615	66762
33.95428	63202
33.96240	63813
33.97052	58135
33.97865	58847
33.98677	61551
33.99490	63969
34.00302	58701
34.01113	61705
34.01927	63024
34.02738	59442
34.03552	70038
34.04363	70056
34.05175	59704
34.05988	65750
34.06800	59910
34.07613	65116
34.08425	69785
34.09237	72940
34.10050	76818
34.10862	69410
34.11673	72461
34.12487	65385
34.13298	65760
34.14112	60924
34.14923	63717
34.15735	65742
34.16548	65946
34.17360	67158
34.18173	69335
34.18985	65248
34.19797	67030
34.20610	70120
34.21422	68925
34.22233	65251
34.23047	71163
34.23858	69674
34.24672	74385
34.25483	76496
34.26295	80801
34.27108	71871
34.27920	80291
34.28733	64061
34.29545	61436
34.30357	63310
34.31170	78464
34.31982	66678
34.32795	63610
34.33607	65860
34.34418	64511
34.35232	58252
34.36043	60486
34.36855	65941
34.37668	68286
34.38480	69431
34.39293	63362
34.40105	66922
34.40917	65071
34.41730	64165
34.42542	59874
34.43355	59604
34.44167	66949
34.44978	73868
34.45792	65148
34.46603	69510
34.47417	62829
34.48228	61647
34.49040	77646
34.49853	63186
34.50665	64137
34.51477	64853
34.52290	62537
34.53102	65472
34.53915	62749
34.54727	69192
34.55538	63056
34.56352	64858
34.57163	61617
34.57977	75989
34.58788	59707
34.59600	63374
34.60413	63866
34.61225	65192
34.62037	62699
34.62850	67080
34.63662	66538
34.64475	78078
34.65287	63951
34.66098	66728
34.66912	76001
34.67723	65896
34.68537	65161
34.69348	66485
34.70160	61753
34.70973	63131
34.71785	61954
34.72598	62338
34.73410	62358
34.74222	66574
34.75035	60225
34.75847	64622
34.76658	62097
34.77472	64000
34.78283	64896
34.79097	78272
34.79908	64893
34.80720	63001
34.81533	61738
34.82345	63154
34.83158	65799
34.83970	75542
34.84782	96350
34.85595	144690
34.86407	191212
34.87220	259720
34.88032	299738
34.88843	340841
34.89657	349642
34.90468	345837
34.91280	304852
34.92093	267312
34.92905	241879
34.93718	202244
34.94530	170761
34.95342	164601
34.96155	144373
34.96967	130044
34.97780	122618
34.98592	118364
34.99403	106084
35.00217	102782
35.01028	97546
35.01842	95759
35.02653	95544
35.03465	94415
35.04278	95982
35.05090	86050
35.05902	91087
35.06715	86335
35.07527	84596
35.08340	88162
35.09152	85777
35.09963	88664
35.10777	86018
35.11588	79534
35.12402	77251
35.13213	82104
35.14025	77599
35.14838	80430
35.15650	84840
35.16462	80977
35.17275	84220
35.18087	78736
35.18900	75769
35.19712	75396
35.20523	75644
35.21337	75766
35.22148	77247
35.22962	71552
35.23773	75393
35.24585	70843
35.25398	75236
35.26210	76557
35.27023	78541
35.27835	79394
35.28647	79334
35.29460	77150
35.30272	73643
35.31083	76060
35.31897	70464
35.32708	76258
35.33522	76624
35.34333	75919
35.35145	75194
35.35958	73772
35.36770	71109
35.37583	76973
35.38395	72356
35.39207	72728
35.40020	72108
35.40832	69847
35.41645	74965
35.42457	74078
35.43268	72632
35.44082	73058
35.44893	71370
35.45705	76538
35.46518	82595
35.47330	95986
35.48143	87604
35.48955	89317
35.49767	93441
35.50580	89029
35.51392	90965
35.52205	86680
35.53017	86470
35.53828	85793
35.54642	84731
35.55453	85928
35.56265	86767
35.57078	80349
35.57890	82791
35.58703	87143
35.59515	88842
35.60327	86878
35.61140	89331
35.61952	90597
35.62765	83762
35.63577	85789
35.64388	86774
35.65202	82943
35.66013	84663
35.66827	81858
35.67638	83026
35.68450	82461
35.69263	78803
35.70075	79785
35.70887	78336
35.71700	91337
35.72512	78695
35.73325	79010
35.74137	77256
35.74948	74855
35.75762	75866
35.76573	77353
35.77387	75405
35.78198	77891
35.79010	80653
35.79823	78517
35.80635	87608
35.81448	75394
35.82260	75738
35.83072	86472
35.83885	85383
35.84697	75713
35.85508	76298
35.86322	72729
35.87133	74041
35.87947	73344
35.88758	76849
35.89570	71425
35.90383	77348
35.91195	75837
35.92008	73777
35.92820	78488
35.93632	76055
35.94445	72230
35.95257	77197
35.96068	76651
35.96882	81947
35.97693	95414
35.98507	93194
35.99318	97708
36.00130	102945
36.00943	99878
36.01755	103070
36.02568	102802
36.03380	104844
36.04192	103011
36.05005	102511
36.05817	98543
36.06630	93490
36.07442	94216
36.08253	86557
36.09067	82601
36.09878	83270
36.10690	94828
36.11503	82732
36.12315	86653
36.13128	80329
36.13940	81929
36.14752	89851
36.15565	85467
36.16377	83861
36.17190	85095
36.18002	85241
36.18813	79887
36.19627	83258
36.20438	82190
36.21252	80766
36.22063	84162
36.22875	85818
36.23688	88513
36.24500	88441
36.25312	94739
36.26125	95898
36.26937	99901
36.27750	95094
36.28562	93966
36.29373	88251
36.30187	83128
36.30998	83367
36.31812	86371
36.32623	84755
36.33435	81482
36.34248	85038
36.35060	78099
36.35873	85008
36.36685	90590
36.37497	82673
36.38310	77283
36.39122	79784
36.39933	79262
36.40747	76838
36.41558	88152
36.42372	77101
36.43183	87585
36.43995	74533
36.44808	76973
36.45620	77903
36.46433	83940
36.47245	76677
36.48057	80789
36.48870	78299
36.49682	80332
36.50493	81734
36.51307	82481
36.52118	77714
36.52932	80980
36.53743	80464
36.54555	82377
36.55368	83532
36.56180	82851
36.56993	88991
36.57805	102371
36.58617	104125
36.59430	98410
36.60242	103123
36.61055	106434
36.61867	104460
36.62678	103393
36.63492	105198
36.64303	105995
36.65115	108438
36.65928	114244
36.66740	107940
36.67553	102668
36.68365	96038
36.69177	90109
36.69990	86129
36.70802	84082
36.71615	87056
36.72427	80180
36.73238	83183
36.74052	85460
36.74863	83873
36.75677	83420
36.76488	87921
36.77300	83132
36.78113	87700
36.78925	83556
36.79737	84076
36.80550	85163
36.81362	87114
36.82175	89149
36.82987	85469
36.83798	89217
36.84612	83731
36.85423	87580
36.86237	84085
36.87048	87068
36.87860	84968
36.88673	85083
36.89485	87735
36.90297	83546
36.91110	83780
36.91922	82262
36.92735	85497
36.93547	86381
36.94358	85530
36.95172	89716
36.95983	102029
36.96797	99396
36.97608	115181
36.98420	114998
36.99233	117115
37.00045	108114
37.00858	109110
37.01670	93165
37.02482	102978
37.03295	104497
37.04107	90396
37.04918	96753
37.05732	88809
37.06543	99937
37.07357	89180
37.08168	79882
37.08980	84465
37.09793	90526
37.10605	89554
37.11418	89113
37.12230	89301
37.13042	82888
37.13855	88142
37.14667	84885
37.15480	90098
37.16292	91561
37.17103	86905
37.17917	87937
37.18728	88018
37.19540	95550
37.20353	98548
37.21165	88112
37.21978	88766
37.22790	87977
37.23602	89888
37.24415	83774
37.25227	91184
37.26040	89366
37.26852	84128
37.27663	89553
37.28477	87432
37.29288	88819
37.30100	98986
37.30913	87014
37.31725	83975
37.32538	97014
37.33350	89926
37.34162	90218
37.34975	87491
37.35787	91373
37.36600	89628
37.37412	85819
37.38223	85551
37.39037	95672
37.39848	93391
37.40662	91365
37.41473	89375
37.42285	92567
37.43098	93119
37.43910	95690
37.44722	90569
37.45535	93360
37.46347	91694
37.47160	102753
37.47972	92839
37.48783	93216
