C:\MassHunter\GCMS\1\data\JTB-E02\BACandBLUE\JTB-E18-017-09.D Wed Jul 03 13:31:15 2019
Start of data points
2.09525,87902
2.10338,80953
2.11150,83580
2.11963,89426
2.12775,84458
2.13587,83299
2.14400,83827
2.15212,81836
2.16025,81965
2.16837,79132
2.17648,75629
2.18462,77803
2.19273,78951
2.20085,75349
2.20898,78910
2.21710,77695
2.22523,76224
2.23335,74285
2.24147,76691
2.24960,73551
2.25772,72812
2.26585,79943
2.27397,324806
2.28208,1308863
2.29022,1265253
2.29833,544156
2.30645,358662
2.31458,289355
2.32270,254424
2.33083,255102
2.33895,479770
2.34707,405285
2.35520,251528
2.36332,207875
2.37145,192076
2.37957,180692
2.38768,167960
2.39582,161992
2.40393,150113
2.41207,149412
2.42018,147838
2.42830,153073
2.43643,144949
2.44455,142987
2.45267,142745
2.46080,136294
2.46892,137134
2.47705,132155
2.48517,133504
2.49328,159111
2.50142,188454
2.50953,152318
2.51767,141988
2.52578,136337
2.53390,132344
2.54203,131073
2.55015,134524
2.55828,148852
2.56640,207639
2.57452,192211
2.58265,162232
2.59077,144743
2.59888,140555
2.60702,233035
2.61513,667730
2.62327,775177
2.63138,472115
2.63950,307706
2.64763,237434
2.65575,203685
2.66388,182277
2.67200,169839
2.68012,156319
2.68825,148267
2.69637,143975
2.70448,141171
2.71262,133611
2.72073,131439
2.72887,130199
2.73698,131377
2.74510,129968
2.75323,133508
2.76135,122908
2.76948,128477
2.77760,125641
2.78572,160993
2.79385,223383
2.80197,187471
2.81010,165487
2.81822,173759
2.82633,186961
2.83447,170681
2.84258,154404
2.85070,140070
2.85883,126622
2.86695,133043
2.87508,126726
2.88320,123800
2.89132,124098
2.89945,117950
2.90757,120889
2.91570,120585
2.92382,118978
2.93193,115734
2.94007,115414
2.94818,111770
2.95630,113940
2.96443,124757
2.97255,128959
2.98068,128961
2.98880,114032
2.99692,116519
3.00505,120480
3.01317,117733
3.02130,115117
3.02942,110086
3.03753,110945
3.04567,111534
3.05378,105422
3.06192,111386
3.07003,107192
3.07815,134393
3.08628,471732
3.09440,1810092
3.10252,3153285
3.11065,4272473
3.11877,4539954
3.12690,3057103
3.13502,1873569
3.14313,1394958
3.15127,1109914
3.15938,913466
3.16752,792110
3.17563,761396
3.18375,786094
3.19188,1206946
3.20000,1931412
3.20813,1745352
3.21625,1180973
3.22437,902339
3.23250,773160
3.24062,658481
3.24873,578722
3.25687,519449
3.26498,480952
3.27312,432803
3.28123,420380
3.28935,626537
3.29748,1908561
3.30560,5156200
3.31373,8381441
3.32185,8374695
3.32997,5944861
3.33810,3967797
3.34622,2868760
3.35433,2293229
3.36247,1867064
3.37058,1598114
3.37872,1380249
3.38683,1227725
3.39495,1096353
3.40308,1009248
3.41120,919229
3.41933,841044
3.42745,804124
3.43557,748540
3.44370,718411
3.45182,695255
3.45995,674846
3.46807,648814
3.47618,671501
3.48432,649939
3.49243,614271
3.50055,585375
3.50868,545211
3.51680,513502
3.52493,504775
3.53305,512915
3.54117,523043
3.54930,525072
3.55742,497947
3.56555,479286
3.57367,503137
3.58178,549593
3.58992,531056
3.59803,486005
3.60617,457562
3.61428,446787
3.62240,447038
3.63053,444146
3.63865,435349
3.64677,422695
3.65490,420079
3.66302,575530
3.67115,1836280
3.67927,5464984
3.68738,8272428
3.69552,6594000
3.70363,3817492
3.71177,2492140
3.71988,1966528
3.72800,1635316
3.73613,1468262
3.74425,1279407
3.75237,1166158
3.76050,1087174
3.76862,1008187
3.77675,951258
3.78487,896847
3.79298,849193
3.80112,866504
3.80923,1184186
3.81737,1863508
3.82548,2173895
3.83360,1764493
3.84173,1272365
3.84985,1062038
3.85798,932663
3.86610,846868
3.87422,804410
3.88235,753694
3.89047,716801
3.89858,671855
3.90672,660604
3.91483,668785
3.92297,768155
3.93108,954190
3.93920,1016705
3.94733,1081451
3.95545,2066601
3.96358,4870449
3.97170,7617777
3.97982,7159929
3.98795,4681778
3.99607,3515576
4.00418,6857703
4.01232,1.630417E+07
4.02043,2.502078E+07
4.02857,2.355909E+07
4.03668,1.456445E+07
4.04480,7664579
4.05293,4732116
4.06105,3454905
4.06918,2702358
4.07730,2228431
4.08542,1886180
4.09355,1640407
4.10167,1438575
4.10980,1315935
4.11792,1184625
4.12603,1114874
4.13417,1052409
4.14228,1158216
4.15040,1409587
4.15853,1674288
4.16665,1542928
4.17478,1293541
4.18290,1130656
4.19102,995219
4.19915,912987
4.20727,978480
4.21540,1987444
4.22352,5726702
4.23163,1.222395E+07
4.23977,1.656661E+07
4.24788,1.59178E+07
4.25602,1.07386E+07
4.26413,6534150
4.27225,4601907
4.28038,3505759
4.28850,2816794
4.29662,2359429
4.30475,1989245
4.31287,1743495
4.32100,1561939
4.32912,1414486
4.33723,1286641
4.34537,1219051
4.35348,1185062
4.36162,1172594
4.36973,1165489
4.37785,1103786
4.38598,1042047
4.39410,937046
4.40222,882723
4.41035,840592
4.41847,800318
4.42660,765771
4.43472,757884
4.44283,723706
4.45097,681945
4.45908,677925
4.46722,666872
4.47533,634017
4.48345,616637
4.49158,591742
4.49970,586863
4.50783,576650
4.51595,561066
4.52407,555943
4.53220,539224
4.54032,537349
4.54843,538349
4.55657,531060
4.56468,502952
4.57282,504641
4.58093,487348
4.58905,472455
4.59718,472659
4.60530,455747
4.61343,461060
4.62155,496262
4.62967,629165
4.63780,942689
4.64592,1253649
4.65405,1272336
4.66217,1014349
4.67028,772178
4.67842,646654
4.68653,573309
4.69465,532885
4.70278,494479
4.71090,466769
4.71903,442549
4.72715,426532
4.73527,422301
4.74340,411562
4.75152,404791
4.75965,386729
4.76777,378665
4.77588,369371
4.78402,370747
4.79213,418462
4.80025,530520
4.80838,673989
4.81650,742213
4.82463,640034
4.83275,529987
4.84087,499629
4.84900,497797
4.85712,475538
4.86525,462428
4.87337,441544
4.88148,413949
4.88962,408384
4.89773,387331
4.90587,370313
4.91398,360762
4.92210,363782
4.93023,447000
4.93835,764927
4.94647,1686685
4.95460,3311704
4.96272,4847202
4.97085,5236022
4.97897,4356751
4.98708,3174561
4.99522,2238637
5.00333,1634434
5.01147,1293101
5.01958,1116529
5.02770,1113048
5.03583,1370858
5.04395,1673604
5.05208,1714479
5.06020,1449251
5.06832,1183446
5.07645,990375
5.08457,875802
5.09268,801331
5.10082,759005
5.10893,722022
5.11707,674724
5.12518,644821
5.13330,616615
5.14143,592534
5.14955,601405
5.15768,627335
5.16580,685731
5.17392,729480
5.18205,703019
5.19017,669974
5.19828,656872
5.20642,666324
5.21453,728812
5.22267,717782
5.23078,645607
5.23890,590352
5.24703,549666
5.25515,524943
5.26328,492478
5.27140,453504
5.27952,431404
5.28765,427707
5.29577,411928
5.30390,409990
5.31202,403297
5.32013,405120
5.32827,414235
5.33638,435613
5.34450,457958
5.35263,468664
5.36075,445392
5.36888,404419
5.37700,396183
5.38512,413700
5.39325,418597
5.40137,427199
5.40950,431732
5.41762,416725
5.42573,382529
5.43387,374005
5.44198,362523
5.45010,363538
5.45823,384886
5.46635,382859
5.47448,364670
5.48260,351510
5.49072,338151
5.49885,326568
5.50697,330376
5.51510,329039
5.52322,321587
5.53133,321662
5.53947,323050
5.54758,317362
5.55572,333926
5.56383,384261
5.57195,445298
5.58008,484525
5.58820,486912
5.59632,427077
5.60445,370639
5.61257,345905
5.62070,329316
5.62882,325652
5.63693,338371
5.64507,334719
5.65318,330972
5.66132,323083
5.66943,309700
5.67755,326262
5.68568,347636
5.69380,374103
5.70193,382026
5.71005,371074
5.71817,336475
5.72630,311850
5.73442,307096
5.74253,293171
5.75067,285707
5.75878,282025
5.76692,286061
5.77503,269538
5.78315,272839
5.79128,267661
5.79940,265693
5.80753,252558
5.81565,269880
5.82377,257202
5.83190,263760
5.84002,258066
5.84813,256140
5.85627,243861
5.86438,256235
5.87252,250907
5.88063,249580
5.88875,249657
5.89688,248112
5.90500,231104
5.91313,207384
5.92125,190778
5.92937,189026
5.93750,188382
5.94562,199329
5.95375,207531
5.96187,234707
5.96998,258301
5.97812,297453
5.98623,332895
5.99435,350273
6.00248,334630
6.01060,300103
6.01873,261781
6.02685,240545
6.03497,219584
6.04310,213347
6.05122,210861
6.05935,185145
6.06747,187822
6.07558,175230
6.08372,186586
6.09183,178912
6.09997,179837
6.10808,177841
6.11620,185013
6.12433,211313
6.13245,296583
6.14057,459282
6.14870,627298
6.15682,673113
6.16495,586118
6.17307,446656
6.18118,342507
6.18932,285039
6.19743,264463
6.20557,256187
6.21368,239550
6.22180,228719
6.22993,228911
6.23805,232062
6.24617,237711
6.25430,242315
6.26242,265823
6.27055,263894
6.27867,261761
6.28678,240788
6.29492,241767
6.30303,224879
6.31117,226587
6.31928,228257
6.32740,224206
6.33553,242225
6.34365,247497
6.35178,260855
6.35990,243712
6.36802,234842
6.37615,231759
6.38427,230540
6.39238,231750
6.40052,229149
6.40863,227354
6.41677,226279
6.42488,230947
6.43300,218518
6.44113,224915
6.44925,226048
6.45738,216037
6.46550,229385
6.47362,221868
6.48175,229298
6.48987,219838
6.49798,224594
6.50612,232353
6.51423,232090
6.52237,234406
6.53048,244152
6.53860,246270
6.54673,241556
6.55485,235429
6.56298,248964
6.57110,303010
6.57922,376254
6.58735,436071
6.59547,418988
6.60360,359610
6.61172,306876
6.61983,284808
6.62797,273761
6.63608,269758
6.64420,275455
6.65233,377538
6.66045,685246
6.66858,1188588
6.67670,1589621
6.68482,1540884
6.69295,1130864
6.70107,753541
6.70920,548877
6.71732,449152
6.72543,408334
6.73357,371155
6.74168,347609
6.74982,338744
6.75793,330637
6.76605,318527
6.77418,308244
6.78230,304433
6.79042,300727
6.79855,258526
6.80667,244939
6.81480,227666
6.82292,211348
6.83103,206247
6.83917,222413
6.84728,238133
6.85542,271549
6.86353,302864
6.87165,302686
6.87978,252686
6.88790,206444
6.89603,165786
6.90415,148858
6.91227,134015
6.92040,132895
6.92852,127293
6.93663,126969
6.94477,118908
6.95288,121684
6.96102,123435
6.96913,146082
6.97725,167471
6.98538,174570
6.99350,177998
7.00163,151501
7.00975,139122
7.01787,121843
7.02600,117402
7.03412,126332
7.04223,124972
7.05037,125236
7.05848,134068
7.06662,134352
7.07473,137199
7.08285,130771
7.09098,120533
7.09910,118039
7.10723,118884
7.11535,112690
7.12347,113836
7.13160,109642
7.13972,130025
7.14785,182956
7.15597,263028
7.16408,354911
7.17222,399965
7.18033,343605
7.18845,271061
7.19658,196432
7.20470,170832
7.21283,145606
7.22095,164801
7.22907,271715
7.23720,554122
7.24532,999397
7.25345,1440303
7.26157,1493466
7.26968,1143982
7.27782,708692
7.28593,453818
7.29405,344111
7.30218,300255
7.31030,256807
7.31843,216586
7.32655,163349
7.33467,148709
7.34280,135789
7.35092,127560
7.35905,129039
7.36717,124869
7.37528,124247
7.38342,124363
7.39153,132096
7.39967,127440
7.40778,116887
7.41590,108336
7.42403,113513
7.43215,105996
7.44027,102867
7.44840,105444
7.45652,109076
7.46465,105707
7.47277,110785
7.48088,109895
7.48902,103892
7.49713,109466
7.50527,142560
7.51338,226799
7.52150,390682
7.52963,679294
7.53775,1069985
7.54588,1414901
7.55400,1566048
7.56212,1445673
7.57025,1174008
7.57837,815142
7.58648,534617
7.59462,362405
7.60273,266701
7.61087,210418
7.61898,179781
7.62710,157892
7.63523,150126
7.64335,137650
7.65148,133278
7.65960,115454
7.66772,111817
7.67585,111168
7.68397,106475
7.69208,109880
7.70022,102633
7.70833,113287
7.71647,108102
7.72458,100574
7.73270,99335
7.74083,99038
7.74895,94462
7.75708,95904
7.76520,97228
7.77332,102382
7.78145,101794
7.78957,120546
7.79770,127914
7.80582,145142
7.81393,148408
7.82207,138970
7.83018,126513
7.83830,120811
7.84643,119146
7.85455,127447
7.86268,133933
7.87080,149256
7.87892,162472
7.88705,174337
7.89517,167215
7.90330,145949
7.91142,122365
7.91953,110399
7.92767,120410
7.93578,134768
7.94392,159448
7.95203,172494
7.96015,164842
7.96828,150986
7.97640,126042
7.98452,114088
7.99265,98779
8.00077,95955
8.00890,86379
8.01702,86460
8.02513,89913
8.03327,84921
8.04138,86578
8.04952,90767
8.05763,92219
8.06575,90175
8.07388,82771
8.08200,82221
8.09012,83505
8.09825,78891
8.10637,80405
8.11450,84181
8.12262,87296
8.13073,93249
8.13887,105923
8.14698,116074
8.15512,134239
8.16323,132668
8.17135,128072
8.17948,102473
8.18760,92322
8.19573,85384
8.20385,83925
8.21197,80319
8.22010,82157
8.22822,82769
8.23633,80195
8.24447,76587
8.25258,78943
8.26072,80656
8.26883,74947
8.27695,77455
8.28508,77321
8.29320,77896
8.30133,82805
8.30945,86004
8.31757,87442
8.32570,91239
8.33382,86491
8.34193,80175
8.35007,74674
8.35818,79041
8.36632,78737
8.37443,92445
8.38255,88580
8.39068,94700
8.39880,91828
8.40693,84185
8.41505,77451
8.42317,77206
8.43130,76714
8.43942,70767
8.44755,72486
8.45567,74814
8.46378,70310
8.47192,73919
8.48003,76562
8.48815,77557
8.49628,72323
8.50440,69440
8.51253,69010
8.52065,68163
8.52877,81877
8.53690,119745
8.54502,191008
8.55315,308180
8.56127,399546
8.56938,400224
8.57752,333244
8.58563,244090
8.59377,177532
8.60188,144382
8.61000,133303
8.61813,127311
8.62625,115115
8.63437,102988
8.64250,94285
8.65062,96395
8.65875,85063
8.66687,87030
8.67498,91298
8.68312,93094
8.69123,101008
8.69937,106669
8.70748,98912
8.71560,103153
8.72373,93445
8.73185,96657
8.73997,127005
8.74810,257813
8.75622,608246
8.76435,1262294
8.77247,2082125
8.78058,2642494
8.78872,2505327
8.79683,1888834
8.80497,1220827
8.81308,743800
8.82120,454741
8.82933,317227
8.83745,265628
8.84558,260301
8.85370,274889
8.86182,267801
8.86995,256059
8.87807,243352
8.88618,226402
8.89432,209967
8.90243,197938
8.91057,195287
8.91868,185911
8.92680,175781
8.93493,179972
8.94305,185355
8.95118,203926
8.95930,214037
8.96742,221772
8.97555,215266
8.98367,218269
8.99180,214918
8.99992,196988
9.00803,184292
9.01617,168153
9.02428,158728
9.03240,147923
9.04053,141364
9.04865,145049
9.05678,131884
9.06490,139121
9.07302,134207
9.08115,133864
9.08927,149114
9.09740,162177
9.10552,186037
9.11363,215131
9.12177,237166
9.12988,215398
9.13800,185968
9.14613,164245
9.15425,144524
9.16238,138202
9.17050,127394
9.17862,123272
9.18675,117312
9.19487,113870
9.20300,118793
9.21112,118150
9.21923,118197
9.22737,118777
9.23548,118894
9.24362,116945
9.25173,122310
9.25985,112154
9.26798,112060
9.27610,113534
9.28422,111369
9.29235,106464
9.30047,105874
9.30860,106588
9.31672,108324
9.32483,104675
9.33297,105720
9.34108,109049
9.34922,109773
9.35733,100502
9.36545,100750
9.37358,103844
9.38170,102765
9.38983,109399
9.39795,129407
9.40607,151801
9.41420,184825
9.42232,240958
9.43043,296455
9.43857,308427
9.44668,293103
9.45482,258627
9.46293,199543
9.47105,160436
9.47918,130534
9.48730,122458
9.49543,124075
9.50355,123463
9.51167,131588
9.51980,150763
9.52792,163895
9.53603,162138
9.54417,137225
9.55228,125701
9.56042,108202
9.56853,100496
9.57665,94751
9.58478,106303
9.59290,108808
9.60103,99959
9.60915,93599
9.61727,82372
9.62540,75920
9.63352,78319
9.64165,74266
9.64977,73335
9.65788,69026
9.66602,70844
9.67413,63953
9.68225,66951
9.69038,66278
9.69850,65190
9.70663,64954
9.71475,63807
9.72287,62187
9.73100,64953
9.73912,66889
9.74725,56279
9.75537,65676
9.76348,65527
9.77162,66740
9.77973,65579
9.78785,64095
9.79598,64148
9.80410,61454
9.81223,62588
9.82035,64654
9.82847,61987
9.83660,66316
9.84472,64365
9.85285,57767
9.86097,63301
9.86908,65498
9.87722,68130
9.88533,69794
9.89347,73985
9.90158,76649
9.90970,77874
9.91783,91796
9.92595,115115
9.93407,155436
9.94220,205621
9.95032,254866
9.95845,300181
9.96657,310497
9.97468,287547
9.98282,235017
9.99093,178931
9.99907,136508
10.00718,114831
10.01530,102507
10.02343,90758
10.03155,86463
10.03968,80073
10.04780,81104
10.05592,76314
10.06405,75258
10.07217,77231
10.08028,84052
10.08842,82674
10.09653,84064
10.10467,90566
10.11278,98513
10.12090,100600
10.12903,93977
10.13715,93384
10.14528,91637
10.15340,83298
10.16152,82239
10.16965,77683
10.17777,75503
10.18588,71202
10.19402,75912
10.20213,72848
10.21027,72646
10.21838,73236
10.22650,80651
10.23463,82896
10.24275,85701
10.25088,92303
10.25900,110201
10.26712,173877
10.27525,328730
10.28337,687674
10.29150,1279713
10.29962,1982660
10.30773,2785044
10.31587,3759366
10.32398,5321878
10.33210,7476855
10.34023,9247593
10.34835,9719204
10.35648,8725341
10.36460,7136461
10.37272,5571342
10.38085,4214882
10.38897,3040736
10.39710,2020319
10.40522,1302989
10.41333,892043
10.42147,654464
10.42958,534489
10.43772,479891
10.44583,456239
10.45395,463724
10.46208,458429
10.47020,456897
10.47832,433298
10.48645,396868
10.49457,373803
10.50270,339791
10.51082,325835
10.51893,298120
10.52707,277389
10.53518,262515
10.54332,260175
10.55143,252232
10.55955,243111
10.56768,237203
10.57580,240458
10.58392,234691
10.59205,220582
10.60017,208408
10.60830,201763
10.61642,191545
10.62453,182377
10.63267,189273
10.64078,185286
10.64892,172112
10.65703,179355
10.66515,172807
10.67328,180678
10.68140,179173
10.68953,179514
10.69765,180862
10.70577,169905
10.71390,164027
10.72202,157972
10.73013,155723
10.73827,161855
10.74638,158853
10.75452,157066
10.76263,150921
10.77075,147477
10.77888,134656
10.78700,130871
10.79513,133810
10.80325,132896
10.81137,147857
10.81950,150103
10.82762,139308
10.83573,133225
10.84387,125097
10.85198,112090
10.86012,114952
10.86823,109784
10.87635,111402
10.88448,112250
10.89260,111266
10.90073,109255
10.90885,113935
10.91697,105737
10.92510,112891
10.93322,106371
10.94135,104407
10.94947,102727
10.95758,105700
10.96572,111727
10.97383,112169
10.98195,116384
10.99008,120480
10.99820,124848
11.00633,124391
11.01445,125464
11.02257,119074
11.03070,105448
11.03882,103377
11.04695,92300
11.05507,93199
11.06318,96645
11.07132,108744
11.07943,111951
11.08757,120582
11.09568,131891
11.10380,123402
11.11193,116745
11.12005,109439
11.12817,92071
11.13630,89513
11.14442,85767
11.15255,85104
11.16067,92544
11.16878,91369
11.17692,94503
11.18503,102810
11.19317,104298
11.20128,102992
11.20940,101873
11.21753,105657
11.22565,98033
11.23378,97319
11.24190,94170
11.25002,90725
11.25815,87827
11.26627,81795
11.27438,79038
11.28252,85145
11.29063,108030
11.29877,179207
11.30688,360147
11.31500,750149
11.32313,1379585
11.33125,2131571
11.33938,2756333
11.34750,2905141
11.35562,2604937
11.36375,1979262
11.37187,1331228
11.37998,807498
11.38812,540928
11.39623,407042
11.40437,347656
11.41248,349662
11.42060,359197
11.42873,350134
11.43685,343304
11.44498,312258
11.45310,278341
11.46122,246839
11.46935,233251
11.47747,219756
11.48560,218100
11.49372,232567
11.50183,247289
11.50997,252936
11.51808,237342
11.52620,223568
11.53433,196168
11.54245,182175
11.55058,186182
11.55870,179770
11.56682,176159
11.57495,176034
11.58307,171202
11.59120,166377
11.59932,176726
11.60743,204711
11.61557,219274
11.62368,228193
11.63180,226035
11.63993,202038
11.64805,175367
11.65618,155400
11.66430,154468
11.67242,148048
11.68055,158627
11.68867,178821
11.69680,197049
11.70492,214973
11.71303,214595
11.72117,198843
11.72928,181028
11.73742,142133
11.74553,130258
11.75365,114908
11.76178,107369
11.76990,108088
11.77802,106956
11.78615,111002
11.79427,110304
11.80240,115793
11.81052,115490
11.81863,110530
11.82677,112581
11.83488,112375
11.84302,110457
11.85113,107581
11.85925,106418
11.86738,107793
11.87550,103802
11.88363,100436
11.89175,97441
11.89987,94968
11.90800,92834
11.91612,95514
11.92423,98092
11.93237,103566
11.94048,101309
11.94862,106972
11.95673,98936
11.96485,101668
11.97298,112753
11.98110,155791
11.98923,260941
11.99735,468611
12.00547,720863
12.01360,916452
12.02172,967350
12.02983,850054
12.03797,648976
12.04608,428352
12.05422,304138
12.06233,232818
12.07045,197296
12.07858,205980
12.08670,192783
12.09483,195187
12.10295,193439
12.11107,192352
12.11920,203596
12.12732,212640
12.13545,213991
12.14357,203496
12.15168,178831
12.15982,156354
12.16793,143056
12.17605,130919
12.18418,121754
12.19230,116589
12.20043,119822
12.20855,119863
12.21667,122258
12.22480,121658
12.23292,119516
12.24105,117144
12.24917,116730
12.25728,125418
12.26542,111492
12.27353,115148
12.28167,103956
12.28978,102455
12.29790,102611
12.30603,100074
12.31415,94615
12.32227,95705
12.33040,97676
12.33852,94897
12.34665,94290
12.35477,91660
12.36288,93747
12.37102,89256
12.37913,96717
12.38727,97653
12.39538,106820
12.40350,109224
12.41163,125747
12.41975,139661
12.42787,164943
12.43600,177345
12.44412,181787
12.45225,167557
12.46037,147131
12.46848,131690
12.47662,123439
12.48473,111188
12.49287,102144
12.50098,96356
12.50910,105264
12.51723,98131
12.52535,98254
12.53348,104424
12.54160,114759
12.54972,133611
12.55785,158656
12.56597,180378
12.57408,200539
12.58222,194330
12.59033,174607
12.59847,153573
12.60658,141018
12.61470,127994
12.62283,127080
12.63095,126385
12.63908,115444
12.64720,117060
12.65532,103259
12.66345,103621
12.67157,100448
12.67968,92947
12.68782,93546
12.69593,92375
12.70407,93252
12.71218,90349
12.72030,98255
12.72843,103307
12.73655,110674
12.74468,111782
12.75280,106293
12.76092,108545
12.76905,102255
12.77717,99113
12.78530,89591
12.79342,93369
12.80153,86729
12.80967,85504
12.81778,79928
12.82590,80378
12.83403,75418
12.84215,78536
12.85028,74165
12.85840,85977
12.86652,82056
12.87465,84434
12.88277,86394
12.89090,87203
12.89902,93121
12.90713,89646
12.91527,83178
12.92338,79060
12.93152,81258
12.93963,79926
12.94775,85541
12.95588,98085
12.96400,131498
12.97212,200548
12.98025,285401
12.98837,363085
12.99650,368342
13.00462,324863
13.01273,240081
13.02087,187265
13.02898,162435
13.03712,166636
13.04523,192292
13.05335,249659
13.06148,289830
13.06960,335836
13.07772,323336
13.08585,271965
13.09397,216981
13.10210,159334
13.11022,132057
13.11833,115200
13.12647,118322
13.13458,120406
13.14272,128348
13.15083,130376
13.15895,127092
13.16708,117056
13.17520,113597
13.18333,114772
13.19145,108528
13.19957,107750
13.20770,105119
13.21582,105191
13.22393,110653
13.23207,114847
13.24018,112432
13.24832,104158
13.25643,104879
13.26455,95291
13.27268,89341
13.28080,89346
13.28893,82910
13.29705,88419
13.30517,82589
13.31330,80295
13.32142,78640
13.32955,80523
13.33767,83495
13.34578,75409
13.35392,78053
13.36203,76766
13.37015,83593
13.37828,83311
13.38640,76464
13.39453,75919
13.40265,78476
13.41077,69889
13.41890,70116
13.42702,65778
13.43515,67485
13.44327,72091
13.45138,79125
13.45952,80399
13.46763,91086
13.47575,90875
13.48388,90522
13.49200,89996
13.50013,85313
13.50825,89047
13.51637,86784
13.52450,84423
13.53262,86123
13.54075,91475
13.54887,84053
13.55698,86063
13.56512,86023
13.57323,88209
13.58137,89313
13.58948,86502
13.59760,101252
13.60573,115627
13.61385,141132
13.62197,173009
13.63010,186377
13.63822,179818
13.64635,156354
13.65447,126020
13.66258,103425
13.67072,93582
13.67883,91632
13.68697,92061
13.69508,87840
13.70320,87858
13.71133,84939
13.71945,80961
13.72758,93654
13.73570,141613
13.74382,288104
13.75195,691850
13.76007,1542508
13.76818,2659416
13.77632,3777891
13.78443,4359144
13.79257,4037617
13.80068,3190109
13.80880,2235651
13.81693,1614233
13.82505,1304080
13.83318,1219390
13.84130,1145435
13.84942,1024839
13.85755,872242
13.86567,700986
13.87378,573399
13.88192,478219
13.89003,423384
13.89817,370782
13.90628,347698
13.91440,318269
13.92253,294250
13.93065,281435
13.93878,264827
13.94690,251390
13.95502,267666
13.96315,283857
13.97127,315788
13.97940,357830
13.98752,366355
13.99563,376754
14.00377,318515
14.01188,285995
14.02000,247283
14.02813,230253
14.03625,218754
14.04438,209642
14.05250,194141
14.06062,202058
14.06875,195884
14.07687,190096
14.08500,190465
14.09312,187474
14.10123,177336
14.10937,179715
14.11748,169148
14.12560,174910
14.13373,191100
14.14185,210632
14.14998,247359
14.15810,266806
14.16622,303207
14.17435,361227
14.18247,494217
14.19060,670792
14.19872,845032
14.20683,870309
14.21497,777121
14.22308,596000
14.23122,453079
14.23933,369903
14.24745,315743
14.25558,292623
14.26370,275915
14.27182,238343
14.27995,218378
14.28807,199592
14.29620,188675
14.30432,176181
14.31243,168344
14.32057,174200
14.32868,164838
14.33682,162224
14.34493,150643
14.35305,135892
14.36118,126665
14.36930,116502
14.37743,112819
14.38555,119388
14.39367,139213
14.40180,186224
14.40992,282476
14.41803,397607
14.42617,489701
14.43428,490979
14.44242,419472
14.45053,315133
14.45865,231468
14.46678,189784
14.47490,170425
14.48303,160240
14.49115,154416
14.49927,148278
14.50740,143773
14.51552,147252
14.52363,153086
14.53177,156530
14.53988,150981
14.54802,140415
14.55613,138269
14.56425,120196
14.57238,117417
14.58050,106096
14.58863,99583
14.59675,97718
14.60487,94822
14.61300,98621
14.62112,98162
14.62925,99548
14.63737,98009
14.64548,100038
14.65362,96066
14.66173,92058
14.66985,92063
14.67798,88596
14.68610,86817
14.69423,87414
14.70235,87134
14.71047,94211
14.71860,103164
14.72672,105255
14.73485,104781
14.74297,111651
14.75108,115981
14.75922,114788
14.76733,111753
14.77547,115243
14.78358,115934
14.79170,150323
14.79983,271316
14.80795,563620
14.81607,1152467
14.82420,1988142
14.83232,2716434
14.84045,2973073
14.84857,2663412
14.85668,1976440
14.86482,1269592
14.87293,824076
14.88107,535457
14.88918,393519
14.89730,327756
14.90543,280289
14.91355,254667
14.92167,239516
14.92980,220855
14.93792,207401
14.94605,197264
14.95417,190331
14.96228,165046
14.97042,164428
14.97853,152426
14.98667,141677
14.99478,149400
15.00290,137851
15.01103,141315
15.01915,141869
15.02728,142139
15.03540,137475
15.04352,146977
15.05165,135509
15.05977,127197
15.06788,123710
15.07602,120282
15.08413,116501
15.09227,113797
15.10038,111494
15.10850,104777
15.11663,106412
15.12475,109258
15.13288,109377
15.14100,118377
15.14912,123833
15.15725,123063
15.16537,120996
15.17348,116593
15.18162,115289
15.18973,107836
15.19787,105169
15.20598,100231
15.21410,89151
15.22223,91029
15.23035,92254
15.23848,91032
15.24660,91032
15.25472,93031
15.26285,90925
15.27097,83523
15.27910,78795
15.28722,78597
15.29533,72433
15.30347,77286
15.31158,74750
15.31970,70973
15.32783,76970
15.33595,71358
15.34408,66310
15.35220,68709
15.36032,69671
15.36845,70610
15.37657,73243
15.38470,72069
15.39282,80757
15.40093,75764
15.40907,74036
15.41718,69480
15.42532,78310
15.43343,71437
15.44155,84807
15.44968,81370
15.45780,96139
15.46592,130977
15.47405,188657
15.48217,295505
15.49030,422046
15.49842,535662
15.50653,593950
15.51467,563700
15.52278,488341
15.53092,387481
15.53903,313938
15.54715,259605
15.55528,217351
15.56340,179054
15.57152,157603
15.57965,143563
15.58777,125635
15.59590,109329
15.60402,111779
15.61213,99998
15.62027,101837
15.62838,96005
15.63652,93564
15.64463,90024
15.65275,88359
15.66088,87222
15.66900,82762
15.67713,85373
15.68525,82786
15.69337,80111
15.70150,88057
15.70962,79170
15.71773,76882
15.72587,76106
15.73398,78327
15.74212,79999
15.75023,88931
15.75835,104534
15.76648,139606
15.77460,193718
15.78273,261170
15.79085,321732
15.79897,327431
15.80710,288768
15.81522,233268
15.82335,178811
15.83147,138994
15.83958,117017
15.84772,106914
15.85583,99245
15.86395,101038
15.87208,100864
15.88020,99889
15.88833,98497
15.89645,96930
15.90457,96807
15.91270,93046
15.92082,85542
15.92895,87769
15.93707,96266
15.94518,105248
15.95332,136882
15.96143,184690
15.96955,230114
15.97768,295288
15.98580,295315
15.99393,281062
16.00205,243636
16.01017,208056
16.01830,181556
16.02642,173371
16.03455,161578
16.04267,149770
16.05078,135066
16.05892,120740
16.06703,111554
16.07517,106800
16.08328,97260
16.09140,89093
16.09953,90052
16.10765,92828
16.11577,89654
16.12390,95072
16.13202,100344
16.14015,107624
16.14827,111910
16.15638,109025
16.16452,111319
16.17263,105955
16.18077,99597
16.18888,98448
16.19700,95408
16.20513,97927
16.21325,113136
16.22137,122865
16.22950,136342
16.23762,138984
16.24575,138253
16.25387,130171
16.26198,120717
16.27012,116933
16.27823,115732
16.28637,114248
16.29448,123355
16.30260,119298
16.31073,125922
16.31885,115754
16.32698,105297
16.33510,102864
16.34322,105756
16.35135,122974
16.35947,149349
16.36758,190323
16.37572,232821
16.38383,253833
16.39197,256102
16.40008,210865
16.40820,167929
16.41633,139242
16.42445,113673
16.43258,100555
16.44070,96099
16.44882,116693
16.45695,150518
16.46507,214900
16.47320,318362
16.48132,411623
16.48943,448791
16.49757,412369
16.50568,326644
16.51380,240509
16.52193,179033
16.53005,136160
16.53818,117330
16.54630,108171
16.55442,97969
16.56255,97556
16.57067,103958
16.57880,101279
16.58692,119656
16.59503,131340
16.60317,151588
16.61128,164498
16.61942,179452
16.62753,179256
16.63565,159470
16.64378,137339
16.65190,120549
16.66002,105240
16.66815,96515
16.67627,93462
16.68440,83502
16.69252,87405
16.70063,86193
16.70877,80529
16.71688,82396
16.72502,79556
16.73313,81134
16.74125,78879
16.74938,77694
16.75750,78822
16.76562,75447
16.77375,74086
16.78187,74573
16.79000,73066
16.79812,72129
16.80623,71290
16.81437,69545
16.82248,72718
16.83062,65091
16.83873,67623
16.84685,61602
16.85498,62501
16.86310,65905
16.87123,68237
16.87935,64548
16.88747,64010
16.89560,64897
16.90372,65539
16.91183,65671
16.91997,63989
16.92808,63277
16.93622,59081
16.94433,64023
16.95245,62870
16.96058,64198
16.96870,66811
16.97683,63900
16.98495,67065
16.99307,65619
17.00120,66743
17.00932,70305
17.01743,66911
17.02557,67314
17.03368,74032
17.04182,78606
17.04993,81241
17.05805,83920
17.06618,82145
17.07430,82809
17.08243,77300
17.09055,76235
17.09867,75680
17.10680,78029
17.11492,76075
17.12305,74469
17.13117,79181
17.13928,79444
17.14742,82291
17.15553,81407
17.16365,82273
17.17178,77213
17.17990,78830
17.18803,70541
17.19615,68776
17.20427,67318
17.21240,68004
17.22052,65791
17.22865,62724
17.23677,65970
17.24488,62188
17.25302,69668
17.26113,64944
17.26927,63265
17.27738,63400
17.28550,59911
17.29363,66216
17.30175,59153
17.30987,71020
17.31800,73773
17.32612,84097
17.33425,98501
17.34237,110403
17.35048,113838
17.35862,106198
17.36673,103401
17.37487,96251
17.38298,93594
17.39110,93334
17.39923,87437
17.40735,95631
17.41547,95242
17.42360,97544
17.43172,100337
17.43985,97797
17.44797,100384
17.45608,91797
17.46422,81468
17.47233,83258
17.48047,80424
17.48858,70865
17.49670,70151
17.50483,73467
17.51295,73379
17.52108,69387
17.52920,71458
17.53732,72975
17.54545,73564
17.55357,77301
17.56168,99055
17.56982,142088
17.57793,229349
17.58607,369977
17.59418,578967
17.60230,831962
17.61043,985539
17.61855,1006408
17.62668,874514
17.63480,671311
17.64292,492074
17.65105,408689
17.65917,371467
17.66730,360414
17.67542,347563
17.68353,305382
17.69167,258818
17.69978,226239
17.70790,176079
17.71603,161931
17.72415,142799
17.73228,144279
17.74040,132063
17.74852,129915
17.75665,118968
17.76477,118259
17.77290,112894
17.78102,103725
17.78913,107023
17.79727,120198
17.80538,141964
17.81350,179825
17.82163,232795
17.82975,264294
17.83788,278973
17.84600,271766
17.85412,236189
17.86225,195438
17.87037,182864
17.87850,155506
17.88662,130150
17.89473,125086
17.90287,111106
17.91098,103850
17.91912,94383
17.92723,87100
17.93535,85827
17.94348,79341
17.95160,82393
17.95972,79641
17.96785,81493
17.97597,76494
17.98410,80131
17.99222,76144
18.00033,77392
18.00847,76483
18.01658,86221
18.02472,94459
18.03283,116521
18.04095,126307
18.04908,147389
18.05720,209242
18.06532,356672
18.07345,665136
18.08157,1158942
18.08970,1662195
18.09782,1990507
18.10593,1945208
18.11407,1629346
18.12218,1186580
18.13032,857830
18.13843,612432
18.14655,485393
18.15468,394989
18.16280,353026
18.17093,315014
18.17905,284456
18.18717,269752
18.19530,248152
18.20342,228844
18.21153,206603
18.21967,199544
18.22778,189599
18.23592,174005
18.24403,171579
18.25215,156064
18.26028,150963
18.26840,141810
18.27653,131889
18.28465,114316
18.29277,100888
18.30090,91612
18.30902,79880
18.31715,76617
18.32527,80415
18.33338,72242
18.34152,71327
18.34963,70376
18.35775,70450
18.36588,77399
18.37400,74309
18.38213,75130
18.39025,79393
18.39837,87483
18.40650,122771
18.41462,176645
18.42275,245851
18.43087,285138
18.43898,350132
18.44712,379587
18.45523,423206
18.46335,483246
18.47148,550604
18.47960,603212
18.48773,609140
18.49585,608605
18.50397,555733
18.51210,489294
18.52022,428796
18.52835,381095
18.53647,349900
18.54458,339308
18.55272,325208
18.56083,316056
18.56897,306776
18.57708,309578
18.58520,296801
18.59333,312336
18.60145,311956
18.60957,318206
18.61770,324595
18.62582,339624
18.63395,338428
18.64207,326471
18.65018,320041
18.65832,307434
18.66643,289155
18.67457,272919
18.68268,260650
18.69080,269491
18.69893,259169
18.70705,262648
18.71518,253313
18.72330,266629
18.73142,253007
18.73955,249508
18.74767,230065
18.75578,227207
18.76392,238174
18.77203,234051
18.78017,227388
18.78828,226850
18.79640,226885
18.80453,225862
18.81265,227249
18.82078,221074
18.82890,209165
18.83702,213890
18.84515,218687
18.85327,216708
18.86138,217085
18.86952,211471
18.87763,215010
18.88577,214703
18.89388,218754
18.90200,208937
18.91013,207416
18.91825,197440
18.92638,205819
18.93450,207069
18.94262,205440
18.95075,208424
18.95887,214907
18.96700,215780
18.97512,212173
18.98323,212840
18.99137,195071
18.99948,186647
19.00760,186006
19.01573,193387
19.02385,185813
19.03198,183368
19.04010,186693
19.04822,178258
19.05635,176502
19.06447,185101
19.07260,200555
19.08072,253617
19.08883,306219
19.09697,385264
19.10508,438345
19.11320,464268
19.12133,432008
19.12945,374419
19.13758,307448
19.14570,271328
19.15382,236217
19.16195,220045
19.17007,204776
19.17820,198546
19.18632,195758
19.19443,186379
19.20257,181205
19.21068,168316
19.21882,164643
19.22693,164324
19.23505,159436
19.24318,156628
19.25130,153920
19.25942,150176
19.26755,147773
19.27567,149214
19.28380,162756
19.29192,166439
19.30003,168370
19.30817,170716
19.31628,175146
19.32442,164680
19.33253,164363
19.34065,167618
19.34878,179016
19.35690,199667
19.36503,232084
19.37315,247373
19.38127,260574
19.38940,247772
19.39752,229322
19.40563,199291
19.41377,176441
19.42188,171167
19.43002,158204
19.43813,147961
19.44625,149784
19.45438,154859
19.46250,162385
19.47063,192357
19.47875,248118
19.48687,327620
19.49500,441487
19.50312,534833
19.51123,552533
19.51937,491552
19.52748,382071
19.53562,290719
19.54373,234183
19.55185,196136
19.55998,174279
19.56810,164685
19.57623,157776
19.58435,145256
19.59247,135424
19.60060,134857
19.60872,132075
19.61685,129670
19.62497,134449
19.63308,142378
19.64122,158957
19.64933,199940
19.65745,257528
19.66558,323764
19.67370,365692
19.68183,397622
19.68995,396544
19.69807,364804
19.70620,338462
19.71432,291158
19.72245,265681
19.73057,230370
19.73868,213006
19.74682,195643
19.75493,181305
19.76307,183988
19.77118,189579
19.77930,199621
19.78743,233207
19.79555,254132
19.80367,275257
19.81180,280780
19.81992,259423
19.82805,226731
19.83617,188953
19.84428,185487
19.85242,236917
19.86053,434585
19.86867,945797
19.87678,2036061
19.88490,3609552
19.89303,5524238
19.90115,7022681
19.90927,7186594
19.91740,6326262
19.92552,4932766
19.93365,3391509
19.94177,2252351
19.94988,1523243
19.95802,1131643
19.96613,930426
19.97427,820734
19.98238,757384
19.99050,682318
19.99863,660200
20.00675,612810
20.01488,572063
20.02300,535305
20.03112,504113
20.03925,450864
20.04737,424833
20.05548,403806
20.06362,381006
20.07173,388767
20.07987,409222
20.08798,405515
20.09610,416249
20.10423,362698
20.11235,315134
20.12048,272173
20.12860,235226
20.13672,223620
20.14485,245668
20.15297,301837
20.16110,436482
20.16922,608564
20.17733,833965
20.18547,1054777
20.19358,1237588
20.20170,1308747
20.20983,1243336
20.21795,1086212
20.22608,904044
20.23420,742914
20.24232,665643
20.25045,692566
20.25857,765346
20.26670,887470
20.27482,952245
20.28293,981533
20.29107,932239
20.29918,814980
20.30730,671426
20.31543,538536
20.32355,419128
20.33168,319918
20.33980,257510
20.34792,224990
20.35605,188630
20.36417,172845
20.37230,153941
20.38042,145496
20.38853,136133
20.39667,130985
20.40478,123839
20.41292,120430
20.42103,122961
20.42915,132428
20.43728,139187
20.44540,138852
20.45352,162573
20.46165,160150
20.46977,156582
20.47790,159841
20.48602,145271
20.49413,137414
20.50227,120434
20.51038,117271
20.51852,107758
20.52663,99282
20.53475,97930
20.54288,95964
20.55100,93761
20.55912,93723
20.56725,96219
20.57537,83763
20.58350,91079
20.59162,86205
20.59973,85101
20.60787,85794
20.61598,89291
20.62412,91877
20.63223,94689
20.64035,98560
20.64848,97192
20.65660,106897
20.66473,103091
20.67285,98733
20.68097,92234
20.68910,86227
20.69722,86090
20.70533,81761
20.71347,81625
20.72158,82901
20.72972,78463
20.73783,83547
20.74595,86253
20.75408,91488
20.76220,94781
20.77033,93877
20.77845,119226
20.78657,164064
20.79470,259761
20.80282,405317
20.81095,609666
20.81907,750751
20.82718,767422
20.83532,680124
20.84343,512626
20.85155,336664
20.85968,237428
20.86780,167624
20.87593,137942
20.88405,119163
20.89217,117145
20.90030,118539
20.90842,130247
20.91655,132386
20.92467,130360
20.93278,143094
20.94092,141178
20.94903,133890
20.95715,132040
20.96528,123865
20.97340,112223
20.98153,100653
20.98965,95738
20.99777,90011
21.00590,86582
21.01402,86505
21.02215,93316
21.03027,93753
21.03838,92374
21.04652,93905
21.05463,93015
21.06277,90092
21.07088,86091
21.07900,80410
21.08713,80700
21.09525,77669
21.10337,73552
21.11150,73865
21.11962,77916
21.12775,85968
21.13587,102466
21.14398,125282
21.15212,155983
21.16023,179811
21.16837,194958
21.17648,189329
21.18460,165955
21.19273,140446
21.20085,124080
21.20898,108400
21.21710,96086
21.22522,88954
21.23335,88145
21.24147,83280
21.24958,85105
21.25772,89291
21.26583,83595
21.27397,90237
21.28208,81353
21.29020,82533
21.29833,74129
21.30645,73284
21.31458,74062
21.32270,70108
21.33082,71086
21.33895,76807
21.34707,73677
21.35518,70752
21.36332,72683
21.37143,69011
21.37957,74702
21.38768,88564
21.39580,93698
21.40393,111212
21.41205,118014
21.42018,113464
21.42830,112745
21.43642,102444
21.44455,99531
21.45267,85869
21.46080,80282
21.46892,77558
21.47703,78507
21.48517,81232
21.49328,74770
21.50140,72741
21.50953,77022
21.51765,68845
21.52578,70651
21.53390,70820
21.54202,70502
21.55015,72454
21.55827,72116
21.56640,72966
21.57452,72898
21.58263,81844
21.59077,93569
21.59888,98270
21.60700,103703
21.61513,103224
21.62325,105160
21.63138,113839
21.63950,115433
21.64762,117883
21.65575,121092
21.66387,125904
21.67200,124579
21.68012,121474
21.68823,119750
21.69637,115812
21.70448,112149
21.71262,94583
21.72073,89221
21.72885,85156
21.73698,84766
21.74510,82349
21.75322,80204
21.76135,86871
21.76947,81009
21.77760,84666
21.78572,87295
21.79383,99712
21.80197,96474
21.81008,99967
21.81822,107698
21.82633,107928
21.83445,105507
21.84258,104385
21.85070,103049
21.85883,96385
21.86695,91763
21.87507,86908
21.88320,82167
21.89132,81376
21.89943,75480
21.90757,76958
21.91568,75651
21.92382,70379
21.93193,73111
21.94005,66539
21.94818,72295
21.95630,68598
21.96443,67517
21.97255,63307
21.98067,61263
21.98880,62120
21.99692,62681
22.00503,63668
22.01317,64001
22.02128,70566
22.02942,67152
22.03753,64409
22.04565,67247
22.05378,65319
22.06190,63979
22.07003,67056
22.07815,61012
22.08627,63764
22.09440,63548
22.10252,65283
22.11065,62944
22.11877,66591
22.12688,60523
22.13502,61015
22.14313,62790
22.15125,61541
22.15938,60608
22.16750,60114
22.17563,59061
22.18375,58238
22.19187,59357
22.20000,57583
22.20812,61639
22.21625,62860
22.22437,66079
22.23248,67915
22.24062,58470
22.24873,64889
22.25687,62094
22.26498,70897
22.27310,64999
22.28123,78653
22.28935,83450
22.29747,80652
22.30560,85152
22.31372,80868
22.32185,85397
22.32997,80908
22.33808,81769
22.34622,75411
22.35433,74642
22.36247,68805
22.37058,73938
22.37870,70507
22.38683,82118
22.39495,102495
22.40307,132276
22.41120,166614
22.41932,193958
22.42745,202303
22.43557,197646
22.44368,172705
22.45182,139577
22.45993,117971
22.46807,100582
22.47618,103432
22.48430,117632
22.49243,139843
22.50055,148540
22.50868,159137
22.51680,164229
22.52492,153974
22.53305,142222
22.54117,127355
22.54928,115296
22.55742,108274
22.56553,89973
22.57367,88281
22.58178,82952
22.58990,74000
22.59803,71986
22.60615,72848
22.61428,69722
22.62240,69507
22.63052,65445
22.63865,66893
22.64677,72522
22.65488,70287
22.66302,72452
22.67113,73876
22.67927,80125
22.68738,88189
22.69550,91162
22.70363,97930
22.71175,113860
22.71988,118569
22.72800,113440
22.73612,111190
22.74425,93330
22.75237,91883
22.76050,80602
22.76862,79397
22.77673,83436
22.78487,89302
22.79298,105693
22.80110,111280
22.80923,130371
22.81735,138940
22.82548,132058
22.83360,108751
22.84172,103378
22.84985,99820
22.85797,95502
22.86610,110562
22.87422,123228
22.88233,145343
22.89047,167868
22.89858,185852
22.90672,199782
22.91483,216415
22.92295,225069
22.93108,225665
22.93920,220652
22.94732,184651
22.95545,153432
22.96357,123104
22.97170,106759
22.97982,94781
22.98793,83649
22.99607,81055
23.00418,80052
23.01232,76197
23.02043,75559
23.02855,68832
23.03668,69714
23.04480,74702
23.05293,72585
23.06105,76577
23.06917,82988
23.07730,82787
23.08542,86113
23.09353,87761
23.10167,87493
23.10978,80569
23.11792,79483
23.12603,85809
23.13415,80205
23.14228,78625
23.15040,77597
23.15853,78898
23.16665,80011
23.17477,77458
23.18290,82201
23.19102,79957
23.19913,83060
23.20727,75815
23.21538,75059
23.22352,78150
23.23163,76475
23.23975,79124
23.24788,78634
23.25600,87094
23.26413,94325
23.27225,94035
23.28037,91533
23.28850,81476
23.29662,85955
23.30475,81278
23.31287,80861
23.32098,88765
23.32912,95297
23.33723,109185
23.34535,137718
23.35348,158355
23.36160,193623
23.36973,213386
23.37785,232604
23.38597,245669
23.39410,236252
23.40222,222478
23.41035,236324
23.41847,219537
23.42658,215424
23.43472,210744
23.44283,194146
23.45095,188747
23.45908,181365
23.46720,176696
23.47533,171474
23.48345,163650
23.49157,162472
23.49970,151995
23.50782,145429
23.51595,141398
23.52407,132701
23.53218,130417
23.54032,128770
23.54843,130081
23.55657,139228
23.56468,153686
23.57280,175347
23.58093,216698
23.58905,267265
23.59717,323710
23.60530,344299
23.61342,330256
23.62155,308211
23.62967,255129
23.63778,221196
23.64592,211307
23.65403,217649
23.66217,219693
23.67028,226128
23.67840,224012
23.68653,194297
23.69465,158232
23.70278,134970
23.71090,115412
23.71902,105031
23.72715,101264
23.73527,104632
23.74338,138415
23.75152,257891
23.75963,551818
23.76777,1190794
23.77588,2195809
23.78400,3290992
23.79213,4040247
23.80025,4246605
23.80838,3865144
23.81650,3225986
23.82462,2415476
23.83275,1833059
23.84087,1346702
23.84898,1019198
23.85712,823302
23.86523,685856
23.87337,562030
23.88148,514203
23.88960,461226
23.89773,425553
23.90585,394484
23.91398,365954
23.92210,343053
23.93022,331084
23.93835,307103
23.94647,283500
23.95460,261288
23.96272,235069
23.97083,227339
23.97897,210740
23.98708,209460
23.99520,215471
24.00333,273183
24.01145,364859
24.01958,541671
24.02770,795500
24.03582,978086
24.04395,996010
24.05207,857183
24.06020,652990
24.06832,462527
24.07643,332206
24.08457,246036
24.09268,200723
24.10082,179662
24.10893,163706
24.11705,160546
24.12518,166279
24.13330,169769
24.14142,170277
24.14955,172454
24.15767,177054
24.16580,173658
24.17392,172137
24.18203,173679
24.19017,172354
24.19828,169196
24.20642,167851
24.21453,165094
24.22265,161620
24.23078,140290
24.23890,128223
24.24702,121291
24.25515,114224
24.26327,107434
24.27140,108681
24.27952,105313
24.28763,100770
24.29577,107989
24.30388,102782
24.31202,106479
24.32013,101896
24.32825,101071
24.33638,102746
24.34450,99905
24.35263,100588
24.36075,110310
24.36887,134555
24.37700,172087
24.38512,225329
24.39323,260348
24.40137,277011
24.40948,238229
24.41762,188576
24.42573,145675
24.43385,115092
24.44198,98812
24.45010,98219
24.45823,100451
24.46635,103752
24.47447,108613
24.48260,128063
24.49072,131685
24.49883,140569
24.50697,143759
24.51508,143137
24.52322,164337
24.53133,192713
24.53945,242357
24.54758,297957
24.55570,348176
24.56383,372158
24.57195,360694
24.58007,310877
24.58820,278568
24.59632,227744
24.60445,204914
24.61257,184572
24.62068,177546
24.62882,171903
24.63693,166737
24.64505,168335
24.65318,167288
24.66130,165283
24.66943,166050
24.67755,171089
24.68567,161392
24.69380,158522
24.70192,155865
24.71005,151758
24.71817,156193
24.72628,151557
24.73442,150836
24.74253,150443
24.75067,149803
24.75878,152626
24.76690,155270
24.77503,154825
24.78315,166142
24.79127,164339
24.79940,167455
24.80752,162219
24.81565,164618
24.82377,175545
24.83188,194031
24.84002,221578
24.84813,272736
24.85627,323686
24.86438,394797
24.87250,513068
24.88063,641139
24.88875,746589
24.89687,773951
24.90500,744354
24.91312,628202
24.92125,481036
24.92937,362171
24.93748,280031
24.94562,220640
24.95373,197197
24.96187,180428
24.96998,170822
24.97810,160812
24.98623,158953
24.99435,163778
25.00248,153500
25.01060,147611
25.01872,143378
25.02685,145316
25.03497,137252
25.04308,142151
25.05122,139212
25.05933,135832
25.06747,142717
25.07558,137564
25.08370,145508
25.09183,167336
25.09995,216299
25.10808,383165
25.11620,738786
25.12432,1401781
25.13245,2354147
25.14057,3228764
25.14870,3693680
25.15682,3581360
25.16493,3062821
25.17307,2175430
25.18118,1434486
25.18930,883434
25.19743,526224
25.20555,349145
25.21368,255679
25.22180,216446
25.22992,195119
25.23805,213708
25.24617,229557
25.25430,284622
25.26242,345493
25.27053,384553
25.27867,395542
25.28678,373575
25.29490,329970
25.30303,253020
25.31115,209369
25.31928,170955
25.32740,141943
25.33552,128061
25.34365,112779
25.35177,104621
25.35990,96046
25.36802,96933
25.37613,93699
25.38427,92350
25.39238,89960
25.40052,84033
25.40863,87966
25.41675,83182
25.42488,83716
25.43300,81796
25.44112,85067
25.44925,85119
25.45737,81300
25.46550,83636
25.47362,84258
25.48173,84019
25.48987,84221
25.49798,85374
25.50612,81903
25.51423,76675
25.52235,75966
25.53048,72417
25.53860,73213
25.54673,73258
25.55485,73282
25.56297,73854
25.57110,78362
25.57922,77050
25.58733,82303
25.59547,81030
25.60358,79917
25.61172,77941
25.61983,78111
25.62795,77366
25.63608,74691
25.64420,82978
25.65233,103247
25.66045,126027
25.66857,145413
25.67670,157514
25.68482,166475
25.69293,174558
25.70107,179755
25.70918,185013
25.71732,185420
25.72543,186678
25.73355,181709
25.74168,179456
25.74980,181154
25.75793,176087
25.76605,177911
25.77417,185320
25.78230,183182
25.79042,190765
25.79855,187805
25.80667,195950
25.81478,196821
25.82292,191390
25.83103,211903
25.83915,226743
25.84728,236150
25.85540,230162
25.86353,224792
25.87165,210699
25.87977,201631
25.88790,191131
25.89602,175738
25.90415,164346
25.91227,164863
25.92038,167078
25.92852,163823
25.93663,171018
25.94475,158228
25.95288,156670
25.96100,154693
25.96913,150692
25.97725,160934
25.98537,150344
25.99350,150138
26.00162,142411
26.00975,143603
26.01787,147048
26.02598,140897
26.03412,143429
26.04223,144184
26.05037,147367
26.05848,147607
26.06660,143201
26.07473,133469
26.08285,142309
26.09097,137996
26.09910,144220
26.10722,143133
26.11535,140363
26.12347,134771
26.13158,136992
26.13972,151297
26.14783,151573
26.15597,148440
26.16408,151002
26.17220,143426
26.18033,139746
26.18845,131989
26.19658,124668
26.20470,122636
26.21282,122503
26.22095,114346
26.22907,117248
26.23718,115481
26.24532,117758
26.25343,116029
26.26157,108910
26.26968,107539
26.27780,104384
26.28593,104288
26.29405,105534
26.30218,105296
26.31030,102884
26.31842,97217
26.32655,97718
26.33467,97942
26.34278,105361
26.35092,112905
26.35903,135553
26.36717,173899
26.37528,227682
26.38340,300024
26.39153,390857
26.39965,440688
26.40778,443824
26.41590,403216
26.42402,336260
26.43215,260783
26.44027,203717
26.44840,154780
26.45652,129899
26.46463,122110
26.47277,109710
26.48088,105134
26.48900,100884
26.49713,97385
26.50525,93940
26.51338,91822
26.52150,87538
26.52962,88335
26.53775,82014
26.54587,84352
26.55400,78233
26.56212,76255
26.57023,78214
26.57837,79822
26.58648,76601
26.59462,77553
26.60273,73859
26.61085,83194
26.61898,83528
26.62710,79787
26.63522,79308
26.64335,75504
26.65147,81276
26.65960,79996
26.66772,79430
26.67583,84585
26.68397,81864
26.69208,82824
26.70022,78386
26.70833,76015
26.71645,79543
26.72458,78763
26.73270,78187
26.74082,78851
26.74895,77109
26.75707,76612
26.76520,75056
26.77332,77193
26.78143,82357
26.78957,87396
26.79768,91404
26.80582,87461
26.81393,90610
26.82205,88562
26.83018,85387
26.83830,78867
26.84643,81094
26.85455,75416
26.86267,74843
26.87080,72373
26.87892,73018
26.88703,75366
26.89517,67451
26.90328,75620
26.91142,69123
26.91953,62133
26.92765,66517
26.93578,70641
26.94390,75755
26.95203,78056
26.96015,82546
26.96827,101777
26.97640,146922
26.98452,218442
26.99263,360250
27.00077,552971
27.00888,807453
27.01702,1090587
27.02513,1333897
27.03325,1444100
27.04138,1371425
27.04950,1226806
27.05763,1027307
27.06575,822645
27.07387,650208
27.08200,529590
27.09012,433196
27.09825,361675
27.10637,315578
27.11448,287607
27.12262,257778
27.13073,236892
27.13885,227690
27.14698,211413
27.15510,208664
27.16323,206108
27.17135,203872
27.17947,210149
27.18760,214631
27.19572,198710
27.20385,193916
27.21197,181963
27.22008,170459
27.22822,156218
27.23633,146003
27.24447,142946
27.25258,137160
27.26070,135561
27.26883,126522
27.27695,122940
27.28507,116374
27.29320,115135
27.30132,121189
27.30945,112695
27.31757,118884
27.32568,113410
27.33382,112159
27.34193,105986
27.35007,110925
27.35818,109880
27.36630,107202
27.37443,107706
27.38255,102250
27.39068,100576
27.39880,97879
27.40692,93611
27.41505,98506
27.42317,96953
27.43128,94498
27.43942,96685
27.44753,89971
27.45567,97315
27.46378,85102
27.47190,86088
27.48003,87559
27.48815,76207
27.49628,81932
27.50440,81856
27.51252,91246
27.52065,89508
27.52877,98927
27.53688,89702
27.54502,96317
27.55313,85823
27.56127,88309
27.56938,86779
27.57750,97156
27.58563,101803
27.59375,111714
27.60188,121811
27.61000,124938
27.61812,118517
27.62625,110369
27.63437,97505
27.64250,96430
27.65062,89957
27.65873,89412
27.66687,97736
27.67498,112427
27.68310,122186
27.69123,132374
27.69935,124191
27.70748,123564
27.71560,109518
27.72372,101550
27.73185,91333
27.73997,82350
27.74810,80875
27.75622,69932
27.76433,69011
27.77247,72827
27.78058,75496
27.78870,77755
27.79683,75777
27.80495,79321
27.81308,77665
27.82120,74267
27.82932,80222
27.83745,75010
27.84557,67794
27.85370,70088
27.86182,70017
27.86993,69767
27.87807,70195
27.88618,65596
27.89432,67149
27.90243,72089
27.91055,65770
27.91868,65264
27.92680,60368
27.93492,64217
27.94305,66319
27.95117,65897
27.95930,66093
27.96742,62671
27.97553,60300
27.98367,63419
27.99178,69014
27.99992,78979
28.00803,87174
28.01615,107444
28.02428,138996
28.03240,188085
28.04053,237643
28.04865,270979
28.05677,278369
28.06490,263313
28.07302,218262
28.08113,173060
28.08927,132779
28.09738,112427
28.10552,101203
28.11363,92710
28.12175,80831
28.12988,81306
28.13800,72858
28.14613,69656
28.15425,69923
28.16237,73487
28.17050,71685
28.17862,75156
28.18673,77690
28.19487,96521
28.20298,101827
28.21112,106161
28.21923,106418
28.22735,115593
28.23548,106521
28.24360,102329
28.25173,85410
28.25985,84097
28.26797,79348
28.27610,74016
28.28422,73741
28.29235,79202
28.30047,88119
28.30858,106569
28.31672,131969
28.32483,159558
28.33295,187429
28.34108,226533
28.34920,259424
28.35733,301594
28.36545,331914
28.37357,380331
28.38170,398154
28.38982,410361
28.39795,395955
28.40607,385709
28.41418,359508
28.42232,342537
28.43043,319092
28.43857,306382
28.44668,279563
28.45480,259891
28.46293,240027
28.47105,217441
28.47917,201046
28.48730,194123
28.49542,192532
28.50355,185770
28.51167,177221
28.51978,159583
28.52792,147594
28.53603,140714
28.54417,125346
28.55228,120336
28.56040,123340
28.56853,117946
28.57665,113458
28.58477,108671
28.59290,104918
28.60102,100657
28.60915,101042
28.61727,107343
28.62538,109082
28.63352,105190
28.64163,104884
28.64977,109495
28.65788,112099
28.66600,101530
28.67413,104284
28.68225,91870
28.69038,96002
28.69850,90651
28.70662,86747
28.71475,93224
28.72287,77566
28.73098,90049
28.73912,97160
28.74723,111828
28.75537,131746
28.76348,143080
28.77160,153573
28.77973,143261
28.78785,126617
28.79598,112427
28.80410,110217
28.81222,103101
28.82035,94511
28.82847,94150
28.83658,84203
28.84472,88931
28.85283,85051
28.86097,85007
28.86908,90018
28.87720,86519
28.88533,96904
28.89345,97105
28.90158,102190
28.90970,100221
28.91782,97434
28.92595,96538
28.93407,90653
28.94220,92626
28.95032,89332
28.95843,91430
28.96657,83919
28.97468,83934
28.98280,79491
28.99093,72238
28.99905,68186
29.00718,70030
29.01530,73000
29.02342,69802
29.03155,70162
29.03967,68852
29.04780,72783
29.05592,75967
29.06403,72975
29.07217,73192
29.08028,70679
29.08842,71261
29.09653,75214
29.10465,73283
29.11278,73556
29.12090,73167
29.12902,72087
29.13715,63488
29.14527,68160
29.15340,64558
29.16152,66746
29.16963,72636
29.17777,73084
29.18588,78810
29.19402,94933
29.20213,102942
29.21025,121626
29.21838,140859
29.22650,168810
29.23462,237980
29.24275,334458
29.25087,489000
29.25900,664994
29.26712,779606
29.27523,771547
29.28337,677260
29.29148,491931
29.29962,324638
29.30773,209624
29.31585,135820
29.32398,99274
29.33210,77108
29.34023,73278
29.34835,75547
29.35647,67130
29.36460,66685
29.37272,69579
29.38083,70338
29.38897,68809
29.39708,71226
29.40522,67626
29.41333,71980
29.42145,69567
29.42958,66597
29.43770,72877
29.44583,66966
29.45395,65773
29.46207,64717
29.47020,65351
29.47832,70908
29.48645,71184
29.49457,63732
29.50268,68029
29.51082,67535
29.51893,69577
29.52705,64852
29.53518,65812
29.54330,65721
29.55143,62835
29.55955,61113
29.56767,55763
29.57580,57762
29.58392,57551
29.59205,54901
29.60017,59658
29.60828,59762
29.61642,61198
29.62453,56589
29.63265,59701
29.64078,57296
29.64890,55270
29.65703,59404
29.66515,61519
29.67327,60619
29.68140,62862
29.68952,67765
29.69765,68635
29.70577,70270
29.71388,72458
29.72202,72630
29.73013,71957
29.73827,74518
29.74638,70810
29.75450,74608
29.76263,70290
29.77075,68969
29.77887,60971
29.78700,61944
29.79512,65941
29.80325,60230
29.81137,54635
29.81948,50692
29.82762,52602
29.83573,52572
29.84387,53247
29.85198,54418
29.86010,53739
29.86823,62864
29.87635,68229
29.88448,77869
29.89260,92297
29.90072,98947
29.90885,98437
29.91697,95668
29.92508,86278
29.93322,80745
29.94133,78587
29.94947,88819
29.95758,96847
29.96570,105127
29.97383,122988
29.98195,142720
29.99008,166056
29.99820,188187
30.00632,202601
30.01445,212006
30.02257,211594
30.03068,210340
30.03882,208489
30.04693,202508
30.05507,200256
30.06318,193834
30.07130,200282
30.07943,192832
30.08755,181463
30.09568,183064
30.10380,174779
30.11192,173751
30.12005,164301
30.12817,154253
30.13630,152722
30.14442,150644
30.15253,144360
30.16067,132846
30.16878,127809
30.17690,134321
30.18503,124867
30.19315,133056
30.20128,131095
30.20940,131134
30.21752,128528
30.22565,116425
30.23377,106716
30.24190,94959
30.25002,94806
30.25813,92291
30.26627,86124
30.27438,83213
30.28250,79719
30.29063,79139
30.29875,81076
30.30688,81437
30.31500,78297
30.32312,80123
30.33125,78424
30.33937,75362
30.34750,80444
30.35562,83318
30.36373,77807
30.37187,81788
30.37998,75349
30.38812,68016
30.39623,71323
30.40435,74563
30.41248,73259
30.42060,65151
30.42872,66399
30.43685,68284
30.44497,65720
30.45310,65628
30.46122,65518
30.46933,68310
30.47747,63519
30.48558,66435
30.49372,62497
30.50183,65962
30.50995,64749
30.51808,59985
30.52620,63025
30.53433,62401
30.54245,64048
30.55057,63858
30.55870,67693
30.56682,62621
30.57493,65440
30.58307,66037
30.59118,64529
30.59932,68948
30.60743,66486
30.61555,63504
30.62368,64758
30.63180,64363
30.63993,56282
30.64805,57929
30.65617,58072
30.66430,59629
30.67242,61978
30.68053,58519
30.68867,56489
30.69678,61878
30.70492,61751
30.71303,59735
30.72115,58064
30.72928,65683
30.73740,69736
30.74553,79303
30.75365,82273
30.76177,94899
30.76990,93906
30.77802,103341
30.78615,117331
30.79427,134983
30.80238,152375
30.81052,151596
30.81863,167883
30.82675,151297
30.83488,135542
30.84300,128345
30.85113,119877
30.85925,111323
30.86737,115088
30.87550,114647
30.88362,122366
30.89175,116360
30.89987,118212
30.90798,111407
30.91612,113109
30.92423,108530
30.93237,104103
30.94048,106838
30.94860,105393
30.95673,104658
30.96485,105677
30.97297,104513
30.98110,101421
30.98922,102412
30.99735,100100
31.00547,98627
31.01358,101082
31.02172,110574
31.02983,104848
31.03797,106821
31.04608,105340
31.05420,106231
31.06233,106535
31.07045,102640
31.07857,107536
31.08670,114083
31.09482,122252
31.10295,126308
31.11107,123885
31.11918,120452
31.12732,114910
31.13543,111138
31.14357,111317
31.15168,105394
31.15980,106402
31.16793,111710
31.17605,118215
31.18418,141168
31.19230,165507
31.20042,226599
31.20855,286317
31.21667,344067
31.22478,386483
31.23292,373452
31.24103,347013
31.24917,270464
31.25728,201653
31.26540,159438
31.27353,128602
31.28165,110765
31.28978,102363
31.29790,96923
31.30602,92842
31.31415,89322
31.32227,88137
31.33038,91628
31.33852,90676
31.34663,96418
31.35477,90626
31.36288,91488
31.37100,88416
31.37913,88837
31.38725,83896
31.39538,86463
31.40350,86132
31.41162,92928
31.41975,91297
31.42787,85033
31.43600,82461
31.44412,77484
31.45223,78039
31.46037,83229
31.46848,80231
31.47660,79676
31.48473,76083
31.49285,80352
31.50098,87119
31.50910,94617
31.51722,91177
31.52535,92119
31.53347,95476
31.54160,90661
31.54972,93946
31.55783,91219
31.56597,87978
31.57408,83877
31.58222,81182
31.59033,77774
31.59845,78090
31.60658,77221
31.61470,71953
31.62282,74532
31.63095,74711
31.63907,71363
31.64720,73234
31.65532,78166
31.66343,77381
31.67157,77796
31.67968,78675
31.68782,75266
31.69593,76006
31.70405,69921
31.71218,68010
31.72030,72118
31.72842,69608
31.73655,65635
31.74467,69519
31.75280,71413
31.76092,68035
31.76903,68169
31.77717,69888
31.78528,67917
31.79342,67451
31.80153,73833
31.80965,72621
31.81778,72318
31.82590,70214
31.83403,71633
31.84215,67914
31.85027,66933
31.85840,67916
31.86652,69656
31.87463,67125
31.88277,75171
31.89088,75297
31.89902,89364
31.90713,94875
31.91525,107534
31.92338,117971
31.93150,127890
31.93963,139786
31.94775,151682
31.95587,148992
31.96400,156892
31.97212,163106
31.98025,164652
31.98837,159804
31.99648,168114
32.00462,167136
32.01273,159875
32.02085,161055
32.02898,150054
32.03710,142459
32.04523,133826
32.05335,132761
32.06147,119347
32.06960,126977
32.07772,116137
32.08585,110689
32.09397,109118
32.10208,105878
32.11022,92532
32.11833,96093
32.12645,95086
32.13458,91275
32.14270,90788
32.15083,84981
32.15895,86926
32.16707,84050
32.17520,79970
32.18332,82363
32.19145,86941
32.19957,79267
32.20768,78634
32.21582,84176
32.22393,79507
32.23207,79796
32.24018,77200
32.24830,79955
32.25643,74542
32.26455,80865
32.27267,83375
32.28080,77762
32.28892,73331
32.29705,75376
32.30517,72351
32.31328,73869
32.32142,67534
32.32953,71832
32.33767,74430
32.34578,78897
32.35390,76108
32.36203,75482
32.37015,76660
32.37827,77081
32.38640,73293
32.39452,69623
32.40265,72909
32.41077,71735
32.41888,67790
32.42702,63994
32.43513,65483
32.44327,66866
32.45138,66644
32.45950,65302
32.46763,64619
32.47575,63451
32.48388,64572
32.49200,66528
32.50012,65961
32.50825,66559
32.51637,64670
32.52448,63756
32.53262,65923
32.54073,63112
32.54887,66725
32.55698,64127
32.56510,67750
32.57323,63052
32.58135,68346
32.58948,67609
32.59760,63134
32.60572,59900
32.61385,59731
32.62197,65709
32.63010,73099
32.63822,80784
32.64633,91577
32.65447,100646
32.66258,99761
32.67070,104940
32.67883,91930
32.68695,87663
32.69508,78089
32.70320,75198
32.71132,67543
32.71945,70867
32.72757,70194
32.73570,66700
32.74382,63472
32.75193,65836
32.76007,66122
32.76818,64598
32.77632,65216
32.78443,63412
32.79255,63949
32.80068,59713
32.80880,60140
32.81692,58839
32.82505,65164
32.83317,62555
32.84130,62937
32.84942,64542
32.85753,59704
32.86567,66770
32.87378,72706
32.88192,76492
32.89003,81819
32.89815,96051
32.90628,97717
32.91440,100922
32.92252,97563
32.93065,89658
32.93877,87058
32.94690,76617
32.95502,73833
32.96313,71242
32.97127,72824
32.97938,75835
32.98752,79823
32.99563,82583
33.00375,86862
33.01188,87829
33.02000,90966
33.02813,84739
33.03625,75008
33.04437,72834
33.05250,76954
33.06062,78146
33.06873,76769
33.07687,79080
33.08498,94888
33.09312,97705
33.10123,109115
33.10935,105817
33.11748,105528
33.12560,104648
33.13373,94318
33.14185,88542
33.14997,81923
33.15810,81491
33.16622,72361
33.17433,69938
33.18247,70439
33.19058,70444
33.19872,70326
33.20683,65955
33.21495,73350
33.22308,69756
33.23120,68379
33.23933,67490
33.24745,70596
33.25557,66215
33.26370,66949
33.27182,66405
33.27995,67298
33.28807,69067
33.29618,67892
33.30432,69708
33.31243,66074
33.32055,67453
33.32868,67550
33.33680,71062
33.34493,73069
33.35305,73138
33.36117,74607
33.36930,75197
33.37742,72610
33.38555,66294
33.39367,67062
33.40178,67130
33.40992,61813
33.41803,63057
33.42617,63979
33.43428,63715
33.44240,58890
33.45053,56426
33.45865,62654
33.46677,58348
33.47490,58369
33.48302,58374
33.49115,62413
33.49927,63747
33.50738,62295
33.51552,63556
33.52363,65498
33.53177,66804
33.53988,70585
33.54800,66801
33.55613,65684
33.56425,70450
33.57237,70215
33.58050,70081
33.58862,62448
33.59675,65623
33.60487,62858
33.61298,58853
33.62112,62056
33.62923,67036
33.63737,64157
33.64548,66726
33.65360,69304
33.66173,67594
33.66985,67106
33.67798,71599
33.68610,61671
33.69422,62317
33.70235,62581
33.71047,60717
33.71858,60136
33.72672,57666
33.73483,56716
33.74297,59316
33.75108,58901
33.75920,57849
33.76733,53958
33.77545,52164
33.78358,56299
33.79170,56245
33.79982,56930
33.80795,58703
33.81607,56091
33.82420,58151
33.83232,59429
33.84043,60646
33.84857,56527
33.85668,61396
33.86480,61933
33.87293,61274
33.88105,65126
33.88918,69079
33.89730,70876
33.90542,75477
33.91355,76922
33.92167,70027
33.92980,69845
33.93792,67011
33.94603,64679
33.95417,58089
33.96228,56816
33.97040,59354
33.97853,60907
33.98665,57473
33.99478,58966
34.00290,54752
34.01102,59149
34.01915,62719
34.02727,59334
34.03540,62421
34.04352,61658
34.05163,61078
34.05977,62393
34.06788,58189
34.07602,58943
34.08413,64207
34.09225,62902
34.10038,63901
34.10850,65040
34.11662,62074
34.12475,63834
34.13287,65973
34.14100,62413
34.14912,63861
34.15723,64800
34.16537,59080
34.17348,70001
34.18162,64440
34.18973,61808
34.19785,64683
34.20598,64826
34.21410,62798
34.22222,63944
34.23035,60501
34.23847,63511
34.24660,66890
34.25472,61440
34.26283,61980
34.27097,60151
34.27908,64771
34.28722,64199
34.29533,58886
34.30345,62532
34.31158,60837
34.31970,64216
34.32783,63167
34.33595,59846
34.34407,62560
34.35220,60336
34.36032,65340
34.36843,59877
34.37657,65678
34.38468,59009
34.39282,60959
34.40093,64078
34.40905,59100
34.41718,60614
34.42530,58359
34.43343,62210
34.44155,59933
34.44967,57835
34.45780,60085
34.46592,55391
34.47405,58229
34.48217,55676
34.49028,62855
34.49842,68108
34.50653,81570
34.51465,91677
34.52278,107762
34.53090,128410
34.53903,141350
34.54715,152770
34.55527,151188
34.56340,150258
34.57152,145064
34.57965,131237
34.58777,127217
34.59588,113403
34.60402,104829
34.61213,103090
34.62025,98572
34.62838,92357
34.63650,85790
34.64463,86661
34.65275,77512
34.66087,79584
34.66900,78781
34.67712,75596
34.68525,73818
34.69337,75135
34.70148,77762
34.70962,72485
34.71773,69273
34.72587,70629
34.73398,70931
34.74210,75662
34.75023,71177
34.75835,71790
34.76647,71941
34.77460,73620
34.78272,73925
34.79085,77349
34.79897,76964
34.80708,76784
34.81522,76283
34.82333,80957
34.83147,74283
34.83958,73708
34.84770,73886
34.85583,74665
34.86395,70170
34.87208,70070
34.88020,74065
34.88832,75393
34.89645,69466
34.90457,70016
34.91268,67675
34.92082,75546
34.92893,73564
34.93707,73722
34.94518,77150
34.95330,75760
34.96143,77588
34.96955,78936
34.97768,79936
34.98580,79578
34.99392,79159
35.00205,78652
35.01017,71972
35.01828,68247
35.02642,71894
35.03453,67456
35.04267,70383
35.05078,67445
35.05890,65874
35.06703,63150
35.07515,65234
35.08328,61521
35.09140,62778
35.09952,61819
35.10765,60133
35.11577,60003
35.12390,61162
35.13202,63754
35.14013,65282
35.14827,61474
35.15638,69654
35.16450,66467
35.17263,65679
35.18075,60143
35.18888,61014
35.19700,63807
35.20512,64268
35.21325,61528
35.22137,61584
35.22950,64281
35.23762,54327
35.24573,57083
35.25387,62347
35.26198,67618
35.27012,61042
35.27823,60220
35.28635,64568
35.29448,65174
35.30260,61156
35.31072,57089
35.31885,62255
35.32697,63754
35.33510,61070
35.34322,57652
35.35133,58291
35.35947,60460
35.36758,63649
35.37572,61808
35.38383,70077
35.39195,78982
35.40008,90978
35.40820,105668
35.41632,121511
35.42445,133514
35.43257,145376
35.44070,137177
35.44882,129121
35.45693,108410
35.46507,98471
35.47318,92102
35.48132,77116
35.48943,74660
35.49755,71051
35.50568,70757
35.51380,66526
35.52193,69572
35.53005,67087
35.53817,65756
35.54630,60504
35.55442,61630
35.56253,65720
35.57067,64161
35.57878,65303
35.58692,65025
35.59503,65105
35.60315,63157
35.61128,65924
35.61940,62820
35.62753,60609
35.63565,64070
35.64377,62834
35.65190,66339
35.66002,64210
35.66813,59619
35.67627,72880
35.68438,69857
35.69252,65902
35.70063,64051
35.70875,67446
35.71688,66314
35.72500,67318
35.73313,68436
35.74125,67948
35.74937,69539
35.75750,82703
35.76562,75392
35.77375,78439
35.78187,66933
35.78998,67137
35.79812,68310
35.80623,64630
35.81435,66745
35.82248,66225
35.83060,66789
35.83873,69308
35.84685,64881
35.85497,60906
35.86310,61319
35.87122,64975
35.87935,64411
35.88747,60887
35.89558,61245
35.90372,61466
35.91183,64531
35.91997,62119
35.92808,61339
35.93620,61813
35.94433,64850
35.95245,61480
35.96057,62411
35.96870,63809
35.97682,64349
35.98495,64676
35.99307,61046
36.00118,64130
36.00932,66522
36.01743,68116
36.02557,70735
36.03368,72177
36.04180,73042
36.04993,67230
36.05805,65838
36.06617,63062
36.07430,69557
36.08242,65857
36.09055,65604
36.09867,65191
36.10678,65814
36.11492,64826
36.12303,69019
36.13117,69609
36.13928,68193
36.14740,65760
36.15553,67478
36.16365,73826
36.17178,67480
36.17990,64412
36.18802,72219
36.19615,61139
36.20427,62940
36.21238,64429
36.22052,61793
36.22863,66472
36.23677,73829
36.24488,79556
36.25300,78911
36.26113,85208
36.26925,87256
36.27738,92012
36.28550,94142
36.29362,113308
36.30175,119551
36.30987,119423
36.31800,121557
36.32612,117880
36.33423,107897
36.34237,105842
36.35048,94095
36.35860,96385
36.36673,98356
36.37485,98932
36.38298,91751
36.39110,96764
36.39922,93078
36.40735,94464
36.41547,100971
36.42360,94128
36.43172,98062
36.43983,95932
36.44797,93276
36.45608,90007
36.46420,85155
36.47233,87779
36.48045,84108
36.48858,90725
36.49670,86626
36.50482,88094
36.51295,88122
36.52107,88316
36.52920,90231
36.53732,89074
36.54543,89534
36.55357,86329
36.56168,84566
36.56982,91933
36.57793,89280
36.58605,87254
36.59418,86070
36.60230,81461
36.61042,84381
36.61855,86354
36.62667,84631
36.63480,87998
36.64292,83183
36.65103,84305
36.65917,82794
36.66728,86113
36.67542,90397
36.68353,83118
36.69165,84133
36.69978,80954
36.70790,81380
36.71602,82892
36.72415,84057
36.73227,78620
36.74040,79893
36.74852,87681
36.75663,83728
36.76477,79487
36.77288,78952
36.78102,83011
36.78913,84051
36.79725,82590
36.80538,79193
36.81350,79830
36.82163,80554
36.82975,83645
36.83787,80098
36.84600,79513
36.85412,75040
36.86223,79160
36.87037,77321
36.87848,82903
36.88662,76936
36.89473,79021
36.90285,81599
36.91098,77587
36.91910,80833
36.92723,76881
36.93535,82652
36.94347,87924
36.95160,90817
36.95972,97855
36.96785,93448
36.97597,102154
36.98408,99135
36.99222,88797
37.00033,87548
37.00845,81178
37.01658,80676
37.02470,78053
37.03283,82508
37.04095,79802
37.04907,76643
37.05720,81981
37.06532,82197
37.07345,80002
37.08157,79120
37.08968,82241
37.09782,78670
37.10593,76880
37.11407,78970
37.12218,81204
37.13030,77168
37.13843,76205
37.14655,77659
37.15467,76541
37.16280,79083
37.17092,80144
37.17905,76580
37.18717,79446
37.19528,82628
37.20342,82894
37.21153,81833
37.21967,78430
37.22778,83122
37.23590,82938
37.24403,76548
37.25215,77563
37.26027,75190
37.26840,75729
37.27652,75064
37.28465,75407
37.29277,72237
37.30088,81820
37.30902,93350
37.31713,99164
37.32527,115193
37.33338,124611
37.34150,138554
37.34963,143972
37.35775,141755
37.36588,136127
37.37400,129492
37.38212,127081
37.39025,117760
37.39837,109380
37.40648,104161
37.41462,100464
37.42273,111657
37.43087,98595
37.43898,97007
37.44710,105342
37.45523,106001
37.46335,93448
37.47148,87478
37.47960,92088
37.48772,93378
