C:\MassHunter\GCMS\1\data\JTB-E18\JTB-E18-039-07.D Wed Nov 20 09:38:48 2019
Start of data points
2.09532	314422
2.10345	321896
2.11157	314972
2.11970	314742
2.12782	325376
2.13593	337497
2.14407	338834
2.15218	336338
2.16030	344368
2.16843	347615
2.17655	315398
2.18468	322751
2.19280	311201
2.20092	314688
2.20905	307298
2.21717	306476
2.22530	300481
2.23342	292562
2.24153	280525
2.24967	278811
2.25778	274265
2.26592	263600
2.27403	658416
2.28215	4472963
2.29028	7195790
2.29840	4001165
2.30652	2082392
2.31465	1518901
2.32277	1345353
2.33090	1284219
2.33902	1105937
2.34713	1100330
2.35527	894381
2.36338	780216
2.37152	696971
2.37963	667374
2.38775	685145
2.39588	679053
2.40400	597630
2.41213	613764
2.42025	591266
2.42837	643823
2.43650	616487
2.44462	534092
2.45273	535208
2.46087	516763
2.46898	479425
2.47712	452683
2.48523	431929
2.49335	434716
2.50148	445859
2.50960	431946
2.51773	404581
2.52585	428182
2.53397	405672
2.54210	385322
2.55022	433124
2.55833	456583
2.56647	435473
2.57458	404581
2.58272	367762
2.59083	361451
2.59895	339703
2.60708	341752
2.61520	369064
2.62333	390103
2.63145	360090
2.63957	345291
2.64770	328138
2.65582	333003
2.66395	335857
2.67207	319418
2.68018	315927
2.68832	321364
2.69643	310867
2.70455	303571
2.71268	298760
2.72080	298735
2.72893	290992
2.73705	288021
2.74517	286976
2.75330	273695
2.76142	283060
2.76955	272625
2.77767	282151
2.78578	262384
2.79392	268507
2.80203	275814
2.81017	284061
2.81828	290909
2.82640	278682
2.83453	275476
2.84265	268327
2.85077	257603
2.85890	261181
2.86702	272057
2.87515	261831
2.88327	264075
2.89138	263761
2.89952	267243
2.90763	258366
2.91577	244945
2.92388	254420
2.93200	237977
2.94013	239220
2.94825	235808
2.95637	234917
2.96450	232645
2.97262	230753
2.98075	237486
2.98887	233388
2.99698	230153
3.00512	230872
3.01323	231955
3.02137	237231
3.02948	224161
3.03760	229067
3.04573	222652
3.05385	225273
3.06198	233872
3.07010	245235
3.07822	257266
3.08635	244369
3.09447	237366
3.10258	247634
3.11072	358151
3.11883	449070
3.12697	410246
3.13508	350048
3.14320	302799
3.15133	277928
3.15945	264667
3.16758	250881
3.17570	241047
3.18382	234478
3.19195	236015
3.20007	227151
3.20818	220316
3.21632	217715
3.22443	218198
3.23257	217973
3.24068	210846
3.24880	211332
3.25693	208030
3.26505	202145
3.27318	234929
3.28130	865454
3.28942	6464990
3.29755	2.59849E+07
3.30567	4.630832E+07
3.31380	5.381094E+07
3.32192	4.685603E+07
3.33003	3.443731E+07
3.33817	2.384884E+07
3.34628	1.671925E+07
3.35440	1.215336E+07
3.36253	9208773
3.37065	7370150
3.37878	6069032
3.38690	5189259
3.39502	4500724
3.40315	4006135
3.41127	3584378
3.41940	3256013
3.42752	3016268
3.43563	2799890
3.44377	2610246
3.45188	2486758
3.46002	2332758
3.46813	2196570
3.47625	2109707
3.48438	2012653
3.49250	1893341
3.50062	1812631
3.50875	1710851
3.51687	1631375
3.52500	1595483
3.53312	1534702
3.54123	1465862
3.54937	1418975
3.55748	1392027
3.56562	1326675
3.57373	1311899
3.58185	1274139
3.58998	1239628
3.59810	1216337
3.60623	1177937
3.61435	1147550
3.62247	1120099
3.63060	1123177
3.63872	1096576
3.64683	1037322
3.65497	1017038
3.66308	994951
3.67122	965868
3.67933	938889
3.68745	931271
3.69558	919721
3.70370	899860
3.71183	861888
3.71995	852498
3.72807	841390
3.73620	829530
3.74432	816613
3.75243	805669
3.76057	793176
3.76868	795160
3.77682	782130
3.78493	759260
3.79305	763540
3.80118	752215
3.80930	749952
3.81743	753914
3.82555	749103
3.83367	738692
3.84180	721657
3.84992	707025
3.85805	692339
3.86617	694164
3.87428	663117
3.88242	674538
3.89053	668568
3.89865	653209
3.90678	645815
3.91490	645066
3.92303	635702
3.93115	625340
3.93927	609964
3.94740	614671
3.95552	608943
3.96365	605488
3.97177	586019
3.97988	595418
3.98802	572994
3.99613	575249
4.00425	584363
4.01238	576262
4.02050	565717
4.02863	568042
4.03675	560146
4.04487	560939
4.05300	545826
4.06112	553822
4.06925	535709
4.07737	539122
4.08548	536290
4.09362	529839
4.10173	516061
4.10987	511925
4.11798	506069
4.12610	515453
4.13423	498252
4.14235	530190
4.15047	551605
4.15860	564762
4.16672	552398
4.17485	527567
4.18297	519536
4.19108	499490
4.19922	493334
4.20733	487998
4.21547	483436
4.22358	487440
4.23170	503190
4.23983	500607
4.24795	490568
4.25608	473501
4.26420	473158
4.27232	467841
4.28045	460777
4.28857	453939
4.29668	451313
4.30482	450166
4.31293	454543
4.32107	471616
4.32918	490142
4.33730	508323
4.34543	522490
4.35355	507232
4.36168	525731
4.36980	542537
4.37792	531795
4.38605	510306
4.39417	467691
4.40228	456697
4.41042	442185
4.41853	436365
4.42667	418056
4.43478	408473
4.44290	400608
4.45103	411084
4.45915	404491
4.46728	400516
4.47540	394164
4.48352	400169
4.49165	397181
4.49977	387985
4.50790	382504
4.51602	395780
4.52413	389337
4.53227	406385
4.54038	412757
4.54850	413953
4.55663	399121
4.56475	391886
4.57288	377554
4.58100	372907
4.58912	368123
4.59725	364484
4.60537	363684
4.61350	363752
4.62162	352780
4.62973	359389
4.63787	356590
4.64598	351358
4.65412	352196
4.66223	342197
4.67035	342023
4.67848	352912
4.68660	339056
4.69472	338820
4.70285	337744
4.71097	337384
4.71910	321671
4.72722	328778
4.73533	326705
4.74347	330152
4.75158	327206
4.75972	323728
4.76783	318219
4.77595	333135
4.78408	318722
4.79220	318482
4.80032	321621
4.80845	316875
4.81657	323475
4.82470	310756
4.83282	311200
4.84093	316468
4.84907	309664
4.85718	314500
4.86532	314197
4.87343	321559
4.88155	312356
4.88968	309574
4.89780	353739
4.90593	755875
4.91405	2978102
4.92217	1.119135E+07
4.93030	2.730725E+07
4.93842	4.116478E+07
4.94653	4.565463E+07
4.95467	4.068537E+07
4.96278	3.025543E+07
4.97092	1.930723E+07
4.97903	1.117136E+07
4.98715	6642640
4.99528	4406096
5.00340	3344165
5.01153	2744333
5.01965	2407404
5.02777	2107365
5.03590	1938266
5.04402	1760691
5.05213	1616850
5.06027	1501993
5.06838	1398615
5.07652	1344269
5.08463	1271523
5.09275	1199279
5.10088	1173306
5.10900	1121020
5.11713	1082970
5.12525	1060196
5.13337	1026987
5.14150	974274
5.14962	967566
5.15775	930236
5.16587	920298
5.17398	885813
5.18212	879320
5.19023	854419
5.19835	833577
5.20648	817904
5.21460	809476
5.22273	815340
5.23085	889485
5.23897	1002301
5.24710	1029457
5.25522	977834
5.26335	874545
5.27147	803382
5.27958	755234
5.28772	717410
5.29583	702215
5.30397	691758
5.31208	661795
5.32020	648896
5.32833	651039
5.33645	652782
5.34457	642606
5.35270	613619
5.36082	603985
5.36895	606716
5.37707	581951
5.38518	579007
5.39332	562202
5.40143	556003
5.40957	549257
5.41768	541862
5.42580	538924
5.43393	526893
5.44205	518029
5.45017	518751
5.45830	508573
5.46642	509763
5.47455	499064
5.48267	494720
5.49078	484841
5.49892	478065
5.50703	474517
5.51517	473303
5.52328	458265
5.53140	469059
5.53953	456682
5.54765	450035
5.55578	448214
5.56390	444484
5.57202	438980
5.58015	448953
5.58827	451892
5.59638	441412
5.60452	447288
5.61263	449714
5.62077	458239
5.62888	484197
5.63700	502950
5.64513	498133
5.65325	484716
5.66138	487027
5.66950	534729
5.67762	619537
5.68575	673646
5.69387	685842
5.70200	617511
5.71012	537613
5.71823	497283
5.72637	459087
5.73448	439748
5.74260	423488
5.75073	404975
5.75885	404197
5.76698	393010
5.77510	397963
5.78322	378623
5.79135	388240
5.79947	373850
5.80760	377932
5.81572	366844
5.82383	371036
5.83197	370713
5.84008	362948
5.84820	360066
5.85633	360198
5.86445	357340
5.87258	350605
5.88070	349204
5.88882	354405
5.89695	340947
5.90507	328132
5.91320	288349
5.92132	256728
5.92943	246936
5.93757	248157
5.94568	242514
5.95382	252695
5.96193	268951
5.97005	299298
5.97818	349793
5.98630	365223
5.99442	376517
6.00255	364229
6.01067	336195
6.01880	316881
6.02692	294425
6.03503	304244
6.04317	275303
6.05128	273758
6.05942	269738
6.06753	261131
6.07565	249564
6.08378	257291
6.09190	255008
6.10002	259430
6.10815	264107
6.11627	272766
6.12440	268786
6.13252	262465
6.14063	259427
6.14877	262010
6.15688	265297
6.16502	269133
6.17313	264423
6.18125	257650
6.18938	266137
6.19750	277376
6.20563	268499
6.21375	271480
6.22187	265931
6.23000	277612
6.23812	277300
6.24623	264891
6.25437	270925
6.26248	277305
6.27062	279891
6.27873	271377
6.28685	272210
6.29498	274218
6.30310	280019
6.31123	288217
6.31935	284034
6.32747	280751
6.33560	282235
6.34372	279624
6.35185	288471
6.35997	286574
6.36808	293862
6.37622	282090
6.38433	293651
6.39245	290246
6.40058	282380
6.40870	297099
6.41683	308032
6.42495	321652
6.43307	338358
6.44120	340698
6.44932	318664
6.45745	311571
6.46557	318396
6.47368	310128
6.48182	315738
6.48993	317312
6.49805	318487
6.50618	315579
6.51430	320280
6.52243	315221
6.53055	333236
6.53867	311426
6.54680	293628
6.55492	277637
6.56305	262119
6.57117	265938
6.57928	258934
6.58742	246576
6.59553	247638
6.60367	239773
6.61178	234834
6.61990	241585
6.62803	236455
6.63615	229096
6.64427	230269
6.65240	230102
6.66052	235729
6.66865	230071
6.67677	224642
6.68488	219350
6.69302	231821
6.70113	219826
6.70927	214122
6.71738	212707
6.72550	211916
6.73363	217103
6.74175	209674
6.74988	202073
6.75800	211620
6.76612	207728
6.77425	206569
6.78237	208560
6.79048	206943
6.79862	201932
6.80673	208186
6.81487	199990
6.82298	195038
6.83110	196337
6.83923	185865
6.84735	165927
6.85548	149978
6.86360	133179
6.87172	127423
6.87985	133376
6.88797	135168
6.89608	136405
6.90422	127695
6.91233	124094
6.92047	118489
6.92858	116324
6.93670	120579
6.94483	115802
6.95295	116934
6.96108	115966
6.96920	121513
6.97732	115311
6.98545	112792
6.99357	111095
7.00170	116292
7.00982	115257
7.01793	110924
7.02607	119921
7.03418	118291
7.04230	112992
7.05043	119928
7.05855	114663
7.06668	113129
7.07480	107548
7.08292	108152
7.09105	109744
7.09917	110275
7.10730	106680
7.11542	103055
7.12353	109256
7.13167	110327
7.13978	108986
7.14792	108184
7.15603	108622
7.16415	106778
7.17228	104416
7.18040	110809
7.18852	106411
7.19665	108859
7.20477	105107
7.21290	104515
7.22102	108190
7.22913	109643
7.23727	101527
7.24538	102762
7.25352	102459
7.26163	105020
7.26975	101370
7.27788	100833
7.28600	98531
7.29412	102493
7.30225	102209
7.31037	98465
7.31850	98676
7.32662	100752
7.33473	102885
7.34287	98647
7.35098	99308
7.35912	101817
7.36723	98381
7.37535	103538
7.38348	105288
7.39160	99973
7.39973	105771
7.40785	103234
7.41597	115308
7.42410	113262
7.43222	117032
7.44033	119660
7.44847	124701
7.45658	124346
7.46472	119986
7.47283	122483
7.48095	104608
7.48908	112498
7.49720	102481
7.50533	108453
7.51345	101308
7.52157	104179
7.52970	101173
7.53782	100247
7.54593	104235
7.55407	99624
7.56218	102261
7.57032	101350
7.57843	95132
7.58655	100819
7.59468	97729
7.60280	97281
7.61093	102500
7.61905	99954
7.62717	92389
7.63530	96971
7.64342	96055
7.65155	97136
7.65967	96340
7.66778	96468
7.67592	92668
7.68403	89992
7.69215	89474
7.70028	93599
7.70840	96171
7.71653	92191
7.72465	92134
7.73277	90407
7.74090	92616
7.74902	97117
7.75715	87116
7.76527	88418
7.77338	89064
7.78152	92286
7.78963	90798
7.79777	90870
7.80588	93919
7.81400	91499
7.82213	91234
7.83025	90380
7.83837	90961
7.84650	85116
7.85462	81165
7.86275	86190
7.87087	86599
7.87898	84088
7.88712	81506
7.89523	82535
7.90337	82475
7.91148	79610
7.91960	79150
7.92773	79410
7.93585	83018
7.94397	83690
7.95210	83315
7.96022	93038
7.96835	94992
7.97647	99544
7.98458	97354
7.99272	101533
8.00083	92366
8.00897	88953
8.01708	87093
8.02520	84659
8.03333	85948
8.04145	84653
8.04958	86998
8.05770	84086
8.06582	87140
8.07395	79496
8.08207	82849
8.09018	85110
8.09832	88340
8.10643	84095
8.11457	82635
8.12268	82000
8.13080	79233
8.13893	77963
8.14705	82879
8.15518	83308
8.16330	93757
8.17142	98275
8.17955	94371
8.18767	94491
8.19580	91158
8.20392	86570
8.21203	77903
8.22017	78209
8.22828	77871
8.23640	75889
8.24453	76292
8.25265	76013
8.26078	82748
8.26890	75450
8.27702	80030
8.28515	79371
8.29327	77026
8.30140	77349
8.30952	73068
8.31763	80850
8.32577	88926
8.33388	94610
8.34200	109036
8.35013	114098
8.35825	115249
8.36638	104573
8.37450	92453
8.38262	88642
8.39075	84257
8.39887	77916
8.40700	81108
8.41512	78657
8.42323	74876
8.43137	80447
8.43948	77053
8.44762	82935
8.45573	79806
8.46385	82240
8.47198	76457
8.48010	78205
8.48822	79927
8.49635	84240
8.50447	90645
8.51260	94256
8.52072	97955
8.52883	86018
8.53697	84950
8.54508	81247
8.55322	75353
8.56133	78609
8.56945	80188
8.57758	76114
8.58570	74689
8.59382	73187
8.60195	76618
8.61007	75116
8.61820	75339
8.62632	77145
8.63443	67131
8.64257	72316
8.65068	72097
8.65882	69767
8.66693	73409
8.67505	70757
8.68318	77183
8.69130	101558
8.69943	233195
8.70755	790953
8.71567	2689374
8.72380	7693359
8.73192	1.460593E+07
8.74003	1.800881E+07
8.74817	1.666958E+07
8.75628	1.20899E+07
8.76442	7313973
8.77253	3898323
8.78065	2184818
8.78878	1455675
8.79690	1108245
8.80503	896203
8.81315	760754
8.82127	661269
8.82940	591290
8.83752	528840
8.84565	492092
8.85377	467865
8.86188	436949
8.87002	405670
8.87813	383387
8.88625	365166
8.89438	355264
8.90250	346803
8.91063	321022
8.91875	309233
8.92687	298025
8.93500	300017
8.94312	306995
8.95125	745437
8.95937	1723520
8.96748	1392863
8.97562	682983
8.98373	475262
8.99187	419490
8.99998	371136
9.00810	338414
9.01623	319133
9.02435	312130
9.03247	283696
9.04060	287390
9.04872	281166
9.05685	264581
9.06497	259280
9.07308	249131
9.08122	241875
9.08933	244042
9.09747	238206
9.10558	233197
9.11370	241362
9.12183	248527
9.12995	257226
9.13807	246544
9.14620	237146
9.15432	228424
9.16245	216215
9.17057	213436
9.17868	212187
9.18682	205596
9.19493	192391
9.20307	202607
9.21118	191662
9.21930	184333
9.22743	187206
9.23555	176395
9.24368	178381
9.25180	174102
9.25992	166921
9.26805	167823
9.27617	164480
9.28428	157856
9.29242	166099
9.30053	157547
9.30867	156213
9.31678	159783
9.32490	1016791
9.33303	1.592358E+07
9.34115	4.197568E+07
9.34928	3.991366E+07
9.35740	2.733587E+07
9.36552	1.877374E+07
9.37365	1.372181E+07
9.38177	1.0085E+07
9.38988	7768867
9.39802	6053977
9.40613	4785993
9.41427	3877997
9.42238	3185364
9.43050	2627213
9.43863	2204920
9.44675	1866586
9.45488	1590370
9.46300	1368251
9.47112	1201731
9.47925	1067413
9.48737	952048
9.49550	881055
9.50362	775625
9.51173	707614
9.51987	651912
9.52798	581538
9.53610	558597
9.54423	523451
9.55235	478352
9.56048	458448
9.56860	430655
9.57672	400333
9.58485	379278
9.59297	368914
9.60110	344393
9.60922	339239
9.61733	310196
9.62547	300666
9.63358	288558
9.64172	281897
9.64983	273702
9.65795	256042
9.66608	251278
9.67420	239878
9.68232	236985
9.69045	234638
9.69857	230027
9.70670	227906
9.71482	217254
9.72293	224493
9.73107	212368
9.73918	211169
9.74732	199871
9.75543	201018
9.76355	190789
9.77168	253051
9.77980	1475639
9.78792	1.027476E+07
9.79605	2.621498E+07
9.80417	2.701905E+07
9.81230	1.895069E+07
9.82042	1.23117E+07
9.82853	8514835
9.83667	6399419
9.84478	4918263
9.85292	3912619
9.86103	3166943
9.86915	2583687
9.87728	2139282
9.88540	1802612
9.89353	1530979
9.90165	1300657
9.90977	1123781
9.91790	989828
9.92602	890249
9.93413	784924
9.94227	722363
9.95038	662917
9.95852	639663
9.96663	622295
9.97475	614135
9.98288	597450
9.99100	542579
9.99913	516087
10.00725	450493
10.01537	416633
10.02350	389932
10.03162	361839
10.03975	349145
10.04787	324643
10.05598	299374
10.06412	294756
10.07223	278028
10.08035	278505
10.08848	267577
10.09660	254117
10.10473	242231
10.11285	237888
10.12097	229117
10.12910	223558
10.13722	216089
10.14535	218271
10.15347	209965
10.16158	202593
10.16972	200049
10.17783	195113
10.18595	194737
10.19408	200668
10.20220	211103
10.21033	230384
10.21845	241891
10.22657	260682
10.23470	267824
10.24282	229907
10.25095	208526
10.25907	197752
10.26718	185712
10.27532	212496
10.28343	291752
10.29157	311544
10.29968	265423
10.30780	224546
10.31593	206910
10.32405	191896
10.33217	176062
10.34030	174171
10.34842	165330
10.35655	157317
10.36467	157909
10.37278	156623
10.38092	154090
10.38903	158064
10.39717	156403
10.40528	144885
10.41340	143278
10.42153	142941
10.42965	142084
10.43777	149141
10.44590	162074
10.45402	170665
10.46215	173392
10.47027	170946
10.47838	176293
10.48652	181613
10.49463	188118
10.50277	188894
10.51088	196315
10.51900	202866
10.52713	209748
10.53525	194381
10.54338	184414
10.55150	179665
10.55962	174630
10.56775	177432
10.57587	161734
10.58398	167314
10.59212	174468
10.60023	166905
10.60837	156202
10.61648	159797
10.62460	159720
10.63273	154301
10.64085	150203
10.64898	141645
10.65710	143770
10.66522	147237
10.67335	149589
10.68147	141752
10.68960	142131
10.69772	144121
10.70583	142043
10.71397	139511
10.72208	138443
10.73020	137081
10.73833	136047
10.74645	135926
10.75458	148718
10.76270	142047
10.77082	145393
10.77895	136719
10.78707	137911
10.79520	128986
10.80332	129329
10.81143	130427
10.81957	122906
10.82768	126481
10.83580	127344
10.84393	128540
10.85205	124150
10.86018	123182
10.86830	115710
10.87642	126251
10.88455	124031
10.89267	125894
10.90080	121511
10.90892	126125
10.91703	118184
10.92517	120825
10.93328	121513
10.94142	114110
10.94953	119816
10.95765	111980
10.96578	108759
10.97390	114739
10.98202	111594
10.99015	111405
10.99827	113254
11.00640	110394
11.01452	109692
11.02263	112260
11.03077	108842
11.03888	106712
11.04702	104658
11.05513	108755
11.06325	104907
11.07138	107032
11.07950	109325
11.08763	107278
11.09575	108377
11.10387	109399
11.11200	109797
11.12012	118782
11.12823	132251
11.13637	161899
11.14448	177055
11.15262	191590
11.16073	186848
11.16885	172961
11.17698	155375
11.18510	140156
11.19323	122956
11.20135	111763
11.20947	107461
11.21760	101966
11.22572	101460
11.23383	113342
11.24197	233745
11.25008	767609
11.25822	2318408
11.26633	4555957
11.27445	5511711
11.28258	4721170
11.29070	3361738
11.29883	2313754
11.30695	1659833
11.31507	1253412
11.32320	982586
11.33132	787603
11.33945	645305
11.34757	537898
11.35568	461264
11.36382	392237
11.37193	343383
11.38005	299166
11.38818	283290
11.39630	250008
11.40443	232626
11.41255	214553
11.42067	200564
11.42880	195006
11.43692	180247
11.44505	173284
11.45317	172264
11.46128	160746
11.46942	160463
11.47753	152299
11.48567	149419
11.49378	140722
11.50190	135312
11.51003	135674
11.51815	137582
11.52627	132387
11.53440	125094
11.54252	120367
11.55065	117939
11.55877	115794
11.56688	113197
11.57502	116888
11.58313	117332
11.59127	114165
11.59938	115274
11.60750	116796
11.61563	108135
11.62375	113135
11.63187	106719
11.64000	105639
11.64812	108386
11.65625	111353
11.66437	101664
11.67248	108500
11.68062	114453
11.68873	120791
11.69687	126288
11.70498	137722
11.71310	139567
11.72123	141784
11.72935	134323
11.73748	127072
11.74560	126706
11.75372	114662
11.76185	116259
11.76997	115766
11.77808	107293
11.78622	106166
11.79433	108505
11.80247	111276
11.81058	113081
11.81870	114880
11.82683	109546
11.83495	113745
11.84308	107653
11.85120	107538
11.85932	108643
11.86745	109537
11.87557	107180
11.88368	104749
11.89182	110058
11.89993	102914
11.90807	105802
11.91618	99524
11.92430	107007
11.93243	104095
11.94055	99564
11.94868	102229
11.95680	98689
11.96492	96067
11.97305	94052
11.98117	92901
11.98930	99364
11.99742	90606
12.00553	95431
12.01367	94033
12.02178	90774
12.02990	93824
12.03803	92217
12.04615	90757
12.05428	93929
12.06240	87877
12.07052	92933
12.07865	98767
12.08677	94148
12.09490	99518
12.10302	96778
12.11113	93393
12.11927	92057
12.12738	94747
12.13552	98585
12.14363	112378
12.15175	114282
12.15988	120934
12.16800	116269
12.17612	111150
12.18425	102550
12.19237	98781
12.20050	93229
12.20862	92627
12.21673	92963
12.22487	92832
12.23298	91655
12.24112	87054
12.24923	88863
12.25735	88929
12.26548	93506
12.27360	89684
12.28172	91175
12.28985	83455
12.29797	86070
12.30610	87321
12.31422	87729
12.32233	86871
12.33047	86492
12.33858	83013
12.34672	83730
12.35483	88240
12.36295	85377
12.37108	85268
12.37920	86168
12.38733	88111
12.39545	87215
12.40357	84009
12.41170	82511
12.41982	87793
12.42793	91682
12.43607	101284
12.44418	117468
12.45232	130466
12.46043	136660
12.46855	129123
12.47668	115133
12.48480	103750
12.49293	103997
12.50105	97227
12.50917	93643
12.51730	97685
12.52542	93076
12.53355	94411
12.54167	85592
12.54978	86329
12.55792	90152
12.56603	86092
12.57415	88157
12.58228	81473
12.59040	85699
12.59853	84688
12.60665	80663
12.61477	77471
12.62290	81095
12.63102	81786
12.63915	82948
12.64727	78933
12.65538	80698
12.66352	81152
12.67163	79382
12.67975	78568
12.68788	81033
12.69600	79175
12.70413	84223
12.71225	92262
12.72037	98902
12.72850	101727
12.73662	115405
12.74475	107982
12.75287	105997
12.76098	102989
12.76912	98828
12.77723	97364
12.78537	84215
12.79348	87158
12.80160	92355
12.80973	85451
12.81785	86413
12.82597	86130
12.83410	84357
12.84222	82582
12.85035	78064
12.85847	82604
12.86658	87244
12.87472	86010
12.88283	80763
12.89097	80177
12.89908	86983
12.90720	87820
12.91533	97450
12.92345	102981
12.93157	105473
12.93970	101345
12.94782	91207
12.95595	89447
12.96407	86209
12.97218	88254
12.98032	83828
12.98843	88954
12.99657	82998
13.00468	81024
13.01280	84250
13.02093	81975
13.02905	77422
13.03718	85017
13.04530	84062
13.05342	81470
13.06155	79973
13.06967	84997
13.07778	83401
13.08592	84225
13.09403	81786
13.10217	82889
13.11028	97225
13.11840	99993
13.12653	113895
13.13465	135777
13.14278	140371
13.15090	145952
13.15902	124720
13.16715	112791
13.17527	94203
13.18340	89615
13.19152	90697
13.19963	85810
13.20777	88727
13.21588	85386
13.22400	83517
13.23213	80196
13.24025	87917
13.24838	84989
13.25650	81540
13.26462	80207
13.27275	83846
13.28087	79626
13.28900	81048
13.29712	81439
13.30523	78134
13.31337	83550
13.32148	78280
13.32962	79074
13.33773	82444
13.34585	77666
13.35398	77203
13.36210	78991
13.37022	76227
13.37835	76749
13.38647	79831
13.39460	74287
13.40272	75370
13.41083	75406
13.41897	77909
13.42708	75594
13.43522	75934
13.44333	77312
13.45145	71599
13.45958	74159
13.46770	75037
13.47582	77052
13.48395	73123
13.49207	77233
13.50020	74195
13.50832	75863
13.51643	79395
13.52457	74328
13.53268	71469
13.54082	76926
13.54893	73537
13.55705	71919
13.56518	76786
13.57330	78213
13.58143	76800
13.58955	76816
13.59767	71593
13.60580	73824
13.61392	79763
13.62203	73314
13.63017	72151
13.63828	81918
13.64642	77002
13.65453	73334
13.66265	70525
13.67078	70757
13.67890	77311
13.68703	73275
13.69515	77651
13.70327	75266
13.71140	72320
13.71952	75831
13.72763	76278
13.73577	73200
13.74388	78693
13.75202	74227
13.76013	72490
13.76825	75673
13.77638	74451
13.78450	77490
13.79263	76705
13.80075	74881
13.80887	77509
13.81700	78470
13.82512	78277
13.83325	85936
13.84137	89029
13.84948	91890
13.85762	97707
13.86573	98843
13.87385	97445
13.88198	99236
13.89010	84424
13.89823	81223
13.90635	81252
13.91447	81178
13.92260	76719
13.93072	74661
13.93885	82272
13.94697	78343
13.95508	77258
13.96322	79308
13.97133	83641
13.97947	84663
13.98758	87515
13.99570	85975
14.00383	85561
14.01195	89396
14.02007	76686
14.02820	81747
14.03632	81495
14.04445	78282
14.05257	79813
14.06068	82596
14.06882	80793
14.07693	84449
14.08507	92614
14.09318	138048
14.10130	296926
14.10943	707863
14.11755	1756790
14.12567	3773538
14.13380	5474162
14.14192	5414377
14.15005	4234769
14.15817	2734296
14.16628	1539671
14.17442	903133
14.18253	580353
14.19067	438863
14.19878	372800
14.20690	336689
14.21503	289863
14.22315	285654
14.23128	276968
14.23940	279797
14.24752	262407
14.25565	260405
14.26377	240211
14.27188	221299
14.28002	200285
14.28813	183228
14.29627	163983
14.30438	147820
14.31250	126842
14.32063	115135
14.32875	108364
14.33688	108824
14.34500	107989
14.35312	102987
14.36125	104758
14.36937	101636
14.37750	99606
14.38562	99916
14.39373	101720
14.40187	99961
14.40998	96512
14.41810	98317
14.42623	98054
14.43435	96848
14.44248	90330
14.45060	95886
14.45872	96997
14.46685	98657
14.47497	98409
14.48310	97644
14.49122	97419
14.49933	94057
14.50747	90610
14.51558	88809
14.52370	84385
14.53183	87971
14.53995	86475
14.54808	94763
14.55620	90647
14.56432	92925
14.57245	96397
14.58057	90181
14.58870	90347
14.59682	91541
14.60493	86070
14.61307	86967
14.62118	80505
14.62932	87415
14.63743	84510
14.64555	78730
14.65368	83361
14.66180	78372
14.66992	74731
14.67805	83318
14.68617	82021
14.69430	86844
14.70242	84869
14.71053	82819
14.71867	91418
14.72678	86722
14.73492	87416
14.74303	88781
14.75115	86822
14.75928	83260
14.76740	85215
14.77552	80784
14.78365	83399
14.79177	95259
14.79990	144047
14.80802	243524
14.81613	445084
14.82427	732205
14.83238	963493
14.84052	988442
14.84863	807228
14.85675	550735
14.86488	383988
14.87300	284020
14.88113	232520
14.88925	186930
14.89737	166101
14.90550	148519
14.91362	138946
14.92173	130204
14.92987	120919
14.93798	121654
14.94612	111498
14.95423	109768
14.96235	106594
14.97048	103711
14.97860	103903
14.98673	96614
14.99485	97228
15.00297	96106
15.01110	96632
15.01922	99404
15.02735	93405
15.03547	98723
15.04358	94632
15.05172	97257
15.05983	93903
15.06795	91900
15.07608	88464
15.08420	93946
15.09233	92514
15.10045	91193
15.10857	90704
15.11670	91607
15.12482	89636
15.13295	91744
15.14107	86519
15.14918	87438
15.15732	92564
15.16543	83693
15.17355	87079
15.18168	90689
15.18980	85218
15.19793	83840
15.20605	89704
15.21417	83508
15.22230	82573
15.23042	81507
15.23855	85489
15.24667	79666
15.25478	80289
15.26292	76649
15.27103	78396
15.27917	83327
15.28728	79115
15.29540	76565
15.30353	79902
15.31165	77817
15.31977	76040
15.32790	74306
15.33602	71637
15.34415	76146
15.35227	75050
15.36038	75488
15.36852	75844
15.37663	78037
15.38477	75021
15.39288	71199
15.40100	74025
15.40913	73400
15.41725	77547
15.42538	79300
15.43350	81130
15.44162	82732
15.44975	84497
15.45787	80211
15.46598	77494
15.47412	79024
15.48223	78682
15.49037	73206
15.49848	69511
15.50660	76571
15.51473	74764
15.52285	73636
15.53098	71789
15.53910	71348
15.54722	73426
15.55535	72332
15.56347	70962
15.57158	71106
15.57972	70447
15.58783	67071
15.59597	63800
15.60408	73500
15.61220	68720
15.62033	68388
15.62845	69494
15.63658	70162
15.64470	144698
15.65282	961556
15.66095	2187304
15.66907	1469029
15.67720	669058
15.68532	486322
15.69343	377354
15.70157	362781
15.70968	381586
15.71780	310638
15.72593	286974
15.73405	293187
15.74218	269026
15.75030	261563
15.75842	242193
15.76655	217738
15.77467	193937
15.78280	186290
15.79092	186186
15.79903	180376
15.80717	175711
15.81528	648248
15.82340	1.311822E+07
15.83153	3.159155E+07
15.83965	1.95729E+07
15.84778	9436549
15.85590	5339245
15.86402	3326466
15.87215	2309655
15.88027	1679998
15.88840	1329794
15.89652	1084891
15.90463	922942
15.91277	797380
15.92088	714150
15.92902	645027
15.93713	614391
15.94525	917785
15.95338	9085581
15.96150	2.915209E+07
15.96962	2.138894E+07
15.97775	1.003439E+07
15.98587	5353567
15.99400	3283876
16.00212	2202848
16.01023	1618494
16.01837	1281915
16.02648	1066701
16.03462	912675
16.04273	801993
16.05085	715104
16.05898	637423
16.06710	589480
16.07523	551314
16.08335	510952
16.09147	484915
16.09960	471710
16.10772	463919
16.11583	438721
16.12397	421861
16.13208	405683
16.14022	388393
16.14833	377702
16.15645	371213
16.16458	370559
16.17270	355058
16.18083	341841
16.18895	325314
16.19707	332430
16.20520	345634
16.21332	320276
16.22143	296139
16.22957	298438
16.23768	296136
16.24582	333633
16.25393	341562
16.26205	338196
16.27018	321232
16.27830	322607
16.28643	373146
16.29455	366478
16.30267	384962
16.31080	359852
16.31892	347378
16.32705	336062
16.33517	317366
16.34328	314521
16.35142	323872
16.35953	444179
16.36765	1610994
16.37578	5370638
16.38390	8112516
16.39203	6276523
16.40015	3838768
16.40827	2274496
16.41640	1477830
16.42452	1102311
16.43265	862290
16.44077	689262
16.44888	570965
16.45702	499188
16.46513	444107
16.47327	400890
16.48138	376593
16.48950	349504
16.49763	326351
16.50575	318337
16.51387	316921
16.52200	313347
16.53012	301085
16.53825	297891
16.54637	279205
16.55448	277891
16.56262	271710
16.57073	269428
16.57887	260786
16.58698	256473
16.59510	254269
16.60323	248909
16.61135	240819
16.61947	238171
16.62760	234619
16.63572	239246
16.64385	223993
16.65197	218287
16.66008	221064
16.66822	215408
16.67633	207038
16.68447	208672
16.69258	201792
16.70070	202599
16.70883	201831
16.71695	193880
16.72508	202385
16.73320	194743
16.74132	197199
16.74945	192811
16.75757	191727
16.76568	181082
16.77382	187395
16.78193	185413
16.79007	217806
16.79818	254745
16.80630	284133
16.81443	261469
16.82255	243633
16.83068	224106
16.83880	214490
16.84692	205446
16.85505	191049
16.86317	193020
16.87130	191346
16.87942	189880
16.88753	193462
16.89567	183769
16.90378	181178
16.91190	178156
16.92003	180365
16.92815	186803
16.93628	193853
16.94440	183149
16.95252	185049
16.96065	182296
16.96877	204601
16.97690	211367
16.98502	206279
16.99313	203590
17.00127	213049
17.00938	213204
17.01750	201979
17.02563	197094
17.03375	198403
17.04188	192936
17.05000	184092
17.05812	171508
17.06625	174342
17.07437	167568
17.08250	173136
17.09062	166390
17.09873	168881
17.10687	162199
17.11498	168826
17.12312	181361
17.13123	203655
17.13935	207103
17.14748	193861
17.15560	175178
17.16372	166464
17.17185	161417
17.17997	158007
17.18810	161185
17.19622	158682
17.20433	159872
17.21247	155088
17.22058	148306
17.22872	157636
17.23683	151281
17.24495	157231
17.25308	145778
17.26120	154137
17.26932	157478
17.27745	159853
17.28557	168467
17.29370	177204
17.30182	185541
17.30993	192237
17.31807	180514
17.32618	171344
17.33432	170457
17.34243	168424
17.35055	164386
17.35868	162695
17.36680	165935
17.37493	157814
17.38305	151097
17.39117	156939
17.39930	166674
17.40742	165321
17.41553	169424
17.42367	160429
17.43178	156875
17.43992	151591
17.44803	159246
17.45615	167279
17.46428	181100
17.47240	194633
17.48053	173874
17.48865	169040
17.49677	154474
17.50490	156405
17.51302	150019
17.52115	156229
17.52927	151897
17.53738	155494
17.54552	157320
17.55363	149061
17.56175	147812
17.56988	146557
17.57800	149358
17.58613	152381
17.59425	147804
17.60237	140331
17.61050	140378
17.61862	140648
17.62675	143736
17.63487	151824
17.64298	151410
17.65112	156632
17.65923	154737
17.66735	150329
17.67548	146738
17.68360	141439
17.69173	152105
17.69985	197585
17.70797	399989
17.71610	856480
17.72422	1246743
17.73235	1148172
17.74047	819231
17.74858	573619
17.75672	412863
17.76483	327317
17.77297	279377
17.78108	243241
17.78920	217545
17.79733	206322
17.80545	188438
17.81357	182815
17.82170	175313
17.82982	170280
17.83795	165910
17.84607	161663
17.85418	162076
17.86232	156271
17.87043	163120
17.87857	146015
17.88668	143151
17.89480	143129
17.90293	135703
17.91105	140843
17.91918	130722
17.92730	133808
17.93542	130707
17.94355	133884
17.95167	134270
17.95978	135445
17.96792	127010
17.97603	128038
17.98417	125974
17.99228	128815
18.00040	129373
18.00853	136471
18.01665	139542
18.02478	141139
18.03290	136020
18.04102	136684
18.04915	128502
18.05727	133245
18.06538	126469
18.07352	127374
18.08163	132197
18.08977	133356
18.09788	129840
18.10600	134860
18.11413	132058
18.12225	131428
18.13038	134387
18.13850	124953
18.14662	130496
18.15475	128642
18.16287	125917
18.17100	124642
18.17912	125779
18.18723	129272
18.19537	124678
18.20348	122817
18.21160	123529
18.21973	130433
18.22785	134629
18.23598	141402
18.24410	153968
18.25222	173704
18.26035	178462
18.26847	170278
18.27660	158592
18.28472	154820
18.29283	149676
18.30097	144874
18.30908	137024
18.31720	136218
18.32533	135089
18.33345	132951
18.34158	133489
18.34970	127515
18.35782	129706
18.36595	124356
18.37407	119046
18.38220	117914
18.39032	117887
18.39843	116429
18.40657	119084
18.41468	115688
18.42282	115257
18.43093	121900
18.43905	123628
18.44718	131630
18.45530	143557
18.46342	150263
18.47155	151135
18.47967	156920
18.48780	164894
18.49592	159138
18.50403	164194
18.51217	167749
18.52028	170401
18.52842	174630
18.53653	170831
18.54465	164965
18.55278	168773
18.56090	165228
18.56903	171183
18.57715	176480
18.58527	187472
18.59340	182281
18.60152	184732
18.60963	185113
18.61777	178848
18.62588	169220
18.63402	172083
18.64213	166344
18.65025	161442
18.65838	163293
18.66650	164332
18.67463	158020
18.68275	158319
18.69087	157235
18.69900	164595
18.70712	156536
18.71525	152993
18.72337	153057
18.73148	156461
18.73962	152436
18.74773	153371
18.75585	150333
18.76398	151187
18.77210	150660
18.78023	148929
18.78835	151272
18.79647	145494
18.80460	140051
18.81272	149848
18.82085	142792
18.82897	149498
18.83708	138796
18.84522	141526
18.85333	135691
18.86145	146184
18.86958	140471
18.87770	133826
18.88583	132578
18.89395	134655
18.90207	134661
18.91020	136210
18.91832	138055
18.92645	139739
18.93457	139269
18.94268	129078
18.95082	134062
18.95893	131105
18.96707	129647
18.97518	132118
18.98330	137406
18.99143	134209
18.99955	128619
19.00767	124945
19.01580	127068
19.02392	122446
19.03205	126459
19.04017	121235
19.04828	118911
19.05642	127423
19.06453	130234
19.07267	134771
19.08078	150071
19.08890	156838
19.09703	161143
19.10515	172129
19.11327	166043
19.12140	169087
19.12952	151040
19.13765	146966
19.14577	147197
19.15388	133042
19.16202	140001
19.17013	131487
19.17827	132104
19.18638	130517
19.19450	133747
19.20263	134804
19.21075	136324
19.21888	139468
19.22700	143145
19.23512	151023
19.24325	157149
19.25137	170864
19.25948	195479
19.26762	229913
19.27573	274874
19.28387	315634
19.29198	321671
19.30010	310739
19.30823	277500
19.31635	245586
19.32448	216127
19.33260	197784
19.34072	184249
19.34885	169362
19.35697	169009
19.36510	169345
19.37322	169033
19.38133	180718
19.38947	218908
19.39758	344924
19.40570	631942
19.41383	1216902
19.42195	2079442
19.43008	2653499
19.43820	2490177
19.44632	1788312
19.45445	1107542
19.46257	609028
19.47070	361669
19.47882	244324
19.48693	195541
19.49507	180845
19.50318	164657
19.51130	160725
19.51943	156501
19.52755	160380
19.53568	171106
19.54380	211960
19.55192	264311
19.56005	356901
19.56817	439550
19.57630	451844
19.58442	398012
19.59253	329544
19.60067	284704
19.60878	317992
19.61692	453776
19.62503	758585
19.63315	1246407
19.64128	1808856
19.64940	2347745
19.65752	2526230
19.66565	2181679
19.67377	1574971
19.68190	1098356
19.69002	722336
19.69813	528468
19.70627	393397
19.71438	328886
19.72252	287945
19.73063	251872
19.73875	231184
19.74688	206172
19.75500	199499
19.76313	184099
19.77125	174652
19.77937	176103
19.78750	169547
19.79562	172395
19.80373	164750
19.81187	156112
19.81998	149977
19.82812	155674
19.83623	150665
19.84435	144714
19.85248	146084
19.86060	150088
19.86873	156556
19.87685	176043
19.88497	189996
19.89310	202595
19.90122	213763
19.90933	216553
19.91747	223108
19.92558	235129
19.93372	262770
19.94183	324083
19.94995	409135
19.95808	471868
19.96620	467886
19.97433	427318
19.98245	372660
19.99057	287082
19.99870	251625
20.00682	209429
20.01495	188771
20.02307	180691
20.03118	172859
20.03932	159552
20.04743	148017
20.05555	145589
20.06368	140056
20.07180	142180
20.07993	137443
20.08805	135449
20.09617	145267
20.10430	135000
20.11242	132296
20.12055	131206
20.12867	130512
20.13678	131601
20.14492	124657
20.15303	120738
20.16115	124039
20.16928	126529
20.17740	126498
20.18553	132258
20.19365	155230
20.20177	202049
20.20990	297392
20.21802	485486
20.22615	784588
20.23427	1148018
20.24238	1427394
20.25052	1508918
20.25863	1377347
20.26677	1097547
20.27488	782727
20.28300	545843
20.29113	393374
20.29925	303356
20.30737	254575
20.31550	221969
20.32362	197445
20.33175	180937
20.33987	174713
20.34798	176131
20.35612	169448
20.36423	184537
20.37237	208561
20.38048	251616
20.38860	309234
20.39673	381475
20.40485	433785
20.41298	459582
20.42110	464679
20.42922	482480
20.43735	501965
20.44547	549137
20.45358	555533
20.46172	535575
20.46983	465873
20.47797	375546
20.48608	307462
20.49420	250643
20.50233	212158
20.51045	196919
20.51858	186034
20.52670	171848
20.53482	164595
20.54295	166510
20.55107	154969
20.55918	158779
20.56732	173400
20.57543	230899
20.58357	327595
20.59168	416896
20.59980	453347
20.60793	428171
20.61605	357616
20.62418	295525
20.63230	236388
20.64042	212196
20.64855	187913
20.65667	178144
20.66480	168285
20.67292	160955
20.68103	149826
20.68917	150606
20.69728	143094
20.70540	148677
20.71353	145717
20.72165	139084
20.72978	137576
20.73790	134407
20.74602	132704
20.75415	130303
20.76227	129363
20.77040	126952
20.77852	124016
20.78663	121044
20.79477	125504
20.80288	119256
20.81102	121525
20.81913	122900
20.82725	125154
20.83538	123764
20.84350	124791
20.85162	117771
20.85975	116720
20.86787	111664
20.87600	118419
20.88412	112617
20.89223	111781
20.90037	111890
20.90848	113959
20.91662	115095
20.92473	109847
20.93285	108570
20.94098	111430
20.94910	113943
20.95722	107102
20.96535	113365
20.97347	107606
20.98160	111526
20.98972	108066
20.99783	112370
21.00597	106291
21.01408	108262
21.02222	108603
21.03033	109639
21.03845	111130
21.04658	117713
21.05470	119111
21.06283	129989
21.07095	129476
21.07907	132950
21.08720	127925
21.09532	131398
21.10343	139461
21.11157	132082
21.11968	136430
21.12782	138036
21.13593	138247
21.14405	139615
21.15218	142255
21.16030	137351
21.16843	139536
21.17655	144348
21.18467	143371
21.19280	143121
21.20092	144273
21.20905	141724
21.21717	146540
21.22528	149174
21.23342	158114
21.24153	160149
21.24965	161923
21.25778	165593
21.26590	161347
21.27403	162910
21.28215	158172
21.29027	148332
21.29840	168309
21.30652	182245
21.31465	250252
21.32277	400751
21.33088	614777
21.33902	806405
21.34713	857255
21.35525	760887
21.36338	573184
21.37150	421170
21.37963	327398
21.38775	272518
21.39587	233695
21.40400	214784
21.41212	201492
21.42025	189824
21.42837	183723
21.43648	186924
21.44462	181590
21.45273	183732
21.46087	172749
21.46898	170806
21.47710	163145
21.48523	159477
21.49335	157775
21.50147	148687
21.50960	148619
21.51772	154284
21.52585	160886
21.53397	188676
21.54208	237168
21.55022	374856
21.55833	619897
21.56647	960401
21.57458	1308621
21.58270	1491648
21.59083	1409920
21.59895	1100297
21.60707	810723
21.61520	580124
21.62332	421804
21.63145	342421
21.63957	279465
21.64768	255250
21.65582	244802
21.66393	242272
21.67207	275158
21.68018	311863
21.68830	371004
21.69643	414476
21.70455	438575
21.71268	424521
21.72080	380483
21.72892	340598
21.73705	308291
21.74517	324869
21.75328	390951
21.76142	474792
21.76953	555226
21.77767	579689
21.78578	593106
21.79390	501307
21.80203	405832
21.81015	317628
21.81828	269853
21.82640	228653
21.83452	211460
21.84265	196357
21.85077	198460
21.85890	203241
21.86702	207496
21.87513	225993
21.88327	229773
21.89138	226775
21.89950	215696
21.90763	201303
21.91575	184960
21.92388	172955
21.93200	161185
21.94012	157613
21.94825	152052
21.95637	148276
21.96450	143096
21.97262	132431
21.98073	133518
21.98887	139187
21.99698	135701
22.00510	134275
22.01323	137413
22.02135	132295
22.02948	126322
22.03760	135892
22.04572	139412
22.05385	140092
22.06197	138199
22.07010	141514
22.07822	141348
22.08633	138400
22.09447	134539
22.10258	137589
22.11072	149032
22.11883	153630
22.12695	158978
22.13508	173984
22.14320	179954
22.15132	195424
22.15945	201856
22.16757	211034
22.17570	210566
22.18382	191056
22.19193	169971
22.20007	165028
22.20818	143686
22.21632	134749
22.22443	128137
22.23255	128880
22.24068	122582
22.24880	122513
22.25693	130304
22.26505	125316
22.27317	128430
22.28130	132887
22.28942	124598
22.29753	124169
22.30567	114999
22.31378	113805
22.32192	111628
22.33003	113294
22.33815	109430
22.34628	99099
22.35440	100265
22.36253	96379
22.37065	102768
22.37877	94264
22.38690	95429
22.39502	99812
22.40313	98783
22.41127	107531
22.41938	124096
22.42752	156923
22.43563	202545
22.44375	237942
22.45188	260646
22.46000	253280
22.46813	221979
22.47625	180018
22.48437	151427
22.49250	133424
22.50062	126183
22.50875	119188
22.51687	109107
22.52498	99748
22.53312	105186
22.54123	104508
22.54935	103441
22.55748	105741
22.56560	101867
22.57373	97481
22.58185	93673
22.58997	98147
22.59810	105256
22.60622	129593
22.61435	154947
22.62247	188862
22.63058	192223
22.63872	192478
22.64683	170712
22.65495	145919
22.66308	123060
22.67120	112096
22.67933	104379
22.68745	102784
22.69557	101405
22.70370	96075
22.71182	94683
22.71995	93299
22.72807	94936
22.73618	99822
22.74432	97449
22.75243	102899
22.76057	100259
22.76868	92566
22.77680	91422
22.78493	90005
22.79305	87758
22.80117	83047
22.80930	84316
22.81742	84980
22.82555	85955
22.83367	81631
22.84178	87782
22.84992	86351
22.85803	89489
22.86617	94279
22.87428	94788
22.88240	101935
22.89053	125912
22.89865	159797
22.90678	207767
22.91490	258542
22.92302	298895
22.93115	316539
22.93927	313713
22.94738	310050
22.95552	280972
22.96363	250310
22.97177	235317
22.97988	225778
22.98800	213046
22.99613	202894
23.00425	176884
23.01238	163893
23.02050	136074
23.02862	124525
23.03675	110919
23.04487	113922
23.05300	106371
23.06112	104731
23.06923	100514
23.07737	101561
23.08548	101051
23.09360	95169
23.10173	97376
23.10985	90967
23.11798	91100
23.12610	92505
23.13422	90567
23.14235	85587
23.15047	92939
23.15860	86711
23.16672	87185
23.17483	89816
23.18297	91403
23.19108	86066
23.19920	93277
23.20733	94805
23.21545	99330
23.22358	106535
23.23170	119876
23.23982	116603
23.24795	129164
23.25607	132250
23.26420	125427
23.27232	126836
23.28043	125548
23.28857	115817
23.29668	113372
23.30482	114930
23.31293	105534
23.32105	104002
23.32918	107216
23.33730	103193
23.34542	107872
23.35355	100219
23.36167	102677
23.36980	102341
23.37792	99487
23.38603	102522
23.39417	100631
23.40228	104505
23.41042	103220
23.41853	99674
23.42665	96015
23.43478	106560
23.44290	103650
23.45102	102353
23.45915	99813
23.46727	104245
23.47540	97375
23.48352	97236
23.49163	101326
23.49977	91898
23.50788	93764
23.51602	95274
23.52413	93966
23.53225	95587
23.54038	105002
23.54850	106223
23.55663	98223
23.56475	100411
23.57287	98971
23.58100	101568
23.58912	100921
23.59723	101810
23.60537	97577
23.61348	95411
23.62162	96274
23.62973	96789
23.63785	92859
23.64598	98745
23.65410	99489
23.66223	108959
23.67035	104863
23.67847	104555
23.68660	99712
23.69472	100536
23.70285	99316
23.71097	120437
23.71908	193953
23.72722	454988
23.73533	1328586
23.74345	3613980
23.75158	7614135
23.75970	1.166925E+07
23.76783	1.374327E+07
23.77595	1.423444E+07
23.78407	1.283668E+07
23.79220	1.032113E+07
23.80032	7624173
23.80845	5199100
23.81657	3653257
23.82468	2661719
23.83282	1978507
23.84093	1525535
23.84905	1298924
23.85718	1225959
23.86530	1311897
23.87343	1658710
23.88155	2219551
23.88967	2673656
23.89780	3012778
23.90592	2954846
23.91405	2595366
23.92217	2129224
23.93028	1672940
23.93842	1312761
23.94653	1048296
23.95467	847430
23.96278	724182
23.97090	649424
23.97903	578013
23.98715	522306
23.99527	484590
24.00340	460165
24.01152	435238
24.01965	419899
24.02777	440093
24.03588	450689
24.04402	475952
24.05213	513460
24.06027	532530
24.06838	482073
24.07650	459397
24.08463	430398
24.09275	401176
24.10088	389879
24.10900	387855
24.11712	399556
24.12525	434410
24.13337	482985
24.14148	483807
24.14962	470071
24.15773	428704
24.16587	374205
24.17398	331976
24.18210	311820
24.19023	294899
24.19835	274695
24.20648	265724
24.21460	247133
24.22272	238544
24.23085	230881
24.23897	230978
24.24708	215274
24.25522	211473
24.26333	221430
24.27147	241490
24.27958	303458
24.28770	474081
24.29583	762163
24.30395	1139976
24.31208	1536696
24.32020	1652809
24.32832	1406089
24.33645	1075502
24.34457	787353
24.35270	575245
24.36082	423475
24.36893	330306
24.37707	272255
24.38518	251424
24.39330	248357
24.40143	293685
24.40955	365060
24.41768	434906
24.42580	507639
24.43392	528202
24.44205	516722
24.45017	494750
24.45830	470792
24.46642	451080
24.47453	424382
24.48267	372347
24.49078	325337
24.49890	281866
24.50703	262418
24.51515	256834
24.52328	291182
24.53140	409955
24.53952	751440
24.54765	1325807
24.55577	2068854
24.56390	2637701
24.57202	2720608
24.58013	2352274
24.58827	1921823
24.59638	1555232
24.60452	1287944
24.61263	1045620
24.62075	886060
24.62888	710439
24.63700	579379
24.64512	467570
24.65325	425566
24.66137	372117
24.66950	346092
24.67762	325621
24.68573	296372
24.69387	267596
24.70198	262473
24.71012	258430
24.71823	243990
24.72635	234506
24.73448	230334
24.74260	221286
24.75073	216666
24.75885	211374
24.76697	218666
24.77510	230065
24.78322	254551
24.79133	275839
24.79947	296044
24.80758	283146
24.81572	273197
24.82383	253051
24.83195	224254
24.84008	220209
24.84820	200415
24.85633	196700
24.86445	192226
24.87257	189301
24.88070	180425
24.88882	183409
24.89693	177141
24.90507	176940
24.91318	169476
24.92132	171842
24.92943	163778
24.93755	165055
24.94568	154505
24.95380	155775
24.96193	158949
24.97005	158038
24.97817	150985
24.98630	150821
24.99442	152900
25.00255	152441
25.01067	152714
25.01878	145263
25.02692	151025
25.03503	145916
25.04315	153465
25.05128	144248
25.05940	140390
25.06753	141405
25.07565	146109
25.08377	135319
25.09190	145438
25.10002	143573
25.10815	144283
25.11627	149385
25.12438	148667
25.13252	146833
25.14063	153900
25.14877	164767
25.15688	153780
25.16500	153358
25.17313	155041
25.18125	147278
25.18937	142090
25.19750	142844
25.20562	138765
25.21375	132918
25.22187	134621
25.22998	132113
25.23812	131614
25.24623	130560
25.25437	130165
25.26248	141159
25.27060	130935
25.27873	144340
25.28685	147169
25.29497	159584
25.30310	157181
25.31122	161056
25.31935	156712
25.32747	146959
25.33558	138480
25.34372	137218
25.35183	130007
25.35997	138329
25.36808	141587
25.37620	153688
25.38433	161336
25.39245	168243
25.40058	161255
25.40870	163970
25.41682	155934
25.42495	142257
25.43307	138896
25.44118	132375
25.44932	134569
25.45743	131010
25.46557	134948
25.47368	130436
25.48180	126354
25.48993	127334
25.49805	125059
25.50618	123343
25.51430	113966
25.52242	110469
25.53055	115839
25.53867	111168
25.54678	117489
25.55492	110355
25.56303	110342
25.57117	107224
25.57928	116543
25.58740	104341
25.59553	108737
25.60365	109223
25.61178	105220
25.61990	109450
25.62802	113761
25.63615	104009
25.64427	104549
25.65240	108034
25.66052	104190
25.66863	104762
25.67677	107832
25.68488	106164
25.69300	113292
25.70113	113542
25.70925	119775
25.71738	119308
25.72550	119226
25.73362	117745
25.74175	107134
25.74987	108397
25.75800	108692
25.76612	108312
25.77423	106638
25.78237	104089
25.79048	102719
25.79862	104387
25.80673	95919
25.81485	104096
25.82298	100387
25.83110	96620
25.83922	102357
25.84735	94220
25.85547	96401
25.86360	103655
25.87172	99420
25.87983	94425
25.88797	95711
25.89608	92460
25.90422	100461
25.91233	96220
25.92045	97340
25.92858	101776
25.93670	102132
25.94482	99084
25.95295	107254
25.96107	100155
25.96920	105854
25.97732	97985
25.98543	97523
25.99357	98761
26.00168	93544
26.00982	96366
26.01793	91736
26.02605	101657
26.03418	96025
26.04230	96879
26.05043	96552
26.05855	98053
26.06667	97831
26.07480	93657
26.08292	97586
26.09103	94072
26.09917	106161
26.10728	106349
26.11542	119764
26.12353	117429
26.13165	122813
26.13978	125766
26.14790	129156
26.15603	131183
26.16415	122964
26.17227	121457
26.18040	117478
26.18852	112159
26.19665	108334
26.20477	107252
26.21288	104892
26.22102	114179
26.22913	113339
26.23725	109389
26.24538	110154
26.25350	101968
26.26163	103038
26.26975	97965
26.27787	98423
26.28600	100038
26.29412	97814
26.30225	97354
26.31037	104082
26.31848	100920
26.32662	98637
26.33473	104072
26.34285	99818
26.35098	97420
26.35910	96249
26.36723	98535
26.37535	93083
26.38347	90906
26.39160	90171
26.39972	91569
26.40785	89916
26.41597	90068
26.42408	92456
26.43222	92158
26.44033	86431
26.44847	94100
26.45658	88563
26.46470	93727
26.47283	88692
26.48095	85350
26.48907	84718
26.49720	89969
26.50532	89037
26.51345	90598
26.52157	84187
26.52968	84997
26.53782	89490
26.54593	89752
26.55407	88349
26.56218	85247
26.57030	87632
26.57843	90636
26.58655	90707
26.59468	92909
26.60280	86865
26.61092	92504
26.61905	92965
26.62717	92923
26.63528	104045
26.64342	103732
26.65153	108763
26.65967	107135
26.66778	107914
26.67590	99919
26.68403	100042
26.69215	96417
26.70028	94155
26.70840	93710
26.71652	97776
26.72465	100853
26.73277	96768
26.74088	106959
26.74902	116802
26.75713	128310
26.76527	147089
26.77338	143660
26.78150	142669
26.78963	132798
26.79775	120301
26.80588	113994
26.81400	107257
26.82212	108363
26.83025	106541
26.83837	101430
26.84650	110747
26.85462	116687
26.86273	118558
26.87087	122652
26.87898	129701
26.88710	140934
26.89523	159667
26.90335	200533
26.91148	293795
26.91960	630670
26.92772	1771688
26.93585	6237317
26.94397	2.087974E+07
26.95210	4.06098E+07
26.96022	5.576279E+07
26.96833	6.490147E+07
26.97647	6.733293E+07
26.98458	6.561241E+07
26.99270	6.114053E+07
27.00083	5.609717E+07
27.00895	5.27362E+07
27.01708	4.699761E+07
27.02520	4.285931E+07
27.03332	3.67696E+07
27.04145	2.983909E+07
27.04957	2.346451E+07
27.05770	1.748919E+07
27.06582	1.287831E+07
27.07393	9763405
27.08207	7387263
27.09018	5726027
27.09832	4618020
27.10643	3837866
27.11455	3204353
27.12268	2772462
27.13080	2491243
27.13892	2162445
27.14705	2009202
27.15517	1852023
27.16330	1681671
27.17142	1558609
27.17953	1433571
27.18767	1365316
27.19578	1269943
27.20392	1232282
27.21203	1131778
27.22015	1070007
27.22828	1021032
27.23640	1013213
27.24453	1085261
27.25265	1407294
27.26077	2436941
27.26890	5072067
27.27702	1.042995E+07
27.28513	1.787539E+07
27.29327	2.446713E+07
27.30138	2.859888E+07
27.30952	2.924213E+07
27.31763	2.665153E+07
27.32575	2.217393E+07
27.33388	1.798182E+07
27.34200	1.349503E+07
27.35013	1.006831E+07
27.35825	7698782
27.36637	5758920
27.37450	4444931
27.38262	3488492
27.39073	2817243
27.39887	2385317
27.40698	2169744
27.41512	1910778
27.42323	1811627
27.43135	1653115
27.43948	1547268
27.44760	1411768
27.45573	1262035
27.46385	1116511
27.47197	1081586
27.48010	1012373
27.48822	946636
27.49635	908212
27.50447	909807
27.51258	887563
27.52072	871955
27.52883	843605
27.53695	780278
27.54508	741916
27.55320	719855
27.56133	686439
27.56945	679675
27.57757	651372
27.58570	637069
27.59382	609141
27.60195	570194
27.61007	548935
27.61818	528378
27.62632	521047
27.63443	505304
27.64257	499177
27.65068	496173
27.65880	492212
27.66693	473533
27.67505	456211
27.68317	459574
27.69130	426486
27.69942	421004
27.70755	422094
27.71567	406635
27.72378	410023
27.73192	393201
27.74003	396957
27.74817	384647
27.75628	371299
27.76440	358647
27.77253	358306
27.78065	357568
27.78877	349564
27.79690	343747
27.80502	340757
27.81315	327699
27.82127	340546
27.82938	327320
27.83752	319417
27.84563	323179
27.85377	329327
27.86188	313217
27.87000	308024
27.87813	301215
27.88625	284757
27.89438	296540
27.90250	292550
27.91062	282060
27.91875	282960
27.92687	281499
27.93498	271177
27.94312	267422
27.95123	264507
27.95937	251767
27.96748	256659
27.97560	252550
27.98373	253773
27.99185	250323
27.99998	243817
28.00810	239349
28.01622	234676
28.02435	232892
28.03247	236343
28.04058	231912
28.04872	222092
28.05683	225921
28.06497	237187
28.07308	252413
28.08120	283986
28.08933	335012
28.09745	395696
28.10558	431615
28.11370	444897
28.12182	437462
28.12995	381017
28.13807	341585
28.14620	299373
28.15432	276084
28.16243	254323
28.17057	234964
28.17868	241526
28.18680	238165
28.19493	250566
28.20305	282390
28.21118	370666
28.21930	575297
28.22742	1092221
28.23555	2176001
28.24367	4778278
28.25180	9949403
28.25992	1.799873E+07
28.26803	2.76395E+07
28.27617	3.397708E+07
28.28428	3.754145E+07
28.29242	3.986974E+07
28.30053	4.016934E+07
28.30865	3.72115E+07
28.31678	3.453302E+07
28.32490	3.108751E+07
28.33302	2.674878E+07
28.34115	2.347045E+07
28.34927	1.970331E+07
28.35740	1.661277E+07
28.36552	1.380353E+07
28.37363	1.150676E+07
28.38177	9257332
28.38988	7542476
28.39802	6225078
28.40613	5121291
28.41425	4195660
28.42238	3412881
28.43050	2918158
28.43863	2583434
28.44675	2457925
28.45487	2637772
28.46300	3164520
28.47112	4132270
28.47923	5537281
28.48737	7261173
28.49548	8662381
28.50362	9713626
28.51173	1.04021E+07
28.51985	1.074537E+07
28.52798	1.027095E+07
28.53610	9457626
28.54423	8585700
28.55235	7404817
28.56047	6301027
28.56860	5645416
28.57672	4785879
28.58483	4038306
28.59297	3532618
28.60108	3027796
28.60922	2517830
28.61733	2186817
28.62545	1916358
28.63358	1732313
28.64170	1653991
28.64983	1714136
28.65795	1966397
28.66607	2318875
28.67420	2554064
28.68232	2522217
28.69045	2126768
28.69857	1674517
28.70668	1297157
28.71482	1048150
28.72293	896228
28.73105	875179
28.73918	874478
28.74730	854717
28.75543	826966
28.76355	767425
28.77167	705915
28.77980	637784
28.78792	587344
28.79605	551676
28.80417	539672
28.81228	518861
28.82042	501333
28.82853	473461
28.83665	459814
28.84478	454231
28.85290	448396
28.86103	438701
28.86915	427189
28.87727	417856
28.88540	409544
28.89352	396984
28.90165	399761
28.90977	386050
28.91788	372576
28.92602	367885
28.93413	370961
28.94227	370550
28.95038	365520
28.95850	355223
28.96663	345335
28.97475	342818
28.98287	343067
28.99100	332758
28.99912	328074
29.00725	319674
29.01537	317978
29.02348	307145
29.03162	302957
29.03973	299851
29.04787	300152
29.05598	300229
29.06410	292586
29.07223	282258
29.08035	293403
29.08848	276190
29.09660	283815
29.10472	283555
29.11285	279516
29.12097	281617
29.12908	270400
29.13722	278952
29.14533	267521
29.15347	267434
29.16158	273331
29.16970	257654
29.17783	250889
29.18595	251949
29.19408	253129
29.20220	248086
29.21032	255052
29.21845	254873
29.22657	251866
29.23468	247539
29.24282	243123
29.25093	245548
29.25907	249419
29.26718	239852
29.27530	241635
29.28343	239706
29.29155	230433
29.29968	236741
29.30780	225015
29.31592	223499
29.32405	222894
29.33217	210172
29.34030	214378
29.34842	219358
29.35653	227801
29.36467	229818
29.37278	247783
29.38090	254724
29.38903	264563
29.39715	264556
29.40528	246911
29.41340	234248
29.42152	220118
29.42965	214050
29.43777	206955
29.44590	204651
29.45402	216812
29.46213	213417
29.47027	211878
29.47838	211341
29.48652	212982
29.49463	205756
29.50275	189649
29.51088	199109
29.51900	191239
29.52712	183144
29.53525	176016
29.54337	176406
29.55150	168206
29.55962	169984
29.56773	164705
29.57587	162416
29.58398	165460
29.59212	163470
29.60023	162025
29.60835	165820
29.61648	160971
29.62460	168347
29.63272	153898
29.64085	168233
29.64897	162378
29.65710	153314
29.66522	149712
29.67333	157687
29.68147	149316
29.68958	150597
29.69772	163003
29.70583	146917
29.71395	147589
29.72208	148322
29.73020	148462
29.73833	150461
29.74645	143030
29.75457	149437
29.76270	146673
29.77082	138218
29.77893	139987
29.78707	134535
29.79518	142587
29.80332	140879
29.81143	131857
29.81955	140130
29.82768	145628
29.83580	167452
29.84393	217613
29.85205	336719
29.86017	574767
29.86830	925243
29.87642	1497970
29.88453	2333858
29.89267	3475027
29.90078	5081259
29.90892	7144162
29.91703	9292285
29.92515	1.069301E+07
29.93328	1.197225E+07
29.94140	1.212428E+07
29.94953	1.172949E+07
29.95765	1.122998E+07
29.96577	1.056518E+07
29.97390	9451836
29.98202	8112140
29.99015	7297621
29.99827	6810827
30.00638	6232046
30.01452	5797034
30.02263	5513901
30.03075	5283806
30.03888	5191900
30.04700	4808034
30.05513	4494525
30.06325	4105395
30.07137	3862058
30.07950	3550308
30.08762	3167598
30.09575	2913016
30.10387	2593465
30.11198	2346774
30.12012	2059098
30.12823	1817984
30.13637	1607207
30.14448	1418182
30.15260	1281472
30.16073	1117727
30.16885	1013747
30.17697	905211
30.18510	815776
30.19322	759867
30.20135	689657
30.20947	633954
30.21758	582027
30.22572	558922
30.23383	518179
30.24197	495179
30.25008	482494
30.25820	437941
30.26633	415695
30.27445	401086
30.28257	390249
30.29070	376816
30.29882	365029
30.30695	355423
30.31507	342822
30.32318	331935
30.33132	322472
30.33943	331873
30.34757	299419
30.35568	297529
30.36380	291066
30.37193	290839
30.38005	280834
30.38818	286118
30.39630	266293
30.40442	270661
30.41255	252598
30.42067	262367
30.42878	257146
30.43692	248345
30.44503	239978
30.45317	242432
30.46128	232552
30.46940	225493
30.47753	227158
30.48565	224598
30.49378	226572
30.50190	211564
30.51002	208607
30.51815	205911
30.52627	201439
30.53440	202746
30.54252	195464
30.55063	196506
30.55877	192829
30.56688	189150
30.57500	190519
30.58313	196273
30.59125	188298
30.59938	187696
30.60750	182599
30.61562	183559
30.62375	184163
30.63187	183125
30.64000	174265
30.64812	178075
30.65623	170653
30.66437	169879
30.67248	160272
30.68060	160340
30.68873	166319
30.69685	166094
30.70498	164771
30.71310	170471
30.72122	168410
30.72935	163668
30.73747	159331
30.74560	164717
30.75372	159662
30.76183	157559
30.76997	152340
30.77808	155776
30.78622	156744
30.79433	159480
30.80245	162824
30.81058	148822
30.81870	153118
30.82682	153352
30.83495	151638
30.84307	149375
30.85120	146269
30.85932	152805
30.86743	142801
30.87557	146656
30.88368	141877
30.89182	141388
30.89993	143921
30.90805	144666
30.91618	138828
30.92430	139277
30.93243	139896
30.94055	129916
30.94867	129023
30.95680	129166
30.96492	132765
30.97303	129701
30.98117	132708
30.98928	123462
30.99742	128156
31.00553	136990
31.01365	131934
31.02178	126288
31.02990	133472
31.03803	127290
31.04615	130649
31.05427	140074
31.06240	167747
31.07052	184725
31.07863	212284
31.08677	225870
31.09488	216825
31.10302	207401
31.11113	200164
31.11925	189796
31.12738	191619
31.13550	185957
31.14363	181900
31.15175	173409
31.15987	170546
31.16800	178538
31.17612	174847
31.18425	184113
31.19237	181025
31.20048	182329
31.20862	175173
31.21673	169817
31.22485	155269
31.23298	146692
31.24110	142289
31.24923	130488
31.25735	135126
31.26547	132941
31.27360	139812
31.28172	157802
31.28985	178300
31.29797	196965
31.30608	222389
31.31422	215097
31.32233	206225
31.33045	187875
31.33858	189867
31.34670	168411
31.35483	165703
31.36295	151715
31.37107	148861
31.37920	152120
31.38732	163357
31.39545	163601
31.40357	174529
31.41168	161081
31.41982	153150
31.42793	152146
31.43607	137446
31.44418	129135
31.45230	121159
31.46043	122736
31.46855	118682
31.47667	117110
31.48480	113408
31.49292	121292
31.50105	111399
31.50917	110018
31.51728	115253
31.52542	116644
31.53353	117351
31.54167	104419
31.54978	105083
31.55790	104387
31.56603	105783
31.57415	105648
31.58228	105128
31.59040	105525
31.59852	101888
31.60665	101024
31.61477	102439
31.62288	107294
31.63102	104264
31.63913	102212
31.64727	98052
31.65538	93069
31.66350	98074
31.67163	95994
31.67975	101101
31.68788	98759
31.69600	96393
31.70412	104778
31.71225	94005
31.72037	90958
31.72848	101203
31.73662	92677
31.74473	98432
31.75287	97091
31.76098	99570
31.76910	109514
31.77723	113034
31.78535	136989
31.79348	182125
31.80160	286939
31.80972	457449
31.81785	705855
31.82597	1080865
31.83410	1602442
31.84222	2208469
31.85033	2792693
31.85847	3316851
31.86658	3832616
31.87470	4344861
31.88283	4779569
31.89095	5104834
31.89908	5159332
31.90720	5120598
31.91532	4889060
31.92345	4675260
31.93157	4497829
31.93970	4346234
31.94782	4126832
31.95593	3782585
31.96407	3505032
31.97218	3118257
31.98032	2695881
31.98843	2332790
31.99655	2043227
32.00468	1739381
32.01280	1446816
32.02092	1224665
32.02905	1038275
32.03717	878073
32.04530	775917
32.05342	710041
32.06153	625565
32.06967	568814
32.07778	512570
32.08592	466994
32.09403	429956
32.10215	420474
32.11028	390641
32.11840	374595
32.12652	354961
32.13465	333529
32.14277	308753
32.15090	305669
32.15902	287992
32.16713	284155
32.17527	263704
32.18338	255440
32.19152	248901
32.19963	250262
32.20775	240617
32.21588	236058
32.22400	231803
32.23213	230951
32.24025	219580
32.24837	217875
32.25650	214308
32.26462	207987
32.27273	206211
32.28087	194771
32.28898	195418
32.29712	198293
32.30523	188333
32.31335	188053
32.32148	184784
32.32960	186975
32.33773	178797
32.34585	178488
32.35397	171062
32.36210	172355
32.37022	178202
32.37833	160062
32.38647	172057
32.39458	163774
32.40272	161288
32.41083	152074
32.41895	149449
32.42708	152571
32.43520	145994
32.44333	149631
32.45145	146036
32.45957	141621
32.46770	148668
32.47582	147208
32.48395	141557
32.49207	139010
32.50018	138855
32.50832	138004
32.51643	153706
32.52455	169912
32.53268	217573
32.54080	343230
32.54893	530112
32.55705	716487
32.56517	834863
32.57330	822992
32.58142	699625
32.58955	553929
32.59767	437268
32.60578	328777
32.61392	240871
32.62203	189900
32.63017	177945
32.63828	159607
32.64640	151925
32.65453	153130
32.66265	148105
32.67077	145805
32.67890	145505
32.68702	145777
32.69515	144388
32.70327	138990
32.71138	140572
32.71952	139631
32.72763	137891
32.73577	127197
32.74388	132299
32.75200	135958
32.76013	133028
32.76825	130569
32.77638	124120
32.78450	126651
32.79262	130402
32.80075	130829
32.80887	128712
32.81698	122784
32.82512	135957
32.83323	129433
32.84137	121212
32.84948	125732
32.85760	124966
32.86573	121514
32.87385	133101
32.88198	119347
32.89010	121678
32.89822	122742
32.90635	119646
32.91447	116515
32.92258	124345
32.93072	121262
32.93883	115681
32.94697	114656
32.95508	116593
32.96320	116588
32.97133	114473
32.97945	117999
32.98758	109102
32.99570	110820
33.00382	110161
33.01195	112722
33.02007	117854
33.02820	107136
33.03632	110691
33.04443	109965
33.05257	110467
33.06068	116589
33.06880	129312
33.07693	147433
33.08505	166362
33.09318	181455
33.10130	202142
33.10942	187881
33.11755	184133
33.12567	167895
33.13380	148563
33.14192	131037
33.15003	132137
33.15817	131943
33.16628	120056
33.17440	113969
33.18253	113426
33.19065	119785
33.19878	112380
33.20690	111398
33.21502	110701
33.22315	117961
33.23127	113150
33.23940	107604
33.24752	116336
33.25563	116593
33.26377	114780
33.27188	114402
33.28002	114563
33.28813	110636
33.29625	115427
33.30438	115058
33.31250	108816
33.32062	108140
33.32875	106898
33.33687	111160
33.34500	108077
33.35312	101451
33.36123	103927
33.36937	108567
33.37748	104661
33.38562	102788
33.39373	106964
33.40185	103142
33.40998	103385
33.41810	103544
33.42623	103194
33.43435	103535
33.44247	98804
33.45060	99431
33.45872	108060
33.46683	109005
33.47497	103384
33.48308	103791
33.49122	100993
33.49933	103342
33.50745	103786
33.51558	99606
33.52370	99285
33.53183	94162
33.53995	99383
33.54807	92410
33.55620	100134
33.56432	99339
33.57243	95074
33.58057	93483
33.58868	89249
33.59682	92056
33.60493	90310
33.61305	93681
33.62118	87415
33.62930	94017
33.63743	96967
33.64555	91715
33.65367	87628
33.66180	88305
33.66992	90920
33.67805	93521
33.68617	88221
33.69428	99048
33.70242	99148
33.71053	94241
33.71865	109177
33.72678	117310
33.73490	136952
33.74303	138813
33.75115	139893
33.75927	136062
33.76740	119977
33.77552	118644
33.78365	116327
33.79177	116371
33.79988	114958
33.80802	122061
33.81613	122582
33.82427	113193
33.83238	106222
33.84050	99657
33.84863	97938
33.85675	95254
33.86487	97264
33.87300	92275
33.88112	93233
33.88925	96216
33.89737	94681
33.90548	92691
33.91362	91347
33.92173	94308
33.92987	92442
33.93798	91941
33.94610	88721
33.95423	91483
33.96235	93675
33.97047	92158
33.97860	92628
33.98672	97361
33.99485	90173
34.00297	90385
34.01108	93394
34.01922	93495
34.02733	98722
34.03547	96184
34.04358	99668
34.05170	93011
34.05983	93321
34.06795	92505
34.07608	94753
34.08420	91129
34.09232	94184
34.10045	91204
34.10857	91836
34.11668	92821
34.12482	95666
34.13293	96130
34.14107	97755
34.14918	96492
34.15730	96927
34.16543	92937
34.17355	94403
34.18168	94239
34.18980	92526
34.19792	91609
34.20605	88978
34.21417	88923
34.22228	92646
34.23042	93610
34.23853	91143
34.24667	89580
34.25478	94974
34.26290	91719
34.27103	91983
34.27915	91446
34.28728	87962
34.29540	90119
34.30352	90088
34.31165	85646
34.31977	89317
34.32790	83351
34.33602	82178
34.34413	85713
34.35227	83896
34.36038	82236
34.36850	82983
34.37663	89649
34.38475	95237
34.39288	120664
34.40100	186635
34.40912	337258
34.41725	651538
34.42537	1136204
34.43350	1776141
34.44162	2451310
34.44973	3075611
34.45787	3548595
34.46598	3667224
34.47412	3667299
34.48223	3590271
34.49035	3463324
34.49848	3077255
34.50660	2693884
34.51472	2295260
34.52285	1880480
34.53097	1553484
34.53910	1268517
34.54722	1017075
34.55533	866576
34.56347	739977
34.57158	649194
34.57972	567406
34.58783	533370
34.59595	491893
34.60408	466986
34.61220	450258
34.62032	434146
34.62845	425714
34.63657	387443
34.64470	366290
34.65282	339661
34.66093	315240
34.66907	297935
34.67718	282818
34.68532	281077
34.69343	260111
34.70155	249155
34.70968	245945
34.71780	234618
34.72593	230912
34.73405	217798
34.74217	222448
34.75030	209483
34.75842	207155
34.76653	206354
34.77467	198225
34.78278	195871
34.79092	191720
34.79903	180861
34.80715	186131
34.81528	184441
34.82340	199792
34.83153	207066
34.83965	209563
34.84777	211594
34.85590	210548
34.86402	203354
34.87215	194340
34.88027	179004
34.88838	176457
34.89652	172939
34.90463	164600
34.91275	165411
34.92088	164395
34.92900	158854
34.93713	168105
34.94525	160591
34.95337	157626
34.96150	156279
34.96962	154888
34.97775	147289
34.98587	150254
34.99398	154890
35.00212	149820
35.01023	158815
35.01835	164296
35.02648	195574
35.03460	213954
35.04273	239498
35.05085	241826
35.05897	230232
35.06710	217792
35.07522	198117
35.08335	169205
35.09147	157543
35.09958	150374
35.10772	150973
35.11583	152690
35.12397	151293
35.13208	148480
35.14020	144394
35.14833	142067
35.15645	137590
35.16457	143072
35.17270	140241
35.18082	134101
35.18895	138631
35.19707	133038
35.20518	133076
35.21332	136418
35.22143	134778
35.22957	138804
35.23768	134515
35.24580	130474
35.25393	140445
35.26205	134124
35.27017	134223
35.27830	135190
35.28642	133415
35.29455	129497
35.30267	134236
35.31078	120653
35.31892	122880
35.32703	125966
35.33517	121163
35.34328	120019
35.35140	121949
35.35953	116040
35.36765	115292
35.37578	111610
35.38390	112030
35.39202	114611
35.40015	119466
35.40827	114328
35.41638	114993
35.42452	120844
35.43263	124249
35.44077	128856
35.44888	133752
35.45700	135495
35.46513	134176
35.47325	128227
35.48138	131510
35.48950	125032
35.49762	125816
35.50575	127285
35.51387	124319
35.52200	132296
35.53012	176754
35.53823	231185
35.54637	287688
35.55448	341824
35.56260	349029
35.57073	317648
35.57885	283399
35.58698	254469
35.59510	214790
35.60322	192722
35.61135	174712
35.61947	164018
35.62760	149152
35.63572	148096
35.64383	140062
35.65197	141358
35.66008	134337
35.66820	128040
35.67633	138386
35.68445	134256
35.69258	128523
35.70070	127470
35.70882	127255
35.71695	125955
35.72507	124524
35.73320	121322
35.74132	125364
35.74943	122416
35.75757	124626
35.76568	121672
35.77382	138625
35.78193	128386
35.79005	137881
35.79818	145021
35.80630	143949
35.81442	146145
35.82255	146233
35.83067	139122
35.83880	137053
35.84692	129964
35.85503	130291
35.86317	123382
35.87128	124804
35.87942	117334
35.88753	129911
35.89565	114648
35.90378	110495
35.91190	116606
35.92003	111544
35.92815	108804
35.93627	105862
35.94440	114699
35.95252	113915
35.96063	113743
35.96877	118453
35.97688	113900
35.98502	124043
35.99313	134168
36.00125	135933
36.00938	137193
36.01750	141675
36.02563	140253
36.03375	123685
36.04187	125084
36.05000	124183
36.05812	119409
36.06623	117004
36.07437	120157
36.08248	120592
36.09062	122087
36.09873	120690
36.10685	121170
36.11498	129242
36.12310	130771
36.13123	130882
36.13935	136714
36.14747	132574
36.15560	132296
36.16372	152650
36.17185	186944
36.17997	276614
36.18808	429408
36.19622	620834
36.20433	739903
36.21245	800657
36.22058	692025
36.22870	515145
36.23683	383416
36.24495	274461
36.25307	209564
36.26120	167579
36.26932	145341
36.27745	147157
36.28557	139268
36.29368	139767
36.30182	136971
36.30993	129635
36.31807	126742
36.32618	127372
36.33430	125392
36.34243	124791
36.35055	124008
36.35867	126827
36.36680	125722
36.37492	128274
36.38305	125072
36.39117	122145
36.39928	123610
36.40742	126241
36.41553	123824
36.42367	125610
36.43178	122966
36.43990	123812
36.44803	124444
36.45615	126560
36.46427	127511
36.47240	122517
36.48052	122409
36.48865	123378
36.49677	125059
36.50488	131136
36.51302	133994
36.52113	157321
36.52927	173009
36.53738	190041
36.54550	204905
36.55363	195680
36.56175	175949
36.56988	160699
36.57800	144511
36.58612	140016
36.59425	136175
36.60237	140152
36.61048	131787
36.61862	132121
36.62673	134098
36.63487	131952
36.64298	131783
36.65110	130155
36.65923	132096
36.66735	131003
36.67548	129813
36.68360	130383
36.69172	128652
36.69985	128522
36.70797	128894
36.71608	123485
36.72422	131438
36.73233	128000
36.74047	123272
36.74858	131385
36.75670	130443
36.76483	129907
36.77295	128116
36.78108	127918
36.78920	130307
36.79732	122964
36.80545	125461
36.81357	125249
36.82170	131289
36.82982	121796
36.83793	120531
36.84607	127240
36.85418	126509
36.86230	127313
36.87043	125768
36.87855	125208
36.88668	123762
36.89480	120929
36.90292	121130
36.91105	121938
36.91917	118634
36.92730	120990
36.93542	120644
36.94353	122782
36.95167	116097
36.95978	122179
36.96792	118311
36.97603	118255
36.98415	122471
36.99228	115828
37.00040	123876
37.00852	121855
37.01665	119713
37.02477	120286
37.03290	130520
37.04102	134402
37.04913	143046
37.05727	154246
37.06538	151167
37.07352	156492
37.08163	145817
37.08975	144206
37.09788	139350
37.10600	125686
37.11412	130715
37.12225	124961
37.13037	127172
37.13850	126009
37.14662	125161
37.15473	128958
37.16287	120934
37.17098	128043
37.17912	147594
37.18723	203075
37.19535	375351
37.20348	768498
37.21160	1416195
37.21973	2087441
37.22785	2600881
37.23597	2816472
37.24410	2794231
37.25222	2697034
37.26033	2542449
37.26847	2217702
37.27658	1886292
37.28472	1626859
37.29283	1345095
37.30095	1135057
37.30908	990714
37.31720	833541
37.32533	734695
37.33345	659957
37.34157	606699
37.34970	559096
37.35782	512747
37.36595	467672
37.37407	440974
37.38218	410623
37.39032	388964
37.39843	376925
37.40655	353850
37.41468	341766
37.42280	328299
37.43093	309494
37.43905	303773
37.44717	287308
37.45530	283648
37.46342	287366
37.47155	273551
37.47967	262942
37.48778	262686
