C:\MassHunter\GCMS\1\data\JTB-E18\JTB-E18-033-08.D Mon Oct 14 13:07:51 2019
Start of data points
2.09527,155849
2.10340,153036
2.11152,157860
2.11965,146948
2.12777,137769
2.13588,137057
2.14402,140070
2.15213,132578
2.16027,134316
2.16838,123934
2.17650,125077
2.18463,120440
2.19275,125594
2.20087,114599
2.20900,116161
2.21712,108491
2.22525,113724
2.23337,105477
2.24148,107540
2.24962,107416
2.25773,113753
2.26587,265507
2.27398,1210249
2.28210,1787103
2.29023,990260
2.29835,511453
2.30648,362216
2.31460,311602
2.32272,276164
2.33085,245896
2.33897,230203
2.34708,204995
2.35522,192211
2.36333,179164
2.37147,171889
2.37958,185991
2.38770,183717
2.39583,167548
2.40395,161362
2.41208,152931
2.42020,156205
2.42832,154202
2.43645,155747
2.44457,163116
2.45268,161244
2.46082,142019
2.46893,132159
2.47707,126427
2.48518,128741
2.49330,139376
2.50143,134082
2.50955,136166
2.51768,121705
2.52580,124378
2.53392,121458
2.54205,136009
2.55017,132187
2.55830,134959
2.56642,124988
2.57453,117975
2.58267,116585
2.59078,120690
2.59890,116731
2.60703,123863
2.61515,130459
2.62328,127686
2.63140,121353
2.63952,116901
2.64765,115365
2.65577,111809
2.66390,115136
2.67202,120616
2.68013,123351
2.68827,119226
2.69638,107238
2.70452,113625
2.71263,106594
2.72075,104483
2.72888,104909
2.73700,110803
2.74512,105453
2.75325,100668
2.76137,105514
2.76950,102740
2.77762,105021
2.78573,96828
2.79387,100549
2.80198,104003
2.81012,108252
2.81823,113544
2.82635,158294
2.83448,203084
2.84260,178562
2.85072,135157
2.85885,126595
2.86697,120173
2.87510,118201
2.88322,110851
2.89133,108542
2.89947,109460
2.90758,101412
2.91572,99256
2.92383,97191
2.93195,101397
2.94008,93823
2.94820,98059
2.95633,97089
2.96445,94423
2.97257,91437
2.98070,90091
2.98882,91661
2.99693,101915
3.00507,107334
3.01318,111376
3.02132,123929
3.02943,177904
3.03755,251155
3.04568,381254
3.05380,1037234
3.06193,1998079
3.07005,1766587
3.07817,936419
3.08630,513233
3.09442,356504
3.10255,268054
3.11067,243351
3.11878,205214
3.12692,183387
3.13503,162440
3.14315,145951
3.15128,134942
3.15940,137728
3.16753,128170
3.17565,124163
3.18377,117695
3.19190,110506
3.20002,108493
3.20815,110790
3.21627,114108
3.22438,110251
3.23252,112722
3.24063,102594
3.24875,101175
3.25688,105083
3.26500,99017
3.27313,115482
3.28125,218147
3.28937,636470
3.29750,1537126
3.30562,2415363
3.31375,2577595
3.32187,2007440
3.32998,1467211
3.33812,1079621
3.34623,879988
3.35437,734111
3.36248,619200
3.37060,572567
3.37873,588856
3.38685,558943
3.39497,497595
3.40310,588303
3.41122,876883
3.41935,1097180
3.42747,913888
3.43558,623456
3.44372,457472
3.45183,386690
3.45997,340545
3.46808,313746
3.47620,300109
3.48433,276090
3.49245,258337
3.50057,244079
3.50870,227081
3.51682,224190
3.52495,215643
3.53307,207416
3.54118,200176
3.54932,188799
3.55743,185086
3.56557,184280
3.57368,176964
3.58180,174266
3.58993,173960
3.59805,173115
3.60618,174880
3.61430,194861
3.62242,283866
3.63055,444902
3.63867,537174
3.64678,457091
3.65492,336478
3.66303,256621
3.67117,218985
3.67928,195692
3.68740,187278
3.69553,167771
3.70365,168107
3.71178,161525
3.71990,163021
3.72802,160071
3.73615,152736
3.74427,152896
3.75240,150362
3.76052,144065
3.76863,143625
3.77677,138519
3.78488,142301
3.79300,134257
3.80113,134913
3.80925,132345
3.81738,136019
3.82550,139428
3.83362,132388
3.84175,135714
3.84987,132247
3.85800,124461
3.86612,132232
3.87423,123448
3.88237,123089
3.89048,120066
3.89860,126935
3.90673,117644
3.91485,118625
3.92298,119232
3.93110,118881
3.93922,120247
3.94735,119383
3.95547,112087
3.96360,117383
3.97172,112417
3.97983,114545
3.98797,108523
3.99608,109816
4.00422,113182
4.01233,115937
4.02045,109285
4.02858,108683
4.03670,114475
4.04482,111435
4.05295,110699
4.06107,108226
4.06920,110035
4.07732,108564
4.08543,111830
4.09357,112889
4.10168,105276
4.10982,104776
4.11793,110855
4.12605,102822
4.13418,109708
4.14230,114279
4.15043,118826
4.15855,117227
4.16667,109229
4.17480,113841
4.18292,105323
4.19103,106571
4.19917,103261
4.20728,105601
4.21542,105043
4.22353,111789
4.23165,125439
4.23978,137156
4.24790,128956
4.25603,120415
4.26415,109516
4.27227,112373
4.28040,110637
4.28852,111965
4.29663,101379
4.30477,104632
4.31288,103348
4.32102,110533
4.32913,110453
4.33725,112124
4.34538,101475
4.35350,101548
4.36163,109277
4.36975,100203
4.37787,100416
4.38600,104529
4.39412,99581
4.40225,98245
4.41037,103221
4.41848,96780
4.42662,97653
4.43473,100546
4.44285,107385
4.45098,101641
4.45910,107512
4.46723,106535
4.47535,101709
4.48347,103459
4.49160,101693
4.49972,100857
4.50785,99849
4.51597,101465
4.52408,96499
4.53222,97426
4.54033,101234
4.54845,98394
4.55658,95537
4.56470,98016
4.57283,97187
4.58095,92857
4.58907,96753
4.59720,98717
4.60532,97907
4.61345,91168
4.62157,94529
4.62968,89113
4.63782,88056
4.64593,90056
4.65407,93706
4.66218,92820
4.67030,98258
4.67843,91850
4.68655,89461
4.69467,97058
4.70280,96218
4.71092,94026
4.71905,92239
4.72717,95662
4.73528,91481
4.74342,88676
4.75153,92271
4.75967,93533
4.76778,89751
4.77590,88528
4.78403,89535
4.79215,92108
4.80028,92614
4.80840,94856
4.81652,93337
4.82465,92313
4.83277,88354
4.84088,94048
4.84902,88548
4.85713,98292
4.86527,96892
4.87338,101707
4.88150,93516
4.88963,90990
4.89775,95111
4.90588,102581
4.91400,135183
4.92212,235024
4.93025,459523
4.93837,781283
4.94650,1021607
4.95462,1021858
4.96273,836796
4.97087,642503
4.97898,493101
4.98710,394251
4.99523,324268
5.00335,276338
5.01148,251187
5.01960,233563
5.02772,214033
5.03585,198984
5.04397,186914
5.05210,173292
5.06022,171458
5.06833,161917
5.07647,165125
5.08458,156234
5.09270,159123
5.10083,165137
5.10895,166451
5.11708,175806
5.12520,181972
5.13332,162822
5.14145,151276
5.14957,140782
5.15770,144416
5.16582,141253
5.17393,152526
5.18207,162699
5.19018,164350
5.19832,162429
5.20643,146960
5.21455,137690
5.22268,135151
5.23080,133838
5.23892,128686
5.24705,136397
5.25517,129586
5.26330,123495
5.27142,109654
5.27953,105251
5.28767,113133
5.29578,109348
5.30392,110106
5.31203,103477
5.32015,103601
5.32828,103575
5.33640,117439
5.34452,106400
5.35265,114578
5.36077,106027
5.36890,98624
5.37702,95498
5.38513,98709
5.39327,98564
5.40138,95393
5.40952,90225
5.41763,95519
5.42575,96973
5.43388,94491
5.44200,93484
5.45013,91180
5.45825,92699
5.46637,92876
5.47450,85757
5.48262,90015
5.49073,92115
5.49887,94004
5.50698,90895
5.51512,89416
5.52323,92941
5.53135,91853
5.53948,87866
5.54760,89456
5.55573,85443
5.56385,89974
5.57197,91691
5.58010,98916
5.58822,103839
5.59635,98388
5.60447,102711
5.61258,99003
5.62072,107672
5.62883,109488
5.63695,106887
5.64508,107697
5.65320,110525
5.66133,99820
5.66945,98902
5.67757,96306
5.68570,105531
5.69382,109654
5.70195,104611
5.71007,107478
5.71818,102318
5.72632,108805
5.73443,112087
5.74255,109465
5.75068,108783
5.75880,110793
5.76693,113885
5.77505,112484
5.78317,113557
5.79130,108849
5.79942,118633
5.80755,153562
5.81567,222994
5.82378,334236
5.83192,404649
5.84003,414399
5.84817,353313
5.85628,272680
5.86440,207267
5.87253,170027
5.88065,142250
5.88877,132390
5.89690,133286
5.90502,133665
5.91315,149618
5.92127,175577
5.92938,203760
5.93752,224183
5.94563,190226
5.95377,156283
5.96188,132062
5.97000,124527
5.97813,122558
5.98625,129217
5.99438,122310
6.00250,106655
6.01062,93784
6.01875,83950
6.02687,81143
6.03498,83658
6.04312,79398
6.05123,76205
6.05937,73925
6.06748,71991
6.07560,67271
6.08373,74127
6.09185,70855
6.09998,68563
6.10810,69934
6.11622,64873
6.12435,72835
6.13247,71188
6.14058,72459
6.14872,68753
6.15683,72054
6.16497,77173
6.17308,83049
6.18120,80976
6.18933,86902
6.19745,93892
6.20558,100535
6.21370,100781
6.22182,102567
6.22995,94381
6.23807,98276
6.24620,102599
6.25432,100135
6.26243,99858
6.27057,104523
6.27868,102566
6.28680,108890
6.29493,109445
6.30305,110506
6.31118,114435
6.31930,120439
6.32742,119279
6.33555,120969
6.34367,122285
6.35180,125955
6.35992,129146
6.36803,130829
6.37617,139125
6.38428,137399
6.39240,139054
6.40053,132688
6.40865,136866
6.41678,135719
6.42490,143006
6.43302,145901
6.44115,148568
6.44927,152448
6.45740,155532
6.46552,146230
6.47363,156675
6.48177,161150
6.48988,165274
6.49802,163913
6.50613,171923
6.51425,151865
6.52238,113379
6.53050,101909
6.53862,92563
6.54675,91742
6.55487,87233
6.56300,84791
6.57112,81136
6.57923,81314
6.58737,73958
6.59548,74233
6.60362,75889
6.61173,75076
6.61985,70380
6.62798,69894
6.63610,69296
6.64423,71914
6.65235,64298
6.66047,65253
6.66860,68438
6.67672,65768
6.68483,70265
6.69297,66379
6.70108,62742
6.70922,65708
6.71733,65472
6.72545,78946
6.73358,83499
6.74170,90219
6.74983,97299
6.75795,94906
6.76607,87686
6.77420,77036
6.78232,72139
6.79043,71189
6.79857,64196
6.80668,60743
6.81482,61100
6.82293,60106
6.83105,63047
6.83918,61635
6.84730,63685
6.85543,74816
6.86355,106208
6.87167,156200
6.87980,227303
6.88792,282308
6.89605,309475
6.90417,272606
6.91228,217912
6.92042,155849
6.92853,117190
6.93665,86293
6.94478,74821
6.95290,67909
6.96103,57257
6.96915,57665
6.97727,55497
6.98540,57588
6.99352,49363
7.00165,54700
7.00977,56949
7.01788,70684
7.02602,73870
7.03413,94971
7.04227,117239
7.05038,130681
7.05850,126267
7.06663,117285
7.07475,99685
7.08287,87890
7.09100,77084
7.09912,69896
7.10725,64410
7.11537,64699
7.12348,62586
7.13162,64700
7.13973,59068
7.14787,56151
7.15598,53893
7.16410,52562
7.17223,54035
7.18035,51177
7.18847,51064
7.19660,53431
7.20472,50741
7.21285,59519
7.22097,54810
7.22908,56211
7.23722,52638
7.24533,52912
7.25347,54950
7.26158,55492
7.26970,62177
7.27783,64269
7.28595,64980
7.29408,65946
7.30220,67604
7.31032,65890
7.31845,56017
7.32657,53420
7.33468,58691
7.34282,58140
7.35093,59722
7.35907,58850
7.36718,53716
7.37530,58519
7.38343,60741
7.39155,60447
7.39968,75371
7.40780,87149
7.41592,97591
7.42405,91928
7.43217,88006
7.44028,74115
7.44842,71284
7.45653,61372
7.46467,60241
7.47278,55120
7.48090,53208
7.48903,55682
7.49715,60926
7.50528,66971
7.51340,69228
7.52152,77746
7.52965,75105
7.53777,72047
7.54590,69000
7.55402,57024
7.56213,59773
7.57027,54431
7.57838,49025
7.58650,50504
7.59463,49306
7.60275,48803
7.61088,44938
7.61900,47677
7.62712,45913
7.63525,46497
7.64337,45573
7.65150,47838
7.65962,50145
7.66773,46436
7.67587,44693
7.68398,46296
7.69212,45347
7.70023,43507
7.70835,43792
7.71648,46406
7.72460,45415
7.73272,46782
7.74085,46545
7.74897,45285
7.75710,44251
7.76522,46930
7.77333,40981
7.78147,41970
7.78958,41566
7.79772,42987
7.80583,43570
7.81395,42236
7.82208,40325
7.83020,40248
7.83832,38112
7.84645,39081
7.85457,42451
7.86270,40335
7.87082,40479
7.87893,42037
7.88707,38724
7.89518,42302
7.90332,41563
7.91143,45915
7.91955,39431
7.92768,41563
7.93580,40289
7.94393,41860
7.95205,37491
7.96017,40760
7.96830,39829
7.97642,41501
7.98453,48372
7.99267,43050
8.00078,43973
8.00892,40213
8.01703,39619
8.02515,42059
8.03328,37601
8.04140,38290
8.04953,38370
8.05765,39429
8.06577,38530
8.07390,40107
8.08202,38012
8.09015,38196
8.09827,41466
8.10638,35220
8.11452,38110
8.12263,39343
8.13075,35776
8.13888,40371
8.14700,38326
8.15513,38980
8.16325,42491
8.17137,41877
8.17950,42283
8.18762,43091
8.19575,40602
8.20387,41512
8.21198,38262
8.22012,37319
8.22823,37005
8.23635,36264
8.24448,36991
8.25260,41637
8.26073,38872
8.26885,33405
8.27697,37661
8.28510,37316
8.29322,39707
8.30135,39682
8.30947,38362
8.31758,41596
8.32572,39751
8.33383,41114
8.34197,45891
8.35008,49907
8.35820,48661
8.36633,47537
8.37445,41737
8.38257,41530
8.39070,39234
8.39882,37901
8.40695,37427
8.41507,38192
8.42318,39111
8.43132,39072
8.43943,41358
8.44757,38518
8.45568,39860
8.46380,37101
8.47193,37708
8.48005,36636
8.48818,38729
8.49630,43609
8.50442,48438
8.51255,50020
8.52067,56150
8.52878,50996
8.53692,44122
8.54503,46994
8.55317,41802
8.56128,39497
8.56940,43769
8.57753,42377
8.58565,40981
8.59378,45081
8.60190,40701
8.61002,39127
8.61815,38091
8.62627,38763
8.63438,37451
8.64252,38997
8.65063,34887
8.65877,38188
8.66688,37704
8.67500,35613
8.68313,35086
8.69125,40796
8.69938,42222
8.70750,48338
8.71562,50229
8.72375,64532
8.73187,100087
8.74000,153609
8.74812,222067
8.75623,253397
8.76437,253660
8.77248,203735
8.78060,153844
8.78873,120623
8.79685,101046
8.80498,93485
8.81310,77497
8.82122,74968
8.82935,69055
8.83747,63249
8.84560,62279
8.85372,58176
8.86183,56029
8.86997,54618
8.87808,57020
8.88620,48545
8.89433,48162
8.90245,47951
8.91058,48074
8.91870,49744
8.92682,50138
8.93495,45342
8.94307,47520
8.95120,48033
8.95932,44166
8.96743,44371
8.97557,44853
8.98368,45832
8.99182,44295
8.99993,47278
9.00805,43600
9.01618,42562
9.02430,41575
9.03242,43385
9.04055,43353
9.04867,43628
9.05680,42178
9.06492,41137
9.07303,42026
9.08117,38341
9.08928,39851
9.09742,40264
9.10553,42045
9.11365,40130
9.12178,46247
9.12990,44808
9.13803,41185
9.14615,41864
9.15427,43420
9.16240,44846
9.17052,39457
9.17863,41124
9.18677,41200
9.19488,43385
9.20302,38166
9.21113,36995
9.21925,37556
9.22738,39427
9.23550,39777
9.24363,38932
9.25175,38547
9.25987,40376
9.26800,44213
9.27612,44126
9.28423,48154
9.29237,49889
9.30048,49085
9.30862,52219
9.31673,49839
9.32485,41007
9.33298,38714
9.34110,41328
9.34923,41432
9.35735,44103
9.36547,41315
9.37360,40030
9.38172,39881
9.38985,34607
9.39797,37038
9.40608,34942
9.41422,36484
9.42233,37140
9.43045,35026
9.43858,38273
9.44670,38858
9.45483,32237
9.46295,41078
9.47107,35386
9.47920,35052
9.48732,36481
9.49545,36590
9.50357,36657
9.51168,34757
9.51982,35002
9.52793,34149
9.53607,32147
9.54418,35697
9.55230,37265
9.56043,34128
9.56855,33830
9.57667,37670
9.58480,37779
9.59292,38792
9.60105,39397
9.60917,41654
9.61728,40931
9.62542,36965
9.63353,34552
9.64167,38912
9.64978,39686
9.65790,44818
9.66603,41288
9.67415,43623
9.68227,41221
9.69040,37115
9.69852,30885
9.70665,32090
9.71477,31213
9.72288,35055
9.73102,32070
9.73913,30089
9.74727,28001
9.75538,31268
9.76350,31610
9.77163,29333
9.77975,27471
9.78788,23186
9.79600,27591
9.80412,28462
9.81225,28826
9.82037,27051
9.82848,30845
9.83662,28938
9.84473,26215
9.85287,28131
9.86098,26654
9.86910,30429
9.87723,28543
9.88535,26318
9.89348,25551
9.90160,26809
9.90972,25690
9.91785,27550
9.92597,27687
9.93408,27359
9.94222,24289
9.95033,28871
9.95847,26530
9.96658,27356
9.97470,33196
9.98283,30396
9.99095,35289
9.99908,32931
10.00720,33048
10.01532,32002
10.02345,27025
10.03157,30540
10.03970,27644
10.04782,26045
10.05593,27525
10.06407,26428
10.07218,31344
10.08030,27792
10.08843,24919
10.09655,27189
10.10468,27083
10.11280,26096
10.12092,24091
10.12905,30714
10.13717,25039
10.14530,24373
10.15342,25041
10.16153,24851
10.16967,25969
10.17778,27642
10.18592,24770
10.19403,25887
10.20215,23571
10.21028,27194
10.21840,26835
10.22652,29706
10.23465,29890
10.24277,28557
10.25090,26619
10.25902,29832
10.26713,28958
10.27527,29828
10.28338,29979
10.29152,29255
10.29963,31405
10.30775,26424
10.31588,28523
10.32400,26548
10.33212,26770
10.34025,26781
10.34837,26923
10.35650,23296
10.36462,25902
10.37273,27213
10.38087,28756
10.38898,25055
10.39712,28530
10.40523,27774
10.41335,29758
10.42148,29830
10.42960,28598
10.43773,24755
10.44585,23528
10.45397,23852
10.46210,23131
10.47022,25673
10.47833,25996
10.48647,25973
10.49458,23032
10.50272,23441
10.51083,22830
10.51895,23860
10.52708,25389
10.53520,23986
10.54333,27229
10.55145,24755
10.55957,25290
10.56770,21646
10.57582,25970
10.58395,24611
10.59207,27415
10.60018,23944
10.60832,24999
10.61643,24744
10.62455,23387
10.63268,24698
10.64080,22092
10.64893,24922
10.65705,23790
10.66517,24912
10.67330,24999
10.68142,24108
10.68955,25839
10.69767,25517
10.70578,30712
10.71392,27423
10.72203,29279
10.73015,26408
10.73828,28281
10.74640,28904
10.75453,29721
10.76265,27968
10.77077,30398
10.77890,27626
10.78702,25903
10.79515,23473
10.80327,28680
10.81138,26358
10.81952,25055
10.82763,23754
10.83577,21864
10.84388,22397
10.85200,25781
10.86013,23832
10.86825,25477
10.87637,28021
10.88450,23702
10.89262,23680
10.90075,23252
10.90887,23433
10.91698,26328
10.92512,24315
10.93323,24410
10.94137,23277
10.94948,24996
10.95760,24620
10.96573,25684
10.97385,22508
10.98197,24226
10.99010,26445
10.99822,23865
11.00635,23477
11.01447,24877
11.02258,23315
11.03072,24036
11.03883,22072
11.04697,23494
11.05508,22146
11.06320,25394
11.07133,23018
11.07945,24462
11.08758,25770
11.09570,21376
11.10382,22342
11.11195,22069
11.12007,23781
11.12818,25059
11.13632,25018
11.14443,27545
11.15257,25505
11.16068,24830
11.16880,23620
11.17693,25522
11.18505,26156
11.19318,22962
11.20130,25437
11.20942,25139
11.21755,25977
11.22567,23743
11.23380,24862
11.24192,27142
11.25003,25206
11.25817,22867
11.26628,24860
11.27440,23260
11.28253,28184
11.29065,36238
11.29878,35318
11.30690,41457
11.31502,42358
11.32315,45675
11.33127,43343
11.33940,42830
11.34752,44185
11.35563,40002
11.36377,40208
11.37188,36359
11.38002,33868
11.38813,33671
11.39625,30248
11.40438,31540
11.41250,30224
11.42062,26337
11.42875,23292
11.43687,26336
11.44500,26397
11.45312,25965
11.46123,26276
11.46937,25710
11.47748,23615
11.48562,24973
11.49373,21531
11.50185,23156
11.50998,24416
11.51810,25626
11.52622,23790
11.53435,24053
11.54247,26273
11.55060,26677
11.55872,27387
11.56683,29521
11.57497,27278
11.58308,29581
11.59122,30444
11.59933,28609
11.60745,30681
11.61558,29276
11.62370,28729
11.63183,27907
11.63995,25156
11.64807,24271
11.65620,23060
11.66432,22504
11.67243,28030
11.68057,22481
11.68868,27223
11.69682,29409
11.70493,32574
11.71305,33945
11.72118,33515
11.72930,34372
11.73743,32826
11.74555,32168
11.75367,31644
11.76180,29386
11.76992,27574
11.77803,31153
11.78617,28056
11.79428,28860
11.80242,31215
11.81053,25160
11.81865,27343
11.82678,23190
11.83490,25540
11.84303,25444
11.85115,27123
11.85927,25429
11.86740,25418
11.87552,26375
11.88365,23383
11.89177,25859
11.89988,25791
11.90802,27708
11.91613,27757
11.92425,26599
11.93238,25795
11.94050,26724
11.94863,28222
11.95675,28122
11.96487,29087
11.97300,28108
11.98112,29900
11.98925,27762
11.99737,28005
12.00548,30063
12.01362,25577
12.02173,24777
12.02987,22686
12.03798,25745
12.04610,24677
12.05423,23426
12.06235,25265
12.07047,24784
12.07860,24529
12.08672,24892
12.09485,25547
12.10297,23025
12.11108,19692
12.11922,20929
12.12733,22540
12.13547,27766
12.14358,25703
12.15170,22594
12.15983,19596
12.16795,23497
12.17607,20692
12.18420,21709
12.19232,24529
12.20045,23340
12.20857,22446
12.21668,21354
12.22482,21015
12.23293,20301
12.24107,22386
12.24918,22004
12.25730,22028
12.26543,20142
12.27355,21309
12.28168,23396
12.28980,23078
12.29792,22576
12.30605,22144
12.31417,20143
12.32228,19788
12.33042,21283
12.33853,18481
12.34667,24603
12.35478,24434
12.36290,19759
12.37103,21287
12.37915,23512
12.38728,22391
12.39540,20596
12.40352,19959
12.41165,20047
12.41977,22702
12.42790,24435
12.43602,21252
12.44413,24715
12.45227,26490
12.46038,24367
12.46850,25994
12.47663,23074
12.48475,25077
12.49288,23888
12.50100,23836
12.50912,21551
12.51725,20950
12.52537,22610
12.53350,21858
12.54162,22901
12.54973,23887
12.55787,21300
12.56598,20447
12.57410,19679
12.58223,21506
12.59035,20279
12.59848,24868
12.60660,20203
12.61472,21793
12.62285,19977
12.63097,22713
12.63910,23489
12.64722,21396
12.65533,21018
12.66347,22213
12.67158,23002
12.67972,21248
12.68783,20445
12.69595,20229
12.70408,20297
12.71220,20266
12.72032,23242
12.72845,25848
12.73657,30590
12.74470,32060
12.75282,30599
12.76093,31087
12.76907,28395
12.77718,24622
12.78532,25521
12.79343,23947
12.80155,23293
12.80968,23883
12.81780,25860
12.82592,25196
12.83405,24731
12.84217,23845
12.85030,25305
12.85842,24807
12.86653,21558
12.87467,24458
12.88278,22837
12.89092,23150
12.89903,21996
12.90715,22262
12.91528,21145
12.92340,22680
12.93153,22909
12.93965,22392
12.94777,23330
12.95590,26176
12.96402,29086
12.97213,33746
12.98027,39518
12.98838,42980
12.99652,43401
13.00463,44436
13.01275,43421
13.02088,43455
13.02900,37973
13.03713,34875
13.04525,31362
13.05337,30106
13.06150,28784
13.06962,30680
13.07775,28918
13.08587,25193
13.09398,24891
13.10212,26628
13.11023,24847
13.11835,25970
13.12648,27856
13.13460,22324
13.14273,25814
13.15085,24074
13.15897,23903
13.16710,24094
13.17522,24294
13.18335,25376
13.19147,20348
13.19958,22779
13.20772,26020
13.21583,22374
13.22395,21165
13.23208,25478
13.24020,26614
13.24833,25171
13.25645,23974
13.26457,22963
13.27270,25584
13.28082,23942
13.28895,27605
13.29707,29097
13.30518,27773
13.31332,30507
13.32143,36441
13.32957,31464
13.33768,32438
13.34580,28392
13.35393,26009
13.36205,32973
13.37017,26772
13.37830,27987
13.38642,25789
13.39455,25171
13.40267,26021
13.41078,23147
13.41892,22969
13.42703,24347
13.43517,22619
13.44328,23529
13.45140,24164
13.45953,22655
13.46765,22859
13.47578,19971
13.48390,21920
13.49202,20768
13.50015,20419
13.50827,21133
13.51638,23023
13.52452,22584
13.53263,22194
13.54077,22785
13.54888,21741
13.55700,22873
13.56513,25354
13.57325,24532
13.58138,24270
13.58950,29707
13.59762,30567
13.60575,29041
13.61387,28191
13.62198,29843
13.63012,30898
13.63823,28514
13.64637,32800
13.65448,31967
13.66260,34198
13.67073,32425
13.67885,28461
13.68698,28227
13.69510,26843
13.70322,26786
13.71135,25533
13.71947,22086
13.72760,26372
13.73572,24954
13.74383,24376
13.75197,22390
13.76008,23572
13.76820,23100
13.77633,25337
13.78445,21863
13.79258,24743
13.80070,25789
13.80882,24446
13.81695,24819
13.82507,19973
13.83320,20080
13.84132,22889
13.84943,20494
13.85757,24300
13.86568,20810
13.87380,21411
13.88193,22569
13.89005,21422
13.89818,26677
13.90630,25586
13.91442,25555
13.92255,26288
13.93067,28385
13.93880,25701
13.94692,28193
13.95503,28382
13.96317,29651
13.97128,26122
13.97942,25332
13.98753,25989
13.99565,26806
14.00378,27778
14.01190,26995
14.02002,29415
14.02815,26398
14.03627,26097
14.04440,25957
14.05252,25802
14.06063,26744
14.06877,25955
14.07688,27288
14.08502,26421
14.09313,23745
14.10125,25999
14.10938,26676
14.11750,27507
14.12563,33721
14.13375,50516
14.14187,65643
14.15000,85654
14.15812,87249
14.16623,82759
14.17437,67926
14.18248,54636
14.19062,47914
14.19873,43861
14.20685,43095
14.21498,40836
14.22310,42013
14.23123,37063
14.23935,35030
14.24747,35949
14.25560,31994
14.26372,31348
14.27183,29822
14.27997,29883
14.28808,35654
14.29622,25153
14.30433,27801
14.31245,25071
14.32058,24422
14.32870,21987
14.33683,23064
14.34495,20933
14.35307,20941
14.36120,23708
14.36932,19917
14.37745,20838
14.38557,18165
14.39368,20915
14.40182,23308
14.40993,19828
14.41805,22345
14.42618,21539
14.43430,20575
14.44243,24104
14.45055,23356
14.45867,21079
14.46680,24562
14.47492,22341
14.48305,21305
14.49117,21352
14.49928,21483
14.50742,23274
14.51553,23169
14.52367,20099
14.53178,19491
14.53990,20778
14.54803,23120
14.55615,20889
14.56427,21048
14.57240,20565
14.58052,19858
14.58865,21429
14.59677,21720
14.60488,22268
14.61302,20046
14.62113,23970
14.62927,19780
14.63738,21239
14.64550,24291
14.65363,22515
14.66175,25219
14.66987,21286
14.67800,19843
14.68612,20088
14.69425,22122
14.70237,21852
14.71048,19910
14.71862,17378
14.72673,21491
14.73487,21982
14.74298,21038
14.75110,22565
14.75923,21403
14.76735,18596
14.77548,19897
14.78360,21141
14.79172,22314
14.79985,20966
14.80797,21902
14.81608,22465
14.82422,23391
14.83233,21796
14.84047,24139
14.84858,20322
14.85670,20868
14.86483,22611
14.87295,22373
14.88108,20789
14.88920,23556
14.89732,20429
14.90545,24113
14.91357,27283
14.92170,23198
14.92982,20795
14.93793,20156
14.94607,18336
14.95418,21318
14.96230,21487
14.97043,19542
14.97855,21481
14.98668,19054
14.99480,19425
15.00292,21137
15.01105,20958
15.01917,20754
15.02730,18710
15.03542,19041
15.04353,19605
15.05167,22266
15.05978,20971
15.06790,23131
15.07603,19981
15.08415,19305
15.09228,17606
15.10040,20218
15.10852,17319
15.11665,18546
15.12477,19873
15.13290,18306
15.14102,18590
15.14913,19569
15.15727,17443
15.16538,20147
15.17352,19853
15.18163,20305
15.18975,21725
15.19788,18855
15.20600,18718
15.21412,18772
15.22225,20164
15.23037,21470
15.23850,24057
15.24662,21393
15.25473,20144
15.26287,19905
15.27098,19295
15.27912,21321
15.28723,18896
15.29535,17815
15.30348,19206
15.31160,20417
15.31972,20319
15.32785,16434
15.33597,17582
15.34410,19165
15.35222,21510
15.36033,20670
15.36847,21899
15.37658,20437
15.38472,17972
15.39283,19660
15.40095,19275
15.40908,22465
15.41720,20109
15.42533,20625
15.43345,17119
15.44157,21093
15.44970,20837
15.45782,17806
15.46593,17459
15.47407,21013
15.48218,21631
15.49032,20086
15.49843,20778
15.50655,19109
15.51468,20612
15.52280,16213
15.53093,19997
15.53905,20292
15.54717,18220
15.55530,17446
15.56342,18432
15.57155,20385
15.57967,18600
15.58778,21039
15.59592,20613
15.60403,24442
15.61215,19978
15.62028,19676
15.62840,19081
15.63653,19685
15.64465,20034
15.65277,22871
15.66090,18924
15.66902,19253
15.67715,21207
15.68527,19802
15.69338,18539
15.70152,20688
15.70963,19253
15.71775,22313
15.72588,18547
15.73400,21280
15.74213,22281
15.75025,22197
15.75837,27267
15.76650,26257
15.77462,29309
15.78275,28862
15.79087,23189
15.79898,26807
15.80712,21903
15.81523,22246
15.82337,21004
15.83148,19389
15.83960,20325
15.84773,22896
15.85585,19261
15.86397,21147
15.87210,19471
15.88022,21747
15.88835,19463
15.89647,20433
15.90458,16323
15.91272,21139
15.92083,20525
15.92897,19799
15.93708,21810
15.94520,26602
15.95333,23959
15.96145,24777
15.96958,19422
15.97770,21746
15.98582,19608
15.99395,24671
16.00207,26219
16.01018,30517
16.01832,31532
16.02643,35692
16.03457,35486
16.04268,38260
16.05080,33677
16.05893,32916
16.06705,31138
16.07518,29058
16.08330,27815
16.09142,22123
16.09955,21827
16.10767,24790
16.11578,23953
16.12392,19901
16.13203,21628
16.14017,21444
16.14828,20033
16.15640,22123
16.16453,25907
16.17265,21941
16.18078,20687
16.18890,21238
16.19702,21558
16.20515,21571
16.21327,21143
16.22140,19744
16.22952,20912
16.23763,22163
16.24577,20689
16.25388,23292
16.26200,22167
16.27013,21502
16.27825,18885
16.28638,21868
16.29450,21924
16.30262,21348
16.31075,21513
16.31887,21300
16.32700,22211
16.33512,19540
16.34323,21594
16.35137,22125
16.35948,20898
16.36760,22583
16.37573,21646
16.38385,18568
16.39198,22002
16.40010,19609
16.40822,21434
16.41635,20808
16.42447,21524
16.43260,20412
16.44072,19999
16.44883,21911
16.45697,19715
16.46508,22785
16.47322,22692
16.48133,20602
16.48945,21814
16.49758,20582
16.50570,21046
16.51382,19988
16.52195,20975
16.53007,20451
16.53820,21811
16.54632,23560
16.55443,22116
16.56257,20845
16.57068,19955
16.57882,20551
16.58693,18766
16.59505,22859
16.60318,20376
16.61130,20196
16.61943,17142
16.62755,19863
16.63567,19920
16.64380,21311
16.65192,19966
16.66003,22127
16.66817,21664
16.67628,20686
16.68442,21947
16.69253,20391
16.70065,19172
16.70878,20688
16.71690,23199
16.72503,22360
16.73315,20727
16.74127,19505
16.74940,19292
16.75752,19297
16.76565,19510
16.77377,19038
16.78188,18211
16.79002,21838
16.79813,17855
16.80625,21895
16.81438,18920
16.82250,19806
16.83063,20871
16.83875,18703
16.84687,23274
16.85500,18573
16.86312,19925
16.87125,21467
16.87937,20733
16.88748,19388
16.89562,22139
16.90373,22287
16.91185,20336
16.91998,17832
16.92810,19951
16.93623,22370
16.94435,21785
16.95247,23736
16.96060,22826
16.96872,19942
16.97685,20340
16.98497,22426
16.99308,19765
17.00122,16193
17.00933,18757
17.01747,21422
17.02558,21162
17.03370,20125
17.04183,21880
17.04995,23373
17.05807,21705
17.06620,22803
17.07432,19321
17.08245,19490
17.09057,16295
17.09868,20331
17.10682,23539
17.11493,19876
17.12307,21010
17.13118,21831
17.13930,22301
17.14743,19593
17.15555,20594
17.16367,22051
17.17180,22073
17.17992,21851
17.18805,18837
17.19617,19317
17.20428,21089
17.21242,20872
17.22053,23496
17.22867,21880
17.23678,20887
17.24490,20721
17.25303,19358
17.26115,22845
17.26928,20903
17.27740,19976
17.28552,23696
17.29365,21251
17.30177,19466
17.30988,21743
17.31802,23147
17.32613,22315
17.33427,20586
17.34238,23177
17.35050,18132
17.35863,19973
17.36675,22724
17.37488,19880
17.38300,23501
17.39112,25737
17.39925,23719
17.40737,20967
17.41550,24793
17.42362,27063
17.43173,24444
17.43987,21785
17.44798,22145
17.45610,20478
17.46423,23874
17.47235,21204
17.48048,22325
17.48860,22007
17.49672,20269
17.50485,23792
17.51297,23301
17.52110,24245
17.52922,26409
17.53733,30104
17.54547,32451
17.55358,36668
17.56170,32436
17.56983,30414
17.57795,28124
17.58608,28894
17.59420,25560
17.60232,24409
17.61045,23897
17.61857,24603
17.62670,22958
17.63482,22863
17.64293,21138
17.65107,22872
17.65918,23243
17.66732,19475
17.67543,23798
17.68355,20633
17.69168,21831
17.69980,23135
17.70792,22424
17.71605,22041
17.72417,21440
17.73230,22105
17.74042,23391
17.74853,25350
17.75667,21775
17.76478,18340
17.77292,22628
17.78103,26175
17.78915,23795
17.79728,23235
17.80540,25004
17.81353,23948
17.82165,23794
17.82977,23199
17.83790,24502
17.84602,24670
17.85413,28101
17.86227,27568
17.87038,26602
17.87852,25015
17.88663,23426
17.89475,24298
17.90288,20870
17.91100,22806
17.91913,21430
17.92725,23386
17.93537,21041
17.94350,21554
17.95162,22137
17.95973,20317
17.96787,22661
17.97598,22736
17.98412,20767
17.99223,20960
18.00035,24414
18.00848,22278
18.01660,21860
18.02473,23477
18.03285,22176
18.04097,24968
18.04910,22511
18.05722,21167
18.06535,24292
18.07347,24007
18.08158,23414
18.08972,23650
18.09783,24744
18.10595,23921
18.11408,25912
18.12220,22331
18.13033,21558
18.13845,21094
18.14657,20842
18.15470,22743
18.16282,23762
18.17095,23124
18.17907,21063
18.18718,23236
18.19532,23141
18.20343,22663
18.21155,23113
18.21968,19124
18.22780,22011
18.23593,23265
18.24405,23712
18.25217,24595
18.26030,24110
18.26842,24007
18.27655,20653
18.28467,21471
18.29278,20574
18.30092,21475
18.30903,22790
18.31717,20948
18.32528,22835
18.33340,19610
18.34153,19495
18.34965,20842
18.35777,24212
18.36590,20712
18.37402,20878
18.38215,22318
18.39027,27343
18.39838,23104
18.40652,22260
18.41463,21306
18.42277,21122
18.43088,21237
18.43900,21346
18.44713,18447
18.45525,19564
18.46338,22472
18.47150,19311
18.47962,21330
18.48775,22196
18.49587,20402
18.50398,24014
18.51212,20801
18.52023,21987
18.52837,22416
18.53648,21963
18.54460,24146
18.55273,21534
18.56085,19821
18.56898,22057
18.57710,21472
18.58522,19661
18.59335,20745
18.60147,22468
18.60958,22906
18.61772,23499
18.62583,24237
18.63397,21901
18.64208,25165
18.65020,22162
18.65833,23839
18.66645,21564
18.67458,23150
18.68270,21534
18.69082,19563
18.69895,20890
18.70707,22371
18.71520,19759
18.72332,22353
18.73143,20980
18.73957,21913
18.74768,23382
18.75580,24477
18.76393,25017
18.77205,21177
18.78018,24068
18.78830,28539
18.79642,24824
18.80455,24087
18.81267,26745
18.82080,26780
18.82892,22936
18.83703,26178
18.84517,27790
18.85328,25471
18.86142,25279
18.86953,25968
18.87765,23871
18.88578,26127
18.89390,26812
18.90202,27195
18.91015,25742
18.91827,28115
18.92640,28236
18.93452,26218
18.94263,25846
18.95077,25320
18.95888,25613
18.96702,24191
18.97513,23822
18.98325,23767
18.99138,26049
18.99950,25712
19.00762,23703
19.01575,24907
19.02387,23873
19.03200,26003
19.04012,31900
19.04823,26684
19.05637,27807
19.06448,30470
19.07262,34639
19.08073,41652
19.08885,49261
19.09698,64658
19.10510,66919
19.11323,60663
19.12135,56387
19.12947,51671
19.13760,49226
19.14572,46110
19.15383,39239
19.16197,41095
19.17008,38761
19.17822,36568
19.18633,36600
19.19445,33381
19.20258,31814
19.21070,28049
19.21883,31635
19.22695,29858
19.23507,28168
19.24320,27202
19.25132,28361
19.25945,25372
19.26757,26699
19.27568,28848
19.28382,26698
19.29193,29182
19.30005,29801
19.30818,29446
19.31630,26406
19.32443,29075
19.33255,29821
19.34067,26861
19.34880,26753
19.35692,25419
19.36505,23605
19.37317,23632
19.38128,25562
19.38942,26996
19.39753,28144
19.40565,26833
19.41378,33755
19.42190,35938
19.43003,48755
19.43815,59368
19.44627,61351
19.45440,65000
19.46252,69091
19.47065,50315
19.47877,39444
19.48688,34682
19.49502,27351
19.50313,28321
19.51127,27866
19.51938,28293
19.52750,27102
19.53563,25370
19.54375,27939
19.55187,27214
19.56000,30214
19.56812,25796
19.57625,26159
19.58437,22027
19.59248,25054
19.60062,25990
19.60873,29857
19.61687,26242
19.62498,29804
19.63310,33597
19.64123,36585
19.64935,39456
19.65747,46889
19.66560,44885
19.67372,48981
19.68185,42111
19.68997,37938
19.69808,31582
19.70622,32713
19.71433,28519
19.72247,31627
19.73058,29719
19.73870,27980
19.74683,29013
19.75495,26913
19.76308,26180
19.77120,27263
19.77932,27688
19.78745,22731
19.79557,23192
19.80368,27597
19.81182,23524
19.81993,27557
19.82807,25409
19.83618,30050
19.84430,25691
19.85243,26611
19.86055,27341
19.86868,28817
19.87680,30340
19.88492,34165
19.89305,32997
19.90117,34410
19.90930,36613
19.91742,36555
19.92553,36523
19.93367,34599
19.94178,36617
19.94990,33193
19.95803,36382
19.96615,32132
19.97428,29892
19.98240,35410
19.99052,32662
19.99865,31977
20.00677,30915
20.01490,32781
20.02302,33761
20.03113,29428
20.03927,33495
20.04738,26342
20.05550,28904
20.06363,25032
20.07175,30564
20.07988,27085
20.08800,24601
20.09612,26081
20.10425,27217
20.11237,26095
20.12050,23664
20.12862,23912
20.13673,23704
20.14487,23045
20.15298,25566
20.16112,25571
20.16923,26933
20.17735,25910
20.18548,26964
20.19360,27971
20.20172,27892
20.20985,27494
20.21797,32523
20.22610,30173
20.23422,33913
20.24233,38887
20.25047,38642
20.25858,45416
20.26672,43088
20.27483,43009
20.28295,34958
20.29108,36051
20.29920,32772
20.30733,28636
20.31545,27240
20.32357,28013
20.33170,25985
20.33982,22293
20.34793,23770
20.35607,23220
20.36418,25009
20.37232,26814
20.38043,25684
20.38855,29671
20.39668,28768
20.40480,27533
20.41293,30001
20.42105,26850
20.42917,29378
20.43730,26673
20.44542,28912
20.45353,30230
20.46167,25922
20.46978,24950
20.47792,26820
20.48603,25628
20.49415,23663
20.50228,25032
20.51040,26843
20.51853,23795
20.52665,24686
20.53477,23805
20.54290,21792
20.55102,22961
20.55915,22447
20.56727,25039
20.57538,24691
20.58352,21968
20.59163,24207
20.59975,20532
20.60788,23730
20.61600,22749
20.62413,23183
20.63225,19197
20.64037,19751
20.64850,22378
20.65662,20676
20.66475,23859
20.67287,20996
20.68098,21772
20.68912,21326
20.69723,22255
20.70535,21768
20.71348,24131
20.72160,22182
20.72973,23149
20.73785,22751
20.74597,25994
20.75410,22926
20.76222,20979
20.77035,21761
20.77847,22661
20.78658,22009
20.79472,21522
20.80283,24048
20.81097,21768
20.81908,21819
20.82720,22582
20.83533,20666
20.84345,19983
20.85157,21972
20.85970,22038
20.86782,22722
20.87595,22454
20.88407,24014
20.89218,20305
20.90032,23101
20.90843,23695
20.91657,20592
20.92468,21842
20.93280,22504
20.94093,22938
20.94905,20605
20.95718,21298
20.96530,20473
20.97342,22302
20.98155,21049
20.98967,20435
20.99778,19606
21.00592,22530
21.01403,24774
21.02217,22919
21.03028,22404
21.03840,22112
21.04653,22014
21.05465,23088
21.06278,22518
21.07090,27004
21.07902,21391
21.08715,20924
21.09527,20270
21.10338,21388
21.11152,20768
21.11963,23475
21.12777,19267
21.13588,22448
21.14400,20960
21.15213,21082
21.16025,22882
21.16838,21701
21.17650,20443
21.18462,24561
21.19275,23254
21.20087,24312
21.20900,25740
21.21712,22420
21.22523,21886
21.23337,21386
21.24148,24306
21.24960,25557
21.25773,24756
21.26585,23663
21.27398,22156
21.28210,23989
21.29022,23958
21.29835,24528
21.30647,23558
21.31460,21830
21.32272,20927
21.33083,24133
21.33897,20221
21.34708,22376
21.35522,22291
21.36333,20846
21.37145,19135
21.37958,19419
21.38770,21333
21.39582,22723
21.40395,23147
21.41207,22670
21.42020,25885
21.42832,22380
21.43643,24801
21.44457,21817
21.45268,25498
21.46082,23173
21.46893,24016
21.47705,22239
21.48518,22474
21.49330,20534
21.50142,24285
21.50955,23531
21.51767,22667
21.52580,21727
21.53392,26126
21.54203,21777
21.55017,25632
21.55828,23488
21.56642,22816
21.57453,26938
21.58265,25649
21.59078,27760
21.59890,29296
21.60703,28736
21.61515,27855
21.62327,30631
21.63140,26176
21.63952,23303
21.64763,19976
21.65577,23528
21.66388,23462
21.67202,22702
21.68013,24080
21.68825,23430
21.69638,24379
21.70450,21996
21.71263,22847
21.72075,23482
21.72887,20458
21.73700,20846
21.74512,22605
21.75323,21872
21.76137,22680
21.76948,22200
21.77762,24916
21.78573,27704
21.79385,27345
21.80198,29205
21.81010,26007
21.81823,26129
21.82635,23819
21.83447,21612
21.84260,24980
21.85072,23150
21.85885,21530
21.86697,23932
21.87508,20569
21.88322,19769
21.89133,24290
21.89945,23821
21.90758,22900
21.91570,22570
21.92383,21051
21.93195,20280
21.94007,21702
21.94820,21837
21.95632,22387
21.96445,23481
21.97257,22898
21.98068,21991
21.98882,23347
21.99693,21486
22.00507,18414
22.01318,19663
22.02130,18809
22.02943,23279
22.03755,20821
22.04567,23271
22.05380,23107
22.06192,24666
22.07005,24063
22.07817,23029
22.08628,22158
22.09442,21744
22.10253,25473
22.11067,21483
22.11878,21784
22.12690,23594
22.13503,22212
22.14315,19805
22.15128,20990
22.15940,26267
22.16752,24447
22.17565,26283
22.18377,23492
22.19188,23429
22.20002,23461
22.20813,20270
22.21627,24055
22.22438,22642
22.23250,24703
22.24063,21568
22.24875,22943
22.25688,21408
22.26500,22741
22.27312,19653
22.28125,22311
22.28937,20043
22.29748,20505
22.30562,21717
22.31373,21919
22.32187,21964
22.32998,21120
22.33810,21925
22.34623,22391
22.35435,22019
22.36248,21298
22.37060,24060
22.37872,23183
22.38685,24615
22.39497,22435
22.40310,21488
22.41122,23577
22.41933,21031
22.42747,21349
22.43558,21732
22.44370,19520
22.45183,22374
22.45995,22194
22.46808,19905
22.47620,22952
22.48432,22886
22.49245,24562
22.50057,22489
22.50870,21244
22.51682,19373
22.52493,22921
22.53307,21099
22.54118,19353
22.54930,20374
22.55743,19667
22.56555,21651
22.57368,22858
22.58180,18563
22.58992,21000
22.59805,22511
22.60617,23700
22.61430,21325
22.62242,23139
22.63053,21182
22.63867,21597
22.64678,23332
22.65492,19038
22.66303,21209
22.67115,19026
22.67928,20979
22.68740,21820
22.69552,19651
22.70365,19356
22.71177,19888
22.71990,20793
22.72802,20219
22.73613,21766
22.74427,20643
22.75238,20899
22.76052,22002
22.76863,21213
22.77675,21293
22.78488,21020
22.79300,20228
22.80113,19714
22.80925,21236
22.81737,21546
22.82550,22275
22.83362,19988
22.84173,19348
22.84987,21230
22.85798,21164
22.86612,20723
22.87423,22432
22.88235,26076
22.89048,25636
22.89860,26084
22.90673,25693
22.91485,29136
22.92297,29568
22.93110,31563
22.93922,30820
22.94733,34590
22.95547,33787
22.96358,35493
22.97172,33197
22.97983,30843
22.98795,32095
22.99608,29486
23.00420,27620
23.01233,32062
23.02045,30426
23.02857,27883
23.03670,26528
23.04482,26478
23.05295,24706
23.06107,26170
23.06918,22784
23.07732,24152
23.08543,22585
23.09355,22865
23.10168,22438
23.10980,22347
23.11793,21835
23.12605,24439
23.13417,23651
23.14230,22735
23.15042,22594
23.15855,21241
23.16667,23357
23.17478,21411
23.18292,21697
23.19103,21064
23.19917,22129
23.20728,22884
23.21540,22385
23.22353,21450
23.23165,22088
23.23977,20629
23.24790,19960
23.25602,22315
23.26415,21690
23.27227,21620
23.28038,20368
23.28852,22827
23.29663,22795
23.30477,23276
23.31288,23907
23.32100,23230
23.32913,23656
23.33725,21442
23.34537,24254
23.35350,24247
23.36162,21559
23.36975,26177
23.37787,24950
23.38598,25363
23.39412,23862
23.40223,24093
23.41037,24898
23.41848,23106
23.42660,27417
23.43473,23387
23.44285,22413
23.45098,20220
23.45910,21674
23.46722,23823
23.47535,23597
23.48347,22946
23.49158,21171
23.49972,23820
23.50783,22574
23.51597,22186
23.52408,26804
23.53220,21082
23.54033,23805
23.54845,21135
23.55658,26196
23.56470,21874
23.57282,27791
23.58095,20929
23.58907,19064
23.59718,21958
23.60532,24043
23.61343,22851
23.62157,23325
23.62968,26970
23.63780,24064
23.64593,23568
23.65405,25795
23.66218,26638
23.67030,23808
23.67842,29272
23.68655,26318
23.69467,25855
23.70280,25848
23.71092,24978
23.71903,25831
23.72717,29430
23.73528,42453
23.74340,81082
23.75153,160978
23.75965,318023
23.76778,593625
23.77590,1016608
23.78402,1446507
23.79215,1601664
23.80027,1476612
23.80840,1231883
23.81652,940862
23.82463,707492
23.83277,541974
23.84088,421433
23.84902,332106
23.85713,272192
23.86525,224811
23.87338,201497
23.88150,171662
23.88962,153140
23.89775,129858
23.90587,128002
23.91400,112365
23.92212,107203
23.93023,98601
23.93837,94871
23.94648,87648
23.95462,82873
23.96273,81462
23.97085,71691
23.97898,74367
23.98710,69655
23.99522,66537
24.00335,64625
24.01147,59031
24.01960,61358
24.02772,59492
24.03583,56875
24.04397,54567
24.05208,56881
24.06022,53020
24.06833,51848
24.07645,51733
24.08458,53225
24.09270,50315
24.10083,47968
24.10895,47879
24.11707,51182
24.12520,47538
24.13332,44577
24.14143,42838
24.14957,45010
24.15768,43453
24.16582,47214
24.17393,49791
24.18205,45007
24.19018,43283
24.19830,40152
24.20643,41118
24.21455,40674
24.22267,42019
24.23080,38717
24.23892,36160
24.24705,40758
24.25517,40546
24.26328,38369
24.27142,37257
24.27953,35740
24.28765,36413
24.29578,37967
24.30390,42851
24.31203,45365
24.32015,59981
24.32827,61832
24.33640,64323
24.34452,57649
24.35265,53125
24.36077,45063
24.36888,34795
24.37702,33438
24.38513,32543
24.39325,32084
24.40138,33708
24.40950,29523
24.41763,31739
24.42575,32376
24.43387,35764
24.44200,33750
24.45012,34849
24.45825,36043
24.46637,33388
24.47448,31128
24.48262,29921
24.49073,32131
24.49887,31720
24.50698,30924
24.51510,33312
24.52323,29749
24.53135,27575
24.53947,30042
24.54760,28648
24.55572,27912
24.56385,29220
24.57197,31097
24.58008,29586
24.58822,28092
24.59633,27809
24.60447,25959
24.61258,29982
24.62070,27641
24.62883,27810
24.63695,31836
24.64507,29199
24.65320,28738
24.66132,26970
24.66945,27219
24.67757,27778
24.68568,32153
24.69382,29426
24.70193,29774
24.71007,28122
24.71818,27955
24.72630,26149
24.73443,24556
24.74255,25446
24.75068,28834
24.75880,29620
24.76692,25474
24.77505,29850
24.78317,26601
24.79128,26931
24.79942,31059
24.80753,33567
24.81567,27384
24.82378,30872
24.83190,26198
24.84003,28300
24.84815,27291
24.85628,28141
24.86440,28223
24.87252,25627
24.88065,25474
24.88877,29070
24.89690,21175
24.90502,25120
24.91313,27380
24.92127,26129
24.92938,23770
24.93750,25514
24.94563,23494
24.95375,28586
24.96188,22954
24.97000,28006
24.97812,27779
24.98625,28102
24.99437,23402
25.00250,23776
25.01062,25886
25.01873,23560
25.02687,27690
25.03498,27020
25.04310,24894
25.05123,24167
25.05935,24214
25.06748,23904
25.07560,23563
25.08372,28449
25.09185,22997
25.09997,25871
25.10810,26378
25.11622,25745
25.12433,26945
25.13247,26554
25.14058,25445
25.14872,25523
25.15683,23298
25.16495,22612
25.17308,27045
25.18120,27733
25.18932,24858
25.19745,22810
25.20557,26410
25.21370,23198
25.22182,23068
25.22993,26241
25.23807,23594
25.24618,23840
25.25432,23371
25.26243,24434
25.27055,22274
25.27868,25052
25.28680,26006
25.29493,23697
25.30305,27248
25.31117,29001
25.31930,28185
25.32742,27315
25.33553,24531
25.34367,26909
25.35178,26589
25.35992,26143
25.36803,24242
25.37615,27035
25.38428,23581
25.39240,24528
25.40053,24764
25.40865,24279
25.41677,29614
25.42490,23389
25.43302,23812
25.44113,24578
25.44927,22546
25.45738,24390
25.46552,23225
25.47363,22857
25.48175,24881
25.48988,23006
25.49800,25381
25.50613,23171
25.51425,23333
25.52237,21790
25.53050,21497
25.53862,23643
25.54675,21396
25.55487,22191
25.56298,24503
25.57112,25816
25.57923,20199
25.58735,20384
25.59548,22713
25.60360,24683
25.61173,26217
25.61985,22430
25.62797,22724
25.63610,21072
25.64422,21804
25.65235,23633
25.66047,21892
25.66858,20663
25.67672,21491
25.68483,21978
25.69297,22294
25.70108,19452
25.70920,19376
25.71733,23198
25.72545,23178
25.73357,20769
25.74170,24018
25.74982,21651
25.75795,22086
25.76607,21433
25.77418,21637
25.78232,22191
25.79043,22971
25.79857,20546
25.80668,22396
25.81480,21615
25.82293,21993
25.83105,20685
25.83917,22080
25.84730,21429
25.85542,21722
25.86355,24040
25.87167,24059
25.87978,20964
25.88792,22111
25.89603,22402
25.90417,19570
25.91228,25696
25.92040,22901
25.92853,19459
25.93665,22019
25.94478,20570
25.95290,21597
25.96102,19755
25.96915,23350
25.97727,22434
25.98538,22141
25.99352,23771
26.00163,24211
26.00977,21987
26.01788,22773
26.02600,22473
26.03413,20772
26.04225,21361
26.05038,23613
26.05850,21134
26.06662,23407
26.07475,21587
26.08287,21809
26.09098,20131
26.09912,22199
26.10723,21448
26.11537,25311
26.12348,21830
26.13160,23355
26.13973,22538
26.14785,25501
26.15598,26454
26.16410,25077
26.17222,23363
26.18035,22830
26.18847,25111
26.19660,22820
26.20472,24785
26.21283,20047
26.22097,25012
26.22908,20955
26.23720,23184
26.24533,20444
26.25345,20784
26.26158,22222
26.26970,20031
26.27782,20248
26.28595,21889
26.29407,21215
26.30220,20488
26.31032,21153
26.31843,22409
26.32657,22257
26.33468,23294
26.34282,20024
26.35093,22377
26.35905,22619
26.36718,20860
26.37530,24729
26.38342,23124
26.39155,24001
26.39967,21913
26.40780,20214
26.41592,18038
26.42403,20848
26.43217,19060
26.44028,23616
26.44842,20071
26.45653,20742
26.46465,21692
26.47278,23233
26.48090,22153
26.48902,21287
26.49715,19203
26.50527,22225
26.51340,19645
26.52152,22552
26.52963,22928
26.53777,21544
26.54588,20929
26.55402,21916
26.56213,21777
26.57025,21364
26.57838,23906
26.58650,22507
26.59463,24637
26.60275,19295
26.61087,19596
26.61900,18367
26.62712,23558
26.63523,21408
26.64337,20856
26.65148,20759
26.65962,20681
26.66773,22776
26.67585,21128
26.68398,21752
26.69210,23596
26.70023,21219
26.70835,20801
26.71647,19226
26.72460,22893
26.73272,23231
26.74085,23077
26.74897,22159
26.75708,23095
26.76522,22625
26.77333,22811
26.78145,23039
26.78958,22528
26.79770,20245
26.80583,23340
26.81395,22885
26.82207,20980
26.83020,20791
26.83832,21700
26.84645,21560
26.85457,21298
26.86268,22153
26.87082,22010
26.87893,21452
26.88705,20582
26.89518,19057
26.90330,21347
26.91143,22662
26.91955,22620
26.92767,20335
26.93580,22887
26.94392,28249
26.95205,40752
26.96017,59789
26.96828,87923
26.97642,130817
26.98453,178087
26.99267,210136
27.00078,243272
27.00890,246291
27.01703,217504
27.02515,190721
27.03327,162959
27.04140,128618
27.04952,104651
27.05765,86285
27.06577,74970
27.07388,68115
27.08202,57886
27.09013,59126
27.09827,49836
27.10638,46493
27.11450,42900
27.12263,39621
27.13075,36748
27.13887,37714
27.14700,36395
27.15512,33688
27.16325,34369
27.17137,35132
27.17948,35718
27.18762,33470
27.19573,31959
27.20387,33685
27.21198,29005
27.22010,29686
27.22823,29959
27.23635,30337
27.24448,31289
27.25260,32923
27.26072,30624
27.26885,29365
27.27697,30004
27.28508,25699
27.29322,30681
27.30133,28520
27.30947,26732
27.31758,24619
27.32570,25821
27.33383,25148
27.34195,24340
27.35008,25057
27.35820,23979
27.36632,23295
27.37445,24172
27.38257,22888
27.39070,28749
27.39882,26418
27.40693,27935
27.41507,24199
27.42318,24632
27.43130,26049
27.43943,27907
27.44755,28588
27.45568,22569
27.46380,22302
27.47192,23568
27.48005,23864
27.48817,25477
27.49630,25864
27.50442,23333
27.51253,25960
27.52067,24930
27.52878,23106
27.53692,24146
27.54503,23897
27.55315,24737
27.56128,24603
27.56940,24482
27.57752,23417
27.58565,22352
27.59377,23614
27.60190,21075
27.61002,22200
27.61813,24103
27.62627,22196
27.63438,27348
27.64252,23648
27.65063,26600
27.65875,25414
27.66688,23011
27.67500,21570
27.68312,23562
27.69125,20116
27.69937,23319
27.70750,24628
27.71562,22942
27.72373,28386
27.73187,23921
27.73998,24140
27.74812,23394
27.75623,24242
27.76435,20863
27.77248,24329
27.78060,24571
27.78873,23293
27.79685,22637
27.80497,23337
27.81310,23568
27.82122,22881
27.82933,21746
27.83747,22347
27.84558,28041
27.85372,26412
27.86183,22829
27.86995,22065
27.87808,19907
27.88620,22570
27.89433,25423
27.90245,22363
27.91057,22227
27.91870,24726
27.92682,22501
27.93493,21929
27.94307,25767
27.95118,22267
27.95932,21322
27.96743,22519
27.97555,28231
27.98368,22944
27.99180,25651
27.99993,20943
28.00805,21719
28.01617,24277
28.02430,24180
28.03242,22193
28.04055,25592
28.04867,23189
28.05678,23353
28.06492,20172
28.07303,22509
28.08115,21984
28.08928,25080
28.09740,29300
28.10553,26863
28.11365,28630
28.12177,29176
28.12990,26679
28.13802,25349
28.14615,22430
28.15427,23664
28.16238,23528
28.17052,23817
28.17863,23909
28.18675,21716
28.19488,20149
28.20300,21895
28.21113,21203
28.21925,25196
28.22737,23151
28.23550,23668
28.24362,24422
28.25175,29289
28.25987,34526
28.26798,42411
28.27612,55965
28.28423,60197
28.29237,69489
28.30048,83919
28.30860,86794
28.31673,91995
28.32485,95339
28.33297,94100
28.34110,85671
28.34922,85127
28.35735,75803
28.36547,69143
28.37358,66289
28.38172,61113
28.38983,53860
28.39797,50298
28.40608,47085
28.41420,40155
28.42233,40124
28.43045,41533
28.43858,36381
28.44670,33588
28.45482,33744
28.46295,33213
28.47107,34446
28.47918,29831
28.48732,32721
28.49543,30535
28.50357,26659
28.51168,28222
28.51980,28646
28.52793,28854
28.53605,27603
28.54418,28770
28.55230,28757
28.56042,28466
28.56855,26822
28.57667,25852
28.58480,28822
28.59292,26432
28.60103,29599
28.60917,28580
28.61728,26881
28.62540,26727
28.63353,23485
28.64165,29168
28.64978,29677
28.65790,31462
28.66602,28304
28.67415,33737
28.68227,35225
28.69040,42682
28.69852,41996
28.70663,41480
28.71477,38686
28.72288,32307
28.73100,29754
28.73913,26308
28.74725,28647
28.75538,25993
28.76350,25329
28.77162,23838
28.77975,24271
28.78787,25292
28.79600,23497
28.80412,22768
28.81223,20921
28.82037,22823
28.82848,26327
28.83662,25707
28.84473,24586
28.85285,22635
28.86098,24563
28.86910,27437
28.87722,27026
28.88535,29629
28.89347,24618
28.90160,27496
28.90972,26531
28.91783,25036
28.92597,24277
28.93408,23254
28.94222,24708
28.95033,25472
28.95845,25114
28.96658,25277
28.97470,28038
28.98282,26666
28.99095,30457
28.99907,25454
29.00720,23918
29.01532,26971
29.02343,25704
29.03157,27545
29.03968,24052
29.04782,26127
29.05593,23388
29.06405,23968
29.07218,23784
29.08030,25322
29.08843,23404
29.09655,21157
29.10467,25397
29.11280,23605
29.12092,23141
29.12903,22254
29.13717,22849
29.14528,21120
29.15342,23965
29.16153,25699
29.16965,23399
29.17778,23775
29.18590,24754
29.19403,22041
29.20215,23460
29.21027,24646
29.21840,21491
29.22652,22611
29.23465,25295
29.24277,25131
29.25088,24733
29.25902,20327
29.26713,22951
29.27525,23006
29.28338,26137
29.29150,23830
29.29963,24224
29.30775,27321
29.31587,23223
29.32400,23904
29.33212,23732
29.34025,21942
29.34837,21390
29.35648,21523
29.36462,22663
29.37273,22220
29.38085,24694
29.38898,23581
29.39710,23568
29.40523,23081
29.41335,25432
29.42147,25901
29.42960,23040
29.43772,20736
29.44585,24627
29.45397,23640
29.46208,23149
29.47022,27942
29.47833,23719
29.48647,25341
29.49458,21643
29.50270,23922
29.51083,22723
29.51895,27644
29.52707,21507
29.53520,24620
29.54332,24415
29.55145,21550
29.55957,27841
29.56768,25796
29.57582,23041
29.58393,24855
29.59207,24917
29.60018,22598
29.60830,22879
29.61643,23837
29.62455,24094
29.63268,26176
29.64080,23920
29.64892,21674
29.65705,21803
29.66517,22126
29.67328,23291
29.68142,20664
29.68953,22255
29.69767,21283
29.70578,20617
29.71390,23435
29.72203,23553
29.73015,22865
29.73828,21344
29.74640,23182
29.75452,19390
29.76265,23626
29.77077,21644
29.77888,21886
29.78702,22287
29.79513,24838
29.80327,22871
29.81138,20050
29.81950,20596
29.82763,22128
29.83575,22997
29.84388,21438
29.85200,22232
29.86012,24990
29.86825,24899
29.87637,27437
29.88450,29953
29.89262,34741
29.90073,39117
29.90887,41711
29.91698,41713
29.92510,47296
29.93323,50005
29.94135,48125
29.94948,54618
29.95760,55716
29.96572,54583
29.97385,56676
29.98197,50705
29.99010,46828
29.99822,43842
30.00633,44411
30.01447,40504
30.02258,39405
30.03070,41606
30.03883,38146
30.04695,36342
30.05508,34587
30.06320,34861
30.07132,36027
30.07945,31354
30.08757,30832
30.09570,31173
30.10382,29183
30.11193,31904
30.12007,29806
30.12818,28568
30.13632,27872
30.14443,30537
30.15255,26109
30.16068,27368
30.16880,27921
30.17692,30070
30.18505,26087
30.19317,25511
30.20130,28597
30.20942,25453
30.21753,29741
30.22567,26857
30.23378,28413
30.24192,25286
30.25003,25764
30.25815,26306
30.26628,22976
30.27440,27858
30.28253,24263
30.29065,25491
30.29877,24147
30.30690,22819
30.31502,20948
30.32313,26512
30.33127,24285
30.33938,24610
30.34752,25061
30.35563,25908
30.36375,28005
30.37188,25367
30.38000,23566
30.38813,23123
30.39625,24830
30.40437,24263
30.41250,22538
30.42062,25894
30.42873,24911
30.43687,23527
30.44498,24905
30.45312,25307
30.46123,24879
30.46935,24813
30.47748,25189
30.48560,22204
30.49373,21628
30.50185,24798
30.50997,23075
30.51810,24991
30.52622,24181
30.53435,23162
30.54247,24418
30.55058,24830
30.55872,25249
30.56683,22526
30.57495,23604
30.58308,22644
30.59120,24983
30.59933,26228
30.60745,27100
30.61557,23098
30.62370,23881
30.63182,23189
30.63995,24018
30.64807,23914
30.65618,25771
30.66432,30972
30.67243,24547
30.68057,22435
30.68868,24811
30.69680,21182
30.70493,23943
30.71305,21945
30.72117,20163
30.72930,22821
30.73742,27543
30.74555,24472
30.75367,23474
30.76178,25446
30.76992,24318
30.77803,22999
30.78617,24036
30.79428,23020
30.80240,22601
30.81053,23693
30.81865,25514
30.82677,23959
30.83490,24557
30.84302,24538
30.85115,22742
30.85927,23703
30.86738,26498
30.87552,23157
30.88363,23991
30.89177,23275
30.89988,23370
30.90800,23295
30.91613,24412
30.92425,23252
30.93238,23211
30.94050,24787
30.94862,24295
30.95675,23931
30.96487,23824
30.97298,20720
30.98112,22418
30.98923,21712
30.99737,23349
31.00548,27772
31.01360,25632
31.02173,26633
31.02985,23459
31.03798,24481
31.04610,22200
31.05422,23735
31.06235,25294
31.07047,25919
31.07860,28776
31.08672,27998
31.09483,29910
31.10297,27715
31.11108,29928
31.11920,28118
31.12733,25943
31.13545,25087
31.14358,25628
31.15170,25426
31.15982,24546
31.16795,27108
31.17607,32908
31.18420,42088
31.19232,54091
31.20043,56104
31.20857,61737
31.21668,59911
31.22480,54542
31.23293,44904
31.24105,39122
31.24918,32585
31.25730,27989
31.26542,25259
31.27355,27630
31.28167,24406
31.28980,25790
31.29792,24073
31.30603,25170
31.31417,25276
31.32228,23818
31.33042,25909
31.33853,25502
31.34665,26014
31.35478,25579
31.36290,26674
31.37102,25307
31.37915,21590
31.38727,26015
31.39540,26536
31.40352,25324
31.41163,22875
31.41977,27599
31.42788,25091
31.43602,23367
31.44413,28456
31.45225,23853
31.46038,24148
31.46850,22010
31.47662,24863
31.48475,25163
31.49287,24174
31.50100,22928
31.50912,23776
31.51723,24547
31.52537,23486
31.53348,22562
31.54162,22508
31.54973,22261
31.55785,25399
31.56598,23341
31.57410,21565
31.58223,24104
31.59035,23654
31.59847,22710
31.60660,25733
31.61472,23953
31.62283,26104
31.63097,24203
31.63908,27727
31.64722,25220
31.65533,24148
31.66345,24830
31.67158,23021
31.67970,27229
31.68783,25738
31.69595,26077
31.70407,27245
31.71220,26863
31.72032,26484
31.72845,28590
31.73657,24318
31.74468,25371
31.75282,26379
31.76093,24884
31.76905,26723
31.77718,27883
31.78530,29136
31.79343,25060
31.80155,26600
31.80967,27584
31.81780,27020
31.82592,24911
31.83405,30884
31.84217,34308
31.85028,37739
31.85842,39267
31.86653,42617
31.87465,43098
31.88278,43496
31.89090,45124
31.89903,43288
31.90715,47502
31.91527,38519
31.92340,40523
31.93152,40972
31.93965,41144
31.94777,39390
31.95588,36189
31.96402,36918
31.97213,34573
31.98027,33326
31.98838,30729
31.99650,31040
32.00463,31113
32.01275,30717
32.02087,30793
32.02900,28778
32.03712,30744
32.04525,28920
32.05337,28799
32.06148,30225
32.06962,25897
32.07773,29039
32.08587,30944
32.09398,26516
32.10210,29651
32.11023,24977
32.11835,29187
32.12648,25216
32.13460,28021
32.14272,25962
32.15085,26746
32.15897,22477
32.16708,27059
32.17522,26530
32.18333,26332
32.19147,26578
32.19958,26991
32.20770,26477
32.21583,23175
32.22395,24691
32.23208,28099
32.24020,26582
32.24832,21961
32.25645,24185
32.26457,24091
32.27268,22282
32.28082,23299
32.28893,23991
32.29707,24754
32.30518,27033
32.31330,24912
32.32143,22091
32.32955,24957
32.33768,26520
32.34580,26745
32.35392,23252
32.36205,24681
32.37017,27210
32.37830,25822
32.38642,27110
32.39453,26153
32.40267,25265
32.41078,25274
32.41890,23575
32.42703,24740
32.43515,25659
32.44328,25921
32.45140,29354
32.45952,29502
32.46765,23591
32.47577,23908
32.48390,23301
32.49202,25963
32.50013,27149
32.50827,25461
32.51638,24447
32.52450,24959
32.53263,26298
32.54075,25765
32.54888,27320
32.55700,28781
32.56512,29637
32.57325,34460
32.58137,35043
32.58950,36601
32.59762,35055
32.60573,33327
32.61387,30731
32.62198,28633
32.63012,25779
32.63823,26456
32.64635,25328
32.65448,27462
32.66260,26122
32.67072,24802
32.67885,27000
32.68697,25193
32.69510,22194
32.70322,25098
32.71133,25294
32.71947,29647
32.72758,25402
32.73572,27628
32.74383,29429
32.75195,24608
32.76008,25808
32.76820,24581
32.77633,25768
32.78445,24752
32.79257,26096
32.80070,27444
32.80882,25921
32.81693,28594
32.82507,23031
32.83318,23608
32.84132,24319
32.84943,23988
32.85755,26630
32.86568,26210
32.87380,24470
32.88193,27732
32.89005,25224
32.89817,22937
32.90630,21419
32.91442,23171
32.92253,24895
32.93067,24420
32.93878,26473
32.94692,26920
32.95503,27162
32.96315,25436
32.97128,23885
32.97940,27382
32.98753,28995
32.99565,26241
33.00377,26463
33.01190,27058
33.02002,24998
33.02815,28193
33.03627,23820
33.04438,27859
33.05252,24160
33.06063,24859
33.06875,28435
33.07688,25469
33.08500,28280
33.09313,32910
33.10125,33549
33.10937,38456
33.11750,40573
33.12562,35702
33.13375,36126
33.14187,29717
33.14998,30149
33.15812,25879
33.16623,27656
33.17437,26691
33.18248,27262
33.19060,28158
33.19873,27187
33.20685,27795
33.21497,26529
33.22310,26667
33.23122,29358
33.23935,26020
33.24747,25795
33.25558,25321
33.26372,26147
33.27183,25684
33.27997,27994
33.28808,27838
33.29620,24929
33.30433,27499
33.31245,29349
33.32057,27393
33.32870,25334
33.33682,25429
33.34495,26389
33.35307,27589
33.36118,26765
33.36932,28427
33.37743,26052
33.38557,27312
33.39368,26019
33.40180,29584
33.40993,28142
33.41805,25576
33.42618,26818
33.43430,27576
33.44242,26126
33.45055,27285
33.45867,22861
33.46678,30185
33.47492,26744
33.48303,25648
33.49117,24729
33.49928,27160
33.50740,28857
33.51553,27196
33.52365,25812
33.53178,28192
33.53990,26470
33.54802,25838
33.55615,24983
33.56427,27402
33.57238,28000
33.58052,29983
33.58863,27960
33.59677,26003
33.60488,26575
33.61300,28144
33.62113,28011
33.62925,28481
33.63738,31920
33.64550,29253
33.65362,27358
33.66175,31934
33.66987,29523
33.67800,29739
33.68612,31446
33.69423,29728
33.70237,29951
33.71048,29710
33.71860,29671
33.72673,31262
33.73485,31798
33.74298,31908
33.75110,29376
33.75922,29361
33.76735,30997
33.77547,34514
33.78360,28816
33.79172,29645
33.79983,28065
33.80797,30959
33.81608,30255
33.82422,32896
33.83233,33032
33.84045,28859
33.84858,33688
33.85670,30860
33.86482,30955
33.87295,30904
33.88107,34659
33.88920,33461
33.89732,31958
33.90543,33790
33.91357,32716
33.92168,28740
33.92982,30384
33.93793,27308
33.94605,28554
33.95418,29744
33.96230,28131
33.97043,27332
33.97855,27744
33.98667,30131
33.99480,30983
34.00292,32863
34.01103,28927
34.01917,30195
34.02728,28155
34.03542,30259
34.04353,30119
34.05165,29527
34.05978,31404
34.06790,27902
34.07603,29627
34.08415,31798
34.09227,28092
34.10040,27977
34.10852,30359
34.11663,28931
34.12477,28819
34.13288,29488
34.14102,31146
34.14913,32720
34.15725,31068
34.16538,29643
34.17350,29654
34.18163,30572
34.18975,28232
34.19787,29913
34.20600,29734
34.21412,29455
34.22225,27959
34.23037,29101
34.23848,29178
34.24662,29171
34.25473,30100
34.26285,28284
34.27098,29573
34.27910,28727
34.28723,30105
34.29535,31078
34.30347,31521
34.31160,29944
34.31972,29061
34.32785,29070
34.33597,30810
34.34408,29849
34.35222,32039
34.36033,29716
34.36845,26882
34.37658,29756
34.38470,27540
34.39283,30566
34.40095,32111
34.40907,30860
34.41720,31975
34.42532,32531
34.43345,33985
34.44157,36721
34.44968,43225
34.45782,46458
34.46593,51671
34.47407,50607
34.48218,55823
34.49030,53980
34.49843,52029
34.50655,46734
34.51467,45055
34.52280,47291
34.53092,47513
34.53905,43481
34.54717,39760
34.55528,39600
34.56342,40758
34.57153,37281
34.57967,40228
34.58778,34348
34.59590,37600
34.60403,37303
34.61215,35729
34.62028,35613
34.62840,34943
34.63652,36853
34.64465,36639
34.65277,37664
34.66088,36850
34.66902,34369
34.67713,30427
34.68527,34699
34.69338,33878
34.70150,30353
34.70963,32305
34.71775,31519
34.72588,30034
34.73400,33520
34.74212,31934
34.75025,31538
34.75837,28536
34.76648,33094
34.77462,31826
34.78273,33578
34.79087,31465
34.79898,28725
34.80710,28225
34.81523,33661
34.82335,32976
34.83148,31506
34.83960,34227
34.84772,30796
34.85585,31931
34.86397,32959
34.87210,30110
34.88022,32191
34.88833,37011
34.89647,31690
34.90458,31953
34.91270,33299
34.92083,32778
34.92895,31009
34.93708,33448
34.94520,32218
34.95332,29294
34.96145,29355
34.96957,35391
34.97770,32254
34.98582,34853
34.99393,32080
35.00207,31897
35.01018,32960
35.01832,32165
35.02643,32622
35.03455,32904
35.04268,31636
35.05080,31776
35.05892,34772
35.06705,30839
35.07517,33475
35.08330,35894
35.09142,31379
35.09953,30297
35.10767,32094
35.11578,34223
35.12392,31468
35.13203,32514
35.14015,31260
35.14828,34111
35.15640,32991
35.16452,35332
35.17265,32984
35.18077,33187
35.18890,31848
35.19702,33939
35.20513,35030
35.21327,33731
35.22138,29276
35.22952,30209
35.23763,29456
35.24575,31869
35.25388,33691
35.26200,33395
35.27013,31296
35.27825,30909
35.28637,33814
35.29450,35533
35.30262,28470
35.31073,32465
35.31887,32653
35.32698,31636
35.33512,31505
35.34323,34637
35.35135,34444
35.35948,33148
35.36760,33090
35.37573,31141
35.38385,34231
35.39197,30034
35.40010,31665
35.40822,32399
35.41633,33705
35.42447,34539
35.43258,35735
35.44072,34426
35.44883,33752
35.45695,33692
35.46508,32146
35.47320,37418
35.48133,35673
35.48945,35905
35.49757,36059
35.50570,34990
35.51382,40041
35.52195,34171
35.53007,38954
35.53818,35865
35.54632,33834
35.55443,36316
35.56255,33620
35.57068,35872
35.57880,37350
35.58693,35894
35.59505,33699
35.60317,37497
35.61130,36208
35.61942,35133
35.62755,34240
35.63567,33059
35.64378,35676
35.65192,36800
35.66003,33911
35.66817,32016
35.67628,37867
35.68440,35994
35.69253,35178
35.70065,34740
35.70877,32762
35.71690,35709
35.72502,34634
35.73315,33435
35.74127,36176
35.74938,35448
35.75752,35571
35.76563,35250
35.77377,34906
35.78188,35676
35.79000,34532
35.79813,36522
35.80625,35329
35.81437,38382
35.82250,34368
35.83062,35821
35.83875,36189
35.84687,33522
35.85498,37193
35.86312,36207
35.87123,37449
35.87937,36031
35.88748,36491
35.89560,35976
35.90373,37888
35.91185,38390
35.91998,35166
35.92810,33419
35.93622,35595
35.94435,37974
35.95247,36529
35.96058,39468
35.96872,37311
35.97683,34270
35.98497,38577
35.99308,39665
36.00120,39874
36.00933,37802
36.01745,40615
36.02558,39407
36.03370,37441
36.04182,39274
36.04995,38563
36.05807,34728
36.06620,39968
36.07432,37539
36.08243,40653
36.09057,38960
36.09868,39158
36.10680,43379
36.11493,39440
36.12305,41539
36.13118,39836
36.13930,40546
36.14742,37815
36.15555,39783
36.16367,43434
36.17180,37284
36.17992,44850
36.18803,37993
36.19617,42377
36.20428,45767
36.21240,48773
36.22053,52208
36.22865,53295
36.23678,55000
36.24490,51579
36.25302,47047
36.26115,46535
36.26927,44053
36.27740,39452
36.28552,41495
36.29363,40375
36.30177,40989
36.30988,37160
36.31802,41200
36.32613,40584
36.33425,42458
36.34238,40657
36.35050,42290
36.35862,43370
36.36675,41587
36.37487,42382
36.38300,40974
36.39112,39957
36.39923,43133
36.40737,39212
36.41548,41868
36.42362,42819
36.43173,37919
36.43985,42035
36.44798,41879
36.45610,41324
36.46422,40443
36.47235,44348
36.48047,42184
36.48860,45162
36.49672,43810
36.50483,42747
36.51297,41293
36.52108,40677
36.52922,43197
36.53733,41581
36.54545,42252
36.55358,40942
36.56170,45198
36.56983,44827
36.57795,44413
36.58607,43459
36.59420,45187
36.60232,42619
36.61043,45577
36.61857,43817
36.62668,43648
36.63482,44282
36.64293,46300
36.65105,44813
36.65918,44698
36.66730,41163
36.67543,42162
36.68355,43247
36.69167,43402
36.69980,46882
36.70792,46860
36.71605,46854
36.72417,43342
36.73228,44303
36.74042,42769
36.74853,47305
36.75665,44394
36.76478,45099
36.77290,44494
36.78103,45893
36.78915,40638
36.79727,42936
36.80540,43982
36.81352,44304
36.82165,43667
36.82977,46277
36.83788,44661
36.84602,39850
36.85413,44235
36.86225,50264
36.87038,45526
36.87850,41182
36.88663,43764
36.89475,46909
36.90287,45453
36.91100,47595
36.91912,44132
36.92725,45053
36.93537,45532
36.94348,48580
36.95162,45674
36.95973,48365
36.96787,48292
36.97598,48664
36.98410,46101
36.99223,48298
37.00035,48807
37.00847,56828
37.01660,58538
37.02472,60796
37.03285,58547
37.04097,59590
37.04908,55564
37.05722,52864
37.06533,50968
37.07347,49811
37.08158,48106
37.08970,45116
37.09783,48541
37.10595,51696
37.11408,48510
37.12220,48926
37.13032,49522
37.13845,53136
37.14657,49609
37.15468,49339
37.16282,46840
37.17093,48008
37.17907,46534
37.18718,51174
37.19530,47310
37.20343,47602
37.21155,50346
37.21968,48068
37.22780,48756
37.23592,54648
37.24405,56840
37.25217,61725
37.26028,65335
37.26842,72021
37.27653,76419
37.28467,71422
37.29278,67980
37.30090,67784
37.30903,63444
37.31715,59686
37.32528,59618
37.33340,53513
37.34152,55970
37.34965,55419
37.35777,58948
37.36590,53393
37.37402,53452
37.38213,55323
37.39027,51690
37.39838,55600
37.40650,57636
37.41463,52853
37.42275,51709
37.43088,54296
37.43900,52421
37.44712,55364
37.45525,52586
37.46337,49989
37.47150,49067
37.47962,50051
37.48773,51601
