C:\MassHunter\GCMS\1\data\JTB-E02\BACandBLUE\JTB-E18-015-12.D Wed Jun 26 14:29:00 2019
Start of data points
2.09510	42766
2.10323	46831
2.11135	46069
2.11947	42306
2.12760	43794
2.13572	43402
2.14385	44988
2.15197	46669
2.16008	43911
2.16822	43500
2.17633	42774
2.18447	44268
2.19258	41960
2.20070	47462
2.20883	122040
2.21695	403940
2.22507	505216
2.23320	670983
2.24132	447255
2.24945	266699
2.25757	201513
2.26568	176749
2.27382	235267
2.28193	241851
2.29007	226724
2.29818	168884
2.30630	140180
2.31443	125026
2.32255	115188
2.33068	104761
2.33880	104922
2.34692	99423
2.35505	98345
2.36317	93707
2.37128	93869
2.37942	92754
2.38753	85911
2.39567	81059
2.40378	83294
2.41190	80604
2.42003	80042
2.42815	84581
2.43628	94719
2.44440	99922
2.45252	95897
2.46065	90091
2.46877	81853
2.47688	80972
2.48502	76184
2.49313	80182
2.50127	98005
2.50938	113841
2.51750	143154
2.52563	133075
2.53375	108008
2.54188	113461
2.55000	213863
2.55812	333144
2.56625	457487
2.57437	417559
2.58250	271994
2.59062	192495
2.59873	152212
2.60687	127361
2.61498	114130
2.62310	102800
2.63123	100639
2.63935	94266
2.64748	95429
2.65560	87419
2.66372	81860
2.67185	78993
2.67997	80275
2.68810	77051
2.69622	74893
2.70433	76740
2.71247	74564
2.72058	91905
2.72872	143164
2.73683	181712
2.74495	209636
2.75308	170942
2.76120	146117
2.76932	137424
2.77745	133543
2.78557	117807
2.79370	111428
2.80182	93494
2.80993	91024
2.81807	82825
2.82618	84346
2.83432	78249
2.84243	77071
2.85055	74424
2.85868	72969
2.86680	73896
2.87492	70138
2.88305	70172
2.89117	69965
2.89930	69301
2.90742	69559
2.91553	77072
2.92367	79420
2.93178	77278
2.93992	73582
2.94803	75452
2.95615	79817
2.96428	76540
2.97240	72597
2.98053	69602
2.98865	66605
2.99677	65558
3.00490	67909
3.01302	66605
3.02113	77035
3.02927	172009
3.03738	527649
3.04552	1249122
3.05363	2543264
3.06175	3675814
3.06988	4222757
3.07800	3447525
3.08613	2287492
3.09425	1627309
3.10237	1271544
3.11050	1045158
3.11862	874084
3.12675	807466
3.13487	918692
3.14298	1227824
3.15112	1577176
3.15923	1599345
3.16735	1245266
3.17548	968051
3.18360	787726
3.19173	668139
3.19985	586247
3.20797	507360
3.21610	463449
3.22422	425417
3.23235	401340
3.24047	530597
3.24858	1101809
3.25672	2335674
3.26483	3859273
3.27295	4390411
3.28108	3801178
3.28920	2788255
3.29733	2054999
3.30545	1616449
3.31357	1342949
3.32170	1168577
3.32982	1000045
3.33795	922384
3.34607	835702
3.35418	776924
3.36232	703447
3.37043	660927
3.37857	617589
3.38668	582113
3.39480	557842
3.40293	523615
3.41105	505288
3.41917	507182
3.42730	503156
3.43542	504160
3.44355	480403
3.45167	461551
3.45978	436973
3.46792	407690
3.47603	400116
3.48417	399884
3.49228	409689
3.50040	396531
3.50853	391487
3.51665	376355
3.52477	369398
3.53290	372037
3.54102	353840
3.54915	352693
3.55727	331732
3.56538	333946
3.57352	327076
3.58163	333876
3.58977	334218
3.59788	333401
3.60600	330266
3.61413	480725
3.62225	1347023
3.63038	3289617
3.63850	5270767
3.64662	5681109
3.65475	4366419
3.66287	2895804
3.67098	2088110
3.67912	1722427
3.68723	1461644
3.69537	1281429
3.70348	1150284
3.71160	1063183
3.71973	995952
3.72785	932122
3.73598	868865
3.74410	821017
3.75222	855924
3.76035	1105126
3.76847	1656266
3.77660	2184527
3.78472	2224703
3.79283	1786948
3.80097	1364208
3.80908	1131716
3.81720	990947
3.82533	897187
3.83345	821448
3.84158	761894
3.84970	735502
3.85782	685022
3.86595	680277
3.87407	733895
3.88220	826170
3.89032	906687
3.89843	904641
3.90657	1088176
3.91468	1658225
3.92280	2491566
3.93093	2826033
3.93905	2480392
3.94718	1975506
3.95530	2615080
3.96342	5162300
3.97155	8696997
3.97967	1.028587E+07
3.98780	8618736
3.99592	5617776
4.00403	3415965
4.01217	2291327
4.02028	1735188
4.02842	1416318
4.03653	1215303
4.04465	1039771
4.05278	942099
4.06090	843145
4.06902	780265
4.07715	723333
4.08527	682273
4.09340	696872
4.10152	783051
4.10963	911379
4.11777	959310
4.12588	887779
4.13402	795027
4.14213	696312
4.15025	625898
4.15838	631474
4.16650	1031460
4.17463	2930555
4.18275	6832512
4.19087	1.126953E+07
4.19900	1.437426E+07
4.20712	1.491011E+07
4.21523	1.217745E+07
4.22337	8033269
4.23148	5185594
4.23962	3668669
4.24773	2795195
4.25585	2247300
4.26398	1883946
4.27210	1622425
4.28023	1422777
4.28835	1304614
4.29647	1180309
4.30460	1098100
4.31272	1046698
4.32083	1014136
4.32897	958253
4.33708	915731
4.34522	852454
4.35333	761386
4.36145	729734
4.36958	687592
4.37770	647711
4.38583	630290
4.39395	607102
4.40207	575158
4.41020	560124
4.41832	535943
4.42645	526158
4.43457	501149
4.44268	485484
4.45082	484895
4.45893	469224
4.46705	450083
4.47518	438537
4.48330	425492
4.49143	410879
4.49955	418687
4.50767	396223
4.51580	406834
4.52392	403486
4.53205	376348
4.54017	376433
4.54828	364652
4.55642	357743
4.56453	348733
4.57265	354715
4.58078	395681
4.58890	470881
4.59703	657636
4.60515	844320
4.61327	869983
4.62140	751905
4.62952	595834
4.63765	499573
4.64577	439158
4.65388	409321
4.66202	385966
4.67013	350771
4.67827	340012
4.68638	327890
4.69450	315919
4.70263	306600
4.71075	299082
4.71887	301148
4.72700	299828
4.73512	295328
4.74325	278942
4.75137	293249
4.75948	299930
4.76762	329988
4.77573	337579
4.78387	338759
4.79198	331091
4.80010	323624
4.80823	346073
4.81635	351743
4.82448	341510
4.83260	320329
4.84072	304824
4.84885	287673
4.85697	274477
4.86508	273477
4.87322	261898
4.88133	257900
4.88947	263187
4.89758	280834
4.90570	405197
4.91383	753670
4.92195	1411623
4.93008	2251093
4.93820	2741673
4.94632	2593039
4.95445	2092981
4.96257	1544063
4.97070	1170724
4.97882	975845
4.98693	887327
4.99507	957677
5.00318	1195246
5.01130	1412342
5.01943	1382934
5.02755	1204035
5.03568	1014399
5.04380	864016
5.05192	760616
5.06005	703938
5.06817	661238
5.07630	620449
5.08442	579446
5.09253	569051
5.10067	524032
5.10878	517833
5.11690	529896
5.12503	560288
5.13315	585566
5.14128	595242
5.14940	560998
5.15752	548232
5.16565	546584
5.17377	563201
5.18190	573157
5.19002	545174
5.19813	508377
5.20627	499896
5.21438	479425
5.22252	450508
5.23063	417653
5.23875	400840
5.24688	371369
5.25500	358738
5.26312	351908
5.27125	333252
5.27937	337803
5.28750	343468
5.29562	359817
5.30373	383495
5.31187	421351
5.31998	399677
5.32812	376347
5.33623	346787
5.34435	333139
5.35248	330288
5.36060	330288
5.36872	333802
5.37685	326343
5.38497	321462
5.39310	311951
5.40122	300531
5.40933	301795
5.41747	310152
5.42558	308066
5.43372	298109
5.44183	299807
5.44995	286777
5.45808	277807
5.46620	276779
5.47433	270497
5.48245	286437
5.49057	289974
5.49870	281692
5.50682	276996
5.51493	268929
5.52307	282127
5.53118	302332
5.53932	323810
5.54743	348412
5.55555	339142
5.56368	312735
5.57180	288815
5.57993	271280
5.58805	268375
5.59617	273793
5.60430	287329
5.61242	296700
5.62055	291965
5.62867	277933
5.63678	274403
5.64492	266861
5.65303	290831
5.66115	313209
5.66928	343557
5.67740	343388
5.68553	309778
5.69365	297226
5.70177	272638
5.70990	254671
5.71802	252295
5.72615	242610
5.73427	236508
5.74238	232128
5.75052	228499
5.75863	227459
5.76675	224008
5.77488	222171
5.78300	225191
5.79113	219994
5.79925	220148
5.80737	215226
5.81550	217953
5.82362	222343
5.83175	221801
5.83987	213703
5.84798	210805
5.85612	209602
5.86423	204905
5.87237	206313
5.88048	208481
5.88860	207513
5.89673	212341
5.90485	208105
5.91297	192056
5.92110	169461
5.92922	176574
5.93735	197362
5.94547	224140
5.95358	253922
5.96172	291201
5.96983	291689
5.97797	294739
5.98608	269822
5.99420	241558
6.00233	218453
6.01045	191361
6.01858	182341
6.02670	166756
6.03482	163347
6.04295	160531
6.05107	154014
6.05918	156517
6.06732	150160
6.07543	158715
6.08357	155784
6.09168	178126
6.09980	228752
6.10793	344817
6.11605	471087
6.12418	537521
6.13230	508812
6.14042	397060
6.14855	314632
6.15667	267593
6.16478	240813
6.17292	226589
6.18103	220467
6.18917	211295
6.19728	216302
6.20540	205996
6.21353	200563
6.22165	195072
6.22978	207309
6.23790	207646
6.24602	201286
6.25415	192043
6.26227	205729
6.27040	196291
6.27852	195464
6.28663	188297
6.29477	190777
6.30288	189930
6.31100	194246
6.31913	197832
6.32725	190907
6.33538	202351
6.34350	187361
6.35162	189354
6.35975	197535
6.36787	197761
6.37600	189139
6.38412	190452
6.39223	192257
6.40037	187033
6.40848	191654
6.41660	192777
6.42473	186698
6.43285	191727
6.44098	202136
6.44910	191728
6.45722	188827
6.46535	197951
6.47347	198037
6.48160	197265
6.48972	198654
6.49783	205991
6.50597	208253
6.51408	203156
6.52222	207745
6.53033	211903
6.53845	222633
6.54658	237085
6.55470	256348
6.56282	274553
6.57095	252602
6.57907	237016
6.58720	227620
6.59532	222344
6.60343	217423
6.61157	227713
6.61968	279656
6.62782	470394
6.63593	850646
6.64405	1287186
6.65218	1428356
6.66030	1191770
6.66843	837217
6.67655	585856
6.68467	459996
6.69280	371796
6.70092	328512
6.70903	295812
6.71717	271409
6.72528	246331
6.73342	226135
6.74153	227772
6.74965	214764
6.75778	208614
6.76590	197426
6.77403	194824
6.78215	184758
6.79027	182229
6.79840	173534
6.80652	169798
6.81463	168140
6.82277	172279
6.83088	178870
6.83902	191978
6.84713	198347
6.85525	185501
6.86338	159722
6.87150	125808
6.87963	115247
6.88775	105883
6.89587	97023
6.90400	93331
6.91212	91859
6.92025	93710
6.92837	95501
6.93648	99847
6.94462	120529
6.95273	150840
6.96085	164888
6.96898	161223
6.97710	145198
6.98523	131119
6.99335	120420
7.00147	111728
7.00960	104738
7.01772	103375
7.02585	97878
7.03397	96855
7.04208	95550
7.05022	100224
7.05833	94149
7.06647	97656
7.07458	92170
7.08270	87480
7.09083	83953
7.09895	81956
7.10707	83583
7.11520	95495
7.12332	123449
7.13145	162294
7.13957	197343
7.14768	216807
7.15582	192966
7.16393	171254
7.17207	161080
7.18018	264162
7.18830	550989
7.19643	1056004
7.20455	1521078
7.21267	1647126
7.22080	1349360
7.22892	933291
7.23705	554836
7.24517	337803
7.25328	205380
7.26142	144411
7.26953	117270
7.27767	105838
7.28578	108094
7.29390	105786
7.30203	109224
7.31015	113429
7.31828	117659
7.32640	113975
7.33452	114009
7.34265	98574
7.35077	93380
7.35888	105244
7.36702	102647
7.37513	104666
7.38327	104258
7.39138	104338
7.39950	102155
7.40763	97939
7.41575	96599
7.42388	89595
7.43200	86004
7.44012	90547
7.44825	78005
7.45637	83504
7.46450	83256
7.47262	78996
7.48073	77171
7.48887	81685
7.49698	81188
7.50510	108502
7.51323	149348
7.52135	220936
7.52948	319156
7.53760	408770
7.54572	457205
7.55385	456005
7.56197	396426
7.57010	311386
7.57822	226597
7.58633	168167
7.59447	136211
7.60258	107969
7.61070	104333
7.61883	93380
7.62695	88865
7.63508	87295
7.64320	85087
7.65132	78576
7.65945	73115
7.66757	72846
7.67570	71680
7.68382	74402
7.69193	75783
7.70007	74127
7.70818	74386
7.71632	72477
7.72443	75487
7.73255	81099
7.74068	87900
7.74880	89623
7.75692	93546
7.76505	88616
7.77317	92075
7.78130	90451
7.78942	94203
7.79753	100338
7.80567	90384
7.81378	84864
7.82192	80722
7.83003	78017
7.83815	81591
7.84628	81442
7.85440	84184
7.86252	94613
7.87065	100841
7.87877	102428
7.88690	95365
7.89502	86281
7.90313	89955
7.91127	103792
7.91938	137398
7.92752	149467
7.93563	143738
7.94375	137477
7.95188	115738
7.96000	97362
7.96813	82521
7.97625	75463
7.98437	70930
7.99250	63694
8.00062	63586
8.00873	68271
8.01687	68203
8.02498	69779
8.03312	62081
8.04123	65097
8.04935	64346
8.05748	64052
8.06560	61050
8.07373	58716
8.08185	60205
8.08997	60920
8.09810	65099
8.10622	64108
8.11435	69430
8.12247	86403
8.13058	100634
8.13872	103285
8.14683	101194
8.15495	89280
8.16308	76751
8.17120	67450
8.17933	68230
8.18745	63651
8.19557	59844
8.20370	59562
8.21182	59046
8.21995	58965
8.22807	58003
8.23618	61656
8.24432	58266
8.25243	61046
8.26055	57667
8.26868	57321
8.27680	60712
8.28493	59677
8.29305	62573
8.30117	62587
8.30930	64644
8.31742	67206
8.32555	59252
8.33367	61717
8.34178	59273
8.34992	59192
8.35803	58940
8.36617	59366
8.37428	59765
8.38240	59074
8.39053	57358
8.39865	56358
8.40677	52425
8.41490	53690
8.42302	50535
8.43115	52804
8.43927	55985
8.44738	54595
8.45552	51311
8.46363	50708
8.47177	50949
8.47988	52823
8.48800	52278
8.49613	61923
8.50425	101119
8.51238	169259
8.52050	278638
8.52862	368922
8.53675	372330
8.54487	278579
8.55298	192227
8.56112	118654
8.56923	87623
8.57737	82760
8.58548	79327
8.59360	79960
8.60173	79096
8.60985	78670
8.61798	69920
8.62610	66782
8.63422	66008
8.64235	64124
8.65047	63244
8.65858	59835
8.66672	65441
8.67483	64035
8.68297	70696
8.69108	70948
8.69920	70521
8.70733	69108
8.71545	63388
8.72358	55972
8.73170	54794
8.73982	67825
8.74795	111645
8.75607	220587
8.76420	399648
8.77232	605828
8.78043	732842
8.78857	698717
8.79668	570386
8.80480	408545
8.81293	288413
8.82105	244229
8.82918	211747
8.83730	207284
8.84542	197357
8.85355	190939
8.86167	182220
8.86980	172479
8.87792	159276
8.88603	149731
8.89417	147612
8.90228	143726
8.91040	146975
8.91853	157712
8.92665	161813
8.93478	167578
8.94290	166475
8.95102	159075
8.95915	144048
8.96727	141251
8.97540	143069
8.98352	135917
8.99163	131437
8.99977	128018
9.00788	120331
9.01602	115581
9.02413	121169
9.03225	113313
9.04038	107652
9.04850	105732
9.05662	100637
9.06475	103179
9.07287	109996
9.08100	115447
9.08912	126843
9.09723	142021
9.10537	143745
9.11348	149866
9.12162	139142
9.12973	127915
9.13785	121519
9.14598	111030
9.15410	107721
9.16223	103534
9.17035	102339
9.17847	100469
9.18660	96129
9.19472	95934
9.20283	96268
9.21097	92174
9.21908	90809
9.22722	93996
9.23533	94518
9.24345	97854
9.25158	91936
9.25970	87546
9.26783	85328
9.27595	87302
9.28407	85598
9.29220	81799
9.30032	78307
9.30843	81831
9.31657	84469
9.32468	85066
9.33282	84361
9.34093	84039
9.34905	78532
9.35718	79290
9.36530	79110
9.37343	78696
9.38155	86785
9.38967	84510
9.39780	95676
9.40592	110842
9.41405	121003
9.42217	135507
9.43028	145817
9.43842	141899
9.44653	133884
9.45465	114322
9.46278	101793
9.47090	95487
9.47903	95318
9.48715	85457
9.49527	94873
9.50340	100367
9.51152	114651
9.51965	113578
9.52777	110442
9.53588	104554
9.54402	96938
9.55213	96827
9.56027	110718
9.56838	142948
9.57650	168469
9.58463	190648
9.59275	185803
9.60087	143695
9.60900	106121
9.61712	82245
9.62525	66831
9.63337	63250
9.64148	59017
9.64962	56891
9.65773	61317
9.66587	53775
9.67398	55811
9.68210	60206
9.69023	53891
9.69835	50441
9.70647	49951
9.71460	46024
9.72272	48520
9.73085	46806
9.73897	43134
9.74708	46600
9.75522	47307
9.76333	47698
9.77147	46990
9.77958	44205
9.78770	42899
9.79583	44045
9.80395	42472
9.81208	48226
9.82020	45625
9.82832	46252
9.83645	47121
9.84457	44176
9.85268	49388
9.86082	52661
9.86893	49064
9.87707	51300
9.88518	47833
9.89330	47972
9.90143	45485
9.90955	53168
9.91768	62585
9.92580	76485
9.93392	96642
9.94205	117116
9.95017	125422
9.95828	116710
9.96642	105677
9.97453	94693
9.98267	81717
9.99078	68894
9.99890	68380
10.00703	65575
10.01515	68016
10.02328	63604
10.03140	61366
10.03952	57613
10.04765	58089
10.05577	53470
10.06390	55693
10.07202	58366
10.08013	58169
10.08827	52559
10.09638	58453
10.10450	56798
10.11263	52794
10.12075	55093
10.12888	54001
10.13700	54484
10.14512	51517
10.15325	52125
10.16137	50209
10.16950	49288
10.17762	46141
10.18573	45914
10.19387	50045
10.20198	46174
10.21012	51099
10.21823	52459
10.22635	55818
10.23448	63624
10.24260	87494
10.25072	162995
10.25885	393750
10.26697	906717
10.27510	1703820
10.28322	2681453
10.29133	3825274
10.29947	5551899
10.30758	8254416
10.31572	1.13204E+07
10.32383	1.334387E+07
10.33195	1.259696E+07
10.34008	9559836
10.34820	5806644
10.35633	3215192
10.36445	1998944
10.37257	1422648
10.38070	1076641
10.38882	820258
10.39693	614435
10.40507	486054
10.41318	420166
10.42132	372558
10.42943	343636
10.43755	324422
10.44568	310942
10.45380	288048
10.46193	261546
10.47005	241906
10.47817	238830
10.48630	217891
10.49442	203782
10.50253	187239
10.51067	184565
10.51878	184308
10.52692	172610
10.53503	168824
10.54315	165827
10.55128	162201
10.55940	164868
10.56753	158597
10.57565	152420
10.58377	144682
10.59190	132052
10.60002	126617
10.60815	120467
10.61627	121350
10.62438	114392
10.63252	109003
10.64063	108014
10.64875	106823
10.65688	102853
10.66500	101951
10.67313	100830
10.68125	98068
10.68937	93445
10.69750	98240
10.70562	92252
10.71375	98572
10.72187	98733
10.72998	98727
10.73812	99205
10.74623	90762
10.75435	98271
10.76248	89689
10.77060	81494
10.77873	82609
10.78685	79196
10.79497	81005
10.80310	83217
10.81122	85096
10.81935	81420
10.82747	80111
10.83558	75483
10.84372	71281
10.85183	71112
10.85997	70057
10.86808	65504
10.87620	66569
10.88433	71226
10.89245	64183
10.90057	64197
10.90870	65982
10.91682	64760
10.92495	63505
10.93307	64533
10.94118	64149
10.94932	62738
10.95743	59685
10.96557	61802
10.97368	59847
10.98180	60150
10.98993	60565
10.99805	62433
11.00618	60018
11.01430	59708
11.02242	58275
11.03055	57732
11.03867	58600
11.04678	59670
11.05492	58469
11.06303	59372
11.07117	61032
11.07928	65172
11.08740	63511
11.09553	62628
11.10365	59290
11.11178	52750
11.11990	55754
11.12802	53811
11.13615	50052
11.14427	46707
11.15238	51454
11.16052	49569
11.16863	55460
11.17677	54018
11.18488	62440
11.19300	59357
11.20113	56496
11.20925	57212
11.21738	52422
11.22550	46770
11.23362	47141
11.24175	44520
11.24987	44968
11.25800	41492
11.26612	45953
11.27423	43633
11.28237	49314
11.29048	61316
11.29860	82025
11.30673	137322
11.31485	241542
11.32298	393070
11.33110	521893
11.33922	606489
11.34735	612207
11.35547	500020
11.36360	376740
11.37172	270348
11.37983	205481
11.38797	167478
11.39608	150652
11.40422	138907
11.41233	122949
11.42045	115884
11.42858	96948
11.43670	92884
11.44482	88311
11.45295	89020
11.46107	98679
11.46920	131837
11.47732	170608
11.48543	218736
11.49357	243165
11.50168	241731
11.50982	198215
11.51793	166218
11.52605	131416
11.53418	117832
11.54230	106020
11.55042	100189
11.55855	96604
11.56667	93153
11.57480	93872
11.58292	96007
11.59103	109916
11.59917	127194
11.60728	152934
11.61542	160502
11.62353	138730
11.63165	117265
11.63978	95987
11.64790	87617
11.65603	73224
11.66415	71652
11.67227	62961
11.68040	68769
11.68852	65842
11.69663	67322
11.70477	68924
11.71288	61947
11.72102	68146
11.72913	60608
11.73725	59811
11.74538	58647
11.75350	57459
11.76163	52769
11.76975	55411
11.77787	56126
11.78600	56416
11.79412	57146
11.80223	53635
11.81037	53962
11.81848	53402
11.82662	54510
11.83473	54177
11.84285	49141
11.85098	52525
11.85910	50057
11.86723	47542
11.87535	47039
11.88347	47922
11.89160	49204
11.89972	45671
11.90785	49964
11.91597	53818
11.92408	54461
11.93222	58121
11.94033	56738
11.94845	49426
11.95658	47501
11.96470	52268
11.97283	68046
11.98095	92314
11.98907	134055
11.99720	183029
12.00532	204268
12.01345	197626
12.02157	159573
12.02968	124930
12.03782	92518
12.04593	73492
12.05407	67439
12.06218	66689
12.07030	66320
12.07843	66205
12.08655	60037
12.09467	61286
12.10280	60397
12.11092	67507
12.11905	67561
12.12717	67436
12.13528	66606
12.14342	63382
12.15153	61787
12.15967	57361
12.16778	54007
12.17590	57243
12.18403	50382
12.19215	52949
12.20027	51801
12.20840	51181
12.21652	54682
12.22465	51406
12.23277	49068
12.24088	50673
12.24902	46082
12.25713	51144
12.26527	45531
12.27338	45769
12.28150	46080
12.28963	43457
12.29775	45613
12.30588	45098
12.31400	44092
12.32212	45477
12.33025	41894
12.33837	42187
12.34648	40866
12.35462	43775
12.36273	42297
12.37087	44359
12.37898	47784
12.38710	50063
12.39523	56262
12.40335	79140
12.41148	94913
12.41960	108927
12.42772	107941
12.43585	96948
12.44397	86617
12.45210	81155
12.46022	67287
12.46833	60581
12.47647	57157
12.48458	55439
12.49270	54569
12.50083	50528
12.50895	48378
12.51708	57293
12.52520	58839
12.53332	77780
12.54145	104982
12.54957	132390
12.55770	148773
12.56582	148113
12.57393	119363
12.58207	95612
12.59018	75153
12.59830	66727
12.60643	67048
12.61455	61587
12.62268	58364
12.63080	53233
12.63892	60070
12.64705	51079
12.65517	50990
12.66330	46832
12.67142	47131
12.67953	42034
12.68767	42626
12.69578	43881
12.70392	47760
12.71203	46448
12.72015	46207
12.72828	51973
12.73640	56917
12.74452	55255
12.75265	53432
12.76077	45772
12.76890	43483
12.77702	48911
12.78513	41524
12.79327	40462
12.80138	37642
12.80952	39054
12.81763	41312
12.82575	35197
12.83388	39308
12.84200	37805
12.85013	38261
12.85825	36340
12.86637	35726
12.87450	37001
12.88262	36021
12.89073	40270
12.89887	32908
12.90698	35538
12.91512	36999
12.92323	35442
12.93135	35751
12.93948	39858
12.94760	45703
12.95573	61148
12.96385	78846
12.97197	96883
12.98010	96000
12.98822	89814
12.99633	78658
13.00447	62040
13.01258	54322
13.02072	51475
13.02883	46882
13.03695	43951
13.04508	44530
13.05320	41067
13.06133	46545
13.06945	44434
13.07757	38622
13.08570	42705
13.09382	41335
13.10195	40287
13.11007	38515
13.11818	39110
13.12632	36805
13.13443	36520
13.14255	39501
13.15068	40535
13.15880	38286
13.16693	39617
13.17505	40900
13.18317	44662
13.19130	43521
13.19942	44199
13.20755	46332
13.21567	48394
13.22378	49070
13.23192	46292
13.24003	42753
13.24815	41791
13.25628	39915
13.26440	38490
13.27253	42122
13.28065	38053
13.28877	34885
13.29690	34431
13.30502	37546
13.31315	39200
13.32127	40477
13.32938	37985
13.33752	36870
13.34563	36241
13.35377	33174
13.36188	35248
13.37000	32937
13.37813	32906
13.38625	31171
13.39437	33072
13.40250	34270
13.41062	36567
13.41875	33695
13.42687	34331
13.43498	33586
13.44312	32889
13.45123	38985
13.45937	37127
13.46748	32493
13.47560	35417
13.48373	35684
13.49185	39406
13.49998	34322
13.50810	31018
13.51622	34825
13.52435	35280
13.53247	33605
13.54058	33864
13.54872	34602
13.55683	32200
13.56497	34072
13.57308	40423
13.58120	47838
13.58933	58695
13.59745	76394
13.60558	111449
13.61370	137799
13.62182	157817
13.62995	140100
13.63807	115293
13.64618	85273
13.65432	67672
13.66243	51106
13.67057	47276
13.67868	44308
13.68680	43601
13.69493	41948
13.70305	40516
13.71118	42504
13.71930	45593
13.72742	65182
13.73555	123390
13.74367	274543
13.75180	582645
13.75992	1021470
13.76803	1455590
13.77617	1701899
13.78428	1608699
13.79240	1300814
13.80053	948693
13.80865	683331
13.81678	564889
13.82490	526701
13.83302	523132
13.84115	494249
13.84927	439961
13.85740	377601
13.86552	314036
13.87363	260872
13.88177	222555
13.88988	196882
13.89802	175616
13.90613	154954
13.91425	145820
13.92238	140516
13.93050	130592
13.93862	125469
13.94675	128700
13.95487	124722
13.96300	123908
13.97112	138111
13.97923	143043
13.98737	128988
13.99548	126185
14.00362	117647
14.01173	115441
14.01985	114276
14.02798	102655
14.03610	93378
14.04422	92308
14.05235	96506
14.06047	93614
14.06860	100707
14.07672	88495
14.08483	86020
14.09297	86282
14.10108	83467
14.10922	83959
14.11733	79985
14.12545	79964
14.13358	80633
14.14170	83336
14.14983	89740
14.15795	91642
14.16607	95676
14.17420	102053
14.18232	130581
14.19043	172359
14.19857	217856
14.20668	262938
14.21482	267575
14.22293	248575
14.23105	228602
14.23918	203526
14.24730	182062
14.25543	174158
14.26355	149691
14.27167	141318
14.27980	126909
14.28792	114760
14.29603	110920
14.30417	108860
14.31228	100165
14.32042	98117
14.32853	93407
14.33665	91075
14.34478	87505
14.35290	79663
14.36103	69652
14.36915	67290
14.37727	71530
14.38540	85000
14.39352	124209
14.40165	206130
14.40977	325432
14.41788	417442
14.42602	431028
14.43413	373499
14.44225	275818
14.45038	190268
14.45850	137881
14.46663	108056
14.47475	96552
14.48287	86006
14.49100	83588
14.49912	77065
14.50725	73002
14.51537	76061
14.52348	78579
14.53162	73721
14.53973	70134
14.54787	63622
14.55598	65849
14.56410	61159
14.57223	57054
14.58035	54845
14.58847	52973
14.59660	53675
14.60472	49597
14.61285	52125
14.62097	52324
14.62908	49741
14.63722	50804
14.64533	47688
14.65347	46953
14.66158	45016
14.66970	47177
14.67783	44582
14.68595	45174
14.69408	46854
14.70220	45648
14.71032	51733
14.71845	48639
14.72657	48202
14.73468	50703
14.74282	51830
14.75093	53743
14.75907	54502
14.76718	55145
14.77530	60669
14.78343	78185
14.79155	146184
14.79968	329802
14.80780	741432
14.81592	1406426
14.82405	2089407
14.83217	2490369
14.84028	2401527
14.84842	1895245
14.85653	1255548
14.86467	808444
14.87278	516180
14.88090	366222
14.88903	284751
14.89715	236346
14.90528	201238
14.91340	180084
14.92152	164070
14.92965	157097
14.93777	141934
14.94590	127960
14.95402	128009
14.96213	121643
14.97027	116211
14.97838	121084
14.98650	105583
14.99463	103448
15.00275	98187
15.01088	99814
15.01900	92513
15.02712	84763
15.03525	86863
15.04337	86532
15.05150	84988
15.05962	83529
15.06773	80105
15.07587	79054
15.08398	74065
15.09210	70475
15.10023	70844
15.10835	70513
15.11648	74469
15.12460	73739
15.13272	78929
15.14085	85394
15.14897	89479
15.15710	80816
15.16522	74905
15.17333	67054
15.18147	62844
15.18958	54670
15.19772	50023
15.20583	53075
15.21395	51269
15.22208	48072
15.23020	48931
15.23832	48818
15.24645	45128
15.25457	45390
15.26270	46845
15.27082	45258
15.27893	41735
15.28707	41000
15.29518	46105
15.30332	44045
15.31143	42996
15.31955	41175
15.32768	39318
15.33580	43801
15.34393	43290
15.35205	41065
15.36017	44166
15.36830	41619
15.37642	41033
15.38453	40958
15.39267	45597
15.40078	43466
15.40892	43162
15.41703	44824
15.42515	42218
15.43328	38225
15.44140	39440
15.44953	40291
15.45765	42160
15.46577	47762
15.47390	64712
15.48202	80692
15.49013	105541
15.49827	123472
15.50638	146132
15.51452	150273
15.52263	151722
15.53075	151979
15.53888	164209
15.54700	174413
15.55513	167933
15.56325	141514
15.57137	117279
15.57950	89585
15.58762	70593
15.59575	59322
15.60387	56315
15.61198	55431
15.62012	51269
15.62823	50184
15.63635	47291
15.64448	45238
15.65260	44037
15.66073	42682
15.66885	45294
15.67697	47268
15.68510	43858
15.69322	42465
15.70135	40402
15.70947	44690
15.71758	45499
15.72572	45732
15.73383	48067
15.74197	53791
15.75008	59689
15.75820	81242
15.76633	130511
15.77445	194068
15.78257	255522
15.79070	282249
15.79882	266565
15.80695	229860
15.81507	171320
15.82318	123640
15.83132	93578
15.83943	77732
15.84757	69218
15.85568	68410
15.86380	66897
15.87193	63137
15.88005	62355
15.88817	57693
15.89630	58629
15.90442	54605
15.91255	53532
15.92067	52720
15.92878	54177
15.93692	50432
15.94503	60997
15.95317	68999
15.96128	80745
15.96940	92078
15.97753	102267
15.98565	103298
15.99378	95958
16.00190	88707
16.01002	76674
16.01815	76295
16.02627	70766
16.03438	71987
16.04252	65580
16.05063	59621
16.05877	55569
16.06688	54387
16.07500	50238
16.08313	50076
16.09125	46661
16.09938	45914
16.10750	51109
16.11562	49617
16.12375	52585
16.13187	55213
16.13998	58135
16.14812	55508
16.15623	58837
16.16437	57281
16.17248	56347
16.18060	51946
16.18873	51292
16.19685	48826
16.20498	47684
16.21310	48045
16.22122	45644
16.22935	44740
16.23747	43683
16.24560	48892
16.25372	44486
16.26183	43383
16.26997	44828
16.27808	45652
16.28620	47038
16.29433	50351
16.30245	50104
16.31058	54054
16.31870	51904
16.32682	54893
16.33495	53287
16.34307	55558
16.35120	64628
16.35932	81032
16.36743	90364
16.37557	105267
16.38368	111565
16.39182	103210
16.39993	88887
16.40805	71431
16.41618	65540
16.42430	58381
16.43242	54964
16.44055	62630
16.44867	59437
16.45680	60364
16.46492	70983
16.47303	81091
16.48117	89679
16.48928	88371
16.49742	79032
16.50553	74553
16.51365	59691
16.52178	54997
16.52990	52382
16.53802	47308
16.54615	50644
16.55427	49558
16.56240	47397
16.57052	50296
16.57863	53846
16.58677	56689
16.59488	59011
16.60302	72789
16.61113	84769
16.61925	84340
16.62738	83909
16.63550	75379
16.64363	67549
16.65175	56236
16.65987	53579
16.66800	53615
16.67612	48307
16.68423	44141
16.69237	47657
16.70048	46280
16.70862	44797
16.71673	44392
16.72485	46150
16.73298	42736
16.74110	48600
16.74923	47194
16.75735	47091
16.76547	50115
16.77360	50199
16.78172	47169
16.78985	44465
16.79797	39444
16.80608	42333
16.81422	39437
16.82233	42554
16.83045	38492
16.83858	40322
16.84670	35940
16.85483	37332
16.86295	38497
16.87107	36219
16.87920	40105
16.88732	38885
16.89545	36595
16.90357	35040
16.91168	36391
16.91982	38030
16.92793	36179
16.93605	41018
16.94418	40015
16.95230	39930
16.96043	36726
16.96855	34718
16.97667	33347
16.98480	35531
16.99292	39456
17.00105	38287
17.00917	38052
17.01728	34485
17.02542	42137
17.03353	44209
17.04167	47904
17.04978	50351
17.05790	49099
17.06603	48038
17.07415	53009
17.08227	46159
17.09040	43842
17.09852	42854
17.10665	41947
17.11477	41122
17.12288	45059
17.13102	42984
17.13913	41056
17.14727	46643
17.15538	45301
17.16350	44466
17.17163	41072
17.17975	42970
17.18787	41108
17.19600	41110
17.20412	37168
17.21225	36737
17.22037	36173
17.22848	37640
17.23662	38809
17.24473	41016
17.25287	39791
17.26098	39119
17.26910	39421
17.27723	36004
17.28535	37929
17.29348	38991
17.30160	37902
17.30972	37131
17.31785	39818
17.32597	45194
17.33408	51824
17.34222	54265
17.35033	59338
17.35847	66643
17.36658	63887
17.37470	59343
17.38283	56583
17.39095	52628
17.39908	55363
17.40720	52704
17.41532	52979
17.42345	56244
17.43157	51493
17.43970	54793
17.44782	51378
17.45593	52729
17.46407	53561
17.47218	45786
17.48030	44126
17.48843	44062
17.49655	41404
17.50468	41814
17.51280	43468
17.52092	39427
17.52905	42985
17.53717	40431
17.54530	46579
17.55342	53655
17.56153	71342
17.56967	119964
17.57778	211253
17.58590	373351
17.59403	598453
17.60215	867367
17.61028	1029317
17.61840	988152
17.62652	824059
17.63465	609660
17.64277	438978
17.65090	307855
17.65902	240144
17.66713	214915
17.67527	168899
17.68338	158488
17.69152	137385
17.69963	123852
17.70775	108844
17.71588	99628
17.72400	94371
17.73212	85784
17.74025	83276
17.74837	82321
17.75650	72901
17.76462	71725
17.77273	67031
17.78087	65813
17.78898	67849
17.79712	72381
17.80523	82899
17.81335	100835
17.82148	118447
17.82960	141020
17.83773	136092
17.84585	124338
17.85397	120952
17.86210	109092
17.87022	97324
17.87833	92391
17.88647	78353
17.89458	69694
17.90272	63400
17.91083	58808
17.91895	61293
17.92708	55242
17.93520	51565
17.94333	48298
17.95145	54660
17.95957	55219
17.96770	52985
17.97582	50212
17.98393	48286
17.99207	46228
18.00018	47421
18.00832	50658
18.01643	58262
18.02455	64124
18.03268	75461
18.04080	85983
18.04893	78538
18.05705	88318
18.06517	110639
18.07330	148797
18.08142	211018
18.08955	267298
18.09767	308528
18.10578	308819
18.11392	267722
18.12203	219053
18.13015	194340
18.13828	158031
18.14640	148077
18.15453	138536
18.16265	123890
18.17077	120601
18.17890	114498
18.18702	104705
18.19515	99306
18.20327	93128
18.21138	92013
18.21952	88065
18.22763	79273
18.23577	77438
18.24388	75422
18.25200	76291
18.26013	72718
18.26825	67321
18.27637	69408
18.28450	60453
18.29262	57388
18.30075	50833
18.30887	54405
18.31698	71427
18.32512	114354
18.33323	186069
18.34137	239518
18.34948	263051
18.35760	292411
18.36573	305557
18.37385	312129
18.38197	325431
18.39010	325162
18.39822	328837
18.40635	330117
18.41447	335318
18.42258	341174
18.43072	351446
18.43883	353627
18.44697	366851
18.45508	416982
18.46320	479952
18.47133	546654
18.47945	609960
18.48758	642158
18.49570	620762
18.50382	561071
18.51195	495639
18.52007	438228
18.52818	372686
18.53632	360238
18.54443	339350
18.55257	320218
18.56068	320561
18.56880	304204
18.57693	307656
18.58505	301378
18.59318	292618
18.60130	297417
18.60942	296488
18.61755	290487
18.62567	294147
18.63378	279430
18.64192	282064
18.65003	276989
18.65817	267986
18.66628	259471
18.67440	257046
18.68253	247808
18.69065	248653
18.69878	247153
18.70690	244195
18.71502	235358
18.72315	230838
18.73127	231054
18.73940	226166
18.74752	217214
18.75563	219149
18.76377	221790
18.77188	226603
18.78000	215644
18.78813	212562
18.79625	219453
18.80438	211330
18.81250	212263
18.82062	208908
18.82875	209535
18.83687	204595
18.84500	196371
18.85312	196411
18.86123	199063
18.86937	199175
18.87748	199323
18.88562	196484
18.89373	196834
18.90185	185902
18.90998	186040
18.91810	186276
18.92622	188818
18.93435	191696
18.94247	186856
18.95060	188755
18.95872	195947
18.96683	186935
18.97497	187349
18.98308	189745
18.99122	176885
18.99933	181027
19.00745	171030
19.01558	169900
19.02370	164961
19.03182	161528
19.03995	167338
19.04807	165871
19.05620	168095
19.06432	198140
19.07243	268041
19.08057	401556
19.08868	637432
19.09682	922955
19.10493	1135483
19.11305	1187738
19.12118	1068991
19.12930	892121
19.13743	645149
19.14555	465150
19.15367	346521
19.16180	280871
19.16992	240479
19.17803	219881
19.18617	203743
19.19428	186732
19.20242	175556
19.21053	177735
19.21865	176666
19.22678	164535
19.23490	150884
19.24303	149600
19.25115	152563
19.25927	144400
19.26740	136964
19.27552	140760
19.28365	144520
19.29177	141943
19.29988	143253
19.30802	140835
19.31613	139885
19.32425	133916
19.33238	136781
19.34050	140931
19.34863	149494
19.35675	164725
19.36487	192934
19.37300	208951
19.38112	221484
19.38925	210706
19.39737	187390
19.40548	165160
19.41362	153329
19.42173	140304
19.42985	132953
19.43798	129927
19.44610	129768
19.45423	123230
19.46235	127719
19.47047	131431
19.47860	130115
19.48672	157822
19.49485	184252
19.50297	227704
19.51108	249594
19.51922	257715
19.52733	232139
19.53547	206241
19.54358	172536
19.55170	148684
19.55983	131056
19.56795	130366
19.57607	122386
19.58420	113484
19.59232	110632
19.60045	104230
19.60857	99710
19.61668	104183
19.62482	109288
19.63293	111642
19.64107	130925
19.64918	160712
19.65730	201719
19.66543	251826
19.67355	294337
19.68167	333767
19.68980	314659
19.69792	296179
19.70605	268431
19.71417	237420
19.72228	213569
19.73042	184017
19.73853	170996
19.74667	148239
19.75478	138644
19.76290	133734
19.77103	129701
19.77915	131400
19.78728	136959
19.79540	143767
19.80352	147452
19.81165	151892
19.81977	142715
19.82788	140136
19.83602	129513
19.84413	112058
19.85227	122251
19.86038	157405
19.86850	237000
19.87663	401184
19.88475	671285
19.89288	992875
19.90100	1265346
19.90912	1350004
19.91725	1267866
19.92537	1086355
19.93350	898268
19.94162	708213
19.94973	585274
19.95787	519715
19.96598	483644
19.97410	451708
19.98223	418337
19.99035	400574
19.99848	381001
20.00660	369498
20.01472	351447
20.02285	339887
20.03097	317622
20.03910	297926
20.04722	267898
20.05533	240161
20.06347	212550
20.07158	190352
20.07970	178491
20.08783	168753
20.09595	155348
20.10408	147207
20.11220	141521
20.12032	132675
20.12845	126447
20.13657	115808
20.14470	115412
20.15282	113501
20.16093	120895
20.16907	132415
20.17718	142524
20.18532	160573
20.19343	172559
20.20155	177679
20.20968	163050
20.21780	162790
20.22592	147381
20.23405	133563
20.24217	138430
20.25030	145979
20.25842	170493
20.26653	210354
20.27467	250602
20.28278	275880
20.29092	295904
20.29903	291579
20.30715	253083
20.31528	222412
20.32340	179401
20.33153	160445
20.33965	134538
20.34777	113925
20.35590	107182
20.36402	95304
20.37213	94960
20.38027	93081
20.38838	84343
20.39652	83014
20.40463	85206
20.41275	84646
20.42088	89333
20.42900	95553
20.43713	102840
20.44525	108570
20.45337	104423
20.46150	105764
20.46962	101509
20.47773	97498
20.48587	86936
20.49398	88429
20.50212	80224
20.51023	82961
20.51835	78696
20.52648	71777
20.53460	77043
20.54273	75944
20.55085	74462
20.55897	78412
20.56710	73757
20.57522	72624
20.58335	73146
20.59147	69382
20.59958	70343
20.60772	64072
20.61583	69582
20.62395	70505
20.63208	71712
20.64020	71010
20.64833	73791
20.65645	73154
20.66457	78647
20.67270	73896
20.68082	72389
20.68895	69834
20.69707	67290
20.70518	71266
20.71332	66059
20.72143	70813
20.72955	68960
20.73768	66311
20.74580	71420
20.75393	72632
20.76205	75378
20.77017	75610
20.77830	86890
20.78642	108057
20.79455	150691
20.80267	228521
20.81078	304781
20.81892	365170
20.82703	409249
20.83517	373361
20.84328	296444
20.85140	211385
20.85953	161193
20.86765	120984
20.87577	103522
20.88390	96191
20.89202	90102
20.90015	84057
20.90827	84733
20.91638	78623
20.92452	80227
20.93263	75811
20.94077	79586
20.94888	74631
20.95700	75160
20.96513	70133
20.97325	67921
20.98138	67813
20.98950	66820
20.99762	67016
21.00575	68463
21.01387	73555
21.02198	67573
21.03012	71094
21.03823	73492
21.04637	72300
21.05448	71758
21.06260	75310
21.07073	68533
21.07885	66029
21.08698	66157
21.09510	64248
21.10322	60980
21.11135	63382
21.11947	60382
21.12760	66073
21.13572	67283
21.14383	72930
21.15197	82251
21.16008	94880
21.16820	103153
21.17633	95380
21.18445	92111
21.19258	83880
21.20070	71630
21.20882	71325
21.21695	65291
21.22507	61569
21.23320	66568
21.24132	59531
21.24943	60388
21.25757	61893
21.26568	57495
21.27380	57321
21.28193	53588
21.29005	55845
21.29818	56959
21.30630	53743
21.31442	49123
21.32255	53907
21.33067	51538
21.33880	52501
21.34692	58342
21.35503	51952
21.36317	49224
21.37128	49399
21.37942	51356
21.38753	56703
21.39565	53909
21.40378	56355
21.41190	57390
21.42002	58346
21.42815	59843
21.43627	59305
21.44440	57107
21.45252	58499
21.46063	56089
21.46877	52611
21.47688	57129
21.48502	51395
21.49313	49219
21.50125	53492
21.50938	51725
21.51750	53097
21.52562	48362
21.53375	49924
21.54187	49519
21.55000	47151
21.55812	52473
21.56623	48346
21.57437	53853
21.58248	59727
21.59062	68757
21.59873	71808
21.60685	73619
21.61498	74271
21.62310	81374
21.63123	79241
21.63935	92161
21.64747	90934
21.65560	92876
21.66372	100385
21.67183	102366
21.67997	98379
21.68808	101328
21.69622	94645
21.70433	85546
21.71245	79508
21.72058	73976
21.72870	67600
21.73683	65703
21.74495	60753
21.75307	64956
21.76120	62655
21.76932	58295
21.77745	56173
21.78557	59030
21.79368	54979
21.80182	60043
21.80993	61748
21.81805	64959
21.82618	72430
21.83430	78649
21.84243	78958
21.85055	83875
21.85867	81852
21.86680	75214
21.87492	68986
21.88305	64089
21.89117	57677
21.89928	57942
21.90742	65394
21.91553	73104
21.92365	82599
21.93178	91240
21.93990	90461
21.94803	93371
21.95615	99199
21.96427	96268
21.97240	98265
21.98052	99675
21.98865	103559
21.99677	99707
22.00488	97170
22.01302	104145
22.02113	102059
22.02927	101490
22.03738	104423
22.04550	105279
22.05363	105427
22.06175	102982
22.06987	103440
22.07800	98593
22.08612	103577
22.09425	101344
22.10237	96704
22.11048	98734
22.11862	94988
22.12673	85376
22.13487	78786
22.14298	69448
22.15110	66840
22.15923	66203
22.16735	60174
22.17548	58903
22.18360	60831
22.19172	53927
22.19985	57627
22.20797	61079
22.21608	60921
22.22422	60289
22.23233	62303
22.24047	56417
22.24858	57890
22.25670	59118
22.26483	56908
22.27295	60104
22.28108	65797
22.28920	59797
22.29732	67636
22.30545	67324
22.31357	69353
22.32168	67533
22.32982	64527
22.33793	64501
22.34607	67490
22.35418	61149
22.36230	60753
22.37043	61242
22.37855	59685
22.38668	66057
22.39480	78374
22.40292	96139
22.41105	113781
22.41917	144026
22.42730	151284
22.43542	159991
22.44353	170808
22.45167	172292
22.45978	166211
22.46790	176427
22.47603	184983
22.48415	204146
22.49228	212691
22.50040	222617
22.50852	236663
22.51665	233165
22.52477	228852
22.53290	226963
22.54102	218923
22.54913	214897
22.55727	214848
22.56538	203564
22.57350	204407
22.58163	191711
22.58975	193189
22.59788	181945
22.60600	183523
22.61412	176111
22.62225	177088
22.63037	183615
22.63850	185920
22.64662	181263
22.65473	184602
22.66287	174257
22.67098	179602
22.67912	175525
22.68723	180626
22.69535	181017
22.70348	181874
22.71160	191945
22.71972	192634
22.72785	190421
22.73597	185881
22.74410	184911
22.75222	175115
22.76033	165662
22.76847	169243
22.77658	165709
22.78472	179164
22.79283	180465
22.80095	194840
22.80908	216571
22.81720	222304
22.82533	208130
22.83345	199121
22.84157	180891
22.84970	169528
22.85782	177370
22.86593	171103
22.87407	175674
22.88218	168645
22.89032	184221
22.89843	198294
22.90655	229905
22.91468	270468
22.92280	287038
22.93093	300236
22.93905	287119
22.94717	269113
22.95530	227594
22.96342	203155
22.97153	179665
22.97967	166849
22.98778	159802
22.99592	153992
23.00403	148447
23.01215	136928
23.02028	132241
23.02840	127684
23.03653	123371
23.04465	121327
23.05277	124110
23.06090	123228
23.06902	121011
23.07715	121560
23.08527	117646
23.09338	122263
23.10152	118199
23.10963	116498
23.11775	112283
23.12588	110344
23.13400	107723
23.14213	109063
23.15025	105827
23.15837	106347
23.16650	99701
23.17462	101356
23.18275	104910
23.19087	101628
23.19898	101742
23.20712	99207
23.21523	97431
23.22337	99563
23.23148	92061
23.23960	102283
23.24773	96919
23.25585	103821
23.26397	108938
23.27210	110340
23.28022	115185
23.28835	105292
23.29647	99933
23.30458	100375
23.31272	96452
23.32083	102593
23.32897	104246
23.33708	116737
23.34520	132557
23.35333	154181
23.36145	198292
23.36957	239595
23.37770	274489
23.38582	306489
23.39395	348779
23.40207	379008
23.41018	390820
23.41832	383506
23.42643	394354
23.43457	385674
23.44268	375773
23.45080	362002
23.45893	338591
23.46705	323446
23.47518	303524
23.48330	280248
23.49142	270943
23.49955	249286
23.50767	231770
23.51578	217993
23.52392	211805
23.53203	195450
23.54017	185678
23.54828	182644
23.55640	176281
23.56453	176961
23.57265	188083
23.58078	222374
23.58890	263759
23.59702	313953
23.60515	340337
23.61327	346508
23.62140	318711
23.62952	274745
23.63763	240955
23.64577	210470
23.65388	207860
23.66200	209757
23.67013	215472
23.67825	191873
23.68638	175157
23.69450	160648
23.70262	138258
23.71075	124964
23.71887	103616
23.72700	96792
23.73512	94015
23.74323	113575
23.75137	158373
23.75948	269352
23.76760	528986
23.77573	937682
23.78385	1511376
23.79198	2042226
23.80010	2265608
23.80822	2242345
23.81635	1923490
23.82447	1579079
23.83260	1187526
23.84072	913601
23.84883	715171
23.85697	608535
23.86508	504295
23.87322	433118
23.88133	372721
23.88945	330621
23.89758	317189
23.90570	289630
23.91382	272938
23.92195	266920
23.93007	254459
23.93820	222162
23.94632	207512
23.95443	194897
23.96257	181887
23.97068	172625
23.97882	164506
23.98693	159752
23.99505	158099
24.00318	176160
24.01130	208327
24.01942	278741
24.02755	364710
24.03567	429192
24.04380	423954
24.05192	379500
24.06003	309761
24.06817	234125
24.07628	172963
24.08442	139074
24.09253	128355
24.10065	120311
24.10878	113161
24.11690	114898
24.12503	113274
24.13315	115355
24.14127	112297
24.14940	121440
24.15752	111884
24.16563	124412
24.17377	114967
24.18188	106619
24.19002	113200
24.19813	127330
24.20625	144150
24.21438	171275
24.22250	204456
24.23063	226437
24.23875	234820
24.24687	249607
24.25500	246299
24.26312	245933
24.27125	245966
24.27937	252507
24.28748	252496
24.29562	252382
24.30373	254523
24.31185	257107
24.31998	256384
24.32810	257263
24.33623	250714
24.34435	250588
24.35247	246746
24.36060	248162
24.36872	256732
24.37685	269420
24.38497	280534
24.39308	294249
24.40122	303514
24.40933	303138
24.41745	295120
24.42558	270558
24.43370	264029
24.44183	250557
24.44995	259986
24.45807	257142
24.46620	271963
24.47432	266739
24.48245	264381
24.49057	275844
24.49868	289867
24.50682	291254
24.51493	287641
24.52307	298272
24.53118	308801
24.53930	323434
24.54743	340169
24.55555	350225
24.56367	353585
24.57180	355196
24.57992	342701
24.58805	315713
24.59617	309605
24.60428	297093
24.61242	284212
24.62053	279315
24.62867	276732
24.63678	273466
24.64490	263180
24.65303	266141
24.66115	267482
24.66928	265930
24.67740	261608
24.68552	251564
24.69365	254399
24.70177	245635
24.70988	234382
24.71802	243139
24.72613	236016
24.73427	241470
24.74238	232813
24.75050	229803
24.75863	226340
24.76675	228731
24.77488	222047
24.78300	235468
24.79112	232612
24.79925	225935
24.80737	215011
24.81548	220686
24.82362	223508
24.83173	229295
24.83987	251189
24.84798	282163
24.85610	333058
24.86423	390770
24.87235	493557
24.88048	609457
24.88860	711318
24.89672	789567
24.90485	763116
24.91297	643958
24.92110	511891
24.92922	376622
24.93733	271359
24.94547	195859
24.95358	148757
24.96170	135209
24.96983	115605
24.97795	107772
24.98608	104301
24.99420	98716
25.00232	95851
25.01045	91212
25.01857	85901
25.02670	83267
25.03482	80224
25.04293	80051
25.05107	74966
25.05918	78967
25.06730	79680
25.07543	80610
25.08355	81482
25.09168	96582
25.09980	136472
25.10792	258489
25.11605	523562
25.12417	1007553
25.13230	1716320
25.14042	2516023
25.14853	3089741
25.15667	3086332
25.16478	2639388
25.17292	1925533
25.18103	1249523
25.18915	761398
25.19728	455228
25.20540	277939
25.21352	204479
25.22165	156833
25.22977	138864
25.23790	141619
25.24602	170873
25.25413	204489
25.26227	256383
25.27038	293551
25.27852	312028
25.28663	303144
25.29475	262354
25.30288	219351
25.31100	171081
25.31913	133888
25.32725	110231
25.33537	107093
25.34350	116995
25.35162	137483
25.35973	194123
25.36787	232306
25.37598	270391
25.38412	297485
25.39223	300336
25.40035	312313
25.40848	321901
25.41660	331635
25.42473	335476
25.43285	343599
25.44097	333878
25.44910	345133
25.45722	345336
25.46533	346826
25.47347	350924
25.48158	337129
25.48972	343484
25.49783	343618
25.50595	330505
25.51408	317897
25.52220	328071
25.53033	325399
25.53845	324505
25.54657	328015
25.55470	316925
25.56282	303652
25.57095	311058
25.57907	310494
25.58718	306693
25.59532	296815
25.60343	305683
25.61155	291578
25.61968	291831
25.62780	292499
25.63593	288696
25.64405	286125
25.65217	282463
25.66030	283781
25.66842	276417
25.67655	263299
25.68467	262034
25.69278	262348
25.70092	260480
25.70903	253619
25.71717	250996
25.72528	247412
25.73340	246539
25.74153	240708
25.74965	233734
25.75777	237290
25.76590	233031
25.77402	240531
25.78215	235890
25.79027	230800
25.79838	231186
25.80652	233066
25.81463	229518
25.82277	219745
25.83088	221577
25.83900	219049
25.84713	213565
25.85525	218326
25.86337	216272
25.87150	210579
25.87962	204831
25.88775	196261
25.89587	194553
25.90398	194236
25.91212	189740
25.92023	191055
25.92837	190665
25.93648	185345
25.94460	181936
25.95273	179642
25.96085	177976
25.96898	170303
25.97710	173990
25.98522	167965
25.99335	171405
26.00147	165906
26.00958	163694
26.01772	154212
26.02583	158921
26.03397	156552
26.04208	152644
26.05020	154188
26.05833	150161
26.06645	151299
26.07458	143908
26.08270	145284
26.09082	150571
26.09895	150065
26.10707	152441
26.11518	147131
26.12332	139565
26.13143	148908
26.13957	139126
26.14768	136340
26.15580	145289
26.16393	144021
26.17205	139443
26.18018	134624
26.18830	133782
26.19642	133098
26.20455	137833
26.21267	125454
26.22080	122749
26.22892	127468
26.23703	120738
26.24517	121537
26.25328	118482
26.26140	120225
26.26953	113214
26.27765	107319
26.28578	114955
26.29390	114542
26.30202	106106
26.31015	108649
26.31827	114450
26.32640	107485
26.33452	105863
26.34263	98017
26.35077	100218
26.35888	106027
26.36702	104637
26.37513	105017
26.38325	113040
26.39138	116590
26.39950	121052
26.40762	122124
26.41575	113945
26.42387	114244
26.43200	109499
26.44012	98953
26.44823	99743
26.45637	98838
26.46448	101785
26.47262	91783
26.48073	99022
26.48885	89972
26.49698	87212
26.50510	92753
26.51323	87562
26.52135	86572
26.52947	79609
26.53760	80897
26.54572	82907
26.55383	77092
26.56197	79367
26.57008	76282
26.57822	78510
26.58633	75732
26.59445	76621
26.60258	72493
26.61070	75400
26.61883	75197
26.62695	69680
26.63507	72886
26.64320	76815
26.65132	79632
26.65943	79413
26.66757	82917
26.67568	94921
26.68382	82641
26.69193	89641
26.70005	79002
26.70818	76047
26.71630	71825
26.72443	70041
26.73255	69430
26.74067	69013
26.74880	72378
26.75692	69396
26.76505	66543
26.77317	70960
26.78128	68811
26.78942	71243
26.79753	71883
26.80565	74423
26.81378	77142
26.82190	71890
26.83003	74726
26.83815	67001
26.84627	68822
26.85440	67812
26.86252	60775
26.87065	67302
26.87877	63548
26.88688	64873
26.89502	59922
26.90313	61762
26.91125	59971
26.91938	59163
26.92750	58407
26.93563	59128
26.94375	57022
26.95187	61339
26.96000	60739
26.96812	75131
26.97625	88852
26.98437	118542
26.99248	169254
27.00062	242545
27.00873	337901
27.01687	419550
27.02498	493556
27.03310	538949
27.04123	532433
27.04935	500839
27.05747	433301
27.06560	381474
27.07372	314053
27.08185	262742
27.08997	232647
27.09808	196245
27.10622	187379
27.11433	165880
27.12247	156068
27.13058	149674
27.13870	146723
27.14683	133933
27.15495	128636
27.16308	120262
27.17120	121500
27.17932	124013
27.18745	126452
27.19557	125002
27.20368	111466
27.21182	112140
27.21993	113019
27.22807	100812
27.23618	97090
27.24430	93366
27.25243	88861
27.26055	85991
27.26868	84505
27.27680	80797
27.28492	79298
27.29305	77197
27.30117	77080
27.30928	76108
27.31742	71342
27.32553	69163
27.33367	72366
27.34178	70216
27.34990	73488
27.35803	70745
27.36615	73471
27.37428	72950
27.38240	75793
27.39052	72765
27.39865	68133
27.40677	68592
27.41490	65481
27.42302	62664
27.43113	62861
27.43927	62973
27.44738	65489
27.45550	62576
27.46363	64844
27.47175	62711
27.47988	61636
27.48800	62792
27.49612	66342
27.50425	64155
27.51237	66959
27.52050	68252
27.52862	65931
27.53673	68366
27.54487	68423
27.55298	64280
27.56112	61830
27.56923	63409
27.57735	69681
27.58548	78865
27.59360	86318
27.60172	88851
27.60985	91799
27.61797	87897
27.62610	76776
27.63422	71496
27.64233	64746
27.65047	63167
27.65858	63094
27.66672	61769
27.67483	61690
27.68295	65136
27.69108	68350
27.69920	62201
27.70732	67400
27.71545	62458
27.72357	60964
27.73170	51601
27.73982	54261
27.74793	52380
27.75607	55373
27.76418	52310
27.77232	55878
27.78043	53222
27.78855	60603
27.79668	63111
27.80480	55527
27.81293	51791
27.82105	58613
27.82917	53795
27.83730	53771
27.84542	54746
27.85353	54535
27.86167	52784
27.86978	53316
27.87792	53231
27.88603	47398
27.89415	50360
27.90228	50837
27.91040	48345
27.91853	54419
27.92665	49854
27.93477	47468
27.94290	51309
27.95102	48795
27.95913	50818
27.96727	46798
27.97538	48506
27.98352	47510
27.99163	48143
27.99975	54198
28.00788	51205
28.01600	56169
28.02413	60984
28.03225	71303
28.04037	74724
28.04850	84324
28.05662	88936
28.06475	86006
28.07287	77242
28.08098	68579
28.08912	65281
28.09723	62047
28.10535	53120
28.11348	49572
28.12160	52170
28.12973	51896
28.13785	49179
28.14597	46101
28.15410	45852
28.16222	45759
28.17035	45901
28.17847	50960
28.18658	55165
28.19472	66039
28.20283	70986
28.21097	85471
28.21908	94559
28.22720	89778
28.23533	86118
28.24345	85689
28.25157	72516
28.25970	64169
28.26782	57894
28.27595	55429
28.28407	56928
28.29218	54562
28.30032	57462
28.30843	67057
28.31657	78568
28.32468	89853
28.33280	101842
28.34093	117225
28.34905	139013
28.35717	151643
28.36530	161543
28.37342	176704
28.38155	181166
28.38967	190627
28.39778	202957
28.40592	193940
28.41403	189578
28.42217	187249
28.43028	179723
28.43840	162457
28.44653	148686
28.45465	136261
28.46278	133506
28.47090	124021
28.47902	112516
28.48715	118840
28.49527	106772
28.50338	104547
28.51152	102376
28.51963	96163
28.52777	95435
28.53588	95104
28.54400	86302
28.55213	76550
28.56025	77877
28.56838	73572
28.57650	75995
28.58462	74300
28.59275	74099
28.60087	71648
28.60900	70215
28.61712	66628
28.62523	69975
28.63337	70806
28.64148	75736
28.64960	73168
28.65773	71838
28.66585	71885
28.67398	76882
28.68210	71183
28.69022	67722
28.69835	71478
28.70647	64963
28.71460	64833
28.72272	61527
28.73083	60348
28.73897	62152
28.74708	66808
28.75520	76667
28.76333	74912
28.77145	83557
28.77958	85222
28.78770	79601
28.79582	71126
28.80395	74571
28.81207	72392
28.82020	70803
28.82832	67615
28.83643	65730
28.84457	60384
28.85268	67916
28.86082	62259
28.86893	65320
28.87705	65855
28.88518	71263
28.89330	75743
28.90142	81815
28.90955	77446
28.91767	74833
28.92580	73162
28.93392	69017
28.94203	64439
28.95017	66094
28.95828	67561
28.96642	61820
28.97453	62967
28.98265	56649
28.99078	59982
28.99890	59762
29.00703	56450
29.01515	54405
29.02327	50067
29.03140	50110
29.03952	52901
29.04763	52021
29.05577	53013
29.06388	53419
29.07202	59352
29.08013	60000
29.08825	55913
29.09638	59256
29.10450	57547
29.11263	54214
29.12075	51001
29.12887	54047
29.13700	50322
29.14512	51862
29.15323	55422
29.16137	51945
29.16948	52942
29.17762	61412
29.18573	65863
29.19385	71397
29.20198	86257
29.21010	101460
29.21823	106278
29.22635	105962
29.23447	100878
29.24260	93506
29.25072	90969
29.25885	85653
29.26697	88596
29.27508	88837
29.28322	82838
29.29133	74924
29.29945	68598
29.30758	62102
29.31570	53446
29.32383	49534
29.33195	50980
29.34007	49721
29.34820	51903
29.35632	46014
29.36445	48789
29.37257	50441
29.38068	50768
29.38882	48457
29.39693	49114
29.40505	50207
29.41318	49947
29.42130	46298
29.42943	50721
29.43755	50410
29.44567	51258
29.45380	50206
29.46192	50712
29.47005	48396
29.47817	49974
29.48628	56539
29.49442	51309
29.50253	48614
29.51067	52012
29.51878	55387
29.52690	54347
29.53503	50555
29.54315	50432
29.55127	50896
29.55940	47117
29.56752	43073
29.57565	45339
29.58377	47733
29.59188	46130
29.60002	44738
29.60813	44801
29.61627	43758
29.62438	47231
29.63250	45668
29.64063	46346
29.64875	46164
29.65688	44011
29.66500	43575
29.67312	46886
29.68125	51002
29.68937	55933
29.69748	54596
29.70562	52360
29.71373	55116
29.72187	49680
29.72998	47595
29.73810	48808
29.74623	48377
29.75435	44689
29.76248	47231
29.77060	43639
29.77872	40969
29.78685	42251
29.79497	41290
29.80308	40434
29.81122	41203
29.81933	39393
29.82747	43963
29.83558	40271
29.84370	40197
29.85183	41890
29.85995	48746
29.86808	62544
29.87620	83354
29.88432	115027
29.89245	149763
29.90057	178542
29.90870	186309
29.91682	163546
29.92493	134474
29.93307	104848
29.94118	79244
29.94930	64460
29.95743	67332
29.96555	67490
29.97368	74476
29.98180	77805
29.98992	84386
29.99805	97400
30.00617	100776
30.01430	104611
30.02242	109845
30.03053	109145
30.03867	110545
30.04678	116543
30.05492	111679
30.06303	112630
30.07115	114272
30.07928	111781
30.08740	109831
30.09552	109909
30.10365	100546
30.11177	105201
30.11990	102381
30.12802	93329
30.13613	99062
30.14427	89669
30.15238	83289
30.16052	85051
30.16863	81607
30.17675	78357
30.18488	80395
30.19300	79469
30.20112	76259
30.20925	73558
30.21737	70873
30.22550	71422
30.23362	69242
30.24173	65627
30.24987	59346
30.25798	59011
30.26612	58751
30.27423	55310
30.28235	54527
30.29048	55801
30.29860	57066
30.30673	53344
30.31485	60252
30.32297	56256
30.33110	54177
30.33922	51331
30.34733	50704
30.35547	53878
30.36358	50717
30.37172	57162
30.37983	50763
30.38795	51778
30.39608	52120
30.40420	53380
30.41233	49816
30.42045	49956
30.42857	47500
30.43670	46938
30.44482	50037
30.45293	46675
30.46107	46650
30.46918	49939
30.47732	44674
30.48543	47861
30.49355	44680
30.50168	46273
30.50980	44288
30.51793	47342
30.52605	47707
30.53417	47326
30.54230	46508
30.55042	48974
30.55855	46325
30.56667	46109
30.57478	45283
30.58292	47577
30.59103	47378
30.59915	46025
30.60728	48862
30.61540	45376
30.62353	45873
30.63165	42857
30.63977	43195
30.64790	45090
30.65602	44928
30.66415	40796
30.67227	42427
30.68038	40501
30.68852	41936
30.69663	49551
30.70477	43750
30.71288	42080
30.72100	43026
30.72913	42005
30.73725	41695
30.74537	48812
30.75350	47725
30.76162	45752
30.76975	48727
30.77787	56495
30.78598	67749
30.79412	81675
30.80223	107405
30.81037	114619
30.81848	119124
30.82660	107211
30.83473	92525
30.84285	74978
30.85098	66470
30.85910	59698
30.86722	60326
30.87535	61334
30.88347	64877
30.89158	60885
30.89972	64071
30.90783	64280
30.91597	68301
30.92408	66407
30.93220	66441
30.94033	63825
30.94845	62065
30.95658	62944
30.96470	66238
30.97282	68833
30.98095	65352
30.98907	69374
30.99718	70888
31.00532	67297
31.01343	68940
31.02157	67847
31.02968	71012
31.03780	68500
31.04593	68025
31.05405	67996
31.06218	67851
31.07030	69977
31.07842	78244
31.08655	80688
31.09467	92038
31.10280	91421
31.11092	92165
31.11903	91266
31.12717	90589
31.13528	81729
31.14340	77014
31.15153	80765
31.15965	82400
31.16778	78605
31.17590	85791
31.18402	92982
31.19215	119655
31.20027	142140
31.20840	184417
31.21652	217205
31.22463	247948
31.23277	252531
31.24088	233900
31.24900	191905
31.25713	144332
31.26525	121611
31.27338	95740
31.28150	81850
31.28962	79293
31.29775	70314
31.30587	71845
31.31400	71491
31.32212	69720
31.33023	67725
31.33837	67742
31.34648	69297
31.35462	66167
31.36273	70604
31.37085	70610
31.37898	72002
31.38710	72663
31.39522	71881
31.40335	66666
31.41147	73236
31.41960	65819
31.42772	61933
31.43583	64414
31.44397	62235
31.45208	66476
31.46022	61985
31.46833	62600
31.47645	59609
31.48458	63264
31.49270	58121
31.50083	64204
31.50895	60912
31.51707	58823
31.52520	61458
31.53332	61093
31.54143	65406
31.54957	60812
31.55768	64366
31.56582	59243
31.57393	58164
31.58205	59937
31.59018	60540
31.59830	54426
31.60643	52231
31.61455	56560
31.62267	52962
31.63080	52779
31.63892	56640
31.64703	64082
31.65517	61435
31.66328	62722
31.67142	59693
31.67953	59285
31.68765	57830
31.69578	56547
31.70390	55583
31.71203	52801
31.72015	57589
31.72827	50507
31.73640	52190
31.74452	51454
31.75265	48535
31.76077	49759
31.76888	49739
31.77702	47920
31.78513	46686
31.79325	52435
31.80138	53248
31.80950	56754
31.81763	56398
31.82575	50312
31.83387	48534
31.84200	53443
31.85012	54064
31.85825	55752
31.86637	58588
31.87448	57587
31.88262	61054
31.89073	60120
31.89887	73496
31.90698	73359
31.91510	83700
31.92323	88335
31.93135	87668
31.93947	91700
31.94760	93447
31.95572	99942
31.96385	105274
31.97197	104436
31.98008	106941
31.98822	107288
31.99633	105938
32.00447	102351
32.01258	104747
32.02070	102853
32.02883	98156
32.03695	94698
32.04507	93319
32.05320	93553
32.06132	88673
32.06945	83939
32.07757	86723
32.08568	83669
32.09382	76413
32.10193	71422
32.11007	71065
32.11818	67975
32.12630	62782
32.13443	63692
32.14255	65828
32.15068	65998
32.15880	60898
32.16692	64610
32.17505	59458
32.18317	60868
32.19128	60377
32.19942	56082
32.20753	60464
32.21567	56805
32.22378	54189
32.23190	60750
32.24003	55579
32.24815	58343
32.25628	52548
32.26440	54491
32.27252	59143
32.28065	60325
32.28877	59731
32.29688	53244
32.30502	55777
32.31313	54321
32.32127	48536
32.32938	52710
32.33750	51481
32.34563	47913
32.35375	48650
32.36188	51428
32.37000	55399
32.37812	48494
32.38625	48994
32.39437	49955
32.40250	50798
32.41062	47516
32.41873	49346
32.42687	47891
32.43498	43149
32.44310	48913
32.45123	45821
32.45935	48192
32.46748	47591
32.47560	45572
32.48372	45499
32.49185	42989
32.49997	48789
32.50810	49318
32.51622	46025
32.52433	46145
32.53247	44975
32.54058	43166
32.54872	44711
32.55683	48805
32.56495	46224
32.57308	44755
32.58120	47572
32.58932	43490
32.59745	44306
32.60557	47275
32.61370	43929
32.62182	44601
32.62993	45728
32.63807	50110
32.64618	52288
32.65432	59602
32.66243	57571
32.67055	60277
32.67868	59180
32.68680	55711
32.69492	54325
32.70305	53787
32.71117	50255
32.71930	49515
32.72742	49673
32.73553	48618
32.74367	48977
32.75178	46019
32.75992	47334
32.76803	43399
32.77615	44550
32.78428	44515
32.79240	43539
32.80053	40154
32.80865	44827
32.81677	42404
32.82490	40247
32.83302	42942
32.84113	42503
32.84927	46684
32.85738	42728
32.86552	44259
32.87363	42465
32.88175	42080
32.88988	43867
32.89800	44712
32.90613	48579
32.91425	47378
32.92237	44584
32.93050	45445
32.93862	43753
32.94675	41091
32.95487	48411
32.96298	50491
32.97112	48979
32.97923	52110
32.98735	57501
32.99548	61037
33.00360	67480
33.01173	64799
33.01985	63575
33.02797	61349
33.03610	59223
33.04422	55464
33.05235	53887
33.06047	54512
33.06858	57522
33.07672	56821
33.08483	60291
33.09295	62130
33.10108	66737
33.10920	73082
33.11733	72236
33.12545	72244
33.13357	71738
33.14170	65054
33.14982	58798
33.15795	52449
33.16607	54892
33.17418	51233
33.18232	51586
33.19043	50885
33.19857	48161
33.20668	47955
33.21480	48177
33.22293	51018
33.23105	50375
33.23917	47806
33.24730	46901
33.25542	44787
33.26355	47189
33.27167	45939
33.27978	44910
33.28792	43134
33.29603	47139
33.30417	44992
33.31228	43668
33.32040	43581
33.32853	43762
33.33665	43435
33.34478	42807
33.35290	45483
33.36102	47203
33.36915	49073
33.37727	50831
33.38538	50821
33.39352	50548
33.40163	45100
33.40977	46655
33.41788	42755
33.42600	43134
33.43413	44013
33.44225	42053
33.45038	43006
33.45850	42108
33.46662	38966
33.47475	41769
33.48287	41835
33.49098	43335
33.49912	41658
33.50723	44198
33.51537	42433
33.52348	43156
33.53160	45082
33.53973	46053
33.54785	51257
33.55598	48362
33.56410	55329
33.57222	50818
33.58035	50252
33.58847	50003
33.59660	47115
33.60472	45175
33.61283	43756
33.62097	43674
33.62908	43369
33.63720	46710
33.64533	48148
33.65345	51699
33.66158	49174
33.66970	46556
33.67782	46498
33.68595	43464
33.69407	48543
33.70220	46860
33.71032	45571
33.71843	44024
33.72657	43030
33.73468	42895
33.74280	46815
33.75093	42598
33.75905	42968
33.76718	43114
33.77530	41838
33.78342	43890
33.79155	43010
33.79967	44361
33.80780	41517
33.81592	45863
33.82403	40977
33.83217	41460
33.84028	44598
33.84842	43132
33.85653	41030
33.86465	48974
33.87278	43576
33.88090	51909
33.88902	43617
33.89715	43155
33.90527	46670
33.91340	46728
33.92152	44900
33.92963	46713
33.93777	45428
33.94588	43620
33.95402	45185
33.96213	41776
33.97025	43590
33.97838	45754
33.98650	44224
33.99463	42413
34.00275	48120
34.01087	45633
34.01900	41384
34.02712	43225
34.03523	43135
34.04337	42771
34.05148	41007
34.05962	47200
34.06773	42752
34.07585	44046
34.08398	48164
34.09210	41774
34.10023	43902
34.10835	42696
34.11647	48339
34.12460	47155
34.13272	46443
34.14083	49022
34.14897	45066
34.15708	49071
34.16522	44916
34.17333	50341
34.18145	45544
34.18958	49263
34.19770	46735
34.20583	45345
34.21395	44916
34.22207	44139
34.23020	44652
34.23832	49733
34.24645	48166
34.25457	44532
34.26268	48650
34.27082	42602
34.27893	46117
34.28705	44305
34.29518	43578
34.30330	44157
34.31143	45147
34.31955	46316
34.32767	41178
34.33580	48927
34.34392	41331
34.35205	47073
34.36017	43560
34.36828	47114
34.37642	42761
34.38453	49416
34.39267	44249
34.40078	43655
34.40890	40145
34.41703	43960
34.42515	46386
34.43327	40458
34.44140	40322
34.44952	46949
34.45765	45276
34.46577	39366
34.47388	46037
34.48202	42977
34.49013	44129
34.49827	50456
34.50638	50521
34.51450	65179
34.52263	63955
34.53075	75559
34.53887	88138
34.54700	94243
34.55512	97733
34.56325	98713
34.57137	96794
34.57948	90190
34.58762	85694
34.59573	78046
34.60387	76088
34.61198	70558
34.62010	68767
34.62823	65376
34.63635	64926
34.64448	60256
34.65260	59105
34.66072	58340
34.66885	55723
34.67697	60313
34.68508	51352
34.69322	50789
34.70133	52554
34.70947	52729
34.71758	54767
34.72570	56297
34.73383	52602
34.74195	50744
34.75008	53427
34.75820	52191
34.76632	53390
34.77445	52488
34.78257	53014
34.79068	53184
34.79882	53096
34.80693	47785
34.81507	53720
34.82318	47479
34.83130	50832
34.83943	55912
34.84755	55720
34.85568	49517
34.86380	55221
34.87192	50744
34.88005	52677
34.88817	51793
34.89630	53936
34.90442	50036
34.91253	51124
34.92067	53827
34.92878	50991
34.93690	52743
34.94503	58233
34.95315	58831
34.96128	59552
34.96940	54543
34.97752	57323
34.98565	58962
34.99377	57163
35.00190	56226
35.01002	51576
35.01813	52086
35.02627	50431
35.03438	46141
35.04252	48047
35.05063	48617
35.05875	49818
35.06688	50388
35.07500	48402
35.08312	52551
35.09125	49285
35.09937	49675
35.10750	50895
35.11562	52279
35.12373	48195
35.13187	47363
35.13998	46605
35.14812	48264
35.15623	51955
35.16435	55178
35.17248	50386
35.18060	50887
35.18873	49300
35.19685	46204
35.20497	49062
35.21310	50874
35.22122	46419
35.22933	47148
35.23747	45639
35.24558	52304
35.25372	47581
35.26183	46846
35.26995	50166
35.27808	51009
35.28620	49780
35.29433	47346
35.30245	50587
35.31057	44187
35.31870	47893
35.32682	43861
35.33493	47860
35.34307	43048
35.35118	47578
35.35932	46560
35.36743	50844
35.37555	49537
35.38368	50775
35.39180	50077
35.39993	52495
35.40805	50210
35.41617	52125
35.42430	57322
35.43242	56434
35.44055	59502
35.44867	59536
35.45678	59128
35.46492	54348
35.47303	52662
35.48115	51091
35.48928	50556
35.49740	51926
35.50553	55597
35.51365	50898
35.52177	48778
35.52990	48281
35.53802	50709
35.54615	48312
35.55427	46028
35.56238	47607
35.57052	52168
35.57863	48502
35.58675	47454
35.59488	46188
35.60300	46233
35.61113	50711
35.61925	45551
35.62737	50693
35.63550	47057
35.64362	44696
35.65175	46654
35.65987	49480
35.66798	45440
35.67612	54438
35.68423	52454
35.69237	50745
35.70048	51682
35.70860	49735
35.71673	50010
35.72485	48784
35.73297	44754
35.74110	53043
35.74922	50401
35.75735	55262
35.76547	54187
35.77358	56986
35.78172	53590
35.78983	52627
35.79797	55151
35.80608	49615
35.81420	52513
35.82233	51103
35.83045	54560
35.83858	48006
35.84670	52140
35.85482	45993
35.86295	47597
35.87107	51700
35.87918	49032
35.88732	46588
35.89543	49800
35.90357	45983
35.91168	47297
35.91980	48789
35.92793	51876
35.93605	50525
35.94418	49265
35.95230	49354
35.96042	46660
35.96855	49991
35.97667	47190
35.98478	49649
35.99292	46277
36.00103	51475
36.00917	52980
36.01728	50249
36.02540	48864
36.03353	53389
36.04165	50257
36.04978	50864
36.05790	49355
36.06602	49593
36.07415	49067
36.08227	50173
36.09040	47522
36.09852	48230
36.10663	47615
36.11477	48176
36.12288	46758
36.13100	52471
36.13913	53499
36.14725	52899
36.15538	52707
36.16350	52688
36.17162	48948
36.17975	50456
36.18787	48524
36.19600	49305
36.20412	48788
36.21223	51047
36.22037	45129
36.22848	48482
36.23662	48267
36.24473	49413
36.25285	51340
36.26098	47239
36.26910	50901
36.27722	48499
36.28535	47978
36.29347	58878
36.30160	60362
36.30972	64459
36.31783	64866
36.32597	62007
36.33408	58314
36.34222	55942
36.35033	54206
36.35845	49223
36.36658	55255
36.37470	54718
36.38282	52887
36.39095	51021
36.39907	58281
36.40720	54430
36.41532	57359
36.42343	54850
36.43157	53090
36.43968	51517
36.44782	54314
36.45593	47808
36.46405	53757
36.47218	50413
36.48030	48868
36.48843	48689
36.49655	54862
36.50467	53912
36.51280	53965
36.52092	56136
36.52903	57210
36.53717	52980
36.54528	56116
36.55342	55306
36.56153	54174
36.56965	56254
36.57778	55365
36.58590	57051
36.59403	57505
36.60215	55020
36.61027	52424
36.61840	58401
36.62652	56681
36.63463	54359
36.64277	55466
36.65088	57873
36.65902	54696
36.66713	66375
36.67525	55992
36.68338	54052
36.69150	55323
36.69963	57207
36.70775	56863
36.71587	59084
36.72400	61685
36.73212	57944
36.74025	56105
36.74837	57065
36.75648	52605
36.76462	54994
36.77273	57797
36.78085	57806
36.78898	58547
36.79710	57465
36.80523	53061
36.81335	58570
36.82147	54249
36.82960	53264
36.83772	54378
36.84585	55020
36.85397	54677
36.86208	54869
36.87022	52761
36.87833	54871
36.88647	56336
36.89458	56215
36.90270	55826
36.91083	55490
36.91895	56692
36.92707	60803
36.93520	57818
36.94332	62129
36.95145	69938
36.95957	66335
36.96768	68926
36.97582	70060
36.98393	67811
36.99207	62671
37.00018	58912
37.00830	60817
37.01643	59381
37.02455	55850
37.03267	60275
37.04080	56289
37.04892	55685
37.05705	55014
37.06517	57183
37.07328	59554
37.08142	57766
37.08953	57268
37.09767	59699
37.10578	56790
37.11390	56014
37.12203	55036
37.13015	54488
37.13828	54859
37.14640	58031
37.15452	54750
37.16265	55824
37.17077	59375
37.17888	59001
37.18702	58153
37.19513	57747
37.20327	58788
37.21138	55760
37.21950	54991
37.22763	58866
37.23575	54141
37.24388	55241
37.25200	61002
37.26012	55219
37.26825	56330
37.27637	56403
37.28450	54318
37.29262	54655
37.30073	50139
37.30887	65686
37.31698	68450
37.32510	70163
37.33323	76914
37.34135	82606
37.34948	95190
37.35760	91486
37.36572	93612
37.37385	87596
37.38197	88629
37.39010	80176
37.39822	79422
37.40633	72146
37.41447	80456
37.42258	77329
37.43070	73315
37.43883	74047
37.44695	71702
37.45508	72443
37.46320	67892
37.47132	67274
37.47945	65444
37.48757	68004
