C:\MassHunter\GCMS\1\data\JTB-E18\JTB-E18-035-05.D Wed Oct 16 12:06:24 2019
Start of data points
2.09528	187996
2.10342	182569
2.11153	174738
2.11967	170980
2.12778	169348
2.13590	157657
2.14403	156298
2.15215	149042
2.16028	136501
2.16840	138287
2.17652	138176
2.18465	132568
2.19277	126392
2.20088	127575
2.20902	122053
2.21713	117506
2.22527	116714
2.23338	112330
2.24150	110916
2.24963	105298
2.25775	138384
2.26588	708788
2.27400	1985901
2.28212	1369670
2.29025	547947
2.29837	329382
2.30648	272066
2.31462	251381
2.32273	226298
2.33087	203591
2.33898	184007
2.34710	173338
2.35523	159573
2.36335	159222
2.37148	163871
2.37960	197854
2.38772	183081
2.39585	154738
2.40397	141562
2.41210	152180
2.42022	166594
2.42833	146574
2.43647	142265
2.44458	145926
2.45270	139918
2.46083	125035
2.46895	118075
2.47708	114245
2.48520	116017
2.49332	118709
2.50145	118977
2.50957	110091
2.51770	108330
2.52582	105633
2.53393	114975
2.54207	111609
2.55018	139075
2.55832	151963
2.56643	127132
2.57455	114648
2.58268	113234
2.59080	114197
2.59892	221888
2.60705	589382
2.61517	625405
2.62330	410414
2.63142	270929
2.63953	209849
2.64767	172402
2.65578	166046
2.66392	154414
2.67203	182327
2.68015	181709
2.68828	139924
2.69640	125688
2.70452	113966
2.71265	102672
2.72077	104973
2.72890	99539
2.73702	105088
2.74513	99950
2.75327	100089
2.76138	98974
2.76952	103811
2.77763	131759
2.78575	155127
2.79388	128850
2.80200	124320
2.81013	151790
2.81825	296290
2.82637	598083
2.83450	634530
2.84262	371056
2.85073	268371
2.85887	239457
2.86698	208358
2.87512	170622
2.88323	151658
2.89135	135068
2.89948	130343
2.90760	124931
2.91573	111992
2.92385	105166
2.93197	102602
2.94010	101382
2.94822	103451
2.95635	108220
2.96447	109241
2.97258	99496
2.98072	100925
2.98883	106823
2.99695	113804
3.00508	126257
3.01320	154019
3.02133	391970
3.02945	817529
3.03757	1291126
3.04570	3653098
3.05382	9441951
3.06195	1.097983E+07
3.07007	6943351
3.07818	3888028
3.08632	3244173
3.09443	3330639
3.10255	3827382
3.11068	3784765
3.11880	2717588
3.12693	1886793
3.13505	1483278
3.14317	1210933
3.15130	1019476
3.15942	908332
3.16755	850010
3.17567	866918
3.18378	1177249
3.19192	1523199
3.20003	1331621
3.20817	993508
3.21628	797031
3.22440	717392
3.23253	626598
3.24065	545763
3.24877	481048
3.25690	439115
3.26502	408818
3.27315	436865
3.28127	708152
3.28938	1500343
3.29752	2634861
3.30563	3126262
3.31377	2658776
3.32188	1966302
3.33000	1517130
3.33813	1255519
3.34625	1058862
3.35437	926834
3.36250	966204
3.37062	1209500
3.37875	1426977
3.38687	1261126
3.39498	1357278
3.40312	2629403
3.41123	4360113
3.41937	4104444
3.42748	2547303
3.43560	1544734
3.44373	1087929
3.45185	875437
3.45998	766435
3.46810	693406
3.47622	614531
3.48435	546999
3.49247	504783
3.50058	466275
3.50872	435881
3.51683	411070
3.52497	410591
3.53308	391358
3.54120	361189
3.54933	350742
3.55745	358905
3.56558	382557
3.57370	409513
3.58182	382202
3.58995	342456
3.59807	330576
3.60620	379161
3.61432	717149
3.62243	1637954
3.63057	2632104
3.63868	2541679
3.64680	1673953
3.65493	1230740
3.66305	2025671
3.67118	4137825
3.67930	4919656
3.68742	3590642
3.69555	2236044
3.70367	1596899
3.71180	1287490
3.71992	1092786
3.72803	993204
3.73617	883311
3.74428	822592
3.75240	761143
3.76053	737982
3.76865	737440
3.77678	688427
3.78490	676855
3.79302	678814
3.80115	902061
3.80927	1310582
3.81740	1378605
3.82552	1073342
3.83363	829356
3.84177	700942
3.84988	624810
3.85802	554937
3.86613	515351
3.87425	486778
3.88238	465065
3.89050	438211
3.89862	433213
3.90675	434314
3.91487	525906
3.92300	606390
3.93112	615555
3.93923	649248
3.94737	966992
3.95548	1768855
3.96362	2209774
3.97173	1830438
3.97985	1214695
3.98798	999023
3.99610	1370498
4.00423	2299022
4.01235	2697873
4.02047	2143563
4.02860	1389955
4.03672	920044
4.04483	700937
4.05297	588399
4.06108	530803
4.06922	451217
4.07733	416076
4.08545	369725
4.09358	362023
4.10170	333773
4.10983	321104
4.11795	310431
4.12607	323620
4.13420	403181
4.14232	518329
4.15043	575219
4.15857	518848
4.16668	419100
4.17482	363210
4.18293	314495
4.19105	297756
4.19918	415502
4.20730	1389249
4.21543	4823191
4.22355	1.016188E+07
4.23167	1.397069E+07
4.23980	1.325727E+07
4.24792	9238925
4.25605	5768880
4.26417	3817811
4.27228	2697493
4.28042	1961212
4.28853	1486991
4.29665	1192199
4.30478	1014214
4.31290	874349
4.32103	766001
4.32915	685135
4.33727	651015
4.34540	624727
4.35352	595113
4.36165	563547
4.36977	518356
4.37788	460661
4.38602	425232
4.39413	399572
4.40225	382988
4.41038	362235
4.41850	348908
4.42663	334403
4.43475	328032
4.44287	336978
4.45100	336698
4.45912	340529
4.46725	315857
4.47537	297503
4.48348	276359
4.49162	268974
4.49973	262468
4.50787	255683
4.51598	245437
4.52410	237088
4.53223	239299
4.54035	242953
4.54847	235077
4.55660	230898
4.56472	230054
4.57285	218491
4.58097	209628
4.58908	209124
4.59722	209353
4.60533	212180
4.61347	234277
4.62158	312591
4.62970	421189
4.63783	514256
4.64595	464413
4.65408	383517
4.66220	302996
4.67032	261151
4.67845	247449
4.68657	231493
4.69468	226620
4.70282	213228
4.71093	198166
4.71907	202092
4.72718	196511
4.73530	186905
4.74343	177083
4.75155	180031
4.75968	182266
4.76780	166667
4.77592	188407
4.78405	197609
4.79217	238374
4.80030	284840
4.80842	288856
4.81653	266013
4.82467	235558
4.83278	225863
4.84090	232837
4.84903	222410
4.85715	211076
4.86528	203710
4.87340	198107
4.88152	180654
4.88965	175589
4.89777	179479
4.90590	190156
4.91402	244356
4.92213	353028
4.93027	522991
4.93838	661315
4.94650	701233
4.95463	648702
4.96275	553099
4.97088	466804
4.97900	407492
4.98712	361370
4.99525	332755
5.00337	307405
5.01150	327086
5.01962	428348
5.02773	672365
5.03587	897919
5.04398	920279
5.05212	773681
5.06023	616250
5.06835	524210
5.07648	464982
5.08460	445053
5.09272	425698
5.10085	457678
5.10897	492193
5.11710	498754
5.12522	451262
5.13333	402736
5.14147	356730
5.14958	364999
5.15772	384117
5.16583	418343
5.17395	460513
5.18208	481360
5.19020	461142
5.19832	427413
5.20645	384324
5.21457	345970
5.22270	327734
5.23082	312067
5.23893	303816
5.24707	286759
5.25518	262563
5.26332	256941
5.27143	245103
5.27955	236340
5.28768	236637
5.29580	221557
5.30393	216509
5.31205	210570
5.32017	209575
5.32830	217804
5.33642	223988
5.34453	212512
5.35267	203761
5.36078	191342
5.36892	190425
5.37703	186635
5.38515	193116
5.39328	188651
5.40140	187303
5.40953	173252
5.41765	170182
5.42577	170893
5.43390	166151
5.44202	168588
5.45015	167673
5.45827	167148
5.46638	165245
5.47452	156764
5.48263	158921
5.49075	151947
5.49888	155569
5.50700	154339
5.51513	156005
5.52325	153336
5.53137	154472
5.53950	156811
5.54762	157936
5.55575	164037
5.56387	174086
5.57198	177825
5.58012	181743
5.58823	175429
5.59635	163224
5.60448	167124
5.61260	158505
5.62073	163076
5.62885	163492
5.63697	162878
5.64510	162213
5.65322	156457
5.66135	155876
5.66947	162532
5.67758	183892
5.68572	207889
5.69383	221306
5.70197	214960
5.71008	221076
5.71820	229208
5.72633	224464
5.73445	223723
5.74257	203304
5.75070	212295
5.75882	218932
5.76695	231531
5.77507	227069
5.78318	212347
5.79132	223673
5.79943	294354
5.80757	502632
5.81568	854978
5.82380	1222725
5.83193	1370632
5.84005	1191478
5.84818	866677
5.85630	586000
5.86442	421362
5.87255	323897
5.88067	279369
5.88878	261689
5.89692	272555
5.90503	328995
5.91317	436970
5.92128	554811
5.92940	618620
5.93753	580572
5.94565	485713
5.95378	379870
5.96190	333972
5.97002	328142
5.97815	323513
5.98627	316767
5.99438	293757
6.00252	250558
6.01063	215862
6.01877	197678
6.02688	180557
6.03500	163798
6.04313	154650
6.05125	144208
6.05938	144777
6.06750	143293
6.07562	133004
6.08375	132411
6.09187	130557
6.10000	125872
6.10812	126590
6.11623	161388
6.12437	213937
6.13248	302995
6.14060	370331
6.14873	355240
6.15685	297370
6.16498	248249
6.17310	210614
6.18122	205113
6.18935	212684
6.19747	227592
6.20560	210532
6.21372	197763
6.22183	188172
6.22997	181765
6.23808	163910
6.24620	179593
6.25433	166955
6.26245	171885
6.27058	169001
6.27870	169075
6.28682	168830
6.29495	173195
6.30307	167323
6.31120	182902
6.31932	204059
6.32743	235506
6.33557	251193
6.34368	255118
6.35182	234413
6.35993	216001
6.36805	206974
6.37618	198165
6.38430	200246
6.39242	193263
6.40055	196036
6.40867	189185
6.41680	193379
6.42492	194677
6.43303	194189
6.44117	201077
6.44928	198741
6.45742	206440
6.46553	208453
6.47365	208119
6.48178	209245
6.48990	212595
6.49803	218843
6.50615	218872
6.51427	215300
6.52240	216464
6.53052	222293
6.53863	225230
6.54677	226734
6.55488	228476
6.56302	232927
6.57113	236856
6.57925	245429
6.58738	238479
6.59550	233158
6.60363	231999
6.61175	169321
6.61987	147368
6.62800	135360
6.63612	120618
6.64423	120662
6.65237	123506
6.66048	126030
6.66862	133367
6.67673	133775
6.68485	137647
6.69298	146062
6.70110	175843
6.70923	193886
6.71735	188606
6.72547	173737
6.73360	145218
6.74172	129232
6.74985	107549
6.75797	99641
6.76608	95030
6.77422	90521
6.78233	91819
6.79045	97747
6.79858	96730
6.80670	118387
6.81483	165797
6.82295	252069
6.83107	391718
6.83920	549208
6.84732	660876
6.85545	664546
6.86357	538010
6.87168	377675
6.87982	264443
6.88793	193004
6.89607	141721
6.90418	114455
6.91230	103878
6.92043	98177
6.92855	92379
6.93667	88024
6.94480	85304
6.95292	95106
6.96105	101741
6.96917	129241
6.97728	159518
6.98542	207069
6.99353	259474
7.00167	278154
7.00978	267489
7.01790	230491
7.02603	182977
7.03415	149955
7.04227	124000
7.05040	100223
7.05852	91431
7.06665	86778
7.07477	84218
7.08288	85503
7.09102	86025
7.09913	87514
7.10727	83972
7.11538	86094
7.12350	85894
7.13163	96259
7.13975	95160
7.14788	111481
7.15600	132661
7.16412	201504
7.17225	386871
7.18037	785220
7.18848	1231209
7.19662	1401617
7.20473	1112324
7.21287	723911
7.22098	442865
7.22910	283692
7.23723	211581
7.24535	185547
7.25348	159920
7.26160	147276
7.26972	132525
7.27785	123032
7.28597	116688
7.29408	119793
7.30222	117366
7.31033	117611
7.31847	112082
7.32658	103460
7.33470	107729
7.34283	130931
7.35095	156328
7.35908	192206
7.36720	223543
7.37532	242004
7.38345	220563
7.39157	179464
7.39970	149921
7.40782	124022
7.41593	113044
7.42407	96562
7.43218	95639
7.44030	95498
7.44843	102823
7.45655	119305
7.46468	132846
7.47280	158178
7.48092	168385
7.48905	156863
7.49717	129408
7.50530	113976
7.51342	95002
7.52153	92155
7.52967	87639
7.53778	90314
7.54592	92795
7.55403	105718
7.56215	119173
7.57028	129188
7.57840	138610
7.58652	141428
7.59465	121494
7.60277	102613
7.61090	94632
7.61902	85365
7.62713	77497
7.63527	75048
7.64338	74743
7.65152	71706
7.65963	68743
7.66775	73139
7.67588	71742
7.68400	69541
7.69212	66644
7.70025	70565
7.70837	67247
7.71650	68812
7.72462	69209
7.73273	63763
7.74087	64625
7.74898	68058
7.75712	63856
7.76523	61516
7.77335	62508
7.78148	61403
7.78960	61678
7.79773	63459
7.80585	65593
7.81397	64979
7.82210	63058
7.83022	60389
7.83833	58315
7.84647	65511
7.85458	60702
7.86272	59517
7.87083	61216
7.87895	64611
7.88708	65970
7.89520	62100
7.90333	69854
7.91145	62048
7.91957	69096
7.92770	78556
7.93582	85067
7.94395	86941
7.95207	93043
7.96018	81963
7.96832	68672
7.97643	66302
7.98455	63943
7.99268	58775
8.00080	53469
8.00893	58337
8.01705	55092
8.02517	55192
8.03330	53437
8.04142	49831
8.04955	53076
8.05767	53217
8.06578	52952
8.07392	49655
8.08203	50957
8.09015	49003
8.09828	50893
8.10640	50321
8.11453	51135
8.12265	51468
8.13077	55176
8.13890	62168
8.14702	56880
8.15515	58922
8.16327	59521
8.17138	54923
8.17952	51897
8.18763	48454
8.19577	46960
8.20388	49404
8.21200	46985
8.22013	46727
8.22825	51263
8.23637	50298
8.24450	42502
8.25262	47303
8.26075	48167
8.26887	46757
8.27698	46338
8.28512	45810
8.29323	46230
8.30137	45051
8.30948	47131
8.31760	51133
8.32573	57090
8.33385	50703
8.34198	51994
8.35010	48893
8.35822	45626
8.36635	46702
8.37447	45932
8.38258	42894
8.39072	45575
8.39883	47894
8.40697	42691
8.41508	38680
8.42320	39679
8.43133	46044
8.43945	42258
8.44758	43640
8.45570	44142
8.46382	41395
8.47195	41280
8.48007	43693
8.48818	49820
8.49632	64755
8.50443	101351
8.51257	173896
8.52068	241797
8.52880	275831
8.53693	235355
8.54505	158705
8.55318	117450
8.56130	89801
8.56942	74738
8.57755	66615
8.58567	64249
8.59380	59886
8.60192	57142
8.61003	52994
8.61817	53705
8.62628	53321
8.63440	52111
8.64253	57037
8.65065	49059
8.65878	50904
8.66690	51545
8.67502	47753
8.68315	47092
8.69127	47956
8.69940	52680
8.70752	51430
8.71563	58248
8.72377	72608
8.73188	98671
8.74000	118832
8.74813	134678
8.75625	131528
8.76438	112863
8.77250	88183
8.78062	85022
8.78875	78536
8.79687	77338
8.80500	74636
8.81312	72559
8.82123	70554
8.82937	67470
8.83748	66375
8.84562	64951
8.85373	62543
8.86185	61663
8.86998	61049
8.87810	57976
8.88622	58319
8.89435	60118
8.90247	59807
8.91060	58117
8.91872	62451
8.92683	67248
8.93497	63899
8.94308	61706
8.95122	58464
8.95933	53837
8.96745	52270
8.97558	54613
8.98370	56312
8.99183	54987
8.99995	55133
9.00807	52408
9.01620	55108
9.02432	50597
9.03243	48818
9.04057	47436
9.04868	44779
9.05682	44811
9.06493	52372
9.07305	47022
9.08118	45679
9.08930	48229
9.09743	50002
9.10555	55305
9.11367	60181
9.12180	56179
9.12992	53677
9.13803	48356
9.14617	55202
9.15428	45291
9.16242	48470
9.17053	45834
9.17865	45798
9.18678	45827
9.19490	42547
9.20303	46185
9.21115	43702
9.21927	42744
9.22740	40027
9.23552	43411
9.24365	44326
9.25177	42216
9.25988	46953
9.26802	43628
9.27613	44280
9.28425	43311
9.29238	43676
9.30050	44770
9.30863	43296
9.31675	43964
9.32487	44150
9.33300	51209
9.34112	54524
9.34925	54916
9.35737	45854
9.36548	48976
9.37362	47537
9.38173	44419
9.38987	39840
9.39798	44763
9.40610	42093
9.41423	42386
9.42235	51279
9.43047	54998
9.43860	55356
9.44672	53707
9.45485	47798
9.46297	44852
9.47108	41520
9.47922	46582
9.48733	39189
9.49547	45436
9.50358	44757
9.51170	48392
9.51983	50375
9.52795	44995
9.53607	44305
9.54420	42217
9.55232	39565
9.56045	34782
9.56857	38651
9.57668	39967
9.58482	37446
9.59293	38371
9.60107	35990
9.60918	36198
9.61730	33241
9.62543	35948
9.63355	35645
9.64168	39157
9.64980	36601
9.65792	35398
9.66605	40006
9.67417	31306
9.68228	29334
9.69042	32563
9.69853	33495
9.70667	31420
9.71478	31378
9.72290	30290
9.73103	31300
9.73915	29340
9.74728	30764
9.75540	28349
9.76352	30622
9.77165	28374
9.77977	30710
9.78788	29146
9.79602	27614
9.80413	25969
9.81227	28805
9.82038	27166
9.82850	32044
9.83663	30678
9.84475	36433
9.85288	35733
9.86100	33477
9.86912	30976
9.87725	30783
9.88537	32391
9.89350	28103
9.90162	30383
9.90973	29526
9.91787	34347
9.92598	36520
9.93410	41053
9.94223	49600
9.95035	49474
9.95848	54169
9.96660	56741
9.97472	48505
9.98285	46520
9.99097	41740
9.99910	39150
10.00722	35159
10.01533	34466
10.02347	34118
10.03158	33302
10.03972	31589
10.04783	32421
10.05595	31581
10.06408	29076
10.07220	32957
10.08032	29766
10.08845	30785
10.09657	31682
10.10470	33910
10.11282	28065
10.12093	29532
10.12907	29671
10.13718	30669
10.14532	27990
10.15343	28310
10.16155	30665
10.16968	30036
10.17780	26725
10.18593	27703
10.19405	30038
10.20217	31337
10.21030	29199
10.21842	33625
10.22653	33479
10.23467	39047
10.24278	49725
10.25092	101258
10.25903	224654
10.26715	462175
10.27528	892800
10.28340	1475879
10.29153	2366521
10.29965	3754098
10.30777	5454538
10.31590	6722681
10.32402	6601833
10.33213	5177063
10.34027	3165727
10.34838	1733803
10.35652	1002881
10.36463	677655
10.37275	543769
10.38088	428714
10.38900	344726
10.39713	276137
10.40525	225295
10.41337	190996
10.42150	172197
10.42962	152045
10.43775	144586
10.44587	129276
10.45398	120218
10.46212	105780
10.47023	110839
10.47835	91637
10.48648	90854
10.49460	89813
10.50273	87350
10.51085	85879
10.51897	81272
10.52710	80372
10.53522	77732
10.54335	73323
10.55147	76350
10.55958	77453
10.56772	72601
10.57583	71626
10.58395	68577
10.59208	67881
10.60020	60908
10.60833	58953
10.61645	58024
10.62457	59045
10.63270	55337
10.64082	55587
10.64895	57415
10.65707	53553
10.66518	53245
10.67332	49899
10.68143	50812
10.68957	54497
10.69768	56268
10.70580	53627
10.71393	51247
10.72205	49886
10.73017	51860
10.73830	50782
10.74642	48769
10.75455	49777
10.76267	46113
10.77078	48275
10.77892	46962
10.78703	44063
10.79517	43523
10.80328	43447
10.81140	45082
10.81953	45416
10.82765	44456
10.83578	39071
10.84390	38617
10.85202	40486
10.86015	37668
10.86827	37744
10.87638	40523
10.88452	38760
10.89263	40945
10.90077	38469
10.90888	37266
10.91700	38735
10.92513	37109
10.93325	37558
10.94138	39340
10.94950	36149
10.95762	36330
10.96575	40256
10.97387	40220
10.98198	38319
10.99012	34115
10.99823	38065
11.00637	36280
11.01448	33443
11.02260	36335
11.03073	36664
11.03885	36252
11.04698	36168
11.05510	32952
11.06322	31761
11.07135	34478
11.07947	32900
11.08760	34241
11.09572	37645
11.10383	36514
11.11197	37487
11.12008	37833
11.12820	33350
11.13633	37022
11.14445	34269
11.15258	32632
11.16070	35453
11.16882	33023
11.17695	36253
11.18507	35678
11.19320	37277
11.20132	34553
11.20943	35322
11.21757	36744
11.22568	31902
11.23382	30683
11.24193	31695
11.25005	29722
11.25818	32907
11.26630	39158
11.27442	45428
11.28255	58296
11.29067	64129
11.29880	73260
11.30692	82294
11.31503	91781
11.32317	104076
11.33128	128005
11.33942	135341
11.34753	143295
11.35565	134580
11.36378	110432
11.37190	97221
11.38002	79081
11.38815	73423
11.39627	68852
11.40440	61253
11.41252	58359
11.42063	49768
11.42877	48660
11.43688	49364
11.44502	46277
11.45313	43668
11.46125	44358
11.46938	51354
11.47750	63087
11.48563	65128
11.49375	61913
11.50187	63860
11.51000	59846
11.51812	61263
11.52623	59420
11.53437	56856
11.54248	53719
11.55062	54298
11.55873	53297
11.56685	47814
11.57498	45598
11.58310	55321
11.59123	62477
11.59935	72621
11.60747	75760
11.61560	78092
11.62372	65348
11.63183	56915
11.63997	48818
11.64808	45555
11.65622	44342
11.66433	44344
11.67245	45655
11.68058	47662
11.68870	49694
11.69683	54428
11.70495	51660
11.71307	57437
11.72120	52980
11.72932	55368
11.73745	52282
11.74557	50601
11.75368	47742
11.76182	43017
11.76993	40684
11.77805	38532
11.78618	40139
11.79430	38407
11.80243	38727
11.81055	38836
11.81867	36542
11.82680	36929
11.83492	35509
11.84305	35081
11.85117	38029
11.85928	34665
11.86742	33879
11.87553	32543
11.88367	34260
11.89178	36052
11.89990	34273
11.90803	38684
11.91615	41405
11.92427	41934
11.93240	46503
11.94052	43929
11.94865	40172
11.95677	41221
11.96488	40087
11.97302	44158
11.98113	42901
11.98927	46062
11.99738	53071
12.00550	49201
12.01363	45993
12.02175	47022
12.02987	40478
12.03800	39768
12.04612	32283
12.05425	30634
12.06237	33509
12.07048	36179
12.07862	34579
12.08673	32746
12.09487	34723
12.10298	34044
12.11110	31508
12.11923	30666
12.12735	33262
12.13548	31584
12.14360	34029
12.15172	34598
12.15985	32115
12.16797	33057
12.17608	31050
12.18422	30726
12.19233	29863
12.20047	31341
12.20858	28264
12.21670	32269
12.22483	28054
12.23295	28763
12.24108	29851
12.24920	31485
12.25732	28984
12.26545	28000
12.27357	33208
12.28170	26835
12.28982	29201
12.29793	25636
12.30607	26372
12.31418	29007
12.32230	26893
12.33043	27328
12.33855	28564
12.34668	27141
12.35480	26036
12.36292	27169
12.37105	29450
12.37917	32210
12.38730	41845
12.39542	54078
12.40353	63379
12.41167	75674
12.41978	68711
12.42790	62151
12.43603	52783
12.44415	42764
12.45228	42672
12.46040	41421
12.46852	38463
12.47665	31268
12.48477	33495
12.49290	28271
12.50102	33007
12.50913	30215
12.51727	31488
12.52538	38598
12.53352	48138
12.54163	60822
12.54975	67190
12.55788	69880
12.56600	66226
12.57412	53258
12.58225	45473
12.59037	36369
12.59850	37452
12.60662	34880
12.61473	31676
12.62287	31281
12.63098	34358
12.63912	29682
12.64723	30163
12.65535	26467
12.66348	25885
12.67160	27604
12.67973	27224
12.68785	26224
12.69597	27630
12.70410	29302
12.71222	29310
12.72033	32244
12.72847	32712
12.73658	30476
12.74472	33429
12.75283	32044
12.76095	28968
12.76908	28528
12.77720	28101
12.78533	33391
12.79345	30500
12.80157	30202
12.80970	31406
12.81782	32367
12.82593	28275
12.83407	27812
12.84218	27898
12.85032	30188
12.85843	26824
12.86655	27570
12.87468	29111
12.88280	28130
12.89093	26629
12.89905	25582
12.90717	25950
12.91530	23733
12.92342	24103
12.93155	29778
12.93967	38432
12.94778	45894
12.95592	59142
12.96403	67040
12.97215	75039
12.98028	75469
12.98840	73421
12.99653	60676
13.00465	53145
13.01277	49828
13.02090	48296
13.02902	45237
13.03715	42985
13.04527	37609
13.05338	37097
13.06152	33846
13.06963	33659
13.07775	34641
13.08588	32785
13.09400	30797
13.10213	33148
13.11025	29571
13.11837	32352
13.12650	34592
13.13462	29903
13.14275	31285
13.15087	27833
13.15898	31085
13.16712	28540
13.17523	29359
13.18337	30538
13.19148	28837
13.19960	31421
13.20773	30445
13.21585	27770
13.22397	31365
13.23210	28584
13.24022	28398
13.24835	32333
13.25647	35842
13.26458	30336
13.27272	36491
13.28083	33264
13.28897	30893
13.29708	38210
13.30520	33221
13.31333	36491
13.32145	34894
13.32958	34239
13.33770	37655
13.34582	30944
13.35395	29483
13.36207	33229
13.37018	33092
13.37832	30563
13.38643	28941
13.39457	28660
13.40268	27139
13.41080	26386
13.41893	24506
13.42705	26134
13.43518	27034
13.44330	26435
13.45142	27653
13.45955	24803
13.46767	24536
13.47578	24658
13.48392	26796
13.49203	26020
13.50017	26469
13.50828	30814
13.51640	29380
13.52453	26117
13.53265	28136
13.54078	26283
13.54890	30374
13.55702	33343
13.56515	31544
13.57327	39750
13.58140	39910
13.58952	49913
13.59763	61517
13.60577	74408
13.61388	87699
13.62200	87767
13.63013	74498
13.63825	61058
13.64638	53271
13.65450	47388
13.66262	41661
13.67075	38660
13.67887	40185
13.68700	36530
13.69512	31238
13.70323	29174
13.71137	34149
13.71948	38651
13.72762	40145
13.73573	47150
13.74385	62066
13.75198	88292
13.76010	130635
13.76822	152203
13.77635	166828
13.78447	157574
13.79260	145355
13.80072	123463
13.80883	113331
13.81697	109257
13.82508	114225
13.83322	111265
13.84133	100061
13.84945	85998
13.85758	80651
13.86570	68919
13.87382	64079
13.88195	59261
13.89007	58629
13.89820	53188
13.90632	54641
13.91443	49832
13.92257	49918
13.93068	46590
13.93882	47752
13.94693	47371
13.95505	42916
13.96318	44086
13.97130	42864
13.97943	41835
13.98755	42144
13.99567	40735
14.00380	39938
14.01192	38720
14.02003	40543
14.02817	36773
14.03628	38663
14.04442	35600
14.05253	34016
14.06065	33991
14.06878	37491
14.07690	33511
14.08503	34875
14.09315	32312
14.10127	33730
14.10940	33264
14.11752	34138
14.12563	38887
14.13377	48564
14.14188	57915
14.15002	66486
14.15813	70452
14.16625	69201
14.17438	64022
14.18250	59269
14.19063	55105
14.19875	54229
14.20687	52602
14.21500	49458
14.22312	53683
14.23125	45938
14.23937	44809
14.24748	44638
14.25562	42358
14.26373	39908
14.27185	38529
14.27998	35298
14.28810	35331
14.29623	35546
14.30435	33145
14.31247	30496
14.32060	32403
14.32872	30161
14.33685	28469
14.34497	29193
14.35308	29847
14.36122	31624
14.36933	31506
14.37747	33362
14.38558	47527
14.39370	71216
14.40183	88203
14.40995	114333
14.41807	119615
14.42620	102282
14.43432	81606
14.44245	69945
14.45057	51272
14.45868	47860
14.46682	43826
14.47493	39720
14.48307	40119
14.49118	37114
14.49930	35382
14.50743	34443
14.51555	35646
14.52367	31877
14.53180	34260
14.53992	32506
14.54805	28811
14.55617	32561
14.56428	30158
14.57242	29525
14.58053	28861
14.58867	28861
14.59678	29071
14.60490	29040
14.61303	29020
14.62115	26543
14.62928	28778
14.63740	27271
14.64552	26131
14.65365	25468
14.66177	25276
14.66988	25718
14.67802	28010
14.68613	25182
14.69427	26854
14.70238	26797
14.71050	30181
14.71863	28560
14.72675	29636
14.73488	32485
14.74300	25495
14.75112	26386
14.75925	28216
14.76737	28259
14.77550	37651
14.78362	64954
14.79173	133838
14.79987	277766
14.80798	519640
14.81610	874480
14.82423	1095816
14.83235	1044462
14.84048	827075
14.84860	552747
14.85672	346528
14.86485	228258
14.87297	172519
14.88110	136270
14.88922	115533
14.89733	97397
14.90547	88775
14.91358	84567
14.92170	73168
14.92983	70620
14.93795	65838
14.94608	64163
14.95420	66107
14.96232	57974
14.97045	61152
14.97857	56387
14.98670	54254
14.99482	50295
15.00293	47826
15.01107	49882
15.01918	46794
15.02732	45276
15.03543	44455
15.04355	41303
15.05168	44416
15.05980	45924
15.06792	39069
15.07605	40432
15.08417	38361
15.09230	39871
15.10042	39235
15.10853	40557
15.11667	41382
15.12478	42975
15.13292	40472
15.14103	42632
15.14915	41509
15.15728	40189
15.16540	36444
15.17352	36439
15.18165	34258
15.18977	39205
15.19790	34000
15.20602	33399
15.21413	33121
15.22227	32995
15.23038	30287
15.23852	31704
15.24663	31310
15.25475	32143
15.26288	35118
15.27100	27922
15.27913	30682
15.28725	31933
15.29537	32436
15.30350	28088
15.31162	29407
15.31973	31478
15.32787	31299
15.33598	29813
15.34412	25221
15.35223	28591
15.36035	26249
15.36848	30064
15.37660	27422
15.38473	26062
15.39285	26584
15.40097	29011
15.40910	27764
15.41722	26336
15.42535	28738
15.43347	28446
15.44158	26986
15.44972	31758
15.45783	28417
15.46595	30778
15.47408	33814
15.48220	43906
15.49033	41877
15.49845	47903
15.50657	48484
15.51470	47336
15.52282	41271
15.53095	38898
15.53907	34134
15.54718	30873
15.55532	33203
15.56343	31212
15.57157	31370
15.57968	29736
15.58780	28125
15.59593	30263
15.60405	29349
15.61217	25547
15.62030	23989
15.62842	31621
15.63655	27646
15.64467	25674
15.65278	24918
15.66092	27822
15.66903	25545
15.67717	25825
15.68528	26691
15.69340	26322
15.70153	23854
15.70965	26341
15.71777	26301
15.72590	26378
15.73402	29763
15.74215	33387
15.75027	40239
15.75838	60816
15.76652	85137
15.77463	98791
15.78277	114144
15.79088	100426
15.79900	88227
15.80713	65753
15.81525	52773
15.82338	43827
15.83150	39679
15.83962	40848
15.84775	37850
15.85587	39916
15.86398	38036
15.87212	38081
15.88023	37353
15.88837	38240
15.89648	38108
15.90460	35711
15.91273	35228
15.92085	30445
15.92898	27656
15.93710	33909
15.94522	33061
15.95335	33569
15.96147	34328
15.96958	32815
15.97772	35472
15.98583	37644
15.99397	34374
16.00208	38313
16.01020	39305
16.01833	40654
16.02645	39892
16.03458	36705
16.04270	33453
16.05082	30434
16.05895	31034
16.06707	30436
16.07520	29790
16.08332	27858
16.09143	28529
16.09957	29840
16.10768	27318
16.11580	28609
16.12393	25623
16.13205	29215
16.14018	29820
16.14830	30199
16.15642	35179
16.16455	28580
16.17267	28576
16.18080	26897
16.18892	27201
16.19703	28211
16.20517	25040
16.21328	25709
16.22142	28760
16.22953	25968
16.23765	26054
16.24578	26109
16.25390	27197
16.26202	25578
16.27015	29352
16.27827	24052
16.28640	26375
16.29452	26881
16.30263	26594
16.31077	25614
16.31888	25062
16.32702	27059
16.33513	25070
16.34325	28007
16.35138	29033
16.35950	31845
16.36762	27654
16.37575	32263
16.38387	30177
16.39200	26502
16.40012	25018
16.40823	29027
16.41637	30505
16.42448	28285
16.43262	31135
16.44073	40895
16.44885	47766
16.45698	65660
16.46510	90243
16.47323	99347
16.48135	97205
16.48947	84694
16.49760	68983
16.50572	54105
16.51383	44538
16.52197	39745
16.53008	38853
16.53822	36436
16.54633	35240
16.55445	33210
16.56258	31159
16.57070	31906
16.57883	31299
16.58695	31628
16.59507	30524
16.60320	33025
16.61132	36427
16.61945	32074
16.62757	32243
16.63568	28618
16.64382	30011
16.65193	29472
16.66005	28674
16.66818	28932
16.67630	27897
16.68443	28634
16.69255	28407
16.70067	28485
16.70880	26701
16.71692	28893
16.72505	29744
16.73317	26105
16.74128	26928
16.74942	30426
16.75753	30766
16.76565	28519
16.77378	26906
16.78190	27298
16.79003	25779
16.79815	27145
16.80627	24657
16.81440	25277
16.82252	26802
16.83065	27549
16.83877	21239
16.84688	25063
16.85502	26668
16.86313	27407
16.87127	27271
16.87938	25432
16.88750	25828
16.89563	23984
16.90375	25191
16.91187	22936
16.92000	24366
16.92812	26171
16.93625	25569
16.94437	23164
16.95248	25077
16.96062	24955
16.96873	25127
16.97687	27462
16.98498	25121
16.99310	24432
17.00123	25536
17.00935	24888
17.01747	26478
17.02560	26123
17.03372	26410
17.04185	26996
17.04997	28486
17.05808	26789
17.06622	27878
17.07433	30945
17.08247	25170
17.09058	31354
17.09870	33630
17.10683	27890
17.11495	28417
17.12308	26607
17.13120	26033
17.13932	24742
17.14745	25541
17.15557	25540
17.16368	22887
17.17182	25562
17.17993	26326
17.18807	26859
17.19618	26076
17.20430	25241
17.21243	24259
17.22055	26246
17.22868	22633
17.23680	23453
17.24492	24553
17.25305	26498
17.26117	27155
17.26930	27427
17.27742	25359
17.28553	24169
17.29367	25122
17.30178	26576
17.30990	25422
17.31803	24550
17.32615	30278
17.33428	29883
17.34240	29040
17.35052	30577
17.35865	32971
17.36677	32464
17.37490	30193
17.38302	31939
17.39113	30199
17.39927	30189
17.40738	32055
17.41550	30984
17.42363	31588
17.43175	29081
17.43988	30319
17.44800	28223
17.45612	30336
17.46425	32110
17.47237	25698
17.48050	25120
17.48862	25189
17.49673	26327
17.50487	29688
17.51298	30074
17.52112	32295
17.52923	32068
17.53735	39509
17.54548	38387
17.55360	46281
17.56172	54488
17.56985	70712
17.57797	91674
17.58610	111709
17.59422	122753
17.60233	119936
17.61047	114724
17.61858	96239
17.62672	77576
17.63483	61589
17.64295	51972
17.65108	47372
17.65920	48057
17.66733	46819
17.67545	51914
17.68357	44436
17.69170	45232
17.69982	43227
17.70793	41270
17.71607	39260
17.72418	36641
17.73232	37645
17.74043	32786
17.74855	34889
17.75668	34724
17.76480	33813
17.77293	33682
17.78105	28704
17.78917	33922
17.79730	35351
17.80542	35723
17.81353	33602
17.82167	34617
17.82978	37618
17.83792	38450
17.84603	40110
17.85415	40176
17.86228	38203
17.87040	39360
17.87853	31105
17.88665	32520
17.89477	32893
17.90290	31923
17.91102	27333
17.91915	31820
17.92727	27110
17.93538	27709
17.94352	28665
17.95163	30820
17.95975	28484
17.96788	30937
17.97600	27597
17.98413	27367
17.99225	28304
18.00037	32471
18.00850	36756
18.01662	40219
18.02475	43161
18.03287	45919
18.04098	45939
18.04912	48930
18.05723	64595
18.06535	107826
18.07348	154902
18.08160	230676
18.08973	293136
18.09785	357876
18.10597	379170
18.11410	367944
18.12222	350304
18.13035	329171
18.13847	319630
18.14658	311454
18.15472	306527
18.16283	309881
18.17097	298434
18.17908	285459
18.18720	287456
18.19533	287356
18.20345	290384
18.21157	277287
18.21970	270596
18.22782	273989
18.23595	263066
18.24407	258990
18.25218	250252
18.26032	247558
18.26843	233050
18.27657	237112
18.28468	226229
18.29280	223735
18.30093	215811
18.30905	208202
18.31718	205513
18.32530	202520
18.33342	196564
18.34155	194037
18.34967	196715
18.35778	185026
18.36592	185473
18.37403	178562
18.38217	179103
18.39028	179832
18.39840	167287
18.40653	162825
18.41465	162073
18.42278	169719
18.43090	169289
18.43902	169518
18.44715	170762
18.45527	172526
18.46338	189285
18.47152	190209
18.47963	185694
18.48777	170664
18.49588	166012
18.50400	151452
18.51213	149085
18.52025	139523
18.52838	133466
18.53650	129723
18.54462	129072
18.55275	126593
18.56087	118433
18.56900	122131
18.57712	119358
18.58523	120904
18.59337	115763
18.60148	121648
18.60960	112144
18.61773	106444
18.62585	109371
18.63398	103733
18.64210	106599
18.65022	105072
18.65835	98116
18.66647	94138
18.67460	95799
18.68272	95838
18.69083	91409
18.69897	84696
18.70708	86280
18.71522	87446
18.72333	85781
18.73145	83390
18.73958	89733
18.74770	82018
18.75582	75686
18.76395	81180
18.77207	79786
18.78020	78174
18.78832	76385
18.79643	73819
18.80457	73303
18.81268	73553
18.82082	65982
18.82893	70319
18.83705	68584
18.84518	65846
18.85330	64023
18.86142	70169
18.86955	66967
18.87767	66577
18.88580	65900
18.89392	64749
18.90203	63462
18.91017	67396
18.91828	67379
18.92642	65472
18.93453	65513
18.94265	68205
18.95078	69343
18.95890	63735
18.96703	57467
18.97515	62292
18.98327	55194
18.99140	53693
18.99952	55591
19.00763	52017
19.01577	57083
19.02388	57017
19.03202	52704
19.04013	55403
19.04825	52698
19.05638	55349
19.06450	55790
19.07263	59689
19.08075	63405
19.08887	69164
19.09700	70337
19.10512	67340
19.11325	67129
19.12137	64199
19.12948	59197
19.13762	61140
19.14573	59164
19.15385	58034
19.16198	59123
19.17010	58261
19.17823	54074
19.18635	56625
19.19447	49020
19.20260	50063
19.21072	46611
19.21885	45434
19.22697	43956
19.23508	45777
19.24322	45097
19.25133	46560
19.25945	47100
19.26758	45752
19.27570	46732
19.28383	48712
19.29195	46585
19.30007	47900
19.30820	48209
19.31632	43011
19.32445	44350
19.33257	44994
19.34068	44771
19.34882	45267
19.35693	46933
19.36507	48841
19.37318	52097
19.38130	51576
19.38943	47076
19.39755	46450
19.40567	46855
19.41380	43970
19.42192	47058
19.43005	54681
19.43817	63290
19.44628	66975
19.45442	66290
19.46253	57976
19.47067	55334
19.47878	51039
19.48690	48590
19.49503	42426
19.50315	39153
19.51127	40511
19.51940	39448
19.52752	38487
19.53565	41285
19.54377	39387
19.55188	38684
19.56002	39667
19.56813	42493
19.57627	37405
19.58438	36274
19.59250	37744
19.60063	39270
19.60875	42156
19.61688	51271
19.62500	62252
19.63312	79899
19.64125	110951
19.64937	137351
19.65748	143722
19.66562	135136
19.67373	124891
19.68187	112550
19.68998	97889
19.69810	84449
19.70623	77071
19.71435	62635
19.72248	57572
19.73060	55968
19.73872	48797
19.74685	47205
19.75497	44370
19.76310	45088
19.77122	46899
19.77933	51737
19.78747	47338
19.79558	45671
19.80370	46283
19.81183	49019
19.81995	46010
19.82808	42779
19.83620	45503
19.84432	50561
19.85245	69473
19.86057	116518
19.86870	216084
19.87682	364361
19.88493	551971
19.89307	753483
19.90118	822208
19.90930	746122
19.91743	566717
19.92555	389833
19.93368	267263
19.94180	191214
19.94992	160290
19.95805	136446
19.96617	122028
19.97430	116453
19.98242	109134
19.99053	102634
19.99867	95801
20.00678	98838
20.01492	91392
20.02303	83215
20.03115	80088
20.03928	70390
20.04740	67811
20.05552	64151
20.06365	59982
20.07177	59278
20.07990	59788
20.08802	56690
20.09613	55651
20.10427	50691
20.11238	51709
20.12052	49727
20.12863	47598
20.13675	48068
20.14488	51669
20.15300	47620
20.16113	50960
20.16925	54537
20.17737	51349
20.18550	54765
20.19362	56574
20.20173	57267
20.20987	55168
20.21798	62833
20.22612	73286
20.23423	85206
20.24235	105949
20.25048	117276
20.25860	118545
20.26673	109137
20.27485	100604
20.28297	87150
20.29110	73021
20.29922	64003
20.30733	54251
20.31547	48899
20.32358	48571
20.33172	46333
20.33983	39724
20.34795	42945
20.35608	38422
20.36420	43855
20.37233	41612
20.38045	42778
20.38857	48621
20.39670	46507
20.40482	49904
20.41295	55566
20.42107	52151
20.42918	50285
20.43732	46654
20.44543	44174
20.45355	42038
20.46168	38550
20.46980	36267
20.47793	37279
20.48605	38118
20.49417	36840
20.50230	35034
20.51042	34351
20.51855	34567
20.52667	34080
20.53478	36961
20.54292	34092
20.55103	35026
20.55915	36824
20.56728	34705
20.57540	31214
20.58353	32152
20.59165	33825
20.59977	35664
20.60790	33240
20.61602	32212
20.62415	32690
20.63227	30470
20.64038	33138
20.64852	34120
20.65663	34920
20.66477	31466
20.67288	31941
20.68100	31792
20.68913	31243
20.69725	31606
20.70537	35696
20.71350	31635
20.72162	31520
20.72975	34299
20.73787	37878
20.74598	34315
20.75412	30846
20.76223	36022
20.77037	35836
20.77848	43960
20.78660	55587
20.79473	62587
20.80285	74969
20.81098	76547
20.81910	71675
20.82722	66298
20.83535	53736
20.84347	52231
20.85158	40586
20.85972	38184
20.86783	38098
20.87597	38734
20.88408	34141
20.89220	34484
20.90033	33851
20.90845	34087
20.91658	33899
20.92470	31537
20.93282	33775
20.94095	30988
20.94907	29938
20.95720	29740
20.96532	28423
20.97343	34014
20.98157	28827
20.98968	33411
20.99780	30132
21.00593	32546
21.01405	30370
21.02218	34252
21.03030	32695
21.03842	30160
21.04655	31324
21.05467	32020
21.06280	30465
21.07092	32659
21.07903	33322
21.08717	31003
21.09528	30029
21.10340	31087
21.11153	32571
21.11965	35114
21.12778	40369
21.13590	41836
21.14402	51674
21.15215	59847
21.16027	53985
21.16840	52781
21.17652	44396
21.18463	44758
21.19277	39140
21.20088	40677
21.20902	38967
21.21713	40145
21.22525	41855
21.23338	42121
21.24150	45622
21.24962	43345
21.25775	50812
21.26587	48028
21.27400	45876
21.28212	45896
21.29023	47603
21.29837	45047
21.30648	43478
21.31462	48940
21.32273	47041
21.33085	49220
21.33898	45829
21.34710	43593
21.35522	44614
21.36335	43173
21.37147	47100
21.37960	44768
21.38772	48552
21.39583	48309
21.40397	47085
21.41208	51512
21.42022	46929
21.42833	50275
21.43645	46905
21.44458	45432
21.45270	47188
21.46083	40125
21.46895	39847
21.47707	43852
21.48520	42160
21.49332	45491
21.50143	46914
21.50957	45820
21.51768	43475
21.52582	41759
21.53393	46177
21.54205	44366
21.55018	47413
21.55830	52930
21.56643	52843
21.57455	59480
21.58267	69182
21.59080	68842
21.59892	71534
21.60705	67529
21.61517	60580
21.62328	55053
21.63142	48284
21.63953	44074
21.64765	43590
21.65578	40993
21.66390	42562
21.67203	43145
21.68015	41345
21.68827	39144
21.69640	37412
21.70452	38282
21.71265	35004
21.72077	34716
21.72888	34836
21.73702	37221
21.74513	38970
21.75325	39510
21.76138	39645
21.76950	48449
21.77763	49285
21.78575	56596
21.79387	53878
21.80200	54319
21.81012	42851
21.81825	43988
21.82637	39936
21.83448	36787
21.84262	38354
21.85073	34530
21.85887	38406
21.86698	33716
21.87510	33082
21.88323	36197
21.89135	33176
21.89947	34052
21.90760	31226
21.91572	32572
21.92385	34746
21.93197	47464
21.94008	62253
21.94822	75364
21.95633	85600
21.96447	93915
21.97258	99309
21.98070	100317
21.98883	101026
21.99695	105858
22.00508	102604
22.01320	100541
22.02132	103284
22.02945	99870
22.03757	104685
22.04568	100682
22.05382	98608
22.06193	102407
22.07007	102389
22.07818	104237
22.08630	104034
22.09443	95806
22.10255	97013
22.11068	90863
22.11880	92739
22.12692	91787
22.13505	88240
22.14317	86507
22.15128	82058
22.15942	86078
22.16753	84766
22.17567	86658
22.18378	82257
22.19190	85192
22.20003	80093
22.20815	78628
22.21628	70702
22.22440	77864
22.23252	67181
22.24065	67193
22.24877	70216
22.25690	66412
22.26502	62209
22.27313	66879
22.28127	72343
22.28938	69432
22.29750	65322
22.30563	60929
22.31375	63503
22.32188	60654
22.33000	58499
22.33812	59797
22.34625	54564
22.35437	58726
22.36250	55515
22.37062	57818
22.37873	57706
22.38687	57249
22.39498	59935
22.40310	62330
22.41123	63707
22.41935	62352
22.42748	60949
22.43560	60115
22.44372	55035
22.45185	51448
22.45997	49013
22.46810	55271
22.47622	52360
22.48433	49408
22.49247	52754
22.50058	51052
22.50872	49650
22.51683	48319
22.52495	47749
22.53308	45670
22.54120	44508
22.54932	43876
22.55745	45646
22.56557	42386
22.57370	39623
22.58182	38610
22.58993	37577
22.59807	41503
22.60618	39950
22.61432	36813
22.62243	41027
22.63055	37670
22.63868	39462
22.64680	38024
22.65493	38718
22.66305	37398
22.67117	39006
22.67930	44984
22.68742	47064
22.69553	50991
22.70367	55242
22.71178	59070
22.71992	55758
22.72803	49289
22.73615	45902
22.74428	47853
22.75240	43941
22.76053	41973
22.76865	43602
22.77677	45819
22.78490	44862
22.79302	55272
22.80113	51750
22.80927	50463
22.81738	49511
22.82552	48718
22.83363	43435
22.84175	44353
22.84988	41948
22.85800	41363
22.86613	43557
22.87425	42943
22.88237	48948
22.89050	55705
22.89862	67442
22.90675	83023
22.91487	99139
22.92298	112712
22.93112	113736
22.93923	105194
22.94735	99939
22.95548	82988
22.96360	86633
22.97173	75665
22.97985	73018
22.98797	66469
22.99610	63759
23.00422	63296
23.01235	51833
23.02047	53190
23.02858	51927
23.03672	49904
23.04483	47725
23.05297	44165
23.06108	43001
23.06920	44328
23.07733	42789
23.08545	43422
23.09357	40993
23.10170	40073
23.10982	39441
23.11795	41843
23.12607	42902
23.13418	38330
23.14232	40228
23.15043	35053
23.15857	39472
23.16668	36588
23.17480	34430
23.18293	34655
23.19105	42831
23.19917	38182
23.20730	35738
23.21542	32512
23.22355	35516
23.23167	34109
23.23978	33966
23.24792	35145
23.25603	35476
23.26417	35298
23.27228	37302
23.28040	32891
23.28853	35046
23.29665	35625
23.30478	35369
23.31290	32879
23.32102	37873
23.32915	37586
23.33727	38614
23.34538	42015
23.35352	46711
23.36163	41448
23.36977	45027
23.37788	43900
23.38600	41446
23.39413	40324
23.40225	38248
23.41038	37737
23.41850	35741
23.42662	34728
23.43475	33636
23.44287	35241
23.45100	39459
23.45912	34448
23.46723	32093
23.47537	35073
23.48348	34559
23.49160	34941
23.49973	35508
23.50785	36910
23.51598	33212
23.52410	37793
23.53222	36537
23.54035	38478
23.54847	40426
23.55660	43623
23.56472	41367
23.57283	47392
23.58097	56614
23.58908	60785
23.59720	64434
23.60533	63203
23.61345	59882
23.62158	53290
23.62970	48061
23.63782	50320
23.64595	50479
23.65407	49823
23.66220	51355
23.67032	49075
23.67843	48734
23.68657	55357
23.69468	63108
23.70282	78310
23.71093	91131
23.71905	106647
23.72718	128535
23.73530	180259
23.74342	326519
23.75155	599174
23.75967	1091038
23.76780	1844737
23.77592	2324821
23.78403	2572231
23.79217	2495955
23.80028	2004740
23.80842	1543762
23.81653	1150162
23.82465	869510
23.83278	709157
23.84090	558218
23.84902	471743
23.85715	410939
23.86527	362293
23.87340	325961
23.88152	294104
23.88963	277422
23.89777	251486
23.90588	240770
23.91402	224153
23.92213	222770
23.93025	205453
23.93838	193837
23.94650	184069
23.95463	171152
23.96275	172505
23.97087	158305
23.97900	154439
23.98712	150123
23.99523	145509
24.00337	148765
24.01148	143121
24.01962	144481
24.02773	144451
24.03585	142674
24.04398	138894
24.05210	134314
24.06023	134349
24.06835	121753
24.07647	123623
24.08460	117427
24.09272	112373
24.10085	109606
24.10897	108456
24.11708	104244
24.12522	106798
24.13333	116286
24.14145	121993
24.14958	111339
24.15770	112616
24.16583	110312
24.17395	105685
24.18207	102236
24.19020	92763
24.19832	91140
24.20645	87559
24.21457	81580
24.22268	79119
24.23082	77206
24.23893	73373
24.24705	71402
24.25518	71439
24.26330	69427
24.27143	75124
24.27955	69843
24.28767	67620
24.29580	63099
24.30392	66524
24.31205	69789
24.32017	82101
24.32828	86608
24.33642	79861
24.34453	73945
24.35267	69307
24.36078	62949
24.36890	59104
24.37703	62263
24.38515	54979
24.39327	60554
24.40140	56707
24.40952	60749
24.41765	65419
24.42577	69051
24.43388	73946
24.44202	81269
24.45013	86652
24.45827	82408
24.46638	73471
24.47450	70179
24.48263	62707
24.49075	60199
24.49888	55843
24.50700	54839
24.51512	52337
24.52325	54644
24.53137	59415
24.53948	59986
24.54762	62390
24.55573	59635
24.56387	54958
24.57198	53714
24.58010	52755
24.58823	47181
24.59635	51566
24.60448	45699
24.61260	48724
24.62072	43984
24.62885	45365
24.63697	43040
24.64508	43837
24.65322	44551
24.66133	42091
24.66947	45199
24.67758	42791
24.68570	42601
24.69383	43959
24.70195	44083
24.71008	39316
24.71820	43560
24.72632	42722
24.73445	40370
24.74257	39062
24.75070	41997
24.75882	41681
24.76693	46989
24.77507	42783
24.78318	45955
24.79130	44780
24.79943	42361
24.80755	43687
24.81568	45457
24.82380	45867
24.83192	48573
24.84005	53792
24.84817	61175
24.85630	69396
24.86442	78652
24.87253	93789
24.88067	98526
24.88878	91903
24.89690	91261
24.90503	75335
24.91315	63579
24.92128	55014
24.92940	54228
24.93752	55231
24.94565	62769
24.95377	76117
24.96190	93893
24.97002	107683
24.97813	116042
24.98627	121688
24.99438	117544
25.00252	124487
25.01063	120663
25.01875	124625
25.02688	124917
25.03500	120118
25.04312	117100
25.05125	121521
25.05937	119337
25.06750	119567
25.07562	118530
25.08373	120114
25.09187	126436
25.09998	161811
25.10812	215401
25.11623	303510
25.12435	429430
25.13248	537144
25.14060	625430
25.14873	576165
25.15685	493826
25.16497	380999
25.17310	286197
25.18122	223334
25.18933	181623
25.19747	149117
25.20558	135472
25.21372	128921
25.22183	125947
25.22995	137173
25.23808	160238
25.24620	192039
25.25433	235023
25.26245	258620
25.27057	267704
25.27870	233824
25.28682	203358
25.29493	160702
25.30307	134527
25.31118	108907
25.31932	92504
25.32743	86599
25.33555	84589
25.34368	79517
25.35180	76723
25.35993	74432
25.36805	72146
25.37617	74687
25.38430	67772
25.39242	72029
25.40055	68689
25.40867	65589
25.41678	68293
25.42492	59974
25.43303	61796
25.44115	61931
25.44928	58539
25.45740	58515
25.46553	58897
25.47365	56485
25.48177	56402
25.48990	59042
25.49802	56341
25.50615	50355
25.51427	53691
25.52238	54443
25.53052	53060
25.53863	50478
25.54677	48291
25.55488	46961
25.56300	46882
25.57113	49331
25.57925	49525
25.58737	46749
25.59550	45909
25.60362	42989
25.61175	45309
25.61987	45268
25.62798	48767
25.63612	43659
25.64423	46572
25.65237	46048
25.66048	45831
25.66860	42190
25.67673	44547
25.68485	43580
25.69297	43349
25.70110	40510
25.70922	39120
25.71735	40120
25.72547	42006
25.73358	39854
25.74172	42457
25.74983	41661
25.75797	39273
25.76608	41238
25.77420	39021
25.78233	41660
25.79045	45332
25.79858	41229
25.80670	39933
25.81482	40847
25.82295	39610
25.83107	38826
25.83918	42451
25.84732	41852
25.85543	39183
25.86357	38246
25.87168	40077
25.87980	37000
25.88793	34606
25.89605	35202
25.90418	37221
25.91230	40049
25.92042	36753
25.92855	36775
25.93667	38164
25.94478	37586
25.95292	38422
25.96103	35854
25.96917	38418
25.97728	32373
25.98540	40374
25.99353	37700
26.00165	34461
26.00978	35641
26.01790	36642
26.02602	32963
26.03415	33386
26.04227	36101
26.05040	36791
26.05852	32802
26.06663	35035
26.07477	34992
26.08288	40420
26.09100	37949
26.09913	36440
26.10725	36807
26.11538	36903
26.12350	36841
26.13162	36799
26.13975	39425
26.14787	38050
26.15600	41437
26.16412	38983
26.17223	36585
26.18037	38403
26.18848	42592
26.19662	36098
26.20473	39234
26.21285	33402
26.22098	36454
26.22910	33616
26.23722	34583
26.24535	35421
26.25347	35068
26.26160	33093
26.26972	34452
26.27783	34441
26.28597	33452
26.29408	31234
26.30222	32722
26.31033	30947
26.31845	33996
26.32658	28278
26.33470	34641
26.34283	35216
26.35095	34603
26.35907	33278
26.36720	33956
26.37532	30196
26.38343	33705
26.39157	35698
26.39968	38913
26.40782	34139
26.41593	32929
26.42405	32540
26.43218	30818
26.44030	31770
26.44843	35532
26.45655	28926
26.46467	32486
26.47280	33165
26.48092	35147
26.48903	32419
26.49717	33566
26.50528	29404
26.51342	30842
26.52153	31076
26.52965	29783
26.53778	31915
26.54590	33529
26.55403	29847
26.56215	29633
26.57027	30303
26.57840	29358
26.58652	30206
26.59465	29647
26.60277	32650
26.61088	32467
26.61902	29381
26.62713	32428
26.63525	27788
26.64338	36680
26.65150	32200
26.65963	33332
26.66775	32276
26.67587	32701
26.68400	35600
26.69212	32128
26.70025	30430
26.70837	32340
26.71648	32656
26.72462	31808
26.73273	32864
26.74085	31550
26.74898	29987
26.75710	30340
26.76523	33568
26.77335	30952
26.78147	33757
26.78960	37257
26.79772	35567
26.80585	38397
26.81397	29697
26.82208	29728
26.83022	29800
26.83833	33830
26.84647	29404
26.85458	35686
26.86270	29907
26.87083	33514
26.87895	31774
26.88707	29408
26.89520	29651
26.90332	29739
26.91145	33665
26.91957	31157
26.92768	34348
26.93582	40499
26.94393	49327
26.95207	72663
26.96018	126022
26.96830	192967
26.97643	269806
26.98455	351083
26.99268	435381
27.00080	456747
27.00892	449039
27.01705	402987
27.02517	314064
27.03328	252712
27.04142	199661
27.04953	158431
27.05767	130363
27.06578	110600
27.07390	104229
27.08203	85457
27.09015	77859
27.09828	72531
27.10640	71728
27.11452	67576
27.12265	69266
27.13077	65400
27.13888	67793
27.14702	63704
27.15513	68837
27.16327	73317
27.17138	65286
27.17950	68957
27.18763	58615
27.19575	57067
27.20388	50492
27.21200	52255
27.22012	49546
27.22825	44186
27.23637	45245
27.24450	43865
27.25262	45964
27.26073	42035
27.26887	42084
27.27698	39548
27.28510	42526
27.29323	40273
27.30135	41469
27.30948	40800
27.31760	39483
27.32572	42236
27.33385	36931
27.34197	41563
27.35010	40858
27.35822	43894
27.36633	38496
27.37447	39316
27.38258	40675
27.39072	40767
27.39883	38184
27.40695	35235
27.41508	36027
27.42320	36932
27.43132	38812
27.43945	42702
27.44757	43558
27.45570	40469
27.46382	38760
27.47193	37396
27.48007	35314
27.48818	33292
27.49632	37571
27.50443	36609
27.51255	34450
27.52068	38361
27.52880	33565
27.53692	35765
27.54505	35368
27.55317	36846
27.56130	34046
27.56942	36429
27.57753	35680
27.58567	36669
27.59378	37412
27.60192	37941
27.61003	37173
27.61815	41422
27.62628	31490
27.63440	31372
27.64253	33769
27.65065	36861
27.65877	35742
27.66690	34822
27.67502	32988
27.68313	35094
27.69127	33206
27.69938	34411
27.70752	32250
27.71563	31297
27.72375	36020
27.73188	32937
27.74000	35798
27.74813	36000
27.75625	39806
27.76437	38386
27.77250	40376
27.78062	40152
27.78873	38867
27.79687	33173
27.80498	35554
27.81312	36124
27.82123	33474
27.82935	34132
27.83748	31520
27.84560	30333
27.85373	32248
27.86185	30241
27.86997	28596
27.87810	31854
27.88622	29159
27.89435	27176
27.90247	29320
27.91058	30487
27.91872	28907
27.92683	26226
27.93495	28541
27.94308	27089
27.95120	30849
27.95933	31322
27.96745	36797
27.97557	33426
27.98370	38396
27.99182	39669
27.99995	35554
28.00807	34484
28.01618	37390
28.02432	36706
28.03243	39164
28.04057	37716
28.04868	37632
28.05680	33371
28.06493	35720
28.07305	35558
28.08117	36318
28.08930	37570
28.09742	40058
28.10555	43751
28.11367	47754
28.12178	44812
28.12992	41167
28.13803	38160
28.14617	36720
28.15428	29396
28.16240	35868
28.17053	33682
28.17865	31916
28.18677	35137
28.19490	34075
28.20302	35445
28.21115	36242
28.21927	35020
28.22738	36121
28.23552	32775
28.24363	34183
28.25177	36143
28.25988	39756
28.26800	50073
28.27613	59206
28.28425	74203
28.29238	79595
28.30050	89156
28.30862	97356
28.31675	102019
28.32487	100839
28.33298	93864
28.34112	92511
28.34923	84410
28.35737	79996
28.36548	75959
28.37360	65897
28.38173	62691
28.38985	57023
28.39798	53092
28.40610	57201
28.41422	47035
28.42235	44753
28.43047	44762
28.43860	41873
28.44672	39934
28.45483	38867
28.46297	38728
28.47108	39667
28.47920	32863
28.48733	36805
28.49545	36969
28.50358	34377
28.51170	34039
28.51982	35484
28.52795	33862
28.53607	32430
28.54420	33400
28.55232	34089
28.56043	34782
28.56857	34506
28.57668	33951
28.58480	31114
28.59293	32983
28.60105	31457
28.60918	34307
28.61730	34676
28.62542	34589
28.63355	33907
28.64167	36992
28.64980	40474
28.65792	37390
28.66603	38003
28.67417	40440
28.68228	39579
28.69042	42414
28.69853	46333
28.70665	43873
28.71478	36485
28.72290	37764
28.73102	34252
28.73915	33190
28.74727	34877
28.75540	32643
28.76352	34513
28.77163	30390
28.77977	31675
28.78788	31906
28.79602	33260
28.80413	32842
28.81225	32649
28.82038	31110
28.82850	28511
28.83663	30741
28.84475	35825
28.85287	27483
28.86100	26720
28.86912	27495
28.87723	31630
28.88537	34052
28.89348	34270
28.90162	27996
28.90973	29152
28.91785	29915
28.92598	31098
28.93410	33453
28.94223	32391
28.95035	32244
28.95847	32161
28.96660	33369
28.97472	34321
28.98283	30768
28.99097	28237
28.99908	27391
29.00722	29851
29.01533	27603
29.02345	30148
29.03158	28061
29.03970	34650
29.04783	28542
29.05595	32006
29.06407	35798
29.07220	32003
29.08032	34203
29.08845	31988
29.09657	28512
29.10468	29764
29.11282	30772
29.12093	28973
29.12905	30447
29.13718	26359
29.14530	28533
29.15343	31002
29.16155	31026
29.16967	31331
29.17780	32072
29.18592	31644
29.19405	32889
29.20217	37198
29.21028	35476
29.21842	34096
29.22653	35066
29.23465	34648
29.24278	37823
29.25090	32914
29.25903	35587
29.26715	33327
29.27527	33123
29.28340	30871
29.29152	27020
29.29965	28127
29.30777	27294
29.31588	26463
29.32402	25268
29.33213	28502
29.34027	28653
29.34838	28392
29.35650	29600
29.36463	26660
29.37275	27963
29.38087	30134
29.38900	29873
29.39712	29971
29.40525	29232
29.41337	26938
29.42148	27384
29.42962	28380
29.43773	27511
29.44587	25818
29.45398	26007
29.46210	26553
29.47023	28475
29.47835	31895
29.48648	31553
29.49460	29807
29.50272	31402
29.51085	29759
29.51897	32758
29.52708	31768
29.53522	30449
29.54333	30547
29.55147	25664
29.55958	30257
29.56770	27267
29.57583	28799
29.58395	31497
29.59208	30426
29.60020	32053
29.60832	32471
29.61645	32329
29.62457	29862
29.63268	32015
29.64082	29544
29.64893	28321
29.65707	28905
29.66518	28509
29.67330	28770
29.68143	26159
29.68955	30022
29.69768	28827
29.70580	26129
29.71392	28721
29.72205	25914
29.73017	27278
29.73830	25155
29.74642	26163
29.75453	26086
29.76267	27651
29.77078	24899
29.77890	26753
29.78703	26718
29.79515	26024
29.80328	23334
29.81140	24908
29.81952	27123
29.82765	25326
29.83577	28103
29.84390	27972
29.85202	26925
29.86013	31017
29.86827	34461
29.87638	41573
29.88452	49552
29.89263	51850
29.90075	54693
29.90888	56289
29.91700	59111
29.92512	58715
29.93325	53471
29.94137	54976
29.94950	56829
29.95762	57510
29.96573	53494
29.97387	52851
29.98198	50581
29.99012	54315
29.99823	50843
30.00635	52138
30.01448	49032
30.02260	45853
30.03072	52231
30.03885	50162
30.04697	51350
30.05510	52541
30.06322	48361
30.07133	52659
30.07947	56330
30.08758	51419
30.09572	47540
30.10383	50161
30.11195	42117
30.12008	51255
30.12820	43861
30.13633	40311
30.14445	42098
30.15257	41985
30.16070	40774
30.16882	38335
30.17693	41341
30.18507	39940
30.19318	40276
30.20132	40132
30.20943	40943
30.21755	39013
30.22568	38917
30.23380	36853
30.24193	33849
30.25005	36586
30.25817	34840
30.26630	33071
30.27442	34062
30.28253	33475
30.29067	33966
30.29878	35492
30.30692	36903
30.31503	34568
30.32315	31524
30.33128	34713
30.33940	35022
30.34753	33214
30.35565	33082
30.36377	34927
30.37190	31957
30.38002	35786
30.38815	30651
30.39627	31930
30.40438	35777
30.41252	34506
30.42063	33765
30.42875	30596
30.43688	29257
30.44500	28260
30.45313	30369
30.46125	29075
30.46937	29168
30.47750	26990
30.48562	30963
30.49375	31537
30.50187	32366
30.50998	31644
30.51812	29753
30.52623	29174
30.53437	29366
30.54248	31628
30.55060	30678
30.55873	28562
30.56685	30549
30.57497	27452
30.58310	29543
30.59122	33759
30.59935	28605
30.60747	28900
30.61558	29566
30.62372	29009
30.63183	30701
30.63997	29817
30.64808	28165
30.65620	33556
30.66433	26430
30.67245	26802
30.68058	29691
30.68870	27085
30.69682	29068
30.70495	26731
30.71307	30516
30.72118	32426
30.72932	29399
30.73743	29769
30.74557	26869
30.75368	29811
30.76180	28732
30.76993	40043
30.77805	41646
30.78618	45207
30.79430	49541
30.80242	52484
30.81055	48544
30.81867	49248
30.82678	39440
30.83492	36055
30.84303	34260
30.85117	30296
30.85928	30718
30.86740	30000
30.87553	28097
30.88365	30124
30.89178	33245
30.89990	31402
30.90802	30870
30.91615	26786
30.92427	29446
30.93240	30499
30.94052	30248
30.94863	27913
30.95677	26765
30.96488	29810
30.97300	33297
30.98113	31218
30.98925	27810
30.99738	29263
31.00550	31947
31.01362	29543
31.02175	31809
31.02987	29858
31.03800	33085
31.04612	32225
31.05423	30584
31.06237	32560
31.07048	36843
31.07860	43469
31.08673	45111
31.09485	48600
31.10298	54893
31.11110	45449
31.11922	38226
31.12735	36792
31.13547	36519
31.14360	32715
31.15172	33765
31.15983	34013
31.16797	33517
31.17608	30927
31.18422	33931
31.19233	31139
31.20045	29784
31.20858	28201
31.21670	33675
31.22482	29883
31.23295	32526
31.24107	32141
31.24920	29188
31.25732	30804
31.26543	32880
31.27357	30142
31.28168	32006
31.28982	29424
31.29793	30299
31.30605	33027
31.31418	32460
31.32230	32455
31.33043	33669
31.33855	34193
31.34667	31252
31.35480	34626
31.36292	30367
31.37103	32890
31.37917	29909
31.38728	31808
31.39542	26647
31.40353	28731
31.41165	28840
31.41978	30585
31.42790	29802
31.43603	32475
31.44415	28918
31.45227	29862
31.46040	32680
31.46852	32904
31.47663	36294
31.48477	34043
31.49288	34414
31.50102	32825
31.50913	30332
31.51725	30473
31.52538	32078
31.53350	35642
31.54163	34257
31.54975	39109
31.55787	35912
31.56600	36186
31.57412	34890
31.58225	32235
31.59037	28302
31.59848	29258
31.60662	27941
31.61473	29343
31.62285	31588
31.63098	31149
31.63910	27399
31.64723	31182
31.65535	29258
31.66347	30189
31.67160	34466
31.67972	36163
31.68785	29566
31.69597	31297
31.70408	30583
31.71222	31516
31.72033	27905
31.72847	26481
31.73658	25823
31.74470	25018
31.75283	28904
31.76095	27463
31.76907	28064
31.77720	25597
31.78532	27915
31.79345	31664
31.80157	33550
31.80968	34339
31.81782	33903
31.82593	33621
31.83407	36232
31.84218	39135
31.85030	44334
31.85843	45738
31.86655	50222
31.87467	54544
31.88280	52158
31.89092	50548
31.89905	52011
31.90717	48217
31.91528	44424
31.92342	44674
31.93153	45900
31.93967	44663
31.94778	39616
31.95590	38866
31.96403	42548
31.97215	46527
31.98028	43153
31.98840	46074
31.99652	39777
32.00465	41202
32.01277	38735
32.02088	34963
32.02902	37659
32.03713	32702
32.04527	37098
32.05338	32956
32.06150	35559
32.06963	33292
32.07775	30569
32.08588	31793
32.09400	30259
32.10212	31124
32.11025	31830
32.11837	30119
32.12648	31574
32.13462	31038
32.14273	29113
32.15087	28698
32.15898	30953
32.16710	28079
32.17523	30171
32.18335	29318
32.19148	27837
32.19960	29370
32.20772	28709
32.21585	29347
32.22397	27745
32.23210	28238
32.24022	35570
32.24833	31460
32.25647	29776
32.26458	32287
32.27270	30095
32.28083	29143
32.28895	30884
32.29708	31175
32.30520	29466
32.31332	28106
32.32145	28611
32.32957	31342
32.33770	31175
32.34582	29084
32.35393	30424
32.36207	30431
32.37018	31204
32.37832	30258
32.38643	31294
32.39455	29864
32.40268	28761
32.41080	29797
32.41892	31877
32.42705	31413
32.43517	28258
32.44330	30715
32.45142	29323
32.45953	28048
32.46767	29397
32.47578	27441
32.48392	26657
32.49203	28317
32.50015	29109
32.50828	27353
32.51640	28065
32.52452	30998
32.53265	26355
32.54077	29354
32.54890	28323
32.55702	31344
32.56513	31558
32.57327	34988
32.58138	38982
32.58952	36890
32.59763	34427
32.60575	31834
32.61388	30226
32.62200	29833
32.63013	27646
32.63825	26018
32.64637	30087
32.65450	30102
32.66262	32924
32.67073	29032
32.67887	32317
32.68698	35517
32.69512	34243
32.70323	31596
32.71135	34089
32.71948	31965
32.72760	29521
32.73573	35212
32.74385	29832
32.75197	30954
32.76010	30659
32.76822	28379
32.77635	30199
32.78447	27480
32.79258	26925
32.80072	28719
32.80883	30825
32.81695	29315
32.82508	27234
32.83320	26526
32.84133	30458
32.84945	28078
32.85757	28831
32.86570	30916
32.87382	29362
32.88195	28506
32.89007	34355
32.89818	29291
32.90632	29059
32.91443	30360
32.92255	29558
32.93068	29093
32.93880	28690
32.94693	29552
32.95505	33018
32.96317	35898
32.97130	35929
32.97942	39814
32.98755	46024
32.99567	47386
33.00378	47851
33.01192	46642
33.02003	41237
33.02817	41701
33.03628	36146
33.04440	33334
33.05253	34705
33.06065	35280
33.06877	35700
33.07690	35879
33.08502	34796
33.09315	38124
33.10127	40081
33.10938	40163
33.11752	42188
33.12563	37639
33.13377	40739
33.14188	38811
33.15000	29722
33.15813	33404
33.16625	32113
33.17437	33402
33.18250	32458
33.19062	32381
33.19875	30288
33.20687	32038
33.21498	29897
33.22312	32203
33.23123	31332
33.23937	29585
33.24748	32104
33.25560	30230
33.26373	31597
33.27185	27410
33.27998	28842
33.28810	27940
33.29622	29157
33.30435	31549
33.31247	31841
33.32058	30556
33.32872	27934
33.33683	30415
33.34497	32698
33.35308	32698
33.36120	32160
33.36933	32807
33.37745	30602
33.38558	30338
33.39370	33241
33.40182	32462
33.40995	31397
33.41807	30297
33.42620	30034
33.43432	28505
33.44243	30680
33.45057	31886
33.45868	29407
33.46680	31381
33.47493	29629
33.48305	28856
33.49118	30487
33.49930	29286
33.50742	30204
33.51555	29640
33.52367	33683
33.53180	32552
33.53992	33467
33.54803	34464
33.55617	33458
33.56428	35379
33.57240	31121
33.58053	35722
33.58865	35099
33.59678	37708
33.60490	36285
33.61302	34768
33.62115	37483
33.62927	40128
33.63740	36334
33.64552	38304
33.65363	41434
33.66177	40610
33.66988	40593
33.67802	41098
33.68613	39759
33.69425	38262
33.70238	41777
33.71050	42918
33.71862	42870
33.72675	42731
33.73487	44941
33.74300	42845
33.75112	43109
33.75923	40924
33.76737	42525
33.77548	44576
33.78362	44802
33.79173	41813
33.79985	40817
33.80798	41228
33.81610	38376
33.82423	40168
33.83235	44907
33.84047	42449
33.84860	39757
33.85672	38515
33.86483	41590
33.87297	39684
33.88108	39511
33.88922	38250
33.89733	35669
33.90545	35945
33.91358	35955
33.92170	39254
33.92983	34447
33.93795	36382
33.94607	32140
33.95420	32100
33.96232	35452
33.97043	34762
33.97857	31934
33.98668	35654
33.99482	36523
34.00293	31682
34.01105	37105
34.01918	33917
34.02730	31220
34.03543	32470
34.04355	34272
34.05167	32933
34.05980	31586
34.06792	35405
34.07605	34054
34.08417	34331
34.09228	31745
34.10042	30584
34.10853	33787
34.11665	37285
34.12478	31774
34.13290	36550
34.14103	33197
34.14915	31571
34.15727	32668
34.16540	30066
34.17352	35047
34.18165	33147
34.18977	32139
34.19788	33996
34.20602	30781
34.21413	34253
34.22227	31155
34.23038	31743
34.23850	32328
34.24663	32104
34.25475	33141
34.26287	31305
34.27100	32474
34.27912	36433
34.28725	34474
34.29537	29494
34.30348	31099
34.31162	32727
34.31973	33277
34.32787	34278
34.33598	32286
34.34410	34175
34.35223	32486
34.36035	33856
34.36847	29378
34.37660	37508
34.38472	30345
34.39285	30301
34.40097	32649
34.40908	34032
34.41722	35807
34.42533	36009
34.43347	37495
34.44158	39482
34.44970	44237
34.45783	49501
34.46595	55809
34.47408	52200
34.48220	56764
34.49032	57746
34.49845	56033
34.50657	52649
34.51468	51456
34.52282	47297
34.53093	48638
34.53907	44396
34.54718	47180
34.55530	42108
34.56343	47157
34.57155	42941
34.57968	43538
34.58780	42177
34.59592	41495
34.60405	45395
34.61217	41067
34.62028	40041
34.62842	41485
34.63653	40277
34.64467	38419
34.65278	39279
34.66090	37729
34.66903	36418
34.67715	36263
34.68528	35145
34.69340	34257
34.70152	39806
34.70965	38498
34.71777	37548
34.72590	34987
34.73402	33264
34.74213	37492
34.75027	37680
34.75838	31806
34.76650	30999
34.77463	35886
34.78275	39112
34.79088	32440
34.79900	29495
34.80712	30835
34.81525	34423
34.82337	36211
34.83150	34083
34.83962	34979
34.84773	36189
34.85587	34873
34.86398	36614
34.87212	37852
34.88023	36721
34.88835	34988
34.89648	37303
34.90460	38757
34.91272	36276
34.92085	36012
34.92897	35190
34.93710	35239
34.94522	37098
34.95333	38176
34.96147	39824
34.96958	39403
34.97772	36680
34.98583	34383
34.99395	34351
35.00208	38301
35.01020	37763
35.01832	33343
35.02645	33579
35.03457	35325
35.04270	38169
35.05082	33051
35.05893	36009
35.06707	36437
35.07518	39041
35.08332	37522
35.09143	38377
35.09955	33440
35.10768	35434
35.11580	34446
35.12393	31988
35.13205	34443
35.14017	40285
35.14830	37732
35.15642	34832
35.16453	36716
35.17267	39373
35.18078	37051
35.18892	32207
35.19703	34177
35.20515	35437
35.21328	38575
35.22140	36905
35.22953	40110
35.23765	37668
35.24577	37856
35.25390	38984
35.26202	36174
35.27015	42761
35.27827	37195
35.28638	35150
35.29452	35939
35.30263	37590
35.31075	34944
35.31888	32956
35.32700	35963
35.33513	34880
35.34325	38146
35.35137	37433
35.35950	37684
35.36762	34627
35.37575	40728
35.38387	38841
35.39198	36638
35.40012	39100
35.40823	37386
35.41635	39265
35.42448	36351
35.43260	41265
35.44073	36075
35.44885	39080
35.45697	39863
35.46510	39291
35.47322	40121
35.48135	41052
35.48947	38464
35.49758	41692
35.50572	39029
35.51383	41435
35.52197	38733
35.53008	38746
35.53820	43644
35.54633	40737
35.55445	42002
35.56257	41473
35.57070	46944
35.57882	49587
35.58695	47284
35.59507	46611
35.60318	43353
35.61132	40242
35.61943	41350
35.62757	44736
35.63568	39768
35.64380	42135
35.65193	37912
35.66005	40896
35.66817	41400
35.67630	40702
35.68442	45425
35.69255	41784
35.70067	41525
35.70878	37768
35.71692	39813
35.72503	41820
35.73317	41861
35.74128	39581
35.74940	41045
35.75753	43511
35.76565	42505
35.77378	39168
35.78190	43276
35.79002	43540
35.79815	47661
35.80627	42624
35.81438	41872
35.82252	38639
35.83063	41490
35.83877	43650
35.84688	41226
35.85500	42393
35.86313	38818
35.87125	41271
35.87938	40352
35.88750	40768
35.89562	39316
35.90375	40225
35.91187	35595
35.92000	36311
35.92812	39829
35.93623	38339
35.94437	36703
35.95248	39812
35.96060	40020
35.96873	41007
35.97685	37345
35.98498	39076
35.99310	39177
36.00122	39224
36.00935	38614
36.01747	45273
36.02560	43006
36.03372	42233
36.04183	41249
36.04997	38623
36.05808	39821
36.06622	36190
36.07433	39398
36.08245	37721
36.09058	38456
36.09870	41382
36.10682	38438
36.11495	40769
36.12307	39160
36.13120	37376
36.13932	38946
36.14743	39361
36.15557	41751
36.16368	40982
36.17182	43139
36.17993	38947
36.18805	39228
36.19618	42111
36.20430	40500
36.21242	47546
36.22055	47473
36.22867	50509
36.23680	44830
36.24492	46924
36.25303	45417
36.26117	40098
36.26928	40640
36.27742	39644
36.28553	42778
36.29365	37170
36.30178	40398
36.30990	37880
36.31803	39903
36.32615	43200
36.33427	45057
36.34240	40540
36.35052	40296
36.35863	37428
36.36677	41824
36.37488	43944
36.38302	42247
36.39113	41493
36.39925	38552
36.40738	39531
36.41550	40374
36.42363	43104
36.43175	41537
36.43987	39016
36.44800	41465
36.45612	38846
36.46423	40349
36.47237	42324
36.48048	42053
36.48862	41725
36.49673	39455
36.50485	40806
36.51298	43700
36.52110	42777
36.52923	41419
36.53735	39126
36.54547	42161
36.55360	44469
36.56172	38677
36.56985	43847
36.57797	44371
36.58608	40462
36.59422	42161
36.60233	37591
36.61045	40900
36.61858	38880
36.62670	40946
36.63483	40531
36.64295	39591
36.65107	42749
36.65920	39736
36.66732	41100
36.67545	42089
36.68357	38948
36.69168	41561
36.69982	42298
36.70793	41402
36.71607	40901
36.72418	40192
36.73230	41751
36.74043	45950
36.74855	40205
36.75667	41537
36.76480	42721
36.77292	40827
36.78105	42732
36.78917	41469
36.79728	43417
36.80542	42601
36.81353	40687
36.82167	41460
36.82978	39347
36.83790	43785
36.84603	44981
36.85415	43412
36.86227	40491
36.87040	43854
36.87852	40485
36.88665	43514
36.89477	43844
36.90288	45761
36.91102	43775
36.91913	45571
36.92727	48333
36.93538	46948
36.94350	48752
36.95163	50022
36.95975	52754
36.96788	49792
36.97600	48874
36.98412	48534
36.99225	50058
37.00037	52054
37.00848	58818
37.01662	53655
37.02473	54454
37.03287	53974
37.04098	51533
37.04910	47411
37.05723	49870
37.06535	45207
37.07348	49513
37.08160	42594
37.08972	46511
37.09785	43654
37.10597	44127
37.11410	48967
37.12222	48193
37.13033	46970
37.13847	47744
37.14658	43058
37.15470	47423
37.16283	44292
37.17095	44581
37.17908	46345
37.18720	45064
37.19532	48349
37.20345	47507
37.21157	48700
37.21970	52943
37.22782	51428
37.23593	52783
37.24407	56295
37.25218	58897
37.26030	57216
37.26843	62212
37.27655	59469
37.28468	65874
37.29280	56608
37.30092	59791
37.30905	53159
37.31717	51572
37.32530	50351
37.33342	52930
37.34153	52214
37.34967	54218
37.35778	50296
37.36592	51975
37.37403	51187
37.38215	52985
37.39028	50936
37.39840	47300
37.40652	48964
37.41465	50857
37.42277	51916
37.43090	51851
37.43902	48575
37.44713	46483
37.45527	53171
37.46338	52709
37.47152	49952
37.47963	47002
37.48775	50053
