Z:\data\JTB-E02\BACandBLUE\JTB-E02-194-16.D Thu Dec 20 14:50:35 2018
Start of data points
2.09520,75126
2.10333,73520
2.11145,74583
2.11957,77213
2.12770,73651
2.13582,72774
2.14395,70850
2.15207,73483
2.16018,76199
2.16832,78419
2.17643,71644
2.18457,68321
2.19268,74337
2.20080,65921
2.20893,61594
2.21705,69886
2.22517,64358
2.23330,66021
2.24142,64654
2.24955,64677
2.25767,65575
2.26578,78294
2.27392,419179
2.28203,1611819
2.29017,1826010
2.29828,953743
2.30640,559092
2.31453,436869
2.32265,368379
2.33077,319376
2.33890,295348
2.34702,263558
2.35515,237869
2.36327,230883
2.37138,226542
2.37952,214387
2.38763,209616
2.39577,207334
2.40388,205558
2.41200,201145
2.42013,205897
2.42825,202490
2.43638,190303
2.44450,178454
2.45262,180794
2.46075,169195
2.46887,165236
2.47698,156489
2.48512,153924
2.49323,165038
2.50137,171229
2.50948,164059
2.51760,164353
2.52573,154892
2.53385,147991
2.54198,155700
2.55010,148437
2.55822,153174
2.56635,158099
2.57447,148957
2.58260,138824
2.59072,133630
2.59883,138128
2.60697,245538
2.61508,608415
2.62320,753846
2.63133,492630
2.63945,307705
2.64758,240742
2.65570,208184
2.66382,182655
2.67195,166705
2.68007,156695
2.68820,149351
2.69632,142203
2.70443,136055
2.71257,129034
2.72068,129615
2.72880,125996
2.73693,127437
2.74505,121820
2.75318,115271
2.76130,118477
2.76942,120074
2.77755,240814
2.78567,980397
2.79380,1821232
2.80192,1429549
2.81003,754801
2.81817,541649
2.82628,493381
2.83442,411867
2.84253,318533
2.85065,278357
2.85878,240242
2.86690,208655
2.87502,197352
2.88315,180494
2.89127,170361
2.89940,160172
2.90752,152572
2.91563,149736
2.92377,147137
2.93188,136470
2.94002,135579
2.94813,131661
2.95625,137649
2.96438,145181
2.97250,164478
2.98063,150481
2.98875,138750
2.99687,137517
3.00500,135168
3.01312,136653
3.02123,132388
3.02937,137919
3.03748,123039
3.04562,127021
3.05373,120368
3.06185,117995
3.06998,115922
3.07810,133031
3.08623,326490
3.09435,1085723
3.10247,2404775
3.11060,5110450
3.11872,7245764
3.12683,5778312
3.13497,3500226
3.14308,2304704
3.15122,1703756
3.15933,1309685
3.16745,1096947
3.17558,1033945
3.18370,1242500
3.19183,2853728
3.19995,5775159
3.20807,6207211
3.21620,4304293
3.22432,2962170
3.23245,2234856
3.24057,1787010
3.24868,1492453
3.25682,1226070
3.26493,1051961
3.27305,924988
3.28118,799611
3.28930,767175
3.29743,1055625
3.30555,2292473
3.31367,4289556
3.32180,5459340
3.32992,4863648
3.33805,3563364
3.34617,2573354
3.35428,2005621
3.36242,1669664
3.37053,1414048
3.37865,1246642
3.38678,1099519
3.39490,1000387
3.40303,912051
3.41115,839357
3.41927,780017
3.42740,735416
3.43552,721317
3.44365,727470
3.45177,706443
3.45988,656392
3.46802,730386
3.47613,945404
3.48427,1031372
3.49238,862163
3.50050,652662
3.50863,549707
3.51675,506344
3.52487,476530
3.53300,490429
3.54112,529081
3.54925,574365
3.55737,550012
3.56548,459228
3.57362,415668
3.58173,393757
3.58987,381284
3.59798,362905
3.60610,353741
3.61423,341734
3.62235,347036
3.63048,349729
3.63860,364731
3.64672,376258
3.65485,382034
3.66297,1053104
3.67108,6867610
3.67922,2.392735E+07
3.68733,4.06862E+07
3.69547,4.321834E+07
3.70358,3.306034E+07
3.71170,2.176877E+07
3.71983,1.594517E+07
3.72795,1.280824E+07
3.73608,1.046867E+07
3.74420,8959106
3.75232,7764436
3.76045,6692212
3.76857,5893859
3.77670,5242498
3.78482,4668007
3.79293,4287357
3.80107,3986987
3.80918,3876061
3.81730,4187798
3.82543,4568364
3.83355,4344893
3.84168,3717072
3.84980,3218256
3.85792,2911499
3.86605,2668971
3.87417,2466454
3.88230,2280422
3.89042,2158338
3.89853,2056802
3.90667,1957967
3.91478,1895462
3.92290,2049410
3.93103,2543439
3.93915,2870008
3.94728,2716193
3.95540,2301157
3.96352,2336911
3.97165,2786353
3.97977,2861821
3.98790,2377817
3.99602,1876039
4.00413,1852448
4.01227,2547908
4.02038,3633119
4.02852,3873482
4.03663,3014766
4.04475,2068550
4.05288,1543217
4.06100,1288793
4.06912,1146593
4.07725,1062163
4.08537,1005140
4.09350,966127
4.10162,951114
4.10973,912353
4.11787,889469
4.12598,842332
4.13412,825242
4.14223,806160
4.15035,821995
4.15848,843215
4.16660,835210
4.17472,832997
4.18285,811615
4.19097,808240
4.19910,746947
4.20722,802869
4.21533,1558586
4.22347,5061659
4.23158,1.297268E+07
4.23972,2.208432E+07
4.24783,2.89464E+07
4.25595,3.399163E+07
4.26408,3.66932E+07
4.27220,3.629627E+07
4.28033,2.465911E+07
4.28845,1.182908E+07
4.29657,7955422
4.30470,5976183
4.31282,4755863
4.32093,3914721
4.32907,3261617
4.33718,2809055
4.34532,2451080
4.35343,2194134
4.36155,2029837
4.36968,2003308
4.37780,2011721
4.38593,1904654
4.39405,1685061
4.40217,1438430
4.41030,1298437
4.41842,1178523
4.42655,1091038
4.43467,1038057
4.44278,987808
4.45092,928288
4.45903,887185
4.46715,852083
4.47528,815900
4.48340,782753
4.49153,766498
4.49965,736339
4.50777,717293
4.51590,715406
4.52402,690097
4.53215,677905
4.54027,661303
4.54838,666189
4.55652,680772
4.56463,687143
4.57275,645652
4.58088,617089
4.58900,586318
4.59713,582145
4.60525,570714
4.61337,544715
4.62150,558394
4.62962,661985
4.63775,1038083
4.64587,1661207
4.65398,2103967
4.66212,1959604
4.67023,1467769
4.67837,1057090
4.68648,857500
4.69460,759871
4.70273,676805
4.71085,599354
4.71897,551173
4.72710,528294
4.73522,493182
4.74335,485088
4.75147,468222
4.75958,460091
4.76772,461819
4.77583,438248
4.78397,428493
4.79208,437237
4.80020,511855
4.80833,666000
4.81645,807346
4.82458,798328
4.83270,695012
4.84082,632739
4.84895,670241
4.85707,766525
4.86518,773023
4.87332,713472
4.88143,607614
4.88957,540881
4.89768,502657
4.90580,472874
4.91393,445939
4.92205,426407
4.93018,416139
4.93830,433191
4.94642,558885
4.95455,906179
4.96267,1673374
4.97078,2576731
4.97892,3025498
4.98703,2850994
4.99517,2270578
5.00328,1645304
5.01140,1306034
5.01953,1091162
5.02765,1059558
5.03578,1286054
5.04390,1780920
5.05202,2260873
5.06015,2223331
5.06827,1863186
5.07640,1530481
5.08452,1298457
5.09263,1139588
5.10077,1042621
5.10888,948923
5.11700,883883
5.12513,835696
5.13325,777219
5.14138,740848
5.14950,723357
5.15762,800021
5.16575,971092
5.17387,1189697
5.18200,1302868
5.19012,1172242
5.19823,1048589
5.20637,969354
5.21448,1046696
5.22260,1077063
5.23073,1021463
5.23885,912501
5.24698,815011
5.25510,735532
5.26322,735612
5.27135,584928
5.27947,552543
5.28760,484455
5.29572,474086
5.30383,453765
5.31197,459700
5.32008,426229
5.32822,441568
5.33633,445397
5.34445,474604
5.35258,468310
5.36070,475285
5.36882,434113
5.37695,414193
5.38507,397528
5.39320,406372
5.40132,421491
5.40943,444875
5.41757,456728
5.42568,434962
5.43382,406096
5.44193,400418
5.45005,400384
5.45818,421326
5.46630,475955
5.47443,479475
5.48255,435240
5.49067,399305
5.49880,365822
5.50692,336608
5.51503,336656
5.52317,336019
5.53128,335436
5.53942,326864
5.54753,333233
5.55565,343480
5.56378,432554
5.57190,602984
5.58003,824087
5.58815,966494
5.59627,868365
5.60440,664397
5.61252,501226
5.62063,406221
5.62877,372479
5.63688,350789
5.64502,348951
5.65313,349689
5.66125,321584
5.66938,322454
5.67750,319393
5.68563,349522
5.69375,418054
5.70187,481948
5.71000,531789
5.71812,501485
5.72625,429873
5.73437,377454
5.74248,328309
5.75062,315896
5.75873,311029
5.76685,290721
5.77498,292120
5.78310,289173
5.79123,277259
5.79935,274527
5.80747,258380
5.81560,266744
5.82372,271547
5.83185,261413
5.83997,262533
5.84808,268424
5.85622,261492
5.86433,265338
5.87247,257516
5.88058,250243
5.88870,254369
5.89683,247577
5.90495,244923
5.91307,248121
5.92120,242700
5.92932,248507
5.93745,258784
5.94557,269035
5.95368,293877
5.96182,376320
5.96993,505877
5.97807,656114
5.98618,856032
5.99430,1134290
6.00243,1290946
6.01055,1258286
6.01867,1048175
6.02680,753231
6.03492,530514
6.04305,406190
6.05117,321225
6.05928,285630
6.06742,261089
6.07553,243753
6.08367,242281
6.09178,237508
6.09990,223290
6.10803,220513
6.11615,219206
6.12428,238102
6.13240,352874
6.14052,681824
6.14865,1186254
6.15677,1656189
6.16488,1684847
6.17302,1379197
6.18113,978355
6.18927,716197
6.19738,580025
6.20550,496251
6.21363,441944
6.22175,401618
6.22988,371149
6.23800,356004
6.24612,341505
6.25425,347603
6.26237,356822
6.27050,371113
6.27862,369865
6.28673,358527
6.29487,322501
6.30298,310630
6.31110,300212
6.31923,295828
6.32735,301840
6.33548,304381
6.34360,318037
6.35172,304783
6.35985,302241
6.36797,305091
6.37610,289197
6.38422,277702
6.39233,276628
6.40047,282616
6.40858,278534
6.41670,273322
6.42483,268805
6.43295,267878
6.44108,265116
6.44920,268615
6.45732,271675
6.46545,274119
6.47357,278615
6.48170,274575
6.48982,271913
6.49793,281432
6.50607,277003
6.51418,279938
6.52232,275769
6.53043,275805
6.53855,291757
6.54668,284829
6.55480,274757
6.56292,270845
6.57105,327312
6.57917,427166
6.58730,584460
6.59542,693919
6.60353,653991
6.61167,518977
6.61978,412175
6.62792,360727
6.63603,322252
6.64415,314468
6.65228,286393
6.66040,282272
6.66852,273034
6.67665,233901
6.68477,226889
6.69290,218756
6.70102,201511
6.70913,199692
6.71727,192298
6.72538,191033
6.73352,180700
6.74163,186081
6.74975,178308
6.75788,189368
6.76600,182185
6.77413,177773
6.78225,172984
6.79037,176695
6.79850,171916
6.80662,164642
6.81473,163068
6.82287,157137
6.83098,156984
6.83912,160873
6.84723,157417
6.85535,162137
6.86348,186681
6.87160,199239
6.87973,230107
6.88785,238869
6.89597,232551
6.90410,202131
6.91222,168500
6.92035,149868
6.92847,135868
6.93658,126886
6.94472,125407
6.95283,126416
6.96095,129834
6.96908,128690
6.97720,137549
6.98533,158854
6.99345,166699
7.00157,177242
7.00970,160692
7.01782,149404
7.02595,147102
7.03407,153640
7.04218,150767
7.05032,140812
7.05843,131977
7.06655,136746
7.07468,160742
7.08280,187406
7.09093,204178
7.09905,213551
7.10717,194418
7.11530,163910
7.12342,147319
7.13155,134500
7.13967,131083
7.14778,137746
7.15592,161655
7.16403,199196
7.17217,246678
7.18028,281837
7.18840,347194
7.19653,802996
7.20465,2211655
7.21277,5097646
7.22090,8825419
7.22902,1.112005E+07
7.23715,1.022539E+07
7.24527,6723980
7.25338,3375504
7.26152,1434719
7.26963,598453
7.27777,297941
7.28588,198278
7.29400,171868
7.30213,163757
7.31025,162491
7.31838,168896
7.32650,179587
7.33462,206393
7.34275,248238
7.35087,298131
7.35898,326404
7.36712,310763
7.37523,274727
7.38337,226038
7.39148,180680
7.39960,160039
7.40773,140149
7.41585,141316
7.42398,131317
7.43210,138503
7.44022,132486
7.44835,135707
7.45647,138750
7.46458,134938
7.47272,141215
7.48083,132801
7.48897,135652
7.49708,125284
7.50520,120276
7.51333,115386
7.52145,118057
7.52958,129593
7.53770,184302
7.54582,322607
7.55395,668845
7.56207,1291445
7.57020,2126346
7.57832,2949813
7.58643,3470451
7.59457,3385110
7.60268,2767518
7.61080,1924562
7.61893,1204374
7.62705,713113
7.63518,438454
7.64330,304313
7.65142,225095
7.65955,187679
7.66767,163717
7.67580,136046
7.68392,128893
7.69203,119615
7.70017,117948
7.70828,113348
7.71640,115773
7.72453,122308
7.73265,127736
7.74078,133466
7.74890,147497
7.75702,154587
7.76515,145367
7.77327,150132
7.78140,135095
7.78952,127646
7.79763,127151
7.80577,134498
7.81388,156445
7.82202,194131
7.83013,201959
7.83825,204008
7.84638,170762
7.85450,147050
7.86262,126412
7.87075,129200
7.87887,135981
7.88700,155144
7.89512,176584
7.90323,213526
7.91137,229505
7.91948,242011
7.92762,220467
7.93573,191459
7.94385,186915
7.95198,222456
7.96010,243405
7.96823,251824
7.97635,243132
7.98447,225079
7.99260,189935
8.00072,151468
8.00883,126930
8.01697,114822
8.02508,112106
8.03322,110955
8.04133,106082
8.04945,107958
8.05758,102049
8.06570,97983
8.07383,101406
8.08195,100636
8.09007,100148
8.09820,98015
8.10632,93377
8.11445,94053
8.12257,92513
8.13068,91489
8.13882,119026
8.14693,164105
8.15505,244869
8.16318,320098
8.17130,346956
8.17943,311512
8.18755,249058
8.19567,184992
8.20380,150512
8.21192,129085
8.22005,116947
8.22817,99422
8.23628,106851
8.24442,106231
8.25253,98072
8.26065,97470
8.26878,91182
8.27690,90111
8.28503,87627
8.29315,83964
8.30127,84908
8.30940,86812
8.31752,87355
8.32565,86567
8.33377,90801
8.34188,95412
8.35002,96535
8.35813,103168
8.36627,89241
8.37438,89043
8.38250,82636
8.39063,82419
8.39875,84708
8.40687,76212
8.41500,79177
8.42312,75650
8.43125,75481
8.43937,72868
8.44748,68809
8.45562,73253
8.46373,71865
8.47187,84521
8.47998,75770
8.48810,73332
8.49623,70343
8.50435,68558
8.51247,68153
8.52060,80525
8.52872,109816
8.53685,170821
8.54497,258488
8.55308,312598
8.56122,291741
8.56933,221443
8.57747,147683
8.58558,106511
8.59370,87932
8.60183,96209
8.60995,109294
8.61808,129999
8.62620,157613
8.63432,178283
8.64245,189837
8.65057,181194
8.65868,152070
8.66682,130609
8.67493,99374
8.68307,88370
8.69118,83518
8.69930,80053
8.70743,79224
8.71555,80006
8.72368,81527
8.73180,77457
8.73992,72960
8.74805,73271
8.75617,72389
8.76430,75739
8.77242,90850
8.78053,142855
8.78867,249315
8.79678,451342
8.80490,669415
8.81303,789171
8.82115,774370
8.82928,624543
8.83740,458458
8.84552,361526
8.85365,306013
8.86177,285321
8.86990,264244
8.87802,252885
8.88613,246882
8.89427,219919
8.90238,210764
8.91050,207005
8.91863,211038
8.92675,225605
8.93488,304785
8.94300,409231
8.95112,506690
8.95925,518965
8.96737,444103
8.97550,344607
8.98362,279101
8.99173,255297
8.99987,263986
9.00798,272493
9.01612,252160
9.02423,216709
9.03235,188926
9.04048,173805
9.04860,162054
9.05672,145499
9.06485,144457
9.07297,145018
9.08110,142806
9.08922,142184
9.09733,147629
9.10547,160732
9.11358,192972
9.12172,238942
9.12983,279217
9.13795,298428
9.14608,280114
9.15420,240271
9.16233,199535
9.17045,175922
9.17857,160245
9.18670,149513
9.19482,147466
9.20293,141159
9.21107,140293
9.21918,138385
9.22732,137922
9.23543,142823
9.24355,153748
9.25168,151864
9.25980,139165
9.26793,136047
9.27605,136134
9.28417,122341
9.29230,125113
9.30042,122820
9.30853,123322
9.31667,118545
9.32478,116185
9.33292,118415
9.34103,114283
9.34915,113514
9.35728,110061
9.36540,107280
9.37353,108664
9.38165,104179
9.38977,103707
9.39790,120333
9.40602,127203
9.41415,139696
9.42227,167065
9.43038,198385
9.43852,249181
9.44663,299483
9.45475,358070
9.46288,362090
9.47100,329149
9.47913,277340
9.48725,212477
9.49537,159040
9.50350,136148
9.51162,133295
9.51975,129465
9.52787,141584
9.53598,156325
9.54412,171272
9.55223,161137
9.56035,145835
9.56848,135952
9.57660,120673
9.58473,106159
9.59285,103138
9.60097,103768
9.60910,106640
9.61722,106688
9.62535,98543
9.63347,95293
9.64158,81101
9.64972,74784
9.65783,74473
9.66597,73302
9.67408,74241
9.68220,75154
9.69033,74696
9.69845,73328
9.70657,80333
9.71470,76629
9.72282,81258
9.73095,82160
9.73907,89324
9.74718,89498
9.75532,78998
9.76343,71586
9.77157,66500
9.77968,67042
9.78780,69961
9.79593,63149
9.80405,66972
9.81218,66523
9.82030,66443
9.82842,64955
9.83655,62245
9.84467,64285
9.85278,65320
9.86092,70028
9.86903,69213
9.87717,71377
9.88528,67014
9.89340,62121
9.90153,65675
9.90965,64713
9.91778,65193
9.92590,71150
9.93402,70915
9.94215,86304
9.95027,114513
9.95838,161043
9.96652,219034
9.97463,274082
9.98277,299973
9.99088,278755
9.99900,222492
10.00713,177351
10.01525,140134
10.02338,133825
10.03150,116351
10.03962,112773
10.04775,111725
10.05587,116146
10.06400,117055
10.07212,122566
10.08023,116714
10.08837,116387
10.09648,113780
10.10460,113693
10.11273,110334
10.12085,115762
10.12898,102399
10.13710,108155
10.14522,99763
10.15335,100068
10.16147,98327
10.16960,95643
10.17772,93329
10.18583,94507
10.19397,90708
10.20208,94592
10.21022,90521
10.21833,88631
10.22645,88506
10.23458,88269
10.24270,96588
10.25082,105400
10.25895,128136
10.26707,225932
10.27520,548670
10.28332,1465017
10.29143,3275165
10.29957,5913820
10.30768,9120882
10.31582,1.241483E+07
10.32393,1.603813E+07
10.33205,2.048753E+07
10.34018,2.637496E+07
10.34830,3.385106E+07
10.35642,4.245737E+07
10.36455,5.000406E+07
10.37267,5.289466E+07
10.38080,4.619969E+07
10.38892,2.663913E+07
10.39703,1.049029E+07
10.40517,4195775
10.41328,2380556
10.42142,1569967
10.42953,1178090
10.43765,950997
10.44578,830313
10.45390,775367
10.46203,748711
10.47015,735104
10.47827,698070
10.48640,665784
10.49452,606791
10.50263,538889
10.51077,493882
10.51888,442209
10.52702,422103
10.53513,406449
10.54325,432315
10.55138,436460
10.55950,451377
10.56763,440453
10.57575,424628
10.58387,396980
10.59200,380159
10.60012,362074
10.60823,348340
10.61637,334873
10.62448,306103
10.63262,299383
10.64073,274150
10.64885,265580
10.65698,265172
10.66510,236081
10.67323,240660
10.68135,238082
10.68947,219343
10.69760,227399
10.70572,231873
10.71385,234020
10.72197,243129
10.73008,244025
10.73822,238986
10.74633,226471
10.75445,218846
10.76258,212771
10.77070,200005
10.77883,196311
10.78695,199404
10.79507,184879
10.80320,173205
10.81132,176329
10.81945,181297
10.82757,184791
10.83568,191874
10.84382,191986
10.85193,171949
10.86007,162206
10.86818,154205
10.87630,153499
10.88443,142455
10.89255,146585
10.90067,145477
10.90880,145380
10.91692,143139
10.92505,143465
10.93317,135745
10.94128,133245
10.94942,136090
10.95753,133164
10.96567,132361
10.97378,130957
10.98190,135952
10.99003,135525
10.99815,132155
11.00627,130883
11.01440,137432
11.02252,134266
11.03065,143007
11.03877,137989
11.04688,134348
11.05502,125535
11.06313,126136
11.07127,124712
11.07938,129500
11.08750,143752
11.09563,142942
11.10375,148210
11.11188,153324
11.12000,142301
11.12812,133570
11.13625,124089
11.14437,113491
11.15248,103984
11.16062,100329
11.16873,100047
11.17687,97162
11.18498,98776
11.19310,94291
11.20123,98841
11.20935,90606
11.21748,98602
11.22560,89999
11.23372,84496
11.24185,86159
11.24997,84938
11.25810,77183
11.26622,75155
11.27433,73384
11.28247,79142
11.29058,75031
11.29870,75721
11.30683,80821
11.31495,122612
11.32308,212078
11.33120,424098
11.33932,825103
11.34745,1366106
11.35557,1896894
11.36370,2143131
11.37182,1982776
11.37993,1619810
11.38807,1171545
11.39618,808955
11.40430,599695
11.41243,486261
11.42055,411622
11.42868,360391
11.43680,310435
11.44492,263209
11.45305,232505
11.46117,202779
11.46930,173881
11.47742,163158
11.48553,162221
11.49367,197825
11.50178,238035
11.50992,310845
11.51803,387304
11.52615,439539
11.53428,452747
11.54240,413836
11.55052,383675
11.55865,334021
11.56677,300107
11.57490,274924
11.58302,234963
11.59113,223412
11.59927,238005
11.60738,302650
11.61552,455714
11.62363,665434
11.63175,776523
11.63988,795547
11.64800,686978
11.65613,514307
11.66425,345675
11.67237,237633
11.68050,182181
11.68862,146333
11.69673,134233
11.70487,131310
11.71298,137564
11.72112,130097
11.72923,138663
11.73735,136324
11.74548,134027
11.75360,128748
11.76173,115421
11.76985,105374
11.77797,99518
11.78610,93823
11.79422,91086
11.80233,85265
11.81047,85649
11.81858,81919
11.82672,80017
11.83483,78844
11.84295,80427
11.85108,77706
11.85920,78677
11.86733,76059
11.87545,73308
11.88357,70270
11.89170,70841
11.89982,71247
11.90795,68806
11.91607,80477
11.92418,74154
11.93232,84069
11.94043,87704
11.94855,98130
11.95668,92496
11.96480,84051
11.97293,74990
11.98105,65737
11.98917,63800
11.99730,68805
12.00542,63383
12.01355,59104
12.02167,62128
12.02978,64259
12.03792,64171
12.04603,59146
12.05415,63342
12.06228,66234
12.07040,70878
12.07853,71899
12.08665,84243
12.09477,77229
12.10290,79237
12.11102,94627
12.11915,115788
12.12727,161886
12.13538,245169
12.14352,325346
12.15163,395570
12.15977,415460
12.16788,359772
12.17600,275664
12.18413,208217
12.19225,160006
12.20037,140282
12.20850,146399
12.21662,143438
12.22475,135626
12.23287,135321
12.24098,130589
12.24912,128960
12.25723,120202
12.26537,117025
12.27348,119696
12.28160,111366
12.28973,106507
12.29785,104645
12.30598,97123
12.31410,91489
12.32222,93585
12.33035,99370
12.33847,94735
12.34658,96563
12.35472,92458
12.36283,97184
12.37097,90240
12.37908,90958
12.38720,86155
12.39533,88359
12.40345,108183
12.41158,146762
12.41970,208480
12.42782,320843
12.43595,434003
12.44407,486443
12.45218,456050
12.46032,361576
12.46843,268550
12.47657,207122
12.48468,161180
12.49280,136912
12.50093,122776
12.50905,116293
12.51718,110083
12.52530,104970
12.53342,114473
12.54155,140404
12.54967,165062
12.55780,222438
12.56592,289132
12.57403,327073
12.58217,349858
12.59028,298536
12.59840,234970
12.60653,177107
12.61465,140428
12.62278,121541
12.63090,109232
12.63902,103925
12.64715,102255
12.65527,98083
12.66340,93047
12.67152,94573
12.67963,95001
12.68777,88874
12.69588,88901
12.70402,90367
12.71213,79814
12.72025,77778
12.72838,84589
12.73650,93477
12.74462,94503
12.75275,101729
12.76087,106920
12.76900,97980
12.77712,90742
12.78523,83994
12.79337,79376
12.80148,74484
12.80962,69127
12.81773,74194
12.82585,68699
12.83398,67375
12.84210,65254
12.85022,60525
12.85835,61636
12.86647,59002
12.87460,56862
12.88272,58270
12.89083,59623
12.89897,61192
12.90708,56721
12.91522,56340
12.92333,57120
12.93145,52860
12.93958,55921
12.94770,55827
12.95583,61633
12.96395,57620
12.97207,67352
12.98020,70264
12.98832,86180
12.99643,89337
13.00457,83321
13.01268,88611
13.02082,64868
13.02893,67128
13.03705,67277
13.04518,61965
13.05330,62768
13.06143,61137
13.06955,59619
13.07767,60098
13.08580,64499
13.09392,67087
13.10203,70286
13.11017,77792
13.11828,68669
13.12642,62232
13.13453,60500
13.14265,59074
13.15078,60746
13.15890,58772
13.16703,60164
13.17515,61596
13.18327,66037
13.19140,67116
13.19952,65452
13.20765,68166
13.21577,74235
13.22388,78279
13.23202,80207
13.24013,80814
13.24825,84387
13.25638,89428
13.26450,88708
13.27263,90565
13.28075,87068
13.28887,82458
13.29700,73876
13.30512,69536
13.31325,61123
13.32137,57537
13.32948,53854
13.33762,52668
13.34573,56556
13.35387,61445
13.36198,55300
13.37010,55745
13.37823,58856
13.38635,60286
13.39447,56366
13.40260,54751
13.41072,57764
13.41885,54209
13.42697,56461
13.43508,57305
13.44322,52282
13.45133,51033
13.45947,51700
13.46758,56688
13.47570,58307
13.48383,55668
13.49195,58580
13.50007,58319
13.50820,57526
13.51632,62133
13.52445,64773
13.53257,70872
13.54068,78175
13.54882,79418
13.55693,70854
13.56507,68961
13.57318,62657
13.58130,68372
13.58943,66834
13.59755,73422
13.60568,86755
13.61380,97992
13.62192,123011
13.63005,142457
13.63817,154889
13.64628,145542
13.65442,132118
13.66253,100963
13.67067,76779
13.67878,64472
13.68690,59007
13.69503,53484
13.70315,59210
13.71128,55335
13.71940,51695
13.72752,51268
13.73565,55368
13.74377,52916
13.75190,57067
13.76002,68627
13.76813,95392
13.77627,143603
13.78438,200375
13.79250,271462
13.80063,378815
13.80875,493490
13.81688,598124
13.82500,663811
13.83312,767274
13.84125,890655
13.84937,987957
13.85750,1028857
13.86562,961794
13.87373,818467
13.88187,595585
13.88998,422059
13.89810,300320
13.90623,212696
13.91435,158828
13.92248,131514
13.93060,110686
13.93872,100943
13.94685,95744
13.95497,84872
13.96310,78067
13.97122,79999
13.97933,77342
13.98747,74898
13.99558,73157
14.00372,77675
14.01183,87674
14.01995,89883
14.02808,88882
14.03620,89225
14.04432,80261
14.05245,72362
14.06057,64796
14.06870,70908
14.07682,67391
14.08493,69867
14.09307,64716
14.10118,69561
14.10932,68501
14.11743,65723
14.12555,64777
14.13368,64569
14.14180,61536
14.14992,63097
14.15805,64781
14.16617,67184
14.17430,66526
14.18242,77671
14.19053,76128
14.19867,85929
14.20678,100222
14.21492,134215
14.22303,185045
14.23115,230294
14.23928,266599
14.24740,282811
14.25553,286862
14.26365,293570
14.27177,292336
14.27990,275570
14.28802,243413
14.29613,212827
14.30427,175751
14.31238,153593
14.32052,146688
14.32863,130034
14.33675,126966
14.34488,120778
14.35300,118970
14.36113,120162
14.36925,115850
14.37737,105847
14.38550,103612
14.39362,91694
14.40175,82825
14.40987,97458
14.41798,139584
14.42612,194134
14.43423,245588
14.44235,278076
14.45048,267558
14.45860,226202
14.46673,179988
14.47485,153150
14.48297,126138
14.49110,120998
14.49922,122937
14.50735,114044
14.51547,109734
14.52358,99539
14.53172,89598
14.53983,85505
14.54797,81761
14.55608,72469
14.56420,73989
14.57233,75726
14.58045,71306
14.58857,68437
14.59670,67426
14.60482,60977
14.61295,66623
14.62107,59068
14.62918,59433
14.63732,62108
14.64543,59261
14.65357,55229
14.66168,59023
14.66980,52916
14.67793,52208
14.68605,51945
14.69417,52135
14.70230,52936
14.71042,62483
14.71855,56194
14.72667,54606
14.73478,60926
14.74292,56939
14.75103,53990
14.75917,66674
14.76728,67503
14.77540,66933
14.78353,68050
14.79165,88776
14.79978,146721
14.80790,410272
14.81602,1247232
14.82415,3156581
14.83227,6655654
14.84038,1.156952E+07
14.84852,1.721761E+07
14.85663,2.145384E+07
14.86477,2.236872E+07
14.87288,1.911253E+07
14.88100,1.278399E+07
14.88913,7231774
14.89725,3928380
14.90538,2365327
14.91350,1731905
14.92162,1411242
14.92975,1249477
14.93787,1099985
14.94598,971255
14.95412,855270
14.96223,784305
14.97037,698456
14.97848,685602
14.98660,622525
14.99473,589717
15.00285,558799
15.01098,531153
15.01910,492861
15.02722,467762
15.03535,427205
15.04347,406206
15.05160,392804
15.05972,366508
15.06783,360123
15.07597,337766
15.08408,313886
15.09220,295933
15.10033,284652
15.10845,277389
15.11658,274679
15.12470,261691
15.13282,292018
15.14095,313029
15.14907,367431
15.15720,412668
15.16532,443789
15.17343,417506
15.18157,353323
15.18968,271470
15.19782,199879
15.20593,151555
15.21405,134193
15.22218,120776
15.23030,108654
15.23842,113330
15.24655,102816
15.25467,100314
15.26280,99463
15.27092,94745
15.27903,94725
15.28717,83729
15.29528,90476
15.30342,84702
15.31153,81616
15.31965,81547
15.32778,79193
15.33590,74548
15.34402,74151
15.35215,73143
15.36027,73645
15.36840,73859
15.37652,78480
15.38463,85130
15.39277,92808
15.40088,99736
15.40902,91795
15.41713,86984
15.42525,84174
15.43338,77754
15.44150,72108
15.44963,70911
15.45775,77764
15.46587,76222
15.47400,81001
15.48212,98806
15.49023,134162
15.49837,184580
15.50648,259065
15.51462,338063
15.52273,382456
15.53085,381749
15.53898,346471
15.54710,286413
15.55523,230281
15.56335,187058
15.57147,144158
15.57960,124229
15.58772,105130
15.59585,90543
15.60397,88594
15.61208,85614
15.62022,86415
15.62833,85403
15.63645,79762
15.64458,85070
15.65270,80429
15.66083,79019
15.66895,80980
15.67707,73301
15.68520,72896
15.69332,68381
15.70145,63786
15.70957,58516
15.71768,58939
15.72582,61645
15.73393,63133
15.74205,60654
15.75018,65179
15.75830,84713
15.76643,130521
15.77455,280847
15.78267,594816
15.79080,1089203
15.79892,1639401
15.80705,1978690
15.81517,1955431
15.82328,1525411
15.83142,1057489
15.83953,657996
15.84767,411635
15.85578,297666
15.86390,240979
15.87203,216213
15.88015,189002
15.88827,173782
15.89640,169842
15.90452,153572
15.91265,144230
15.92077,130667
15.92888,131174
15.93702,125152
15.94513,119670
15.95327,112689
15.96138,112490
15.96950,106132
15.97763,101901
15.98575,98852
15.99387,93912
16.00200,105029
16.01012,113889
16.01825,135658
16.02637,154266
16.03448,162163
16.04262,178924
16.05073,173555
16.05887,155063
16.06698,140166
16.07510,123667
16.08323,99655
16.09135,92034
16.09948,83632
16.10760,82368
16.11572,76787
16.12385,87189
16.13197,85130
16.14008,91122
16.14822,104889
16.15633,126074
16.16447,134004
16.17258,132978
16.18070,122311
16.18883,111242
16.19695,103678
16.20508,93635
16.21320,95576
16.22132,87929
16.22945,96857
16.23757,98670
16.24570,95657
16.25382,94498
16.26193,84480
16.27007,75215
16.27818,76139
16.28630,71665
16.29443,84818
16.30255,95159
16.31068,101472
16.31880,107781
16.32692,116760
16.33505,113993
16.34317,110753
16.35130,101077
16.35942,101230
16.36753,94426
16.37567,90382
16.38378,93737
16.39190,87335
16.40003,80634
16.40815,79896
16.41628,77681
16.42440,73261
16.43252,74573
16.44065,83988
16.44877,97778
16.45690,175017
16.46502,420856
16.47313,1079699
16.48127,2228443
16.48938,3754258
16.49752,5155938
16.50563,5709297
16.51375,5155907
16.52188,3742410
16.53000,2285513
16.53812,1318739
16.54625,787947
16.55437,529569
16.56250,411977
16.57062,368269
16.57873,318444
16.58687,279575
16.59498,264531
16.60312,252985
16.61123,231217
16.61935,215252
16.62748,195786
16.63560,185279
16.64373,171336
16.65185,162615
16.65997,150396
16.66810,147297
16.67622,141294
16.68433,138120
16.69247,137561
16.70058,134241
16.70872,121604
16.71683,114311
16.72495,107535
16.73308,102550
16.74120,93236
16.74933,95456
16.75745,95774
16.76557,127687
16.77370,150732
16.78182,177033
16.78993,192481
16.79807,164324
16.80618,135108
16.81432,109305
16.82243,91971
16.83055,78008
16.83868,75459
16.84680,72936
16.85493,72943
16.86305,67978
16.87117,68571
16.87930,62509
16.88742,65879
16.89555,62974
16.90367,60266
16.91178,64001
16.91992,59360
16.92803,62212
16.93615,61430
16.94428,61451
16.95240,60636
16.96053,61443
16.96865,65672
16.97677,65813
16.98490,64624
16.99302,67650
17.00115,67198
17.00927,66586
17.01738,71186
17.02552,67152
17.03363,70030
17.04177,83528
17.04988,95993
17.05800,123469
17.06613,142029
17.07425,170639
17.08237,166931
17.09050,146182
17.09862,129224
17.10675,102175
17.11487,92453
17.12298,84594
17.13112,88341
17.13923,86654
17.14737,93653
17.15548,89889
17.16360,87625
17.17173,85743
17.17985,75009
17.18797,73335
17.19610,78161
17.20422,74099
17.21235,69030
17.22047,64601
17.22858,58911
17.23672,62495
17.24483,57486
17.25297,64654
17.26108,67349
17.26920,73020
17.27733,71464
17.28545,70329
17.29358,63914
17.30170,62638
17.30982,65695
17.31795,68833
17.32607,79363
17.33418,101809
17.34232,143778
17.35043,182941
17.35857,218705
17.36668,232004
17.37480,231512
17.38293,209046
17.39105,192261
17.39918,167449
17.40730,167545
17.41542,152165
17.42355,142088
17.43167,142003
17.43978,143024
17.44792,140649
17.45603,138760
17.46417,132122
17.47228,123005
17.48040,110001
17.48853,112768
17.49665,105113
17.50478,92036
17.51290,93285
17.52102,92450
17.52915,84621
17.53727,87500
17.54540,88150
17.55352,90654
17.56163,100835
17.56977,136517
17.57788,249146
17.58600,557736
17.59413,1228399
17.60225,2399384
17.61038,3850494
17.61850,5013740
17.62662,5523732
17.63475,5211357
17.64287,4089989
17.65100,2730459
17.65912,1667014
17.66723,935377
17.67537,545784
17.68348,349012
17.69162,255018
17.69973,212782
17.70785,195802
17.71598,174844
17.72410,161360
17.73222,156011
17.74035,150950
17.74847,131669
17.75660,127816
17.76472,115729
17.77283,104409
17.78097,98441
17.78908,94070
17.79722,85801
17.80533,85578
17.81345,84747
17.82158,83236
17.82970,89269
17.83782,84437
17.84595,97384
17.85407,105970
17.86220,125923
17.87032,158460
17.87843,186629
17.88657,205818
17.89468,210659
17.90282,176322
17.91093,142823
17.91905,110928
17.92718,93662
17.93530,81948
17.94343,73863
17.95155,74135
17.95967,68403
17.96780,64938
17.97592,66738
17.98403,70759
17.99217,63074
18.00028,66353
18.00842,66926
18.01653,69444
18.02465,92664
18.03278,126074
18.04090,186052
18.04903,261419
18.05715,360194
18.06527,474620
18.07340,837077
18.08152,1692425
18.08965,3364259
18.09777,5717706
18.10588,8148051
18.11402,9582590
18.12213,9496773
18.13025,8157942
18.13838,6118170
18.14650,4492934
18.15463,3294687
18.16275,2587768
18.17087,2151945
18.17900,1826630
18.18712,1579847
18.19525,1414917
18.20337,1241073
18.21148,1115374
18.21962,1014322
18.22773,927523
18.23585,831702
18.24398,772046
18.25210,708496
18.26023,664067
18.26835,624290
18.27647,564610
18.28460,507776
18.29272,431911
18.30085,341984
18.30897,263696
18.31708,210479
18.32522,168136
18.33333,146258
18.34147,133251
18.34958,134418
18.35770,127497
18.36583,115529
18.37395,113669
18.38207,109028
18.39020,101051
18.39832,103813
18.40645,106820
18.41457,108397
18.42268,116503
18.43082,114770
18.43893,134603
18.44707,163599
18.45518,221907
18.46330,327510
18.47143,542117
18.47955,941789
18.48767,1436539
18.49580,1854406
18.50392,2001480
18.51205,1780161
18.52017,1378744
18.52828,935292
18.53642,588261
18.54453,343206
18.55267,224004
18.56078,160834
18.56890,128166
18.57703,110887
18.58515,105036
18.59328,93569
18.60140,97275
18.60952,98401
18.61765,105787
18.62577,113411
18.63388,115224
18.64202,119596
18.65013,119799
18.65827,110913
18.66638,100551
18.67450,92073
18.68263,90696
18.69075,74686
18.69888,68553
18.70700,69619
18.71512,73013
18.72325,68793
18.73137,66548
18.73950,64625
18.74762,69353
18.75573,67210
18.76387,65506
18.77198,70397
18.78010,69626
18.78823,68737
18.79635,92763
18.80448,144967
18.81260,204583
18.82072,235926
18.82885,265563
18.83697,276455
18.84510,273878
18.85322,281819
18.86133,288381
18.86947,285640
18.87758,293124
18.88570,297512
18.89383,283323
18.90195,286533
18.91008,294848
18.91820,285757
18.92632,303166
18.93445,300076
18.94257,325300
18.95070,337358
18.95882,358454
18.96693,365399
18.97507,397810
18.98318,406297
18.99132,387097
18.99943,384408
19.00755,344293
19.01568,328019
19.02380,317067
19.03192,299656
19.04005,287822
19.04817,285322
19.05630,282406
19.06442,267672
19.07253,257353
19.08067,267293
19.08878,274230
19.09692,291182
19.10503,315819
19.11315,330778
19.12128,357535
19.12940,343801
19.13753,341218
19.14565,312308
19.15377,300914
19.16190,285810
19.17002,266647
19.17813,253554
19.18627,252489
19.19438,250602
19.20252,247957
19.21063,244345
19.21875,249353
19.22688,243598
19.23500,249987
19.24313,242203
19.25125,244325
19.25937,242923
19.26750,239021
19.27562,242004
19.28373,241217
19.29187,247583
19.29998,258848
19.30812,263117
19.31623,267286
19.32435,260713
19.33248,256437
19.34060,258392
19.34873,249868
19.35685,272380
19.36497,297718
19.37310,367108
19.38122,447258
19.38935,538710
19.39747,584103
19.40558,571379
19.41372,493246
19.42183,412839
19.42995,345790
19.43808,303811
19.44620,283687
19.45433,271594
19.46245,265265
19.47057,256321
19.47870,255386
19.48682,259994
19.49495,261155
19.50307,274046
19.51118,283856
19.51932,312774
19.52743,343513
19.53555,382276
19.54368,411772
19.55180,401352
19.55993,384922
19.56805,346079
19.57617,301888
19.58430,271626
19.59242,253316
19.60055,231451
19.60867,217939
19.61678,219092
19.62492,204726
19.63303,199130
19.64117,210897
19.64928,240767
19.65740,285261
19.66553,379830
19.67365,534376
19.68177,708455
19.68990,865028
19.69802,917571
19.70615,912420
19.71427,842585
19.72238,720727
19.73052,623251
19.73863,518672
19.74677,465882
19.75488,404023
19.76300,348659
19.77113,316141
19.77925,286236
19.78738,279659
19.79550,295149
19.80362,321789
19.81175,343480
19.81987,363544
19.82798,371074
19.83612,342257
19.84423,317327
19.85237,273941
19.86048,248985
19.86860,234830
19.87673,260339
19.88485,323060
19.89298,466712
19.90110,672180
19.90922,852911
19.91735,1021815
19.92547,1034650
19.93360,953813
19.94172,804826
19.94983,636124
19.95797,509074
19.96608,420190
19.97420,380884
19.98233,359398
19.99045,331159
19.99858,310419
20.00670,303920
20.01482,302113
20.02295,281389
20.03107,275224
20.03920,268060
20.04732,271948
20.05543,250856
20.06357,250266
20.07168,252433
20.07980,260137
20.08793,271023
20.09605,296240
20.10418,306099
20.11230,319487
20.12042,293697
20.12855,280437
20.13667,248960
20.14480,228211
20.15292,215181
20.16103,235615
20.16917,280176
20.17728,369272
20.18542,493762
20.19353,656769
20.20165,815002
20.20978,884054
20.21790,904862
20.22602,821730
20.23415,711227
20.24227,574924
20.25040,497964
20.25852,486897
20.26663,540664
20.27477,671790
20.28288,831509
20.29102,1009737
20.29913,1159523
20.30725,1197380
20.31538,1109680
20.32350,933451
20.33162,746847
20.33975,572745
20.34787,431926
20.35600,342541
20.36412,284676
20.37223,250256
20.38037,222819
20.38848,207343
20.39662,201469
20.40473,180375
20.41285,179954
20.42098,185365
20.42910,182041
20.43723,198240
20.44535,209329
20.45347,235158
20.46160,264828
20.46972,292103
20.47783,277218
20.48597,268833
20.49408,249649
20.50222,224943
20.51033,205001
20.51845,186091
20.52658,171430
20.53470,177347
20.54283,171499
20.55095,175795
20.55907,180702
20.56720,181276
20.57532,182436
20.58345,171467
20.59157,172290
20.59968,161796
20.60782,157695
20.61593,149969
20.62405,147962
20.63218,149830
20.64030,151916
20.64843,150473
20.65655,159227
20.66467,162354
20.67280,164476
20.68092,159485
20.68905,163477
20.69717,164885
20.70528,149291
20.71342,145125
20.72153,145199
20.72965,137895
20.73778,134889
20.74590,135557
20.75403,139132
20.76215,154356
20.77027,161287
20.77840,162797
20.78652,186732
20.79465,225014
20.80277,320898
20.81088,509618
20.81902,800719
20.82713,1150576
20.83527,1399803
20.84338,1450872
20.85150,1271637
20.85963,908274
20.86775,573432
20.87587,381680
20.88400,260075
20.89212,209778
20.90025,177282
20.90837,168358
20.91648,168091
20.92462,163912
20.93273,172817
20.94087,184994
20.94898,181774
20.95710,182121
20.96523,180441
20.97335,182198
20.98148,165813
20.98960,159201
20.99772,152437
21.00585,142978
21.01397,135254
21.02208,135611
21.03022,132697
21.03833,137263
21.04647,144371
21.05458,140748
21.06270,142359
21.07083,137690
21.07895,141170
21.08708,135423
21.09520,137283
21.10332,134967
21.11145,132881
21.11957,131548
21.12768,129966
21.13582,136370
21.14393,139662
21.15207,180571
21.16018,230534
21.16830,305623
21.17643,377473
21.18455,404142
21.19268,406037
21.20080,336941
21.20892,292280
21.21705,234634
21.22517,199946
21.23330,184386
21.24142,175008
21.24953,162300
21.25767,148874
21.26578,143739
21.27390,133929
21.28203,127692
21.29015,125146
21.29828,120819
21.30640,122070
21.31452,119732
21.32265,110376
21.33077,113575
21.33890,111114
21.34702,116898
21.35513,117646
21.36327,115679
21.37138,117696
21.37950,120903
21.38763,123462
21.39575,142669
21.40388,176424
21.41200,225508
21.42012,281931
21.42825,323395
21.43637,334811
21.44450,327924
21.45262,296837
21.46073,248390
21.46887,204502
21.47698,185096
21.48512,170691
21.49323,155120
21.50135,153275
21.50948,136929
21.51760,126517
21.52572,128379
21.53385,111913
21.54197,117980
21.55010,112973
21.55822,113726
21.56633,115185
21.57447,113024
21.58258,121813
21.59072,139350
21.59883,160122
21.60695,181326
21.61508,195502
21.62320,201078
21.63133,193798
21.63945,192316
21.64757,192076
21.65570,202821
21.66382,240927
21.67193,274217
21.68007,303476
21.68818,335642
21.69632,327792
21.70443,314570
21.71255,302341
21.72068,249776
21.72880,205488
21.73693,177542
21.74505,155936
21.75317,143437
21.76130,133542
21.76942,129225
21.77753,124326
21.78567,122696
21.79378,122210
21.80192,122841
21.81003,118457
21.81815,121916
21.82628,124817
21.83440,128624
21.84253,141374
21.85065,156819
21.85877,184347
21.86690,223061
21.87502,234110
21.88315,221342
21.89127,211583
21.89938,180894
21.90752,157556
21.91563,156049
21.92375,140450
21.93188,142680
21.94000,135148
21.94813,122776
21.95625,115979
21.96437,107230
21.97250,97823
21.98062,95260
21.98875,98189
21.99687,93905
22.00498,94808
22.01312,90922
22.02123,95564
22.02937,97281
22.03748,99992
22.04560,105580
22.05373,111809
22.06185,122349
22.06997,120019
22.07810,112173
22.08622,115597
22.09435,102024
22.10247,100483
22.11058,102706
22.11872,97093
22.12683,96902
22.13497,92351
22.14308,88878
22.15120,88012
22.15933,91245
22.16745,87140
22.17557,85142
22.18370,89384
22.19182,83308
22.19995,87890
22.20807,80135
22.21618,90139
22.22432,86274
22.23243,90214
22.24057,98948
22.24868,105514
22.25680,112511
22.26493,111976
22.27305,108561
22.28118,117615
22.28930,115316
22.29742,120312
22.30555,122199
22.31367,120070
22.32178,121046
22.32992,119412
22.33803,110433
22.34617,115352
22.35428,104931
22.36240,110547
22.37053,98483
22.37865,95926
22.38678,103631
22.39490,112960
22.40302,140957
22.41115,201322
22.41927,281561
22.42740,382736
22.43552,465609
22.44363,507779
22.45177,468024
22.45988,381935
22.46800,308777
22.47613,232420
22.48425,191753
22.49238,175966
22.50050,184955
22.50862,204713
22.51675,218210
22.52487,237073
22.53300,236822
22.54112,223142
22.54923,202382
22.55737,179802
22.56548,151147
22.57360,144105
22.58173,122038
22.58985,121203
22.59798,103897
22.60610,107125
22.61422,96045
22.62235,90672
22.63047,84101
22.63860,84073
22.64672,87367
22.65483,91259
22.66297,95591
22.67108,106608
22.67922,101667
22.68733,115597
22.69545,126080
22.70358,151886
22.71170,197278
22.71982,252709
22.72795,312358
22.73607,337427
22.74420,355277
22.75232,334920
22.76043,276563
22.76857,232572
22.77668,195565
22.78482,202773
22.79293,229360
22.80105,309604
22.80918,419628
22.81730,563066
22.82542,675054
22.83355,708353
22.84167,647518
22.84980,547205
22.85792,428309
22.86603,346205
22.87417,277098
22.88228,245760
22.89042,245476
22.89853,238966
22.90665,249197
22.91478,269965
22.92290,308389
22.93103,356049
22.93915,417732
22.94727,462887
22.95540,475992
22.96352,434619
22.97163,343503
22.97977,272534
22.98788,213619
22.99602,166216
23.00413,146961
23.01225,122886
23.02038,112161
23.02850,108012
23.03663,98399
23.04475,93245
23.05287,97808
23.06100,96538
23.06912,91270
23.07725,91717
23.08537,100176
23.09348,101515
23.10162,99076
23.10973,98307
23.11785,96517
23.12598,94005
23.13410,87763
23.14223,87840
23.15035,86211
23.15847,88890
23.16660,88151
23.17472,87588
23.18285,86190
23.19097,80755
23.19908,76392
23.20722,78979
23.21533,79530
23.22345,73469
23.23158,81144
23.23970,77618
23.24783,77153
23.25595,91464
23.26407,112331
23.27220,139210
23.28032,157183
23.28845,165571
23.29657,168676
23.30468,151474
23.31282,126148
23.32093,112479
23.32907,101641
23.33718,101305
23.34530,114871
23.35343,134871
23.36155,183230
23.36967,235044
23.37780,289587
23.38592,314356
23.39405,314374
23.40217,292583
23.41028,257459
23.41842,205886
23.42653,180325
23.43467,158070
23.44278,143606
23.45090,143071
23.45903,132121
23.46715,128321
23.47528,127282
23.48340,122050
23.49152,111902
23.49965,109708
23.50777,110612
23.51588,109558
23.52402,96838
23.53213,103599
23.54027,97723
23.54838,96575
23.55650,103597
23.56463,103681
23.57275,114345
23.58088,128975
23.58900,155009
23.59712,184140
23.60525,229640
23.61337,251562
23.62148,273561
23.62962,255287
23.63773,218846
23.64587,174854
23.65398,145762
23.66210,123805
23.67023,118552
23.67835,115102
23.68648,115708
23.69460,120157
23.70272,105062
23.71085,106983
23.71897,94171
23.72710,94383
23.73522,87310
23.74333,83489
23.75147,83289
23.75958,85815
23.76770,118846
23.77583,215217
23.78395,462010
23.79208,930074
23.80020,1594294
23.80832,2195581
23.81645,2520254
23.82457,2443884
23.83270,1991136
23.84082,1565712
23.84893,1148735
23.85707,847360
23.86518,659618
23.87330,535059
23.88143,439243
23.88955,389254
23.89768,360692
23.90580,338678
23.91392,342519
23.92205,374984
23.93017,395663
23.93830,422319
23.94642,398506
23.95453,371549
23.96267,305119
23.97078,257036
23.97892,221798
23.98703,195467
23.99515,190280
24.00328,177665
24.01140,171971
24.01952,169583
24.02765,184625
24.03577,216316
24.04390,257912
24.05202,285082
24.06013,279608
24.06827,253663
24.07638,216018
24.08452,169598
24.09263,149588
24.10075,135783
24.10888,133479
24.11700,119023
24.12513,122641
24.13325,118463
24.14137,120773
24.14950,138433
24.15762,139913
24.16573,163932
24.17387,178593
24.18198,187289
24.19012,188980
24.19823,183994
24.20635,179806
24.21448,172578
24.22260,168258
24.23073,161920
24.23885,153653
24.24697,160203
24.25510,148568
24.26322,144179
24.27133,143247
24.27947,128590
24.28758,127697
24.29572,121616
24.30383,125041
24.31195,128142
24.32008,131171
24.32820,126763
24.33633,129853
24.34445,133013
24.35257,128346
24.36070,123492
24.36882,122678
24.37695,111963
24.38507,107711
24.39318,107107
24.40132,110406
24.40943,124467
24.41755,129917
24.42568,148532
24.43380,160067
24.44193,165664
24.45005,150214
24.45817,137602
24.46630,124177
24.47442,117390
24.48255,110791
24.49067,103592
24.49878,108351
24.50692,102428
24.51503,108349
24.52317,114738
24.53128,121772
24.53940,138150
24.54753,147259
24.55565,167834
24.56377,176764
24.57190,195527
24.58002,203005
24.58815,203894
24.59627,184502
24.60438,175849
24.61252,173972
24.62063,163901
24.62877,140809
24.63688,137713
24.64500,130663
24.65313,125479
24.66125,121819
24.66937,118763
24.67750,120280
24.68562,119740
24.69375,123398
24.70187,128964
24.70998,126406
24.71812,123707
24.72623,119459
24.73437,127041
24.74248,123847
24.75060,130968
24.75873,129990
24.76685,129809
24.77498,134368
24.78310,157661
24.79122,160484
24.79935,172529
24.80747,180058
24.81558,173552
24.82372,166350
24.83183,164436
24.83997,194117
24.84808,212753
24.85620,294816
24.86433,417072
24.87245,615661
24.88058,954633
24.88870,1405261
24.89682,1979174
24.90495,2545597
24.91307,2805338
24.92120,2705513
24.92932,2252703
24.93743,1590886
24.94557,1005458
24.95368,605254
24.96180,357742
24.96993,226248
24.97805,172705
24.98618,142639
24.99430,121539
25.00242,109667
25.01055,104240
25.01867,100963
25.02680,102449
25.03492,103400
25.04303,94501
25.05117,99273
25.05928,94680
25.06740,98628
25.07553,92338
25.08365,101324
25.09178,100281
25.09990,118307
25.10802,166843
25.11615,341264
25.12427,813439
25.13240,1973210
25.14052,4040541
25.14863,6982265
25.15677,1.028451E+07
25.16488,1.206883E+07
25.17302,1.243571E+07
25.18113,1.066E+07
25.18925,7752260
25.19738,4982145
25.20550,2812271
25.21362,1468529
25.22175,772213
25.22987,445453
25.23800,300502
25.24612,251856
25.25423,267815
25.26237,340904
25.27048,436698
25.27862,556465
25.28673,624093
25.29485,651072
25.30298,576544
25.31110,469259
25.31923,353718
25.32735,254132
25.33547,195990
25.34360,160301
25.35172,127041
25.35983,117754
25.36797,105114
25.37608,97181
25.38422,101608
25.39233,93292
25.40045,86531
25.40858,87649
25.41670,83884
25.42483,82411
25.43295,83255
25.44107,81810
25.44920,85569
25.45732,96735
25.46543,122126
25.47357,129007
25.48168,125642
25.48982,110622
25.49793,105099
25.50605,104063
25.51418,100898
25.52230,107889
25.53043,97520
25.53855,92650
25.54667,87713
25.55480,85970
25.56292,83363
25.57105,75697
25.57917,75455
25.58728,80559
25.59542,83253
25.60353,85031
25.61165,82033
25.61978,81540
25.62790,79208
25.63603,77668
25.64415,81798
25.65227,75030
25.66040,72898
25.66852,72411
25.67665,74831
25.68477,72723
25.69288,79637
25.70102,78801
25.70913,79546
25.71725,85419
25.72538,83808
25.73350,83197
25.74163,85993
25.74975,83942
25.75787,80967
25.76600,76647
25.77412,72424
25.78225,67926
25.79037,76635
25.79848,69991
25.80662,72587
25.81473,70801
25.82287,66839
25.83098,75740
25.83910,76941
25.84723,72198
25.85535,77944
25.86347,93946
25.87160,121949
25.87972,176134
25.88785,254970
25.89597,320196
25.90408,363400
25.91222,370155
25.92033,384922
25.92847,377507
25.93658,387154
25.94470,403711
25.95283,399346
25.96095,410440
25.96908,402144
25.97720,402427
25.98532,392753
25.99345,395606
26.00157,386289
26.00968,388363
26.01782,387851
26.02593,391705
26.03407,396372
26.04218,396969
26.05030,384063
26.05843,389019
26.06655,382566
26.07468,407813
26.08280,394387
26.09092,401099
26.09905,400845
26.10717,408578
26.11528,411996
26.12342,415607
26.13153,403838
26.13967,411246
26.14778,401010
26.15590,397591
26.16403,412529
26.17215,404878
26.18028,409507
26.18840,403792
26.19652,414404
26.20465,399288
26.21277,386668
26.22090,380631
26.22902,375694
26.23713,369546
26.24527,368892
26.25338,369259
26.26150,365539
26.26963,347512
26.27775,336244
26.28588,330116
26.29400,345392
26.30212,337376
26.31025,337232
26.31837,333210
26.32650,337820
26.33462,322299
26.34273,324537
26.35087,318275
26.35898,327646
26.36712,336488
26.37523,357416
26.38335,411329
26.39148,490509
26.39960,580301
26.40772,633037
26.41585,668235
26.42397,667902
26.43210,626277
26.44022,560893
26.44833,487414
26.45647,423699
26.46458,376232
26.47272,353609
26.48083,336524
26.48895,328824
26.49708,328612
26.50520,331549
26.51332,315682
26.52145,305491
26.52957,291200
26.53770,288411
26.54582,284033
26.55393,280513
26.56207,279694
26.57018,259741
26.57832,270808
26.58643,261011
26.59455,272859
26.60268,262034
26.61080,261206
26.61893,258319
26.62705,253688
26.63517,253153
26.64330,268801
26.65142,260663
26.65953,253601
26.66767,253740
26.67578,263598
26.68392,256133
26.69203,252986
26.70015,248210
26.70828,249190
26.71640,235962
26.72453,239454
26.73265,243108
26.74077,238559
26.74890,232050
26.75702,234049
26.76513,239244
26.77327,242995
26.78138,232483
26.78952,243606
26.79763,232826
26.80575,230762
26.81388,232672
26.82200,238980
26.83013,239373
26.83825,229537
26.84637,238723
26.85450,233025
26.86262,233073
26.87075,227232
26.87887,236360
26.88698,213808
26.89512,221336
26.90323,214051
26.91135,221633
26.91948,217759
26.92760,214027
26.93573,204574
26.94385,205980
26.95197,208540
26.96010,216241
26.96822,205985
26.97635,222446
26.98447,235635
26.99258,291170
27.00072,395681
27.00883,581537
27.01697,898063
27.02508,1324741
27.03320,1734228
27.04133,1891610
27.04945,1898745
27.05757,1667222
27.06570,1358358
27.07382,1037650
27.08195,809308
27.09007,646438
27.09818,553604
27.10632,473533
27.11443,442042
27.12257,414906
27.13068,395506
27.13880,366852
27.14693,361152
27.15505,343171
27.16317,336510
27.17130,335832
27.17942,337114
27.18755,349331
27.19567,372213
27.20378,376406
27.21192,392021
27.22003,353335
27.22817,332686
27.23628,316801
27.24440,290643
27.25253,269261
27.26065,254800
27.26878,236605
27.27690,231488
27.28502,220616
27.29315,208780
27.30127,199251
27.30938,198037
27.31752,190087
27.32563,191685
27.33377,203084
27.34188,206143
27.35000,197254
27.35813,199371
27.36625,193444
27.37438,202032
27.38250,203168
27.39062,189171
27.39875,205031
27.40687,192579
27.41500,181087
27.42312,179883
27.43123,173345
27.43937,163687
27.44748,172063
27.45560,169956
27.46373,176027
27.47185,172336
27.47998,173199
27.48810,169368
27.49622,168710
27.50435,164564
27.51247,165938
27.52060,158139
27.52872,163024
27.53683,153999
27.54497,156172
27.55308,159166
27.56120,165925
27.56933,166734
27.57745,181223
27.58558,192867
27.59370,214145
27.60182,239638
27.60995,275023
27.61807,296379
27.62620,281798
27.63432,254672
27.64243,233880
27.65057,194493
27.65868,177322
27.66682,170972
27.67493,161385
27.68305,151312
27.69118,153082
27.69930,153184
27.70742,159121
27.71555,148185
27.72367,144641
27.73180,139357
27.73992,144313
27.74803,134596
27.75617,128380
27.76428,129321
27.77242,134430
27.78053,129397
27.78865,141005
27.79678,143236
27.80490,146833
27.81303,147446
27.82115,142686
27.82927,143182
27.83740,131160
27.84552,129090
27.85363,121436
27.86177,119925
27.86988,111724
27.87802,115320
27.88613,112588
27.89425,111147
27.90238,113008
27.91050,115641
27.91863,112497
27.92675,120140
27.93487,112779
27.94300,109975
27.95112,109978
27.95923,102179
27.96737,109512
27.97548,101203
27.98362,102538
27.99173,104916
27.99985,103864
28.00798,110772
28.01610,108473
28.02423,115926
28.03235,121015
28.04047,128577
28.04860,128412
28.05672,144492
28.06485,150598
28.07297,157417
28.08108,153446
28.08922,143605
28.09733,136563
28.10545,122888
28.11358,110861
28.12170,106487
28.12983,101299
28.13795,97457
28.14607,97414
28.15420,95284
28.16232,89984
28.17045,90181
28.17857,94448
28.18668,92027
28.19482,105357
28.20293,117576
28.21105,147353
28.21918,189926
28.22730,230495
28.23543,265783
28.24355,286047
28.25167,274444
28.25980,253795
28.26792,213509
28.27605,169120
28.28417,146393
28.29228,118923
28.30042,108271
28.30853,107612
28.31667,116998
28.32478,131352
28.33290,152241
28.34103,168909
28.34915,181877
28.35727,214350
28.36540,221249
28.37352,245000
28.38165,274608
28.38977,300389
28.39788,321232
28.40602,331923
28.41413,340776
28.42227,306486
28.43038,297144
28.43850,278972
28.44663,248083
28.45475,221232
28.46288,200546
28.47100,181788
28.47912,174013
28.48725,167139
28.49537,150425
28.50348,146833
28.51162,149285
28.51973,151465
28.52787,144355
28.53598,141497
28.54410,139674
28.55223,133887
28.56035,124163
28.56848,120599
28.57660,112926
28.58472,109543
28.59285,110055
28.60097,109368
28.60908,105613
28.61722,107879
28.62533,106167
28.63347,111171
28.64158,120798
28.64970,123227
28.65783,119877
28.66595,126627
28.67408,126495
28.68220,124646
28.69032,125657
28.69845,114280
28.70657,113388
28.71470,104485
28.72282,99639
28.73093,100060
28.73907,98240
28.74718,96505
28.75530,90454
28.76343,94219
28.77155,98502
28.77968,99250
28.78780,110170
28.79592,115534
28.80405,134669
28.81217,138463
28.82030,153309
28.82842,154833
28.83653,157068
28.84467,142455
28.85278,134169
28.86092,119633
28.86903,118283
28.87715,114486
28.88528,121772
28.89340,135543
28.90152,151211
28.90965,175864
28.91777,193642
28.92590,186251
28.93402,173670
28.94213,150902
28.95027,127828
28.95838,113515
28.96652,110846
28.97463,104930
28.98275,95842
28.99088,95393
28.99900,95450
29.00712,93934
29.01525,88874
29.02337,87931
29.03150,92197
29.03962,88262
29.04773,90514
29.05587,89055
29.06398,98072
29.07212,90188
29.08023,93097
29.08835,104070
29.09648,100070
29.10460,111900
29.11273,106138
29.12085,109134
29.12897,102942
29.13710,91899
29.14522,94111
29.15333,85960
29.16147,81692
29.16958,82734
29.17772,84640
29.18583,86111
29.19395,102297
29.20208,129263
29.21020,169569
29.21833,233804
29.22645,291424
29.23457,319206
29.24270,337885
29.25082,295162
29.25893,242856
29.26707,191370
29.27518,167280
29.28332,137832
29.29143,126642
29.29955,109464
29.30768,97235
29.31580,87215
29.32393,87502
29.33205,81256
29.34017,82839
29.34830,80239
29.35642,84143
29.36455,78974
29.37267,77824
29.38078,76841
29.38892,83595
29.39703,78388
29.40515,81089
29.41328,87119
29.42140,84705
29.42953,88350
29.43765,86781
29.44577,92512
29.45390,86831
29.46202,83672
29.47015,84898
29.47827,78553
29.48638,77538
29.49452,78275
29.50263,81841
29.51077,83654
29.51888,94928
29.52700,94157
29.53513,95139
29.54325,95595
29.55137,91562
29.55950,89756
29.56762,90689
29.57575,82268
29.58387,85229
29.59198,83483
29.60012,77943
29.60823,76003
29.61637,77218
29.62448,73142
29.63260,72933
29.64073,75389
29.64885,76556
29.65697,73837
29.66510,76430
29.67322,83286
29.68135,78461
29.68947,94885
29.69758,93739
29.70572,106519
29.71383,109118
29.72197,110845
29.73008,106669
29.73820,102199
29.74633,90383
29.75445,85387
29.76258,77087
29.77070,76547
29.77882,73474
29.78695,71878
29.79507,71174
29.80318,72932
29.81132,69433
29.81943,72643
29.82757,68864
29.83568,70877
29.84380,65919
29.85193,76176
29.86005,71475
29.86818,73729
29.87630,73113
29.88442,84506
29.89255,112703
29.90067,149764
29.90880,194879
29.91692,220284
29.92503,224879
29.93317,213783
29.94128,168677
29.94940,134754
29.95753,106737
29.96565,90631
29.97378,86260
29.98190,86598
29.99002,92071
29.99815,94200
30.00627,107943
30.01440,123615
30.02252,130346
30.03063,150148
30.03877,160876
30.04688,173090
30.05500,178702
30.06313,172498
30.07125,171882
30.07938,171027
30.08750,164559
30.09562,166396
30.10375,151271
30.11187,153811
30.12000,147699
30.12812,147136
30.13623,138510
30.14437,125494
30.15248,125188
30.16062,118684
30.16873,119807
30.17685,110675
30.18498,110664
30.19310,110790
30.20122,103800
30.20935,103826
30.21747,107014
30.22560,105399
30.23372,107060
30.24183,103755
30.24997,96459
30.25808,90784
30.26622,88493
30.27433,83106
30.28245,82485
30.29058,82065
30.29870,85927
30.30682,84243
30.31495,87314
30.32307,79137
30.33120,80192
30.33932,77252
30.34743,79960
30.35557,80189
30.36368,82649
30.37182,84139
30.37993,83098
30.38805,82256
30.39618,78952
30.40430,81853
30.41243,83224
30.42055,70162
30.42867,72984
30.43680,70179
30.44492,72803
30.45303,76908
30.46117,69568
30.46928,73956
30.47742,75045
30.48553,75084
30.49365,75554
30.50178,71047
30.50990,73695
30.51803,74504
30.52615,76471
30.53427,77832
30.54240,72959
30.55052,73075
30.55865,75069
30.56677,70992
30.57488,74100
30.58302,71388
30.59113,74863
30.59925,77195
30.60738,79469
30.61550,74985
30.62363,75982
30.63175,75179
30.63987,83192
30.64800,74513
30.65612,69098
30.66425,68595
30.67237,71540
30.68048,65510
30.68862,69847
30.69673,73977
30.70487,68062
30.71298,67268
30.72110,69850
30.72923,65833
30.73735,66513
30.74547,72254
30.75360,78343
30.76172,65619
30.76985,68364
30.77797,71285
30.78608,82544
30.79422,100304
30.80233,139786
30.81047,204599
30.81858,281151
30.82670,335697
30.83483,356557
30.84295,334576
30.85107,256515
30.85920,197157
30.86732,141308
30.87545,108742
30.88357,96733
30.89168,88087
30.89982,81970
30.90793,84506
30.91607,79604
30.92418,79234
30.93230,77507
30.94043,76287
30.94855,79100
30.95668,74204
30.96480,76979
30.97292,78437
30.98105,80840
30.98917,86408
30.99728,84087
31.00542,71361
31.01353,72344
31.02167,71029
31.02978,71311
31.03790,76192
31.04603,73801
31.05415,69249
31.06228,72830
31.07040,70238
31.07852,71186
31.08665,77799
31.09477,79953
31.10288,95934
31.11102,103680
31.11913,112085
31.12727,136818
31.13538,127290
31.14350,126494
31.15163,115127
31.15975,111701
31.16788,112332
31.17600,112844
31.18412,123364
31.19225,124289
31.20037,138225
31.20850,162884
31.21662,214384
31.22473,273507
31.23287,337632
31.24098,368481
31.24910,378815
31.25723,326755
31.26535,253814
31.27348,196146
31.28160,149362
31.28972,109213
31.29785,99562
31.30597,89660
31.31410,84443
31.32222,86627
31.33033,92254
31.33847,101194
31.34658,104084
31.35472,109281
31.36283,112167
31.37095,109414
31.37908,99347
31.38720,89182
31.39532,88005
31.40345,77194
31.41157,74476
31.41970,70771
31.42782,73292
31.43593,71448
31.44407,73820
31.45218,73140
31.46032,76225
31.46843,74013
31.47655,72545
31.48468,76450
31.49280,77479
31.50092,75546
31.50905,69976
31.51717,77415
31.52530,78525
31.53342,79825
31.54153,84384
31.54967,80805
31.55778,77346
31.56592,80410
31.57403,77140
31.58215,80096
31.59028,82891
31.59840,75164
31.60653,72577
31.61465,72716
31.62277,71518
31.63090,68670
31.63902,70876
31.64713,69070
31.65527,78451
31.66338,87728
31.67152,92059
31.67963,108014
31.68775,114139
31.69588,115344
31.70400,118850
31.71213,110994
31.72025,105226
31.72837,87690
31.73650,83405
31.74462,74449
31.75275,78074
31.76087,70498
31.76898,67564
31.77712,70724
31.78523,62797
31.79335,72223
31.80148,69600
31.80960,72445
31.81773,75998
31.82585,69359
31.83397,74620
31.84210,70536
31.85022,73439
31.85835,78970
31.86647,77326
31.87458,84547
31.88272,89814
31.89083,90098
31.89895,84785
31.90708,78075
31.91520,77372
31.92333,72284
31.93145,73842
31.93957,77244
31.94770,79800
31.95582,85141
31.96395,93569
31.97207,109332
31.98018,116894
31.98832,117874
31.99643,137453
32.00457,139956
32.01268,142635
32.02080,154032
32.02893,144177
32.03705,147458
32.04517,136930
32.05330,124724
32.06142,115818
32.06955,114273
32.07767,100958
32.08578,107453
32.09392,96740
32.10203,98364
32.11017,92793
32.11828,94569
32.12640,95038
32.13453,87622
32.14265,88795
32.15077,84532
32.15890,80918
32.16702,80284
32.17515,75057
32.18327,79188
32.19138,78541
32.19952,74502
32.20763,77512
32.21577,75822
32.22388,74488
32.23200,69202
32.24013,72200
32.24825,69626
32.25638,72048
32.26450,67517
32.27262,71413
32.28075,72176
32.28887,75151
32.29698,73601
32.30512,70472
32.31323,72579
32.32137,76074
32.32948,72366
32.33760,66423
32.34573,67985
32.35385,69445
32.36198,67967
32.37010,68876
32.37822,74070
32.38635,78479
32.39447,74572
32.40260,74664
32.41072,69068
32.41883,73407
32.42697,68338
32.43508,71148
32.44320,66840
32.45133,66987
32.45945,75030
32.46758,67099
32.47570,62615
32.48382,66401
32.49195,70496
32.50007,68641
32.50820,66401
32.51632,70159
32.52443,70059
32.53257,72247
32.54068,72437
32.54880,76135
32.55693,68152
32.56505,70901
32.57318,65297
32.58130,69428
32.58942,68818
32.59755,67639
32.60567,70892
32.61380,70825
32.62192,62159
32.63003,67081
32.63817,66205
32.64628,61194
32.65442,65495
32.66253,66407
32.67065,68903
32.67878,68720
32.68690,76739
32.69502,76650
32.70315,82407
32.71127,85475
32.71940,85781
32.72752,92960
32.73563,80916
32.74377,75958
32.75188,82542
32.76002,77414
32.76813,71407
32.77625,73065
32.78438,66854
32.79250,72181
32.80063,67996
32.80875,67166
32.81687,74129
32.82500,61376
32.83312,71290
32.84123,66223
32.84937,64361
32.85748,69534
32.86562,70971
32.87373,70621
32.88185,71226
32.88998,73017
32.89810,71082
32.90623,85678
32.91435,87721
32.92247,99510
32.93060,98660
32.93872,89675
32.94683,84636
32.95497,82424
32.96308,74913
32.97122,69018
32.97933,77983
32.98745,86988
32.99558,106077
33.00370,123797
33.01183,161627
33.01995,200101
33.02807,202678
33.03620,188416
33.04432,167178
33.05245,148139
33.06057,123526
33.06868,134190
33.07682,133341
33.08493,150923
33.09305,149699
33.10118,147777
33.10930,153738
33.11743,158720
33.12555,156310
33.13367,158170
33.14180,156588
33.14992,145832
33.15805,137197
33.16617,131436
33.17428,117508
33.18242,103998
33.19053,107020
33.19867,91963
33.20678,89243
33.21490,86103
33.22303,86051
33.23115,84282
33.23927,86203
33.24740,84122
33.25552,82540
33.26365,79967
33.27177,78011
33.27988,80325
33.28802,75248
33.29613,69368
33.30427,72241
33.31238,77983
33.32050,77500
33.32863,73969
33.33675,73882
33.34487,77916
33.35300,74040
33.36112,85056
33.36925,89871
33.37737,92398
33.38548,95167
33.39362,94562
33.40173,88632
33.40987,87852
33.41798,83134
33.42610,72911
33.43423,73192
33.44235,73120
33.45048,69138
33.45860,67240
33.46672,63846
33.47485,68448
33.48297,66389
33.49108,71199
33.49922,66730
33.50733,76507
33.51547,72145
33.52358,80559
33.53170,83622
33.53983,82577
33.54795,85310
33.55608,104019
33.56420,107042
33.57232,134511
33.58045,134002
33.58857,134463
33.59668,112666
33.60482,94872
33.61293,82774
33.62107,71831
33.62918,74783
33.63730,73888
33.64543,74007
33.65355,72694
33.66168,79120
33.66980,87670
33.67792,86920
33.68605,88772
33.69417,87948
33.70230,79701
33.71042,78156
33.71853,77641
33.72667,74816
33.73478,66189
33.74290,70050
33.75103,66330
33.75915,66980
33.76728,72829
33.77540,66875
33.78352,66566
33.79165,67224
33.79977,66492
33.80790,70453
33.81602,68811
33.82413,64662
33.83227,69014
33.84038,65959
33.84852,65666
33.85663,68989
33.86475,68873
33.87288,69138
33.88100,73805
33.88912,76579
33.89725,71769
33.90537,72361
33.91350,71296
33.92162,72366
33.92973,73919
33.93787,66933
33.94598,65917
33.95412,66136
33.96223,68615
33.97035,67136
33.97848,68864
33.98660,66843
33.99472,65084
34.00285,64791
34.01097,66695
34.01910,60361
34.02722,62731
34.03533,66732
34.04347,64845
34.05158,61288
34.05972,67753
34.06783,70622
34.07595,64752
34.08408,66853
34.09220,64708
34.10033,66303
34.10845,64919
34.11657,68037
34.12470,66731
34.13282,67202
34.14093,70688
34.14907,69576
34.15718,66296
34.16532,65491
34.17343,72680
34.18155,65996
34.18968,64609
34.19780,68145
34.20593,68449
34.21405,66568
34.22217,66438
34.23030,64376
34.23842,68800
34.24655,62810
34.25467,65872
34.26278,65479
34.27092,70752
34.27903,63915
34.28715,62151
34.29528,62817
34.30340,64464
34.31153,62176
34.31965,62750
34.32777,61965
34.33590,62654
34.34402,62953
34.35215,65652
34.36027,74445
34.36838,64786
34.37652,71564
34.38463,69627
34.39275,63809
34.40088,65710
34.40900,64609
34.41713,68245
34.42525,66302
34.43337,66744
34.44150,64230
34.44962,65465
34.45775,66216
34.46587,62144
34.47398,59571
34.48212,67570
34.49023,60833
34.49837,63654
34.50648,66701
34.51460,61689
34.52273,62207
34.53085,66081
34.53897,69697
34.54710,74750
34.55522,78892
34.56335,89085
34.57147,95167
34.57958,105164
34.58772,112437
34.59583,112990
34.60397,112767
34.61208,104656
34.62020,102757
34.62833,98007
34.63645,94455
34.64457,90735
34.65270,83621
34.66082,83991
34.66895,81677
34.67707,79386
34.68518,76243
34.69332,77512
34.70143,72895
34.70957,77846
34.71768,73891
34.72580,75033
34.73393,72979
34.74205,71284
34.75018,74982
34.75830,72269
34.76642,72852
34.77455,76944
34.78267,74130
34.79078,77717
34.79892,78481
34.80703,79395
34.81517,75204
34.82328,75107
34.83140,73161
34.83953,69425
34.84765,69545
34.85578,72342
34.86390,73008
34.87202,71486
34.88015,70068
34.88827,72313
34.89640,69901
34.90452,76068
34.91263,68418
34.92077,67574
34.92888,67887
34.93700,70955
34.94513,71794
34.95325,74933
34.96138,73135
34.96950,80494
34.97762,81682
34.98575,88686
34.99387,101150
35.00200,95461
35.01012,91010
35.01823,80386
35.02637,79523
35.03448,77157
35.04260,74510
35.05073,72379
35.05885,70442
35.06698,71697
35.07510,72940
35.08322,74895
35.09135,75976
35.09947,70572
35.10760,71875
35.11572,73092
35.12383,73530
35.13197,67206
35.14008,70344
35.14822,71436
35.15633,75620
35.16445,81819
35.17258,81172
35.18070,81193
35.18882,76497
35.19695,79762
35.20507,79225
35.21320,75792
35.22132,73780
35.22943,72729
35.23757,71968
35.24568,65999
35.25382,79536
35.26193,65291
35.27005,74360
35.27818,75935
35.28630,75289
35.29443,74124
35.30255,73415
35.31067,74429
35.31880,78130
35.32692,70481
35.33503,72458
35.34317,70779
35.35128,74864
35.35942,71234
35.36753,66432
35.37565,71854
35.38378,69376
35.39190,66723
35.40003,67916
35.40815,66746
35.41627,71014
35.42440,68542
35.43252,73489
35.44063,78834
35.44877,73156
35.45688,76255
35.46502,81230
35.47313,74049
35.48125,80952
35.48938,78732
35.49750,78240
35.50563,83008
35.51375,77230
35.52187,83319
35.53000,76550
35.53812,82407
35.54625,76564
35.55437,67677
35.56248,66347
35.57062,70790
35.57873,72986
35.58685,67654
35.59498,69961
35.60310,72121
35.61123,70386
35.61935,72865
35.62747,69639
35.63560,71797
35.64372,70905
35.65185,67524
35.65997,67754
35.66808,68779
35.67622,69557
35.68433,70041
35.69245,63008
35.70058,73268
35.70870,78085
35.71683,77011
35.72495,73956
35.73307,85236
35.74120,77317
35.74932,79512
35.75745,89405
35.76557,93427
35.77368,99295
35.78182,115944
35.78993,115049
35.79807,114972
35.80618,107138
35.81430,100393
35.82243,92053
35.83055,81235
35.83867,74460
35.84680,79341
35.85492,76314
35.86305,69721
35.87117,73384
35.87928,70352
35.88742,72457
35.89553,74979
35.90367,75869
35.91178,80526
35.91990,81350
35.92803,72116
35.93615,70252
35.94428,75598
35.95240,73942
35.96052,70968
35.96865,69123
35.97677,70256
35.98488,69322
35.99302,75707
36.00113,73218
36.00927,72816
36.01738,72908
36.02550,78557
36.03363,76386
36.04175,78334
36.04988,81608
36.05800,74760
36.06612,73306
36.07425,75548
36.08237,77454
36.09050,72963
36.09862,72311
36.10673,74190
36.11487,67558
36.12298,72697
36.13110,71628
36.13923,72778
36.14735,73885
36.15548,85950
36.16360,85078
36.17172,85086
36.17985,87164
36.18797,83760
36.19610,82621
36.20422,80896
36.21233,75164
36.22047,75670
36.22858,72086
36.23670,72925
36.24483,72529
36.25295,70549
36.26108,68987
36.26920,72169
36.27732,69746
36.28545,74755
36.29357,74327
36.30170,72438
36.30982,77484
36.31793,74199
36.32607,72915
36.33418,80504
36.34232,83697
36.35043,86322
36.35855,91335
36.36668,89647
36.37480,85233
36.38292,81739
36.39105,80641
36.39917,83362
36.40730,81700
36.41542,81478
36.42353,88003
36.43167,89476
36.43978,80336
36.44792,84620
36.45603,81346
36.46415,85089
36.47228,76292
36.48040,77181
36.48852,77885
36.49665,79656
36.50477,70566
36.51290,76315
36.52102,72755
36.52913,71149
36.53727,77712
36.54538,70269
36.55352,73887
36.56163,73105
36.56975,77534
36.57788,69015
36.58600,78138
36.59413,73431
36.60225,74674
36.61037,75229
36.61850,77317
36.62662,69903
36.63473,78366
36.64287,78190
36.65098,69560
36.65912,74325
36.66723,70233
36.67535,81817
36.68348,76169
36.69160,72711
36.69973,74649
36.70785,80768
36.71597,80055
36.72410,80298
36.73222,73411
36.74035,78087
36.74847,80234
36.75658,79692
36.76472,80164
36.77283,80518
36.78095,80030
36.78908,77553
36.79720,76815
36.80533,75570
36.81345,80408
36.82157,77593
36.82970,78501
36.83782,72440
36.84595,73850
36.85407,70778
36.86218,76291
36.87032,73671
36.87843,74114
36.88655,79287
36.89468,72494
36.90280,72572
36.91093,71127
36.91905,72568
36.92717,70963
36.93530,74259
36.94342,80086
36.95155,87528
36.95967,98028
36.96778,122477
36.97592,149155
36.98403,171587
36.99217,186595
37.00028,181637
37.00840,165804
37.01653,142001
37.02465,117670
37.03277,94714
37.04090,92779
37.04902,87466
37.05715,78801
37.06527,86709
37.07338,81019
37.08152,83028
37.08963,87622
37.09777,84323
37.10588,92406
37.11400,83752
37.12213,87995
37.13025,88118
37.13838,92565
37.14650,87058
37.15462,88253
37.16275,82442
37.17087,81798
37.17898,82997
37.18712,76922
37.19523,77839
37.20337,77379
37.21148,80760
37.21960,79440
37.22773,76679
37.23585,77392
37.24398,74289
37.25210,77310
37.26022,77887
37.26835,77622
37.27647,83592
37.28458,79602
37.29272,74512
37.30083,80933
37.30897,77064
37.31708,77710
37.32520,71114
37.33333,76809
37.34145,82137
37.34958,79648
37.35770,84737
37.36582,83552
37.37395,87535
37.38207,93672
37.39020,94078
37.39832,93053
37.40643,93838
37.41457,101149
37.42268,102050
37.43080,96165
37.43893,92201
37.44705,96755
37.45518,95243
37.46330,95187
37.47142,94776
37.47955,89642
37.48767,93299
