Z:\data\JTB-E02\BACandBLUE\JTB-E02-206-15.D Wed Mar 13 16:00:16 2019
Start of data points
2.09520,52648
2.10333,59053
2.11145,54020
2.11957,56654
2.12770,57066
2.13582,56231
2.14395,52033
2.15207,51765
2.16018,56402
2.16832,50967
2.17643,47674
2.18455,45412
2.19268,47443
2.20080,48514
2.20893,46993
2.21705,42790
2.22517,44401
2.23330,49812
2.24142,43175
2.24955,43507
2.25767,52178
2.26578,291008
2.27392,1009495
2.28203,1326980
2.29017,1013932
2.29828,571450
2.30640,436507
2.31453,347976
2.32265,296675
2.33077,276912
2.33890,258019
2.34702,233811
2.35515,217615
2.36327,192220
2.37138,179159
2.37952,176270
2.38763,168296
2.39577,158465
2.40388,155320
2.41200,168844
2.42013,188810
2.42825,173144
2.43637,158277
2.44450,142643
2.45262,151657
2.46075,141330
2.46887,136449
2.47698,129617
2.48512,119904
2.49323,142166
2.50137,143428
2.50948,130116
2.51760,123451
2.52573,123705
2.53385,117876
2.54198,134426
2.55010,307416
2.55822,751840
2.56635,1034007
2.57447,730342
2.58258,443675
2.59072,359893
2.59883,397159
2.60697,832714
2.61508,1476498
2.62320,1427137
2.63133,911614
2.63945,629815
2.64758,483662
2.65570,393330
2.66382,324559
2.67195,281244
2.68007,256463
2.68820,235170
2.69632,212253
2.70443,199457
2.71257,191595
2.72068,182795
2.72880,183093
2.73693,176486
2.74505,165331
2.75318,155011
2.76130,152670
2.76942,147752
2.77755,143397
2.78567,151390
2.79380,149962
2.80192,156773
2.81003,151542
2.81817,154189
2.82628,172616
2.83440,201559
2.84253,204744
2.85065,176422
2.85878,149878
2.86690,142202
2.87502,133369
2.88315,133739
2.89127,127199
2.89940,136232
2.90752,129999
2.91563,118924
2.92377,123627
2.93188,116762
2.94002,117153
2.94813,117166
2.95625,116574
2.96438,120488
2.97250,125836
2.98062,122815
2.98875,122642
2.99687,116880
3.00500,131049
3.01312,130335
3.02123,125914
3.02937,123395
3.03748,118372
3.04562,109140
3.05373,116474
3.06185,123986
3.06998,128251
3.07810,175854
3.08623,438337
3.09435,1049375
3.10247,2244991
3.11060,3747943
3.11872,4236804
3.12683,3150717
3.13497,2173808
3.14308,1693686
3.15122,1360850
3.15933,1128061
3.16745,949392
3.17558,828339
3.18370,717155
3.19183,634939
3.19995,557204
3.20807,514619
3.21620,482199
3.22432,442403
3.23243,404372
3.24057,372344
3.24868,344740
3.25682,320094
3.26493,304298
3.27305,283155
3.28118,289674
3.28930,477494
3.29743,1193783
3.30555,2879968
3.31367,4620647
3.32180,4828299
3.32992,3776588
3.33805,2677147
3.34617,1964957
3.35428,1570004
3.36242,1287890
3.37053,1105053
3.37865,962666
3.38678,861120
3.39490,773243
3.40303,722395
3.41115,667788
3.41927,618200
3.42740,570010
3.43552,533005
3.44365,496508
3.45177,482433
3.45988,461942
3.46802,467030
3.47613,460437
3.48427,461903
3.49238,439377
3.50050,425418
3.50863,391102
3.51675,369082
3.52487,353979
3.53300,338328
3.54112,330738
3.54925,313184
3.55737,309631
3.56548,295605
3.57362,294727
3.58173,298441
3.58987,303892
3.59798,273116
3.60610,270817
3.61423,263538
3.62235,272788
3.63047,308047
3.63860,349555
3.64672,351614
3.65485,311481
3.66297,278428
3.67108,258594
3.67922,258264
3.68733,256602
3.69547,259776
3.70358,236209
3.71170,231340
3.71983,227776
3.72795,225628
3.73608,222350
3.74420,214080
3.75232,218346
3.76045,213358
3.76857,210931
3.77668,211529
3.78482,212467
3.79293,244784
3.80107,477834
3.80918,1321725
3.81730,2628686
3.82543,3151216
3.83355,2525448
3.84168,1751617
3.84980,1308666
3.85792,1074915
3.86605,925072
3.87417,797134
3.88228,714360
3.89042,654587
3.89853,596511
3.90667,557000
3.91478,531774
3.92290,482770
3.93103,461452
3.93915,462151
3.94728,532311
3.95540,881086
3.96352,1603774
3.97165,2103058
3.97977,1924913
3.98790,1368876
3.99602,1096049
4.00413,1469935
4.01227,2409814
4.02038,3032273
4.02850,2675007
4.03663,1787847
4.04475,1188982
4.05288,868690
4.06100,720375
4.06912,599615
4.07725,543065
4.08537,490071
4.09350,451159
4.10162,424110
4.10973,388138
4.11787,371669
4.12598,355332
4.13412,341533
4.14223,346503
4.15035,364516
4.15848,356486
4.16660,365507
4.17472,379929
4.18285,395530
4.19097,364160
4.19910,334120
4.20722,383516
4.21533,864366
4.22347,2382818
4.23158,4696281
4.23972,6392322
4.24783,6134776
4.25595,4488362
4.26408,3131738
4.27220,2295937
4.28032,1750844
4.28845,1385606
4.29657,1124949
4.30470,933626
4.31282,803218
4.32093,713409
4.32907,622938
4.33718,574287
4.34532,513961
4.35343,477974
4.36155,447232
4.36968,412963
4.37780,399215
4.38593,370429
4.39405,340865
4.40217,338614
4.41030,321519
4.41842,311279
4.42653,287108
4.43467,291242
4.44278,282340
4.45092,274326
4.45903,253384
4.46715,251204
4.47528,248849
4.48340,238858
4.49153,243877
4.49965,235185
4.50777,235800
4.51590,226133
4.52402,219253
4.53215,214038
4.54027,219019
4.54838,204440
4.55652,203479
4.56463,206154
4.57275,195148
4.58088,196168
4.58900,200262
4.59713,197927
4.60525,195160
4.61337,189230
4.62150,188516
4.62962,185842
4.63775,179253
4.64587,177390
4.65398,181202
4.66212,174696
4.67023,177247
4.67835,178135
4.68648,173914
4.69460,170589
4.70273,172221
4.71085,169075
4.71897,167284
4.72710,172756
4.73522,166347
4.74335,160784
4.75147,158818
4.75958,152708
4.76772,162830
4.77583,160959
4.78397,158950
4.79208,156327
4.80020,162458
4.80833,169367
4.81645,177038
4.82457,175148
4.83270,184081
4.84082,202247
4.84895,212956
4.85707,205975
4.86518,178813
4.87332,169828
4.88143,168800
4.88957,151514
4.89768,156430
4.90580,155030
4.91393,149460
4.92205,154267
4.93017,155169
4.93830,176894
4.94642,264375
4.95455,494463
4.96267,868536
4.97078,1186033
4.97892,1320331
4.98703,1202991
4.99517,958278
5.00328,792779
5.01140,656968
5.01953,576521
5.02765,501972
5.03578,448489
5.04390,421636
5.05202,390026
5.06015,361629
5.06827,353290
5.07638,332829
5.08452,319640
5.09263,309829
5.10077,295781
5.10888,287282
5.11700,283248
5.12513,271125
5.13325,277130
5.14138,265084
5.14950,260525
5.15762,250772
5.16575,250579
5.17387,253487
5.18200,236572
5.19012,247232
5.19823,236278
5.20637,246483
5.21448,239206
5.22260,237088
5.23073,238801
5.23885,238497
5.24698,249446
5.25510,245225
5.26322,229184
5.27135,218684
5.27947,202725
5.28760,195861
5.29572,184155
5.30383,184478
5.31197,194917
5.32008,194750
5.32820,209110
5.33633,245052
5.34445,273694
5.35258,296377
5.36070,252408
5.36882,227262
5.37695,214744
5.38507,184094
5.39320,198225
5.40132,192141
5.40943,188943
5.41757,183515
5.42568,182600
5.43382,182473
5.44193,173870
5.45005,179299
5.45818,183168
5.46630,174657
5.47442,174734
5.48255,167199
5.49067,156775
5.49880,163138
5.50692,171196
5.51503,178814
5.52317,182668
5.53128,184815
5.53942,178228
5.54753,175412
5.55565,159823
5.56378,159788
5.57190,163475
5.58003,191940
5.58815,230240
5.59627,261466
5.60440,263519
5.61252,234329
5.62063,207176
5.62877,201759
5.63688,191162
5.64502,181269
5.65313,173475
5.66125,176628
5.66938,166928
5.67750,182213
5.68563,190991
5.69375,226496
5.70187,241574
5.71000,244482
5.71812,216674
5.72623,195069
5.73437,179434
5.74248,167556
5.75062,160356
5.75873,157624
5.76685,154736
5.77498,150691
5.78310,144744
5.79123,152477
5.79935,143999
5.80747,139477
5.81560,141641
5.82372,142065
5.83185,145221
5.83997,145664
5.84808,140926
5.85622,144339
5.86433,147454
5.87245,139429
5.88058,134908
5.88870,128303
5.89683,132397
5.90495,133339
5.91307,119151
5.92120,109765
5.92932,110509
5.93745,110744
5.94557,112278
5.95368,124287
5.96182,159658
5.96993,240955
5.97807,341502
5.98618,447773
5.99430,480803
6.00243,419557
6.01055,320351
6.01867,252005
6.02680,215006
6.03492,189364
6.04305,165176
6.05117,162571
6.05928,144335
6.06742,148796
6.07553,130411
6.08367,133878
6.09178,135271
6.09990,126132
6.10803,125530
6.11615,133074
6.12427,131512
6.13240,129905
6.14052,129218
6.14865,135451
6.15677,135636
6.16488,138245
6.17302,143237
6.18113,138128
6.18927,133884
6.19738,129110
6.20550,137851
6.21363,146501
6.22175,142190
6.22988,148633
6.23800,147820
6.24612,152876
6.25425,146870
6.26237,142031
6.27048,147149
6.27862,150435
6.28673,151906
6.29487,160521
6.30298,158871
6.31110,154863
6.31923,157042
6.32735,154562
6.33548,156125
6.34360,159385
6.35172,158471
6.35985,158552
6.36797,168919
6.37608,164306
6.38422,166517
6.39233,167128
6.40047,164659
6.40858,167145
6.41670,169809
6.42483,171664
6.43295,172796
6.44108,170704
6.44920,182011
6.45732,183613
6.46545,179518
6.47357,182251
6.48170,184828
6.48982,182016
6.49793,189193
6.50607,190686
6.51418,192733
6.52230,185557
6.53043,189380
6.53855,190387
6.54668,186753
6.55480,197760
6.56292,199349
6.57105,203327
6.57917,195178
6.58730,210709
6.59542,204111
6.60353,201533
6.61167,201940
6.61978,193149
6.62792,201003
6.63603,226974
6.64415,381407
6.65228,1178633
6.66040,3706943
6.66852,7982727
6.67665,1.143327E+07
6.68477,1.151914E+07
6.69290,8703154
6.70102,5525637
6.70913,3479964
6.71727,2448433
6.72538,1930556
6.73352,1738035
6.74163,1458594
6.74975,1271470
6.75788,1109005
6.76600,1010494
6.77412,918669
6.78225,829194
6.79037,774017
6.79850,714349
6.80662,656053
6.81473,607661
6.82287,580182
6.83098,534188
6.83912,526833
6.84723,503228
6.85535,483588
6.86348,444985
6.87160,414527
6.87973,379524
6.88785,360140
6.89597,325745
6.90410,315189
6.91222,289793
6.92033,285107
6.92847,266417
6.93658,247692
6.94472,239092
6.95283,223644
6.96095,213459
6.96908,221000
6.97720,228697
6.98533,247189
6.99345,238673
7.00157,236371
7.00970,257677
7.01782,293115
7.02595,318028
7.03407,324154
7.04218,312793
7.05032,303122
7.05843,290161
7.06655,281052
7.07468,272956
7.08280,276295
7.09093,275879
7.09905,261362
7.10717,256083
7.11530,249241
7.12342,241403
7.13155,241462
7.13967,235819
7.14778,222170
7.15592,215703
7.16403,219174
7.17215,212941
7.18028,219647
7.18840,206675
7.19653,203937
7.20465,202396
7.21277,234927
7.22090,320852
7.22902,447358
7.23715,581268
7.24527,614465
7.25338,500215
7.26152,382030
7.26963,292801
7.27777,243141
7.28588,200353
7.29400,177848
7.30213,171840
7.31025,158470
7.31837,148383
7.32650,160117
7.33462,159703
7.34275,156694
7.35087,157502
7.35898,154259
7.36712,144624
7.37523,154644
7.38337,136149
7.39148,145655
7.39960,148201
7.40773,138794
7.41585,131315
7.42397,138557
7.43210,135883
7.44022,134700
7.44835,138376
7.45647,132246
7.46458,130962
7.47272,128948
7.48083,118215
7.48897,125775
7.49708,123099
7.50520,117942
7.51333,112359
7.52145,120400
7.52958,114227
7.53770,114085
7.54582,117645
7.55395,109447
7.56207,109758
7.57018,104531
7.57832,104512
7.58643,105539
7.59457,105741
7.60268,105603
7.61080,97894
7.61893,102617
7.62705,104680
7.63518,104227
7.64330,101307
7.65142,98671
7.65955,99520
7.66767,96424
7.67580,98667
7.68392,94951
7.69203,102222
7.70017,96939
7.70828,95416
7.71640,93759
7.72453,95399
7.73265,94204
7.74078,87785
7.74890,91201
7.75702,95910
7.76515,90957
7.77327,92717
7.78140,91336
7.78952,96518
7.79763,94443
7.80577,94669
7.81388,100551
7.82200,95173
7.83013,89614
7.83825,91391
7.84638,85141
7.85450,79008
7.86262,81954
7.87075,86008
7.87887,89250
7.88700,96595
7.89512,96992
7.90323,101173
7.91137,96695
7.91948,104267
7.92762,138726
7.93573,226502
7.94385,334278
7.95198,440433
7.96010,467465
7.96822,395023
7.97635,277987
7.98447,193034
7.99260,143581
8.00072,121595
8.00883,106836
8.01697,104788
8.02508,97146
8.03322,92885
8.04133,84743
8.04945,82777
8.05758,84686
8.06570,81722
8.07383,80450
8.08195,83507
8.09007,79684
8.09820,83423
8.10632,77503
8.11443,79001
8.12257,81407
8.13068,81945
8.13882,84443
8.14693,86054
8.15505,91425
8.16318,89011
8.17130,85593
8.17943,84767
8.18755,85236
8.19567,78476
8.20380,74199
8.21192,78237
8.22003,78164
8.22817,79604
8.23628,80244
8.24442,77515
8.25253,76918
8.26065,71090
8.26878,70459
8.27690,67273
8.28503,70228
8.29315,67322
8.30127,66201
8.30940,68704
8.31752,70371
8.32565,75562
8.33377,78332
8.34188,75220
8.35002,71461
8.35813,71398
8.36625,70093
8.37438,77194
8.38250,87475
8.39063,82983
8.39875,81446
8.40687,76221
8.41500,67671
8.42312,55238
8.43125,59229
8.43937,56756
8.44748,60062
8.45562,65834
8.46373,69789
8.47185,68391
8.47998,74439
8.48810,72106
8.49623,69312
8.50435,69478
8.51247,83518
8.52060,167464
8.52872,480520
8.53685,1311290
8.54497,2626621
8.55308,4035025
8.56122,4522860
8.56933,3872287
8.57747,2531588
8.58558,1300360
8.59370,660901
8.60183,396776
8.60995,314302
8.61807,287816
8.62620,256545
8.63432,230051
8.64245,219322
8.65057,207458
8.65868,180723
8.66682,179008
8.67493,168495
8.68307,162726
8.69118,163131
8.69930,155348
8.70743,146487
8.71555,138926
8.72368,127081
8.73180,122534
8.73992,118350
8.74805,119522
8.75617,132195
8.76428,162200
8.77242,281121
8.78053,499708
8.78867,840323
8.79678,1164597
8.80490,1225376
8.81303,1050179
8.82115,750126
8.82928,498930
8.83740,344048
8.84552,283410
8.85365,254041
8.86177,244723
8.86990,222029
8.87802,203636
8.88613,197463
8.89427,188955
8.90238,176908
8.91050,163783
8.91863,163035
8.92675,158177
8.93488,149816
8.94300,145528
8.95112,139586
8.95925,137926
8.96737,129245
8.97550,137654
8.98362,133444
8.99173,127046
8.99987,121240
9.00798,127800
9.01610,128205
9.02423,124846
9.03235,116560
9.04048,114007
9.04860,112603
9.05672,105907
9.06485,105649
9.07297,105754
9.08110,105862
9.08922,101891
9.09733,103528
9.10547,103649
9.11358,103401
9.12172,99558
9.12983,105137
9.13795,96101
9.14608,100391
9.15420,103825
9.16232,99270
9.17045,96873
9.17857,98924
9.18670,97169
9.19482,100013
9.20293,88243
9.21107,92900
9.21918,98600
9.22732,91419
9.23543,95734
9.24355,88640
9.25168,91901
9.25980,91412
9.26792,92864
9.27605,92748
9.28417,96163
9.29230,97861
9.30042,90401
9.30853,89658
9.31667,88592
9.32478,85294
9.33292,79080
9.34103,80836
9.34915,79910
9.35728,80921
9.36540,83061
9.37353,78805
9.38165,73982
9.38977,79551
9.39790,77437
9.40602,71689
9.41413,74189
9.42227,77429
9.43038,76373
9.43852,78070
9.44663,77479
9.45475,79855
9.46288,78598
9.47100,73961
9.47913,73278
9.48725,70886
9.49537,69217
9.50350,74313
9.51162,89878
9.51975,97242
9.52787,108839
9.53598,113090
9.54412,114750
9.55223,114609
9.56035,112843
9.56848,104852
9.57660,96850
9.58473,84203
9.59285,72940
9.60097,69937
9.60910,66617
9.61722,61929
9.62535,58565
9.63347,61735
9.64158,55448
9.64972,55284
9.65783,48959
9.66595,50824
9.67408,53923
9.68220,50912
9.69033,50562
9.69845,49714
9.70657,48287
9.71470,43933
9.72282,46668
9.73095,43467
9.73907,46075
9.74718,43977
9.75532,49097
9.76343,49337
9.77157,47774
9.77968,47700
9.78780,49151
9.79593,44714
9.80405,46670
9.81217,49599
9.82030,45939
9.82842,50605
9.83655,42523
9.84467,50372
9.85278,48327
9.86092,47271
9.86903,48849
9.87717,52161
9.88528,44083
9.89340,50665
9.90153,44128
9.90965,43150
9.91778,44276
9.92590,41150
9.93402,46159
9.94215,48817
9.95027,56823
9.95838,53646
9.96652,58243
9.97463,57011
9.98277,55669
9.99088,56467
9.99900,52817
10.00713,50856
10.01525,58242
10.02338,54120
10.03150,55585
10.03962,60447
10.04775,53030
10.05587,54130
10.06398,48487
10.07212,45272
10.08023,48913
10.08837,47611
10.09648,49103
10.10460,49244
10.11273,51285
10.12085,48133
10.12898,48242
10.13710,48148
10.14522,43951
10.15335,39940
10.16147,44236
10.16960,41669
10.17772,44005
10.18583,48082
10.19397,46057
10.20208,40028
10.21020,44356
10.21833,45599
10.22645,47883
10.23458,51541
10.24270,58962
10.25082,62565
10.25895,75268
10.26707,144903
10.27520,344313
10.28332,848083
10.29143,1766821
10.29957,3178321
10.30768,5036343
10.31580,7729686
10.32393,1.222685E+07
10.33205,1.893536E+07
10.34018,2.733068E+07
10.34830,3.502857E+07
10.35642,3.930388E+07
10.36455,3.567576E+07
10.37267,2.395935E+07
10.38080,1.140037E+07
10.38892,4557508
10.39703,2227656
10.40517,1512894
10.41328,1212983
10.42142,1009348
10.42953,874579
10.43765,769097
10.44578,690781
10.45390,610376
10.46202,561234
10.47015,508638
10.47827,475805
10.48640,437027
10.49452,417441
10.50263,383811
10.51077,363879
10.51888,341697
10.52702,309224
10.53513,296716
10.54325,301132
10.55138,274237
10.55950,260023
10.56763,266667
10.57575,233904
10.58387,217883
10.59200,215282
10.60012,214571
10.60823,206823
10.61637,200952
10.62448,188321
10.63262,179011
10.64073,179185
10.64885,167846
10.65698,163153
10.66510,158230
10.67323,155923
10.68135,157312
10.68947,147449
10.69760,139161
10.70572,143661
10.71383,131767
10.72197,130731
10.73008,131097
10.73822,129828
10.74633,125431
10.75445,121949
10.76258,121062
10.77070,126084
10.77883,114583
10.78695,113144
10.79507,116135
10.80320,110615
10.81132,106795
10.81945,102899
10.82757,102377
10.83568,100651
10.84382,95037
10.85193,100609
10.86005,92191
10.86818,92990
10.87630,89148
10.88443,90055
10.89255,91116
10.90067,83854
10.90880,93369
10.91692,88106
10.92505,80209
10.93317,80578
10.94128,83482
10.94942,79180
10.95753,85037
10.96567,80622
10.97378,79968
10.98190,84529
10.99003,77126
10.99815,76480
11.00627,74272
11.01440,72801
11.02252,72448
11.03065,71548
11.03877,67370
11.04688,64422
11.05502,73215
11.06313,68404
11.07127,64084
11.07938,64824
11.08750,66254
11.09563,62693
11.10375,63478
11.11187,66825
11.12000,58182
11.12812,61369
11.13625,54732
11.14437,50587
11.15248,56347
11.16062,55514
11.16873,61406
11.17687,66082
11.18498,69256
11.19310,68701
11.20123,62138
11.20935,61944
11.21748,54502
11.22560,54903
11.23372,57646
11.24185,49472
11.24997,49097
11.25808,47362
11.26622,46245
11.27433,50558
11.28247,45798
11.29058,48641
11.29870,47702
11.30683,46015
11.31495,46310
11.32308,45166
11.33120,50050
11.33932,46472
11.34745,44730
11.35557,46201
11.36370,47009
11.37182,44163
11.37993,44793
11.38807,44671
11.39618,42232
11.40430,41350
11.41243,41196
11.42055,42719
11.42868,41323
11.43680,40800
11.44492,38884
11.45305,37286
11.46117,42996
11.46930,40063
11.47742,49874
11.48553,73500
11.49367,86916
11.50178,119843
11.50990,122461
11.51803,121652
11.52615,104673
11.53428,92739
11.54240,87117
11.55052,82080
11.55865,83770
11.56677,73349
11.57490,66039
11.58302,53276
11.59113,53044
11.59927,52618
11.60738,49882
11.61552,51385
11.62363,55229
11.63175,49757
11.63988,50483
11.64800,47941
11.65612,42751
11.66425,48684
11.67237,45004
11.68050,48485
11.68862,55588
11.69673,60191
11.70487,66272
11.71298,74243
11.72112,64235
11.72923,60643
11.73735,55911
11.74548,48199
11.75360,51953
11.76172,50253
11.76985,47819
11.77797,51149
11.78610,45798
11.79422,45100
11.80233,42733
11.81047,42631
11.81858,43365
11.82672,41240
11.83483,44112
11.84295,39452
11.85108,39736
11.85920,43476
11.86733,42853
11.87545,41065
11.88357,46518
11.89170,47226
11.89982,43222
11.90793,42659
11.91607,40547
11.92418,43745
11.93232,50100
11.94043,49573
11.94855,50103
11.95668,42873
11.96480,45192
11.97293,42964
11.98105,43233
11.98917,43118
11.99730,50475
12.00542,60286
12.01355,72458
12.02167,80281
12.02978,82977
12.03792,66977
12.04603,65266
12.05415,56115
12.06228,51215
12.07040,45392
12.07853,43335
12.08665,46365
12.09477,44216
12.10290,41998
12.11102,42952
12.11915,43435
12.12727,43290
12.13538,43607
12.14352,41310
12.15163,44011
12.15975,45469
12.16788,36886
12.17600,40435
12.18413,43213
12.19225,42743
12.20037,41515
12.20850,42184
12.21662,42432
12.22475,41980
12.23287,40586
12.24098,40518
12.24912,34122
12.25723,38338
12.26537,37159
12.27348,40951
12.28160,39439
12.28973,39023
12.29785,37645
12.30597,41674
12.31410,41309
12.32222,37709
12.33035,35436
12.33847,39383
12.34658,37100
12.35472,39056
12.36283,41219
12.37097,38788
12.37908,41167
12.38720,39520
12.39533,37556
12.40345,39314
12.41158,48048
12.41970,52485
12.42782,60989
12.43595,64468
12.44407,67480
12.45218,63483
12.46032,66332
12.46843,51553
12.47657,48822
12.48468,43449
12.49280,42830
12.50093,36353
12.50905,43858
12.51718,38796
12.52530,44621
12.53342,44860
12.54155,47926
12.54967,52238
12.55778,73667
12.56592,95585
12.57403,108102
12.58217,104031
12.59028,93320
12.59840,75004
12.60653,63497
12.61465,55139
12.62278,50431
12.63090,53223
12.63902,51211
12.64715,48186
12.65527,43809
12.66340,44060
12.67152,43086
12.67963,39450
12.68777,36897
12.69588,36375
12.70400,40813
12.71213,37949
12.72025,43806
12.72838,46403
12.73650,43627
12.74462,48802
12.75275,46173
12.76087,45487
12.76900,43001
12.77712,38942
12.78523,42543
12.79337,37570
12.80148,39878
12.80960,37742
12.81773,39083
12.82585,38591
12.83398,35436
12.84210,34569
12.85022,34528
12.85835,36811
12.86647,33293
12.87460,34719
12.88272,39563
12.89083,35877
12.89897,36133
12.90708,35689
12.91522,36844
12.92333,33439
12.93145,34303
12.93958,32585
12.94770,34575
12.95582,34411
12.96395,36296
12.97207,38489
12.98020,42811
12.98832,43674
12.99643,49866
13.00457,45114
13.01268,42678
13.02082,40893
13.02893,36317
13.03705,38604
13.04518,34705
13.05330,35031
13.06143,33641
13.06955,38096
13.07767,37862
13.08580,37277
13.09392,38935
13.10203,44884
13.11017,42031
13.11828,39901
13.12642,36183
13.13453,36880
13.14265,32206
13.15078,36065
13.15890,35707
13.16703,36718
13.17515,36863
13.18327,39612
13.19140,37118
13.19952,44105
13.20763,46720
13.21577,40912
13.22388,42891
13.23202,42333
13.24013,39790
13.24825,37869
13.25638,36754
13.26450,33671
13.27263,33437
13.28075,30774
13.28887,36330
13.29700,33199
13.30512,31048
13.31325,35618
13.32137,34162
13.32948,30574
13.33762,34950
13.34573,36216
13.35385,37686
13.36198,40253
13.37010,33097
13.37823,34049
13.38635,31932
13.39447,36794
13.40260,34075
13.41072,34015
13.41885,35228
13.42697,32350
13.43508,34114
13.44322,34161
13.45133,33007
13.45947,31241
13.46758,34099
13.47570,33769
13.48383,39917
13.49195,34538
13.50007,29806
13.50820,32143
13.51632,34897
13.52445,36837
13.53257,32373
13.54068,31055
13.54882,33544
13.55693,33396
13.56507,41211
13.57318,38711
13.58130,38313
13.58943,44520
13.59755,35973
13.60567,34946
13.61380,35233
13.62192,37174
13.63005,35370
13.63817,32074
13.64628,32978
13.65442,30947
13.66253,31679
13.67067,31284
13.67878,30125
13.68690,32241
13.69503,31590
13.70315,31496
13.71128,28733
13.71940,31647
13.72752,32901
13.73565,34085
13.74377,31567
13.75188,39445
13.76002,53078
13.76813,78675
13.77627,120538
13.78438,147257
13.79250,154271
13.80063,156208
13.80875,124853
13.81688,103418
13.82500,78285
13.83312,64803
13.84125,56711
13.84937,52809
13.85748,49778
13.86562,48293
13.87373,47303
13.88187,45912
13.88998,49405
13.89810,40804
13.90623,43501
13.91435,42954
13.92248,39988
13.93060,42135
13.93872,41391
13.94685,44903
13.95497,49577
13.96310,62944
13.97122,94540
13.97933,130198
13.98747,149023
13.99558,162704
14.00370,156279
14.01183,135510
14.01995,113491
14.02808,85852
14.03620,75355
14.04432,76292
14.05245,65754
14.06057,64266
14.06870,62619
14.07682,61637
14.08493,60674
14.09307,55443
14.10118,58614
14.10932,50885
14.11743,51005
14.12555,53510
14.13368,49185
14.14180,46392
14.14992,49752
14.15805,49115
14.16617,50057
14.17430,52092
14.18242,49591
14.19053,52501
14.19867,57338
14.20678,81983
14.21492,106351
14.22303,134251
14.23115,155820
14.23928,150849
14.24740,147347
14.25553,135346
14.26365,126487
14.27177,112744
14.27990,102304
14.28802,92155
14.29613,87118
14.30427,82866
14.31238,70874
14.32052,76404
14.32863,70819
14.33675,69899
14.34488,65027
14.35300,63920
14.36113,64394
14.36925,63910
14.37737,66657
14.38550,52605
14.39362,49523
14.40173,44168
14.40987,43428
14.41798,41519
14.42612,45209
14.43423,39932
14.44235,43371
14.45048,43307
14.45860,36680
14.46673,42072
14.47485,37202
14.48297,37548
14.49110,39315
14.49922,36523
14.50735,41628
14.51547,38418
14.52358,39546
14.53172,40652
14.53983,41852
14.54795,44554
14.55608,38243
14.56420,34651
14.57233,37065
14.58045,36186
14.58857,37900
14.59670,40228
14.60482,37079
14.61295,38375
14.62107,34967
14.62918,37370
14.63732,34144
14.64543,32843
14.65355,32788
14.66168,31241
14.66980,30342
14.67793,32651
14.68605,37857
14.69417,37200
14.70230,36481
14.71042,35534
14.71855,30643
14.72667,37019
14.73478,34605
14.74292,35510
14.75103,36465
14.75917,31507
14.76728,37570
14.77540,38520
14.78353,38252
14.79165,36519
14.79977,36360
14.80790,39710
14.81602,54599
14.82415,60599
14.83227,73775
14.84038,83942
14.84852,89537
14.85663,83766
14.86477,71772
14.87288,65220
14.88100,58439
14.88913,56212
14.89725,48538
14.90538,47109
14.91350,45025
14.92162,46531
14.92975,45869
14.93787,44358
14.94598,43390
14.95412,44770
14.96223,43181
14.97037,47067
14.97848,43988
14.98660,46863
14.99473,42550
15.00285,45427
15.01098,42143
15.01910,43082
15.02722,41103
15.03535,41052
15.04347,43165
15.05158,41122
15.05972,40269
15.06783,41886
15.07597,40468
15.08408,42120
15.09220,39205
15.10033,42842
15.10845,39448
15.11658,40493
15.12470,38275
15.13282,40668
15.14095,37505
15.14907,31725
15.15720,35170
15.16532,39690
15.17343,36498
15.18157,36215
15.18968,35148
15.19780,37767
15.20593,35870
15.21405,33589
15.22218,34161
15.23030,35924
15.23842,32259
15.24655,30799
15.25467,32851
15.26280,33559
15.27092,33888
15.27903,31318
15.28717,32232
15.29528,29413
15.30342,31700
15.31153,29152
15.31965,29502
15.32778,29347
15.33590,36481
15.34402,29441
15.35215,34281
15.36027,30709
15.36840,30266
15.37652,34199
15.38463,32902
15.39277,27398
15.40088,31791
15.40902,29785
15.41713,30575
15.42525,32295
15.43338,32796
15.44150,36779
15.44962,33032
15.45775,32045
15.46587,31060
15.47400,33473
15.48212,32429
15.49023,34581
15.49837,33573
15.50648,35658
15.51462,46692
15.52273,59941
15.53085,93953
15.53898,139690
15.54710,188425
15.55523,232891
15.56335,232712
15.57147,213071
15.57960,168500
15.58772,116961
15.59583,84056
15.60397,68110
15.61208,56094
15.62022,48759
15.62833,43912
15.63645,42467
15.64458,42845
15.65270,39948
15.66083,38608
15.66895,39542
15.67707,37243
15.68520,35863
15.69332,34744
15.70143,34112
15.70957,32265
15.71768,36136
15.72582,34059
15.73393,36084
15.74205,33470
15.75018,37480
15.75830,34692
15.76643,36498
15.77455,40021
15.78267,45033
15.79080,48914
15.79892,55491
15.80705,55088
15.81517,50592
15.82328,47796
15.83142,45028
15.83953,42127
15.84765,37711
15.85578,38669
15.86390,37288
15.87203,41655
15.88015,41377
15.88827,43823
15.89640,46798
15.90452,46933
15.91265,44418
15.92077,45827
15.92888,41069
15.93702,39465
15.94513,40914
15.95327,39567
15.96138,43872
15.96950,50225
15.97763,63328
15.98575,65310
15.99387,71484
16.00200,63326
16.01012,65014
16.01825,54806
16.02637,59671
16.03448,55015
16.04262,60292
16.05073,62003
16.05887,51682
16.06698,46904
16.07510,43038
16.08323,46248
16.09135,40987
16.09947,38838
16.10760,39700
16.11572,37087
16.12385,40924
16.13197,36962
16.14008,40133
16.14822,36231
16.15633,33512
16.16447,39690
16.17258,33270
16.18070,37233
16.18883,36791
16.19695,34800
16.20508,36949
16.21320,33060
16.22132,41547
16.22945,39345
16.23757,35238
16.24568,33627
16.25382,35804
16.26193,34371
16.27007,33922
16.27818,36351
16.28630,41648
16.29443,39514
16.30255,36974
16.31068,39762
16.31880,34422
16.32692,35279
16.33505,37666
16.34317,36914
16.35130,40399
16.35942,46613
16.36753,60403
16.37567,73414
16.38378,84506
16.39190,84439
16.40003,84558
16.40815,75085
16.41628,62059
16.42440,56315
16.43252,43981
16.44065,49525
16.44877,41775
16.45690,41720
16.46502,42478
16.47313,39571
16.48127,35788
16.48938,36847
16.49750,38102
16.50563,36204
16.51375,37068
16.52188,37833
16.53000,37455
16.53812,37160
16.54625,38726
16.55437,36789
16.56250,39815
16.57062,39213
16.57873,36097
16.58687,38232
16.59498,40818
16.60312,44938
16.61123,50533
16.61935,57157
16.62748,60408
16.63560,59260
16.64372,57909
16.65185,51219
16.65997,46788
16.66810,40936
16.67622,37611
16.68433,40576
16.69247,44960
16.70058,36944
16.70872,37863
16.71683,34819
16.72495,32875
16.73308,36315
16.74120,34529
16.74933,32611
16.75745,32727
16.76557,35672
16.77370,33516
16.78182,32267
16.78993,33452
16.79807,36161
16.80618,31202
16.81432,33281
16.82243,34586
16.83055,33141
16.83868,32925
16.84680,30527
16.85493,29866
16.86305,29575
16.87117,30613
16.87930,29144
16.88742,33705
16.89553,32961
16.90367,34280
16.91178,29824
16.91992,30183
16.92803,29130
16.93615,29595
16.94428,32901
16.95240,31893
16.96053,32182
16.96865,31458
16.97677,31425
16.98490,40222
16.99302,29813
17.00115,29542
17.00927,30130
17.01738,32089
17.02552,30432
17.03363,28143
17.04175,30062
17.04988,25823
17.05800,30897
17.06613,33541
17.07425,30650
17.08237,31636
17.09050,35943
17.09862,38876
17.10675,42488
17.11487,43919
17.12298,42302
17.13112,42875
17.13923,45289
17.14735,47426
17.15548,42401
17.16360,40391
17.17173,42175
17.17985,34476
17.18797,36139
17.19610,30883
17.20422,31058
17.21235,31868
17.22047,30315
17.22858,32644
17.23672,32183
17.24483,33210
17.25297,30318
17.26108,31707
17.26920,34137
17.27733,33497
17.28545,33168
17.29357,35028
17.30170,32083
17.30982,34159
17.31795,33625
17.32607,32256
17.33418,33018
17.34232,33191
17.35043,34881
17.35857,38793
17.36668,37767
17.37480,40009
17.38293,40149
17.39105,38886
17.39918,38548
17.40730,36302
17.41542,38858
17.42355,39152
17.43167,34776
17.43978,34386
17.44792,34733
17.45603,36147
17.46417,40317
17.47228,35567
17.48040,37456
17.48853,34983
17.49665,34289
17.50478,39332
17.51290,35510
17.52102,34966
17.52915,37632
17.53727,32165
17.54538,37456
17.55352,35772
17.56163,36993
17.56977,36174
17.57788,38302
17.58600,37524
17.59413,34620
17.60225,36949
17.61038,34894
17.61850,32568
17.62662,33011
17.63475,41671
17.64287,58978
17.65100,84377
17.65912,118665
17.66723,167138
17.67537,216773
17.68348,224338
17.69160,207833
17.69973,179176
17.70785,136914
17.71598,105499
17.72410,87814
17.73222,65131
17.74035,64805
17.74847,62235
17.75660,57311
17.76472,62140
17.77283,50015
17.78097,50386
17.78908,45967
17.79722,49400
17.80533,45005
17.81345,45427
17.82158,45168
17.82970,43037
17.83782,41881
17.84595,44439
17.85407,40825
17.86220,43701
17.87032,46615
17.87843,40417
17.88657,42022
17.89468,42713
17.90282,43976
17.91093,37779
17.91905,36616
17.92718,35282
17.93530,34565
17.94342,39046
17.95155,36953
17.95967,38002
17.96780,33726
17.97592,34468
17.98403,33524
17.99217,36083
18.00028,33800
18.00842,33659
18.01653,36031
18.02465,37658
18.03278,39414
18.04090,41697
18.04903,42813
18.05715,42634
18.06527,39069
18.07340,42242
18.08152,41213
18.08963,40560
18.09777,42969
18.10588,47568
18.11402,45665
18.12213,51978
18.13025,51491
18.13838,49459
18.14650,47584
18.15463,49209
18.16275,48393
18.17087,48131
18.17900,54995
18.18712,51309
18.19523,55383
18.20337,50739
18.21148,52065
18.21962,52097
18.22773,50990
18.23585,43173
18.24398,40208
18.25210,43259
18.26023,42362
18.26835,40051
18.27647,43188
18.28460,40272
18.29272,37600
18.30085,38134
18.30897,38002
18.31708,38757
18.32522,36256
18.33333,34758
18.34145,34363
18.34958,31513
18.35770,35155
18.36583,34417
18.37395,38111
18.38207,35281
18.39020,36502
18.39832,39215
18.40645,35147
18.41457,35402
18.42268,35103
18.43082,34475
18.43893,34478
18.44707,37433
18.45518,31486
18.46330,30927
18.47143,32390
18.47955,32896
18.48767,34660
18.49580,36338
18.50392,34012
18.51205,33523
18.52017,30067
18.52828,30893
18.53642,29063
18.54453,31324
18.55267,33811
18.56078,33022
18.56890,31751
18.57703,38307
18.58515,37262
18.59327,37109
18.60140,38295
18.60952,39375
18.61765,42499
18.62577,40160
18.63388,36624
18.64202,37788
18.65013,37138
18.65827,38118
18.66638,38516
18.67450,34527
18.68263,32760
18.69075,30906
18.69888,33682
18.70700,36561
18.71512,35221
18.72325,32265
18.73137,38917
18.73948,34001
18.74762,30805
18.75573,32948
18.76387,30525
18.77198,30471
18.78010,31283
18.78823,32449
18.79635,34330
18.80448,30339
18.81260,32379
18.82072,31211
18.82885,31009
18.83697,32194
18.84510,34867
18.85322,28927
18.86133,27227
18.86947,32313
18.87758,27520
18.88570,28633
18.89383,33578
18.90195,33413
18.91008,30726
18.91820,31681
18.92632,34974
18.93445,32644
18.94257,35860
18.95070,42823
18.95882,47238
18.96693,48935
18.97507,48861
18.98318,48401
18.99130,49129
18.99943,49160
19.00755,41788
19.01568,37600
19.02380,36995
19.03192,32868
19.04005,35949
19.04817,41376
19.05630,33234
19.06442,32695
19.07253,32724
19.08067,36122
19.08878,39500
19.09692,50302
19.10503,61835
19.11315,70161
19.12128,74476
19.12940,76935
19.13752,71191
19.14565,67935
19.15377,65377
19.16190,71659
19.17002,77795
19.17813,82762
19.18627,78970
19.19438,82189
19.20252,83640
19.21063,81323
19.21875,70941
19.22688,67827
19.23500,66147
19.24312,56234
19.25125,47292
19.25937,46899
19.26750,44820
19.27562,42631
19.28373,48127
19.29187,56547
19.29998,54423
19.30812,56316
19.31623,60142
19.32435,59851
19.33248,65972
19.34060,63367
19.34873,65263
19.35685,66729
19.36497,63862
19.37310,55813
19.38122,52881
19.38933,49340
19.39747,47682
19.40558,45851
19.41372,46070
19.42183,40167
19.42995,42711
19.43808,42953
19.44620,40098
19.45433,38477
19.46245,42964
19.47057,34430
19.47870,38762
19.48682,37110
19.49495,41673
19.50307,51565
19.51118,71007
19.51932,92615
19.52743,114873
19.53555,127950
19.54368,113943
19.55180,99168
19.55993,75279
19.56805,56499
19.57617,48998
19.58430,46685
19.59242,42247
19.60055,43289
19.60867,40498
19.61678,42589
19.62492,36246
19.63303,38900
19.64117,47502
19.64928,55411
19.65740,77614
19.66553,109993
19.67365,155419
19.68177,184877
19.68990,187044
19.69802,183484
19.70615,156283
19.71427,132023
19.72238,104417
19.73052,91165
19.73863,80244
19.74677,72201
19.75488,65594
19.76300,57719
19.77113,54053
19.77925,50185
19.78737,49340
19.79550,49523
19.80362,48788
19.81175,53018
19.81987,51240
19.82798,52124
19.83612,49085
19.84423,46779
19.85237,44667
19.86048,46530
19.86860,57686
19.87673,69380
19.88485,131115
19.89298,221859
19.90110,389137
19.90922,613031
19.91735,885516
19.92547,1110554
19.93358,1252625
19.94172,1333393
19.94983,1348155
19.95797,1321582
19.96608,1258219
19.97420,1181975
19.98233,1124621
19.99045,1064244
19.99858,1009353
20.00670,977040
20.01482,919705
20.02295,899376
20.03107,865308
20.03918,819999
20.04732,709849
20.05543,653102
20.06357,503491
20.07168,397710
20.07980,307044
20.08793,246363
20.09605,206993
20.10418,180651
20.11230,172855
20.12042,166111
20.12855,151810
20.13667,151422
20.14480,149822
20.15292,154117
20.16103,150115
20.16917,151831
20.17728,156922
20.18540,145176
20.19353,141205
20.20165,134903
20.20978,134849
20.21790,127975
20.22602,119919
20.23415,120785
20.24227,116667
20.25040,119774
20.25852,111546
20.26663,126840
20.27477,137492
20.28288,172159
20.29102,182485
20.29913,191867
20.30725,212623
20.31538,187456
20.32350,161770
20.33162,144449
20.33975,125854
20.34787,107234
20.35600,87030
20.36412,75682
20.37223,60099
20.38037,53878
20.38848,47448
20.39662,49423
20.40473,44243
20.41285,49061
20.42098,50333
20.42910,53055
20.43722,53752
20.44535,63055
20.45347,76725
20.46160,81083
20.46972,89566
20.47783,88417
20.48597,82495
20.49408,76910
20.50222,69000
20.51033,63756
20.51845,58682
20.52658,57190
20.53470,53356
20.54283,51204
20.55095,52868
20.55907,49413
20.56720,47038
20.57532,49964
20.58343,50375
20.59157,54093
20.59968,48756
20.60782,47622
20.61593,50069
20.62405,49198
20.63218,48562
20.64030,43891
20.64843,46891
20.65655,48018
20.66467,46347
20.67280,40645
20.68092,46225
20.68905,46956
20.69717,44931
20.70528,47428
20.71342,46958
20.72153,42545
20.72965,47226
20.73778,45599
20.74590,43574
20.75403,49193
20.76215,42086
20.77027,43897
20.77840,42702
20.78652,46035
20.79465,44344
20.80277,41658
20.81088,44366
20.81902,43750
20.82713,45950
20.83525,43678
20.84338,44608
20.85150,45861
20.85963,41549
20.86775,41268
20.87587,41718
20.88400,41574
20.89212,40404
20.90025,45341
20.90837,42572
20.91648,43441
20.92462,41495
20.93273,41479
20.94087,42479
20.94898,40517
20.95710,40877
20.96523,41752
20.97335,40068
20.98147,43206
20.98960,40501
20.99772,37980
21.00585,36639
21.01397,37361
21.02208,41119
21.03022,39248
21.03833,38991
21.04647,41100
21.05458,40915
21.06270,38083
21.07083,40311
21.07895,39671
21.08707,38582
21.09520,39557
21.10332,38087
21.11145,39998
21.11957,46425
21.12768,45421
21.13582,55693
21.14393,79252
21.15207,120212
21.16018,161927
21.16830,206257
21.17643,231756
21.18455,222244
21.19268,185682
21.20080,148735
21.20892,115534
21.21705,87966
21.22517,73065
21.23328,68907
21.24142,63146
21.24953,58760
21.25767,53267
21.26578,52813
21.27390,54995
21.28203,51986
21.29015,52008
21.29828,50749
21.30640,48777
21.31452,49332
21.32265,43842
21.33077,49116
21.33890,47746
21.34702,43428
21.35513,45077
21.36327,46213
21.37138,42657
21.37950,50164
21.38763,45110
21.39575,47992
21.40388,48772
21.41200,40624
21.42012,47866
21.42825,42135
21.43637,46175
21.44450,46444
21.45262,45097
21.46073,41941
21.46887,37135
21.47698,43786
21.48510,43360
21.49323,45057
21.50135,39783
21.50948,41101
21.51760,40852
21.52572,42320
21.53385,43468
21.54197,39556
21.55010,38719
21.55822,41969
21.56633,36037
21.57447,42095
21.58258,40452
21.59072,42062
21.59883,37652
21.60695,41048
21.61508,44520
21.62320,46649
21.63132,47075
21.63945,50371
21.64757,62135
21.65570,65181
21.66382,67917
21.67193,70442
21.68007,65016
21.68818,55109
21.69632,53575
21.70443,47844
21.71255,44268
21.72068,38793
21.72880,39919
21.73693,43254
21.74505,39836
21.75317,44371
21.76130,40386
21.76942,42242
21.77753,40217
21.78567,42555
21.79378,39536
21.80192,44586
21.81003,43026
21.81815,44981
21.82628,45194
21.83440,57075
21.84253,60015
21.85065,70928
21.85877,72004
21.86690,80106
21.87502,72487
21.88313,64139
21.89127,57903
21.89938,51749
21.90752,50853
21.91563,45705
21.92375,41704
21.93188,41588
21.94000,40871
21.94813,40581
21.95625,39487
21.96437,38585
21.97250,37033
21.98062,34370
21.98875,39505
21.99687,36724
22.00498,37910
22.01312,33598
22.02123,37466
22.02935,37142
22.03748,35667
22.04560,33137
22.05373,33880
22.06185,42361
22.06997,33664
22.07810,38485
22.08622,33977
22.09435,35016
22.10247,35614
22.11058,35857
22.11872,37391
22.12683,35517
22.13497,37797
22.14308,40299
22.15120,38699
22.15933,36864
22.16745,37575
22.17557,36164
22.18370,35927
22.19182,38047
22.19995,35258
22.20807,40546
22.21618,37005
22.22432,37720
22.23243,40028
22.24057,39318
22.24868,44225
22.25680,41060
22.26493,39039
22.27305,40335
22.28117,41470
22.28930,40405
22.29742,44337
22.30555,50908
22.31367,62696
22.32178,79434
22.32992,112816
22.33803,139176
22.34617,158697
22.35428,162496
22.36240,149603
22.37053,124619
22.37865,99611
22.38678,83162
22.39490,70340
22.40302,62677
22.41115,60701
22.41927,57005
22.42738,52797
22.43552,49636
22.44363,43851
22.45177,43115
22.45988,46482
22.46800,41913
22.47613,42882
22.48425,38503
22.49238,39147
22.50050,38374
22.50862,39671
22.51675,38139
22.52487,35206
22.53298,38668
22.54112,39601
22.54923,36489
22.55737,40715
22.56548,39144
22.57360,37817
22.58173,35633
22.58985,36933
22.59798,36002
22.60610,34491
22.61422,34813
22.62235,32578
22.63047,31711
22.63860,31364
22.64672,31558
22.65483,37074
22.66297,36472
22.67108,42910
22.67920,44060
22.68733,46885
22.69545,53403
22.70358,57675
22.71170,58314
22.71982,56155
22.72795,46615
22.73607,50143
22.74420,43924
22.75232,39796
22.76043,38648
22.76857,37873
22.77668,37248
22.78482,32864
22.79293,34569
22.80105,35102
22.80918,32545
22.81730,34651
22.82542,35902
22.83355,36128
22.84167,30031
22.84980,35276
22.85792,35235
22.86603,35424
22.87417,35404
22.88228,36935
22.89042,37185
22.89853,38971
22.90665,40508
22.91478,45416
22.92290,58410
22.93102,67981
22.93915,70379
22.94727,76621
22.95540,79524
22.96352,78576
22.97163,79534
22.97977,82344
22.98788,73846
22.99602,68374
23.00413,68338
23.01225,64462
23.02038,60062
23.02850,52305
23.03663,50621
23.04475,44469
23.05287,44084
23.06100,42621
23.06912,38858
23.07723,39363
23.08537,38424
23.09348,40559
23.10162,44828
23.10973,39098
23.11785,39376
23.12598,40848
23.13410,38101
23.14223,40342
23.15035,39271
23.15847,34781
23.16660,38202
23.17472,32586
23.18285,35556
23.19097,39100
23.19908,34669
23.20722,33069
23.21533,35739
23.22345,37139
23.23158,35924
23.23970,44612
23.24783,39194
23.25595,49853
23.26407,54076
23.27220,52741
23.28032,51127
23.28845,48434
23.29657,41590
23.30468,45064
23.31282,40090
23.32093,37472
23.32905,33423
23.33718,38323
23.34530,38346
23.35343,38877
23.36155,41879
23.36967,43237
23.37780,42089
23.38592,49613
23.39405,46871
23.40217,46168
23.41028,41346
23.41842,37864
23.42653,43972
23.43467,36477
23.44278,39508
23.45090,39279
23.45903,37670
23.46715,39007
23.47527,41882
23.48340,40313
23.49152,38971
23.49965,38883
23.50777,41382
23.51588,38574
23.52402,40815
23.53213,37510
23.54027,38235
23.54838,40156
23.55650,42302
23.56463,39896
23.57275,43101
23.58087,43506
23.58900,53290
23.59712,64447
23.60525,73873
23.61337,86380
23.62148,83420
23.62962,94444
23.63773,114641
23.64587,169756
23.65398,251340
23.66210,385058
23.67023,513430
23.67835,625872
23.68648,623861
23.69460,544703
23.70272,421637
23.71085,310623
23.71897,224585
23.72708,181178
23.73522,139203
23.74333,114303
23.75147,96564
23.75958,123134
23.76770,212165
23.77583,420842
23.78395,857324
23.79208,1479655
23.80020,2084478
23.80832,2447392
23.81645,2453568
23.82457,2091735
23.83270,1566497
23.84082,1174255
23.84893,858797
23.85707,637687
23.86518,515095
23.87330,406240
23.88143,348004
23.88955,297448
23.89768,269135
23.90580,243816
23.91392,217811
23.92205,195204
23.93017,175461
23.93830,172160
23.94642,158433
23.95453,149381
23.96267,144913
23.97078,135796
23.97892,135964
23.98703,134974
23.99515,121203
24.00328,116617
24.01140,112781
24.01952,122843
24.02765,122671
24.03577,128975
24.04390,130744
24.05202,135247
24.06013,153817
24.06827,144293
24.07638,140659
24.08452,134699
24.09263,119999
24.10075,110660
24.10888,96932
24.11700,94809
24.12512,90120
24.13325,88887
24.14137,89060
24.14950,105154
24.15762,107630
24.16573,104807
24.17387,102788
24.18198,96219
24.19012,93200
24.19823,86460
24.20635,79219
24.21448,77536
24.22260,80869
24.23073,81216
24.23885,78269
24.24697,77399
24.25510,77798
24.26322,73135
24.27133,62798
24.27947,65362
24.28758,64490
24.29572,62846
24.30383,60627
24.31195,60726
24.32008,58706
24.32820,55751
24.33633,63474
24.34445,60412
24.35257,53751
24.36070,51473
24.36882,52615
24.37693,57796
24.38507,54374
24.39318,65736
24.40132,71495
24.40943,86989
24.41755,97151
24.42568,109763
24.43380,98069
24.44193,94798
24.45005,75635
24.45817,60906
24.46630,55684
24.47442,52755
24.48255,58135
24.49067,51970
24.49878,51672
24.50692,53442
24.51503,61719
24.52315,58511
24.53128,65121
24.53940,66425
24.54753,64643
24.55565,62335
24.56377,58585
24.57190,63057
24.58002,60441
24.58815,56077
24.59627,53946
24.60438,52530
24.61252,53438
24.62063,51325
24.62877,51944
24.63688,55225
24.64500,55568
24.65313,57676
24.66125,54360
24.66937,58592
24.67750,53900
24.68562,50164
24.69375,54480
24.70187,51960
24.70998,49981
24.71812,50233
24.72623,46486
24.73437,43833
24.74248,44416
24.75060,45931
24.75873,43720
24.76685,44844
24.77497,40848
24.78310,43736
24.79122,43463
24.79935,41433
24.80747,40949
24.81558,40492
24.82372,40896
24.83183,41593
24.83997,41933
24.84808,42439
24.85620,37105
24.86433,44668
24.87245,45232
24.88058,43404
24.88870,41907
24.89682,45099
24.90495,41338
24.91307,47568
24.92118,44782
24.92932,45063
24.93743,44594
24.94557,39503
24.95368,42058
24.96180,40747
24.96993,37702
24.97805,38844
24.98618,38580
24.99430,37270
25.00242,35445
25.01055,41305
25.01867,41069
25.02680,34105
25.03492,36039
25.04303,38705
25.05117,36340
25.05928,40452
25.06740,35192
25.07553,41159
25.08365,41493
25.09178,40058
25.09990,38464
25.10802,40514
25.11615,36772
25.12427,42326
25.13240,43614
25.14052,51261
25.14863,50698
25.15677,55951
25.16488,58997
25.17300,61086
25.18113,63817
25.18925,57819
25.19738,53840
25.20550,55250
25.21362,50179
25.22175,43980
25.22987,47550
25.23800,46141
25.24612,47039
25.25423,38237
25.26237,41754
25.27048,41768
25.27862,41805
25.28673,43698
25.29485,43630
25.30298,42715
25.31110,41537
25.31922,45261
25.32735,49480
25.33547,49535
25.34360,47728
25.35172,47046
25.35983,49787
25.36797,43151
25.37608,38992
25.38422,37505
25.39233,37157
25.40045,37533
25.40858,36345
25.41670,37814
25.42482,43067
25.43295,34590
25.44107,39245
25.44920,41487
25.45732,36204
25.46543,38908
25.47357,37524
25.48168,38700
25.48982,38808
25.49793,44747
25.50605,47480
25.51418,41516
25.52230,41414
25.53043,41809
25.53855,39210
25.54667,38635
25.55480,39676
25.56292,39647
25.57103,31960
25.57917,38946
25.58728,34681
25.59542,36367
25.60353,36557
25.61165,34789
25.61978,33841
25.62790,37697
25.63603,43976
25.64415,40941
25.65227,49424
25.66040,54090
25.66852,55334
25.67665,56133
25.68477,45496
25.69288,42136
25.70102,44504
25.70913,40734
25.71725,40096
25.72538,38409
25.73350,42614
25.74163,46273
25.74975,45093
25.75787,49811
25.76600,48327
25.77412,46921
25.78225,44090
25.79037,40928
25.79848,40973
25.80662,39305
25.81473,42743
25.82285,46173
25.83098,44726
25.83910,49945
25.84723,48885
25.85535,56908
25.86347,50645
25.87160,45634
25.87972,40476
25.88785,38979
25.89597,40088
25.90408,38132
25.91222,37007
25.92033,39377
25.92847,36945
25.93658,42348
25.94470,37851
25.95283,37647
25.96095,34970
25.96907,35718
25.97720,36788
25.98532,37752
25.99345,31877
26.00157,35153
26.00968,29741
26.01782,34082
26.02593,35806
26.03407,31580
26.04218,34376
26.05030,32851
26.05843,30878
26.06655,29146
26.07468,35351
26.08280,33451
26.09092,33548
26.09905,31610
26.10717,34513
26.11528,34985
26.12342,37611
26.13153,39576
26.13967,37238
26.14778,42539
26.15590,46496
26.16403,49881
26.17215,49664
26.18028,44861
26.18840,48770
26.19652,49746
26.20465,40055
26.21277,41180
26.22088,38437
26.22902,33629
26.23713,36358
26.24527,34496
26.25338,31944
26.26150,36029
26.26963,36464
26.27775,33919
26.28588,35345
26.29400,38234
26.30212,35405
26.31025,31599
26.31837,33267
26.32650,33495
26.33462,34422
26.34273,33730
26.35087,32355
26.35898,34412
26.36710,31111
26.37523,32028
26.38335,34589
26.39148,35888
26.39960,33044
26.40772,37316
26.41585,36618
26.42397,39694
26.43210,39623
26.44022,33197
26.44833,33822
26.45647,36185
26.46458,35933
26.47270,33171
26.48083,31459
26.48895,32203
26.49708,30354
26.50520,39113
26.51332,35777
26.52145,33098
26.52957,32063
26.53770,31756
26.54582,33076
26.55393,28785
26.56207,30056
26.57018,31451
26.57832,31110
26.58643,33637
26.59455,31880
26.60268,32443
26.61080,33945
26.61892,31741
26.62705,32268
26.63517,37114
26.64330,33708
26.65142,33980
26.65953,33679
26.66767,36204
26.67578,37247
26.68392,37462
26.69203,39334
26.70015,37572
26.70828,39497
26.71640,36645
26.72453,37722
26.73265,36116
26.74077,38680
26.74890,36262
26.75702,33707
26.76513,34536
26.77327,37671
26.78138,35645
26.78952,33266
26.79763,32469
26.80575,34681
26.81388,35453
26.82200,39026
26.83013,41707
26.83825,39902
26.84637,41474
26.85450,38782
26.86262,36052
26.87073,35681
26.87887,39818
26.88698,40360
26.89512,38775
26.90323,38616
26.91135,37886
26.91948,34074
26.92760,33603
26.93573,36190
26.94385,39024
26.95197,37652
26.96010,35834
26.96822,47605
26.97635,73569
26.98447,143485
26.99258,288636
27.00072,621070
27.00883,1212525
27.01695,1946040
27.02508,2556526
27.03320,2746931
27.04133,2438293
27.04945,1869018
27.05757,1300027
27.06570,893076
27.07382,610488
27.08195,450875
27.09007,353035
27.09818,281790
27.10632,237832
27.11443,197297
27.12257,185746
27.13068,170014
27.13880,152913
27.14693,147338
27.15505,128973
27.16317,122782
27.17130,129136
27.17942,112299
27.18755,108896
27.19567,101433
27.20378,107030
27.21192,95907
27.22003,94407
27.22817,89364
27.23628,87338
27.24440,90407
27.25253,82309
27.26065,81930
27.26877,78792
27.27690,75040
27.28502,72993
27.29315,74301
27.30127,70304
27.30938,72069
27.31752,67855
27.32563,66080
27.33377,67294
27.34188,63909
27.35000,65727
27.35813,57395
27.36625,60892
27.37438,58229
27.38250,64966
27.39062,59545
27.39875,58004
27.40687,60849
27.41498,61358
27.42312,60387
27.43123,55978
27.43937,56285
27.44748,62744
27.45560,53702
27.46373,55196
27.47185,54972
27.47998,53721
27.48810,52131
27.49622,51804
27.50435,56016
27.51247,56451
27.52060,59063
27.52872,49986
27.53683,52596
27.54497,54415
27.55308,54619
27.56120,49261
27.56933,49642
27.57745,47533
27.58558,50079
27.59370,48903
27.60182,54371
27.60995,48882
27.61807,51598
27.62620,48369
27.63432,55286
27.64243,51745
27.65057,51497
27.65868,49240
27.66680,47493
27.67493,46495
27.68305,44840
27.69118,42467
27.69930,46155
27.70742,43341
27.71555,45357
27.72367,49265
27.73180,38679
27.73992,41189
27.74803,43663
27.75617,43426
27.76428,41516
27.77242,43649
27.78053,44662
27.78865,43652
27.79678,45855
27.80490,41699
27.81302,41158
27.82115,44195
27.82927,43607
27.83740,45221
27.84552,45972
27.85363,46429
27.86177,47208
27.86988,48845
27.87802,48293
27.88613,43407
27.89425,43672
27.90238,45983
27.91050,42515
27.91862,42042
27.92675,39773
27.93487,44270
27.94300,40933
27.95112,40100
27.95923,38371
27.96737,42128
27.97548,46133
27.98362,42726
27.99173,40587
27.99985,40401
28.00798,46148
28.01610,42791
28.02423,42583
28.03235,42569
28.04047,44975
28.04860,37895
28.05672,37753
28.06483,37213
28.07297,38609
28.08108,38766
28.08922,36273
28.09733,47074
28.10545,42124
28.11358,43183
28.12170,47618
28.12983,39697
28.13795,44709
28.14607,41371
28.15420,42017
28.16232,43040
28.17045,42165
28.17857,38677
28.18668,35604
28.19482,38636
28.20293,43749
28.21105,52188
28.21918,46959
28.22730,49921
28.23543,57307
28.24355,53282
28.25167,50468
28.25980,45095
28.26792,47590
28.27605,46274
28.28417,43980
28.29228,41991
28.30042,41493
28.30853,44048
28.31665,43940
28.32478,47018
28.33290,50197
28.34103,53834
28.34915,60993
28.35727,76484
28.36540,82534
28.37352,94426
28.38165,109884
28.38977,109332
28.39788,115441
28.40602,112394
28.41413,108544
28.42227,113391
28.43038,116695
28.43850,122004
28.44663,115988
28.45475,111956
28.46287,112933
28.47100,100414
28.47912,89776
28.48725,78034
28.49537,72005
28.50348,65899
28.51162,65323
28.51973,63431
28.52787,58392
28.53598,62256
28.54410,54473
28.55223,57184
28.56035,53273
28.56848,51355
28.57660,51966
28.58472,51700
28.59285,52436
28.60097,47037
28.60908,48976
28.61722,49593
28.62533,49681
28.63347,52634
28.64158,48739
28.64970,58297
28.65783,55709
28.66595,62582
28.67408,61350
28.68220,58569
28.69032,55180
28.69845,55819
28.70657,49915
28.71468,47975
28.72282,50400
28.73093,48967
28.73907,44716
28.74718,51931
28.75530,46852
28.76343,47577
28.77155,50298
28.77968,52809
28.78780,69407
28.79592,67350
28.80405,62066
28.81217,59656
28.82030,48919
28.82842,46001
28.83653,45206
28.84467,42812
28.85278,44109
28.86090,42364
28.86903,46572
28.87715,42640
28.88528,44239
28.89340,43936
28.90152,44336
28.90965,41236
28.91777,42967
28.92590,42710
28.93402,43211
28.94213,43131
28.95027,46174
28.95838,47338
28.96650,49970
28.97463,54930
28.98275,49700
28.99088,52464
28.99900,52525
29.00712,45629
29.01525,44866
29.02337,42456
29.03150,42079
29.03962,41361
29.04773,40817
29.05587,40373
29.06398,41076
29.07212,41148
29.08023,41969
29.08835,41704
29.09648,37480
29.10460,42143
29.11272,39330
29.12085,41282
29.12897,43426
29.13710,37432
29.14522,40337
29.15333,43007
29.16147,41062
29.16958,41072
29.17772,39369
29.18583,40991
29.19395,41334
29.20208,41996
29.21020,43650
29.21833,47266
29.22645,44801
29.23457,44444
29.24270,43835
29.25082,42034
29.25893,44438
29.26707,50424
29.27518,46312
29.28332,52552
29.29143,46747
29.29955,44152
29.30768,40917
29.31580,41331
29.32393,39766
29.33205,40016
29.34017,43258
29.34830,41086
29.35642,40873
29.36455,38735
29.37267,43074
29.38078,44573
29.38892,43427
29.39703,48129
29.40515,44712
29.41328,44090
29.42140,51114
29.42953,53727
29.43765,56317
29.44577,56971
29.45390,55439
29.46202,46975
29.47015,41513
29.47827,45555
29.48638,39415
29.49452,45541
29.50263,46789
29.51075,50736
29.51888,47270
29.52700,45411
29.53513,45621
29.54325,42350
29.55137,44104
29.55950,39858
29.56762,40659
29.57575,40625
29.58387,41289
29.59198,39285
29.60012,39170
29.60823,37178
29.61637,41868
29.62448,35681
29.63260,44937
29.64073,39132
29.64885,40045
29.65697,37079
29.66510,37811
29.67322,37480
29.68135,36167
29.68947,38690
29.69758,39646
29.70572,37077
29.71383,39724
29.72197,46502
29.73008,48846
29.73820,50938
29.74633,62218
29.75445,63081
29.76257,60405
29.77070,58716
29.77882,53448
29.78695,43064
29.79507,42127
29.80318,35249
29.81132,35902
29.81943,37712
29.82757,36300
29.83568,39397
29.84380,38731
29.85193,40338
29.86005,47580
29.86818,66860
29.87630,113545
29.88442,225821
29.89255,371322
29.90067,580893
29.90878,775489
29.91692,811588
29.92503,692182
29.93317,517780
29.94128,336617
29.94940,196506
29.95753,129360
29.96565,89640
29.97378,77819
29.98190,70145
29.99002,76522
29.99815,82514
30.00627,90593
30.01440,97953
30.02252,103985
30.03063,100089
30.03877,95519
30.04688,95460
30.05500,89720
30.06313,93663
30.07125,90364
30.07938,89842
30.08750,87033
30.09562,82078
30.10375,80415
30.11187,78631
30.12000,74389
30.12812,71776
30.13623,68923
30.14437,68679
30.15248,64978
30.16060,62799
30.16873,63572
30.17685,61204
30.18498,60821
30.19310,57421
30.20122,58599
30.20935,53023
30.21747,49450
30.22560,49994
30.23372,50458
30.24183,51914
30.24997,47439
30.25808,50774
30.26622,51739
30.27433,48774
30.28245,46227
30.29058,49979
30.29870,48877
30.30682,45877
30.31495,47599
30.32307,45958
30.33120,46973
30.33932,44753
30.34743,42737
30.35557,43523
30.36368,43547
30.37182,43029
30.37993,44258
30.38805,42730
30.39618,39970
30.40430,39365
30.41243,40220
30.42055,41755
30.42867,42812
30.43680,40225
30.44492,44616
30.45303,45150
30.46117,38849
30.46928,39799
30.47742,37973
30.48553,40172
30.49365,40999
30.50178,39514
30.50990,39689
30.51803,42691
30.52615,42850
30.53427,43363
30.54240,41968
30.55052,41578
30.55863,40493
30.56677,38783
30.57488,36897
30.58302,38747
30.59113,39734
30.59925,40591
30.60738,37730
30.61550,42660
30.62363,36516
30.63175,46636
30.63987,41049
30.64800,36580
30.65612,37475
30.66425,37779
30.67237,35162
30.68048,40286
30.68862,36062
30.69673,39729
30.70485,38817
30.71298,37798
30.72110,37334
30.72923,43932
30.73735,38103
30.74547,38689
30.75360,40767
30.76172,36978
30.76985,41696
30.77797,38714
30.78608,43878
30.79422,50898
30.80233,64235
30.81045,74013
30.81858,75803
30.82670,84843
30.83483,74904
30.84295,65673
30.85107,57376
30.85920,46495
30.86732,45361
30.87545,42651
30.88357,44454
30.89168,39129
30.89982,42904
30.90793,39514
30.91607,36206
30.92418,38177
30.93230,40658
30.94043,38405
30.94855,41732
30.95667,43487
30.96480,40592
30.97292,38350
30.98105,39349
30.98917,37905
30.99728,38846
31.00542,40390
31.01353,44928
31.02167,49289
31.02978,56659
31.03790,65763
31.04603,72604
31.05415,77151
31.06228,69440
31.07040,64541
31.07852,61864
31.08665,70394
31.09477,94233
31.10288,112919
31.11102,147566
31.11913,175647
31.12727,171428
31.13538,152904
31.14350,130446
31.15163,89665
31.15975,70162
31.16788,57695
31.17600,47167
31.18412,47421
31.19225,49472
31.20037,58437
31.20848,60061
31.21662,68975
31.22473,76784
31.23287,77756
31.24098,83814
31.24910,80256
31.25723,63467
31.26535,57008
31.27348,50140
31.28160,47371
31.28972,46282
31.29785,47789
31.30597,43444
31.31410,39387
31.32222,39871
31.33033,37174
31.33847,36184
31.34658,43507
31.35470,39875
31.36283,39654
31.37095,43094
31.37908,47947
31.38720,51281
31.39532,55484
31.40345,56631
31.41157,55166
31.41970,47500
31.42782,50755
31.43593,50076
31.44407,46936
31.45218,44268
31.46032,44540
31.46843,39263
31.47655,42987
31.48468,44942
31.49280,36489
31.50092,35576
31.50905,39283
31.51717,39693
31.52530,40000
31.53342,40182
31.54153,40019
31.54967,39959
31.55778,41433
31.56592,37900
31.57403,35463
31.58215,35635
31.59028,37510
31.59840,35144
31.60652,39132
31.61465,37694
31.62277,39851
31.63090,38054
31.63902,41231
31.64713,37467
31.65527,37214
31.66338,34964
31.67152,36668
31.67963,35980
31.68775,38072
31.69588,42553
31.70400,42396
31.71213,39950
31.72025,37734
31.72837,40351
31.73650,36995
31.74462,41221
31.75273,39047
31.76087,40852
31.76898,36550
31.77712,39468
31.78523,41858
31.79335,41193
31.80148,41009
31.80960,41465
31.81773,43440
31.82585,45693
31.83397,45900
31.84210,44395
31.85022,47730
31.85835,45965
31.86647,45382
31.87458,50526
31.88272,51010
31.89083,51779
31.89895,50108
31.90708,51157
31.91520,53679
31.92333,51431
31.93145,54873
31.93957,60339
31.94770,55859
31.95582,58398
31.96395,63134
31.97207,58872
31.98018,67842
31.98832,69082
31.99643,64317
32.00455,66704
32.01268,71577
32.02080,67665
32.02893,66257
32.03705,59807
32.04517,57113
32.05330,57237
32.06142,57853
32.06955,54226
32.07767,55793
32.08578,62755
32.09392,60304
32.10203,56620
32.11017,53745
32.11828,50806
32.12640,51559
32.13453,47238
32.14265,45978
32.15077,45141
32.15890,42988
32.16702,40266
32.17515,41818
32.18327,43993
32.19138,40464
32.19952,40656
32.20763,42649
32.21577,40086
32.22388,39211
32.23200,42032
32.24013,38519
32.24825,41989
32.25637,40569
32.26450,41358
32.27262,42102
32.28075,45871
32.28887,45589
32.29698,44256
32.30512,48921
32.31323,60424
32.32137,85719
32.32948,133124
32.33760,241860
32.34573,440573
32.35385,749287
32.36198,1147349
32.37010,1474084
32.37822,1525961
32.38635,1297874
32.39447,931507
32.40258,606367
32.41072,377448
32.41883,243780
32.42697,175141
32.43508,139965
32.44320,120580
32.45133,111437
32.45945,98406
32.46758,92287
32.47570,86569
32.48382,83152
32.49195,81204
32.50007,74184
32.50820,78867
32.51632,70413
32.52443,67227
32.53257,72720
32.54068,64951
32.54880,62474
32.55693,66572
32.56505,62660
32.57318,65418
32.58130,62440
32.58942,60340
32.59755,61590
32.60567,61044
32.61380,53267
32.62192,56256
32.63003,55729
32.63817,53814
32.64628,56192
32.65440,55562
32.66253,63156
32.67065,59111
32.67878,68149
32.68690,71001
32.69502,71426
32.70315,71700
32.71127,64408
32.71940,60431
32.72752,63137
32.73563,61903
32.74377,56862
32.75188,55174
32.76002,50914
32.76813,53566
32.77625,52863
32.78438,49006
32.79250,52111
32.80062,49080
32.80875,47463
32.81687,43656
32.82500,49171
32.83312,47849
32.84123,45306
32.84937,50674
32.85748,46457
32.86562,47717
32.87373,45495
32.88185,47510
32.88998,46725
32.89810,48095
32.90623,44054
32.91435,44469
32.92247,45027
32.93060,47280
32.93872,43758
32.94683,41683
32.95497,45519
32.96308,39920
32.97122,43766
32.97933,45178
32.98745,48344
32.99558,43659
33.00370,42603
33.01183,45511
33.01995,45541
33.02807,45963
33.03620,42456
33.04432,45301
33.05243,46961
33.06057,43047
33.06868,42520
33.07682,45947
33.08493,51766
33.09305,64014
33.10118,92107
33.10930,132247
33.11743,192023
33.12555,251409
33.13367,307997
33.14180,282892
33.14992,221809
33.15805,152917
33.16617,112639
33.17428,74737
33.18242,60242
33.19053,55909
33.19865,58627
33.20678,54289
33.21490,57917
33.22303,55532
33.23115,55722
33.23927,51567
33.24740,54853
33.25552,53278
33.26365,56397
33.27177,53430
33.27988,53095
33.28802,50157
33.29613,52315
33.30425,50927
33.31238,52155
33.32050,50317
33.32863,46673
33.33675,51873
33.34487,50345
33.35300,53782
33.36112,48019
33.36925,47670
33.37737,47410
33.38548,45182
33.39362,48301
33.40173,47626
33.40987,50773
33.41798,47956
33.42610,45801
33.43423,45665
33.44235,52610
33.45047,49841
33.45860,51614
33.46672,45143
33.47485,46019
33.48297,43639
33.49108,44189
33.49922,51063
33.50733,47331
33.51547,43172
33.52358,42175
33.53170,44621
33.53983,47928
33.54795,43476
33.55608,42275
33.56420,42422
33.57232,43541
33.58045,43995
33.58857,43491
33.59668,42545
33.60482,42870
33.61293,44869
33.62107,45405
33.62918,42975
33.63730,47992
33.64543,47343
33.65355,44406
33.66168,46855
33.66980,45961
33.67792,43754
33.68605,48767
33.69417,51917
33.70230,55676
33.71042,56450
33.71853,51971
33.72667,53268
33.73478,53488
33.74290,49799
33.75103,46898
33.75915,42815
33.76728,45597
33.77540,45923
33.78352,43767
33.79165,43576
33.79977,43227
33.80790,42581
33.81602,42274
33.82413,43790
33.83227,46679
33.84038,41399
33.84850,46585
33.85663,43344
33.86475,48103
33.87288,50804
33.88100,46439
33.88912,48423
33.89725,52276
33.90537,47537
33.91350,47821
33.92162,51274
33.92973,46494
33.93787,46992
33.94598,43343
33.95412,45932
33.96223,40600
33.97035,41559
33.97848,46801
33.98660,42869
33.99472,43131
34.00285,45273
34.01097,45462
34.01910,43511
34.02722,42893
34.03533,43600
34.04347,46940
34.05158,43819
34.05972,41027
34.06783,48680
34.07595,43564
34.08408,45627
34.09220,44317
34.10032,46900
34.10845,42894
34.11657,44287
34.12470,47927
34.13282,47397
34.14093,44089
34.14907,45324
34.15718,40125
34.16532,42807
34.17343,46151
34.18155,40799
34.18968,42903
34.19780,40516
34.20593,41315
34.21405,45094
34.22217,45460
34.23030,40124
34.23842,46646
34.24653,41827
34.25467,39545
34.26278,45728
34.27092,44203
34.27903,42548
34.28715,38381
34.29528,43703
34.30340,41182
34.31153,41614
34.31965,41370
34.32777,43381
34.33590,45527
34.34402,44719
34.35215,46454
34.36027,46796
34.36838,46443
34.37652,45379
34.38463,44880
34.39275,42266
34.40088,42198
34.40900,43239
34.41713,49087
34.42525,41163
34.43337,41514
34.44150,47245
34.44962,45358
34.45775,41154
34.46587,41176
34.47398,43763
34.48212,43276
34.49023,43870
34.49835,45015
34.50648,44734
34.51460,47161
34.52273,47438
34.53085,50681
34.53897,57449
34.54710,59353
34.55522,63761
34.56335,61975
34.57147,66941
34.57958,65254
34.58772,62096
34.59583,62098
34.60397,63131
34.61208,59419
34.62020,54574
34.62833,55137
34.63645,54955
34.64457,52506
34.65270,47652
34.66082,50784
34.66895,47494
34.67707,46112
34.68518,54238
34.69332,44577
34.70143,43592
34.70957,52606
34.71768,47306
34.72580,50160
34.73393,44992
34.74205,47171
34.75018,44768
34.75830,41275
34.76642,43581
34.77455,40621
34.78267,43839
34.79078,45464
34.79892,43384
34.80703,44659
34.81517,43945
34.82328,47170
34.83140,44703
34.83953,43600
34.84765,46736
34.85578,45455
34.86390,46919
34.87202,47151
34.88015,44721
34.88827,45482
34.89638,49052
34.90452,49412
34.91263,43401
34.92077,43405
34.92888,43630
34.93700,49685
34.94513,53804
34.95325,76506
34.96138,109133
34.96950,163742
34.97762,236859
34.98575,304271
34.99387,328225
35.00200,291408
35.01012,229855
35.01823,153762
35.02637,109182
35.03448,77599
35.04260,66368
35.05073,60566
35.05885,57490
35.06698,55217
35.07510,59968
35.08322,54143
35.09135,55703
35.09947,53610
35.10760,54254
35.11572,52090
35.12383,52875
35.13197,49044
35.14008,50579
35.14820,52797
35.15633,48421
35.16445,52281
35.17258,54638
35.18070,53094
35.18882,53484
35.19695,54084
35.20507,50638
35.21320,46191
35.22132,49516
35.22943,48548
35.23757,50752
35.24568,49812
35.25382,49622
35.26193,51820
35.27005,52606
35.27818,52230
35.28630,54946
35.29442,52725
35.30255,50436
35.31067,52313
35.31880,44252
35.32692,49777
35.33503,47585
35.34317,46861
35.35128,45495
35.35942,46156
35.36753,44169
35.37565,48830
35.38378,51320
35.39190,44118
35.40003,47177
35.40815,46442
35.41627,49779
35.42440,45456
35.43252,46023
35.44063,50216
35.44877,47645
35.45688,50324
35.46502,54634
35.47313,52461
35.48125,52802
35.48938,54964
35.49750,50658
35.50563,47488
35.51375,54697
35.52187,57729
35.53000,48101
35.53812,49288
35.54623,47586
35.55437,46898
35.56248,48939
35.57062,48101
35.57873,49739
35.58685,51372
35.59498,51639
35.60310,58936
35.61123,50492
35.61935,51844
35.62747,51061
35.63560,52615
35.64372,50760
35.65185,50338
35.65997,51237
35.66808,47473
35.67622,53204
35.68433,45981
35.69245,49608
35.70058,53782
35.70870,50391
35.71683,53284
35.72495,46333
35.73307,49108
35.74120,49652
35.74932,48287
35.75745,51587
35.76557,46572
35.77368,48897
35.78182,47374
35.78993,47246
35.79807,46816
35.80618,47275
35.81430,45735
35.82243,47171
35.83055,48358
35.83867,44776
35.84680,49629
35.85492,47048
35.86305,47539
35.87117,48237
35.87928,50376
35.88742,48453
35.89553,47383
35.90367,48134
35.91178,48006
35.91990,52313
35.92803,47336
35.93615,51108
35.94427,49390
35.95240,49328
35.96052,46017
35.96865,46461
35.97677,46254
35.98488,44809
35.99302,50679
36.00113,48099
36.00927,46551
36.01738,46995
36.02550,51323
36.03363,48313
36.04175,50244
36.04988,43839
36.05800,50981
36.06612,48871
36.07425,53368
36.08237,47304
36.09048,49632
36.09862,45995
36.10673,44083
36.11487,57843
36.12298,51132
36.13110,49245
36.13923,48339
36.14735,47455
36.15548,52967
36.16360,47307
36.17172,50553
36.17985,56127
36.18797,52903
36.19608,49476
36.20422,50895
36.21233,50004
36.22047,52182
36.22858,50148
36.23670,48063
36.24483,47291
36.25295,46029
36.26108,46762
36.26920,48964
36.27732,44857
36.28545,44691
36.29357,46834
36.30170,49209
36.30982,47783
36.31793,52885
36.32607,57011
36.33418,59461
36.34230,64233
36.35043,59535
36.35855,55656
36.36668,53661
36.37480,48965
36.38292,47455
36.39105,47662
36.39917,50133
36.40730,51108
36.41542,49761
36.42353,49828
36.43167,50919
36.43978,46814
36.44792,50011
36.45603,50662
36.46415,47532
36.47228,45729
36.48040,47369
36.48852,48553
36.49665,49549
36.50477,48879
36.51290,56151
36.52102,45950
36.52913,48877
36.53727,46267
36.54538,45656
36.55352,45984
36.56163,50119
36.56975,45558
36.57788,49654
36.58600,46077
36.59412,47874
36.60225,51119
36.61037,48656
36.61850,46137
36.62662,47010
36.63473,47707
36.64287,55069
36.65098,49177
36.65912,46610
36.66723,49221
36.67535,55667
36.68348,49818
36.69160,48530
36.69973,54275
36.70785,49796
36.71597,48939
36.72410,47960
36.73222,51530
36.74033,50398
36.74847,45698
36.75658,50523
36.76472,50008
36.77283,47103
36.78095,48861
36.78908,45210
36.79720,49233
36.80533,49077
36.81345,49255
36.82157,46130
36.82970,48753
36.83782,47882
36.84595,48275
36.85407,52517
36.86218,47710
36.87032,54946
36.87843,53699
36.88655,51091
36.89468,49385
36.90280,48595
36.91093,50505
36.91905,49939
36.92717,46539
36.93530,50580
36.94342,48842
36.95155,49193
36.95967,47843
36.96778,48981
36.97592,50610
36.98403,48527
36.99215,49814
37.00028,48014
37.00840,45932
37.01653,54535
37.02465,49285
37.03277,49379
37.04090,52279
37.04902,47985
37.05715,50978
37.06527,50675
37.07338,49854
37.08152,47826
37.08963,52266
37.09777,50597
37.10588,53549
37.11400,49103
37.12213,53848
37.13025,57365
37.13837,53679
37.14650,53235
37.15462,55379
37.16275,52878
37.17087,51313
37.17898,54150
37.18712,53458
37.19523,56533
37.20337,53300
37.21148,54824
37.21960,59292
37.22773,53514
37.23585,53998
37.24398,61286
37.25210,57359
37.26022,60270
37.26835,64766
37.27647,63528
37.28458,61620
37.29272,54555
37.30083,56730
37.30897,59372
37.31708,54953
37.32520,55363
37.33333,55007
37.34145,57005
37.34958,62658
37.35770,60173
37.36582,65659
37.37395,65409
37.38207,66518
37.39018,66693
37.39832,63988
37.40643,63468
37.41457,61318
37.42268,60336
37.43080,61091
37.43893,58944
37.44705,65260
37.45518,54737
37.46330,54826
37.47142,58651
37.47955,58504
37.48767,62042
