Z:\data\JTB-E02\BACandBLUE\JTB-E02-193-16.D Wed Dec 19 14:51:04 2018
Start of data points
2.09523,80928
2.10335,78998
2.11148,78779
2.11960,80938
2.12773,79743
2.13585,87015
2.14397,79615
2.15210,81562
2.16022,75457
2.16835,72430
2.17647,76349
2.18458,74177
2.19272,73269
2.20083,72513
2.20895,72151
2.21708,72774
2.22520,78442
2.23333,71836
2.24145,73598
2.24957,70777
2.25770,69984
2.26582,123272
2.27395,560741
2.28207,1345895
2.29018,1534878
2.29832,839832
2.30643,523322
2.31455,415059
2.32268,349512
2.33080,303878
2.33893,269256
2.34705,252021
2.35517,233893
2.36330,219848
2.37142,209281
2.37955,207844
2.38767,200233
2.39578,191327
2.40392,194457
2.41203,189765
2.42017,182050
2.42828,187790
2.43640,175687
2.44453,172767
2.45265,171052
2.46077,167737
2.46890,158455
2.47702,157150
2.48515,155890
2.49327,163147
2.50138,172182
2.50952,164255
2.51763,160122
2.52577,154591
2.53388,151939
2.54200,152601
2.55013,156009
2.55825,164353
2.56638,164029
2.57450,154247
2.58262,145047
2.59075,145030
2.59887,143417
2.60698,258930
2.61512,524160
2.62323,643512
2.63137,460867
2.63948,314887
2.64760,235816
2.65573,207648
2.66385,189566
2.67198,166607
2.68010,159515
2.68822,151801
2.69635,147860
2.70447,146685
2.71258,134763
2.72072,134474
2.72883,134182
2.73697,131704
2.74508,124845
2.75320,122576
2.76133,125946
2.76945,144920
2.77758,609024
2.78570,2251846
2.79382,3852045
2.80195,3184747
2.81007,1759104
2.81820,1156604
2.82632,938132
2.83443,770615
2.84257,607579
2.85068,494435
2.85880,436089
2.86693,371989
2.87505,330883
2.88318,294800
2.89130,272495
2.89942,250203
2.90755,241078
2.91567,227354
2.92380,206576
2.93192,202225
2.94003,185026
2.94817,179801
2.95628,183340
2.96440,177717
2.97253,192238
2.98065,181908
2.98878,172688
2.99690,166840
3.00502,175427
3.01315,174020
3.02127,169811
3.02940,165455
3.03752,152824
3.04563,148412
3.05377,146213
3.06188,142254
3.07002,140952
3.07813,167040
3.08625,423496
3.09438,1149600
3.10250,2438900
3.11062,4376753
3.11875,5698731
3.12687,4698765
3.13500,2956230
3.14312,1978911
3.15123,1521063
3.15937,1200073
3.16748,1040307
3.17562,1054073
3.18373,1521097
3.19185,3474663
3.19998,6406653
3.20810,6860511
3.21623,4945799
3.22435,3386175
3.23247,2607071
3.24060,2095069
3.24872,1768655
3.25683,1496696
3.26497,1296433
3.27308,1125009
3.28122,1001975
3.28933,1015245
3.29745,1538258
3.30558,3387024
3.31370,6221875
3.32183,7629234
3.32995,6665810
3.33807,4798372
3.34620,3370294
3.35432,2570428
3.36243,2107162
3.37057,1763090
3.37868,1556359
3.38682,1388993
3.39493,1244301
3.40305,1119898
3.41118,1033424
3.41930,964022
3.42743,895541
3.43555,888299
3.44367,907403
3.45180,847058
3.45992,818358
3.46805,907589
3.47617,1133456
3.48428,1218466
3.49242,1052135
3.50053,814959
3.50865,692755
3.51678,612768
3.52490,585930
3.53303,589736
3.54115,629675
3.54927,673811
3.55740,647671
3.56552,560144
3.57365,497236
3.58177,480313
3.58988,449619
3.59802,420468
3.60613,415147
3.61427,394818
3.62238,416268
3.63050,424064
3.63863,431052
3.64675,447223
3.65487,513851
3.66300,1941186
3.67112,1.12475E+07
3.67925,3.165773E+07
3.68737,4.822444E+07
3.69548,5.094185E+07
3.70362,4.03605E+07
3.71173,2.754894E+07
3.71987,1.99446E+07
3.72798,1.606319E+07
3.73610,1.357005E+07
3.74423,1.165279E+07
3.75235,1.012218E+07
3.76047,8912679
3.76860,8046657
3.77672,7141644
3.78485,6482123
3.79297,5924883
3.80108,5538839
3.80922,5368573
3.81733,5579004
3.82547,5893819
3.83358,5576385
3.84170,4906032
3.84983,4356110
3.85795,3993836
3.86608,3706557
3.87420,3452986
3.88232,3217529
3.89045,3056972
3.89857,2927500
3.90668,2770241
3.91482,2711352
3.92293,2944367
3.93107,3481602
3.93918,3873839
3.94730,3684597
3.95543,3208078
3.96355,3283698
3.97168,3717808
3.97980,3787194
3.98792,3212142
3.99605,2614117
4.00417,2560094
4.01228,3220244
4.02042,4230835
4.02853,4442211
4.03667,3620522
4.04478,2676425
4.05290,2091999
4.06103,1832994
4.06915,1662380
4.07728,1576944
4.08540,1479562
4.09352,1438276
4.10165,1417612
4.10977,1370040
4.11790,1311760
4.12602,1249839
4.13413,1207355
4.14227,1205077
4.15038,1185360
4.15850,1200378
4.16663,1193723
4.17475,1174460
4.18288,1152920
4.19100,1142375
4.19912,1109164
4.20725,1206682
4.21537,2366570
4.22350,6766845
4.23162,1.528162E+07
4.23973,2.37438E+07
4.24787,2.984281E+07
4.25598,3.416555E+07
4.26412,3.672005E+07
4.27223,3.60217E+07
4.28035,2.562954E+07
4.28848,1.402991E+07
4.29660,9655361
4.30472,7499329
4.31285,6035695
4.32097,5066139
4.32910,4309607
4.33722,3712891
4.34533,3326557
4.35347,2967704
4.36158,2780885
4.36972,2798496
4.37783,2935250
4.38595,2843235
4.39408,2453774
4.40220,2069424
4.41033,1805394
4.41845,1626102
4.42657,1536613
4.43470,1426056
4.44282,1361792
4.45093,1283708
4.45907,1226805
4.46718,1163420
4.47532,1116815
4.48343,1094215
4.49155,1037504
4.49968,1019638
4.50780,1016489
4.51593,976249
4.52405,950319
4.53217,931881
4.54030,923879
4.54842,929769
4.55653,962650
4.56467,985935
4.57278,930456
4.58092,850252
4.58903,806766
4.59715,787043
4.60528,753670
4.61340,754515
4.62153,778074
4.62965,953342
4.63777,1544740
4.64590,2497697
4.65402,3162702
4.66215,2913895
4.67027,2222872
4.67838,1590471
4.68652,1313682
4.69463,1179344
4.70275,1033627
4.71088,899412
4.71900,815309
4.72713,742636
4.73525,721560
4.74337,681355
4.75150,670454
4.75962,641650
4.76775,622606
4.77587,608207
4.78398,607463
4.79212,604364
4.80023,687955
4.80835,874811
4.81648,996434
4.82460,969250
4.83273,856391
4.84085,789420
4.84897,873903
4.85710,985099
4.86522,1010303
4.87335,918381
4.88147,778171
4.88958,693125
4.89772,628281
4.90583,592534
4.91397,583592
4.92208,561079
4.93020,541469
4.93833,552769
4.94645,645632
4.95457,981725
4.96270,1644894
4.97082,2459774
4.97895,2932103
4.98707,2783608
4.99518,2306794
5.00332,1804069
5.01143,1494607
5.01957,1304565
5.02768,1293979
5.03580,1541316
5.04393,2076851
5.05205,2548525
5.06018,2531572
5.06830,2097979
5.07642,1719681
5.08455,1461458
5.09267,1268687
5.10078,1188210
5.10892,1093813
5.11703,1038321
5.12517,960069
5.13328,914143
5.14140,877617
5.14953,876483
5.15765,997060
5.16578,1277606
5.17390,1605619
5.18202,1740081
5.19015,1584258
5.19827,1368935
5.20638,1333427
5.21452,1466836
5.22263,1553123
5.23077,1454019
5.23888,1239091
5.24700,1076511
5.25513,945107
5.26325,895556
5.27138,787014
5.27950,659518
5.28762,636935
5.29575,613340
5.30387,577344
5.31200,562024
5.32012,554103
5.32823,552410
5.33637,548186
5.34448,572043
5.35260,593287
5.36073,589797
5.36885,568341
5.37698,522084
5.38510,499379
5.39322,535953
5.40135,594916
5.40947,644426
5.41760,667528
5.42572,627504
5.43383,553103
5.44197,510377
5.45008,531996
5.45822,619996
5.46633,695942
5.47445,731305
5.48258,650718
5.49070,555421
5.49882,486139
5.50695,445033
5.51507,429898
5.52320,427466
5.53132,427907
5.53943,416328
5.54757,425936
5.55568,494589
5.56382,698670
5.57193,1173210
5.58005,1763154
5.58818,2083223
5.59630,1830071
5.60442,1332543
5.61255,908149
5.62067,677705
5.62880,571594
5.63692,503322
5.64503,490818
5.65317,471928
5.66128,441546
5.66942,426975
5.67753,419957
5.68565,442884
5.69378,501486
5.70190,570872
5.71003,621116
5.71815,606889
5.72627,552385
5.73440,490367
5.74252,433738
5.75063,404245
5.75877,378291
5.76688,375258
5.77502,351552
5.78313,353387
5.79125,345132
5.79938,348597
5.80750,332409
5.81563,335976
5.82375,330418
5.83187,326638
5.84000,332437
5.84812,330304
5.85623,327827
5.86437,327726
5.87248,328386
5.88062,315507
5.88873,323962
5.89685,302762
5.90498,316850
5.91310,321585
5.92123,352275
5.92935,380686
5.93747,392518
5.94560,378885
5.95372,384976
5.96185,430962
5.96997,528734
5.97808,672679
5.98622,866497
5.99433,1101839
6.00245,1300238
6.01058,1330812
6.01870,1146386
6.02683,872129
6.03495,652740
6.04307,495556
6.05120,415291
6.05932,358212
6.06745,332244
6.07557,325032
6.08368,310207
6.09182,306075
6.09993,297088
6.10807,281410
6.11618,287821
6.12430,305428
6.13243,475399
6.14055,904802
6.14867,1632890
6.15680,2221426
6.16492,2257342
6.17305,1798049
6.18117,1244861
6.18928,877849
6.19742,694548
6.20553,596215
6.21367,516583
6.22178,469361
6.22990,442455
6.23803,411995
6.24615,422099
6.25427,430144
6.26240,489658
6.27052,535724
6.27865,561136
6.28677,510971
6.29488,451006
6.30302,405155
6.31113,374135
6.31927,364087
6.32738,361322
6.33550,357380
6.34363,353618
6.35175,370872
6.35988,359932
6.36800,340506
6.37612,336974
6.38425,327602
6.39237,334510
6.40048,336932
6.40862,322325
6.41673,305321
6.42487,312530
6.43298,305387
6.44110,305039
6.44923,312859
6.45735,327667
6.46548,331140
6.47360,342824
6.48172,339132
6.48985,324771
6.49797,315383
6.50610,318740
6.51422,321825
6.52233,308247
6.53047,324389
6.53858,335727
6.54670,333112
6.55483,310141
6.56295,336939
6.57108,490847
6.57920,827414
6.58732,1325094
6.59545,1628961
6.60357,1479209
6.61170,1057056
6.61982,717943
6.62793,518729
6.63607,428535
6.64418,386788
6.65230,362328
6.66043,348505
6.66855,350382
6.67668,313136
6.68480,304834
6.69292,279050
6.70105,264995
6.70917,246413
6.71730,243515
6.72542,234730
6.73353,224376
6.74167,230702
6.74978,223121
6.75792,211879
6.76603,223311
6.77415,214172
6.78228,214504
6.79040,215891
6.79852,203490
6.80665,202050
6.81477,193907
6.82290,186583
6.83102,174496
6.83913,179505
6.84727,174111
6.85538,190021
6.86352,201373
6.87163,227992
6.87975,259015
6.88788,271456
6.89600,249482
6.90413,217937
6.91225,195683
6.92037,170834
6.92850,167655
6.93662,160977
6.94473,154344
6.95287,145646
6.96098,138702
6.96912,151628
6.97723,171980
6.98535,197880
6.99348,219018
7.00160,220260
7.00973,200175
7.01785,184554
7.02597,175397
7.03410,182814
7.04222,177867
7.05033,173509
7.05847,179195
7.06658,213897
7.07472,284510
7.08283,366921
7.09095,416730
7.09908,410593
7.10720,367463
7.11533,293615
7.12345,236345
7.13157,210351
7.13970,203993
7.14782,211769
7.15595,240305
7.16407,271760
7.17218,323170
7.18032,350879
7.18843,414111
7.19655,822458
7.20468,2145650
7.21280,4953365
7.22093,8752463
7.22905,1.144364E+07
7.23717,1.105167E+07
7.24530,7922208
7.25342,4260487
7.26155,1907303
7.26967,788271
7.27778,365277
7.28592,252011
7.29403,209450
7.30215,208832
7.31028,201020
7.31840,203217
7.32653,217885
7.33465,258106
7.34277,307805
7.35090,381361
7.35902,393336
7.36715,376332
7.37527,322242
7.38338,268131
7.39152,213865
7.39963,202518
7.40777,182417
7.41588,174210
7.42400,161248
7.43213,165594
7.44025,161893
7.44837,167644
7.45650,166893
7.46462,158042
7.47275,168092
7.48087,177114
7.48898,178498
7.49712,165345
7.50523,153118
7.51337,146213
7.52148,150323
7.52960,190939
7.53773,313643
7.54585,677732
7.55398,1493226
7.56210,2966756
7.57022,4894998
7.57835,6665833
7.58647,7635683
7.59458,7289706
7.60272,5962216
7.61083,4132980
7.61897,2628570
7.62708,1547937
7.63520,956370
7.64333,652453
7.65145,490696
7.65958,393215
7.66770,305280
7.67582,266835
7.68395,223018
7.69207,193120
7.70018,172827
7.70832,159461
7.71643,149652
7.72457,177566
7.73268,206577
7.74080,255871
7.74893,278665
7.75705,301714
7.76518,304731
7.77330,287143
7.78142,268600
7.78955,256639
7.79767,246095
7.80580,255519
7.81392,291868
7.82203,350222
7.83017,377103
7.83828,352851
7.84640,290740
7.85453,245656
7.86265,211912
7.87078,214341
7.87890,240430
7.88702,293501
7.89515,353809
7.90327,422838
7.91140,460651
7.91952,438447
7.92763,368703
7.93577,308014
7.94388,285438
7.95202,296288
7.96013,324844
7.96825,322656
7.97638,312875
7.98450,276784
7.99262,241249
8.00075,200109
8.00887,170283
8.01700,145420
8.02512,148484
8.03323,139934
8.04137,132389
8.04948,138492
8.05762,131994
8.06573,128355
8.07385,129674
8.08198,131099
8.09010,129834
8.09822,131355
8.10635,122356
8.11447,120285
8.12260,114447
8.13072,123510
8.13883,152341
8.14697,216073
8.15508,320088
8.16322,419832
8.17133,448452
8.17945,405207
8.18758,317057
8.19570,230307
8.20383,190050
8.21195,159884
8.22007,142326
8.22820,136534
8.23632,126988
8.24443,123381
8.25257,113905
8.26068,112285
8.26882,111726
8.27693,106038
8.28505,102829
8.29318,105287
8.30130,104145
8.30943,108010
8.31755,107887
8.32567,121112
8.33380,141719
8.34192,144815
8.35003,145442
8.35817,139884
8.36628,128034
8.37442,115114
8.38253,103332
8.39065,96261
8.39878,96226
8.40690,93505
8.41503,90294
8.42315,95603
8.43127,88502
8.43940,93919
8.44752,93645
8.45565,92725
8.46377,95806
8.47188,96080
8.48002,91178
8.48813,91698
8.49625,83022
8.50438,85450
8.51250,84200
8.52063,95564
8.52875,126909
8.53687,184911
8.54500,263729
8.55312,315037
8.56125,298310
8.56937,231645
8.57748,167055
8.58562,117494
8.59373,104833
8.60187,109947
8.60998,126482
8.61810,148662
8.62623,181671
8.63435,197856
8.64247,213658
8.65060,189182
8.65872,155962
8.66685,141385
8.67497,114684
8.68308,100652
8.69122,97759
8.69933,89655
8.70747,87325
8.71558,92070
8.72370,82417
8.73183,89538
8.73995,85674
8.74808,86459
8.75620,83399
8.76432,91533
8.77245,108612
8.78057,179514
8.78868,324591
8.79682,577619
8.80493,835702
8.81307,973815
8.82118,920336
8.82930,735275
8.83743,553658
8.84555,410816
8.85368,366200
8.86180,321220
8.86992,299945
8.87805,283346
8.88617,266297
8.89428,247617
8.90242,229250
8.91053,226920
8.91867,224433
8.92678,249669
8.93490,320903
8.94303,434485
8.95115,532364
8.95928,547587
8.96740,481269
8.97552,393453
8.98365,336122
8.99177,350864
8.99990,385343
9.00802,379415
9.01613,355905
9.02427,297076
9.03238,257958
9.04050,205494
9.04863,188224
9.05675,173032
9.06488,170105
9.07300,169817
9.08112,156716
9.08925,162015
9.09737,184932
9.10550,222426
9.11362,298638
9.12173,413073
9.12987,528126
9.13798,560627
9.14610,506204
9.15423,407837
9.16235,308767
9.17048,241282
9.17860,216447
9.18672,204471
9.19485,179290
9.20297,173908
9.21110,173235
9.21922,170916
9.22733,163486
9.23547,167821
9.24358,177230
9.25172,179629
9.25983,185364
9.26795,177576
9.27608,165698
9.28420,155348
9.29232,158620
9.30045,149767
9.30857,151919
9.31670,145471
9.32482,137945
9.33293,137663
9.34107,139975
9.34918,132718
9.35732,129963
9.36543,136854
9.37355,126398
9.38168,128872
9.38980,146536
9.39793,168557
9.40605,213608
9.41417,270175
9.42230,334080
9.43042,406055
9.43853,467581
9.44667,546628
9.45478,602218
9.46292,610938
9.47103,544333
9.47915,434469
9.48728,323798
9.49540,232417
9.50353,184579
9.51165,167415
9.51977,183045
9.52790,221759
9.53602,251138
9.54413,266684
9.55227,269254
9.56038,243977
9.56852,204161
9.57663,171927
9.58475,148663
9.59288,130520
9.60100,124609
9.60913,125975
9.61725,118712
9.62537,110543
9.63350,114788
9.64162,103961
9.64975,98672
9.65787,93293
9.66598,92951
9.67412,97517
9.68223,97442
9.69035,96832
9.69848,98836
9.70660,94887
9.71473,93767
9.72285,102424
9.73097,102785
9.73910,109360
9.74722,100318
9.75535,98050
9.76347,91824
9.77158,88804
9.77972,78812
9.78783,80977
9.79597,83807
9.80408,80105
9.81220,83285
9.82033,81042
9.82845,80125
9.83657,83902
9.84470,83348
9.85282,78603
9.86095,81204
9.86907,87135
9.87718,83535
9.88532,86415
9.89343,79356
9.90157,74026
9.90968,78740
9.91780,79541
9.92593,84513
9.93405,96831
9.94217,137976
9.95030,213574
9.95842,354091
9.96655,526686
9.97467,670237
9.98278,733661
9.99092,654333
9.99903,498110
10.00717,355594
10.01528,223161
10.02340,171571
10.03153,145758
10.03965,138158
10.04778,143140
10.05590,154554
10.06402,165251
10.07215,179193
10.08027,186760
10.08838,187610
10.09652,184871
10.10463,174059
10.11277,166506
10.12088,148749
10.12900,153285
10.13713,144582
10.14525,138542
10.15338,139109
10.16150,133768
10.16962,134508
10.17775,127966
10.18587,125597
10.19398,120724
10.20212,118739
10.21023,115136
10.21837,111243
10.22648,118640
10.23460,123165
10.24273,125880
10.25085,137633
10.25898,167420
10.26710,271522
10.27522,627153
10.28335,1576719
10.29147,3531593
10.29960,6365690
10.30772,9786982
10.31583,1.346086E+07
10.32397,1.750054E+07
10.33208,2.217455E+07
10.34020,2.809268E+07
10.34833,3.616018E+07
10.35645,4.512026E+07
10.36458,5.286055E+07
10.37270,5.668878E+07
10.38082,5.079094E+07
10.38895,3.241946E+07
10.39707,1.491784E+07
10.40520,7272649
10.41332,4437323
10.42143,2887847
10.42957,1997125
10.43768,1513405
10.44582,1299855
10.45393,1240876
10.46205,1269006
10.47018,1281449
10.47830,1258880
10.48642,1188098
10.49455,1054259
10.50267,913845
10.51080,796645
10.51892,700328
10.52703,642324
10.53517,632892
10.54328,644609
10.55142,650126
10.55953,667213
10.56765,636131
10.57578,600753
10.58390,555482
10.59202,542140
10.60015,519345
10.60827,489072
10.61640,448860
10.62452,415284
10.63263,405733
10.64077,382127
10.64888,374092
10.65702,349390
10.66513,339247
10.67325,336506
10.68138,315881
10.68950,313104
10.69763,325294
10.70575,339241
10.71387,338471
10.72200,341049
10.73012,337802
10.73823,332092
10.74637,313535
10.75448,298548
10.76262,289494
10.77073,271578
10.77885,265112
10.78698,257559
10.79510,242965
10.80323,246286
10.81135,261186
10.81947,281276
10.82760,299974
10.83572,316047
10.84385,297863
10.85197,280798
10.86008,238364
10.86822,213194
10.87633,207552
10.88445,198634
10.89258,197932
10.90070,189537
10.90883,192759
10.91695,191023
10.92507,183382
10.93320,183228
10.94132,180207
10.94945,175857
10.95757,171033
10.96568,168190
10.97382,172104
10.98193,172342
10.99005,173108
10.99818,174589
11.00630,183101
11.01443,189592
11.02255,213325
11.03067,201268
11.03880,208551
11.04692,191313
11.05505,175660
11.06317,165452
11.07128,168899
11.07942,178859
11.08753,201328
11.09567,222276
11.10378,247659
11.11190,239826
11.12003,232966
11.12815,215610
11.13627,185998
11.14440,161108
11.15252,153754
11.16065,137841
11.16877,139418
11.17688,136578
11.18502,135371
11.19313,135537
11.20127,131345
11.20938,119141
11.21750,124328
11.22563,123129
11.23375,115550
11.24187,108763
11.25000,104782
11.25812,97882
11.26625,95655
11.27437,90543
11.28248,88165
11.29062,93523
11.29873,94230
11.30687,115679
11.31498,205171
11.32310,437658
11.33123,999521
11.33935,2000687
11.34748,3297681
11.35560,4528800
11.36372,5132197
11.37185,4822214
11.37997,3796782
11.38808,2741225
11.39622,1879101
11.40433,1401977
11.41247,1089647
11.42058,936405
11.42870,789934
11.43683,657764
11.44495,565789
11.45308,479591
11.46120,408147
11.46932,373792
11.47745,332807
11.48557,318628
11.49370,339260
11.50182,390682
11.50993,480000
11.51807,560815
11.52618,608055
11.53430,602412
11.54243,569364
11.55055,504738
11.55868,460842
11.56680,418697
11.57492,379638
11.58305,366513
11.59117,350797
11.59930,359799
11.60742,433228
11.61553,585648
11.62367,764409
11.63178,913323
11.63990,926379
11.64803,777545
11.65615,594805
11.66428,404843
11.67240,303724
11.68052,234661
11.68865,206040
11.69677,191161
11.70490,187937
11.71302,183934
11.72113,183590
11.72927,186623
11.73738,198066
11.74552,187984
11.75363,176813
11.76175,164051
11.76988,149353
11.77800,137805
11.78612,129901
11.79425,119191
11.80237,116947
11.81050,115270
11.81862,107421
11.82673,108232
11.83487,107311
11.84298,104633
11.85112,103813
11.85923,102024
11.86735,99088
11.87548,100537
11.88360,94203
11.89173,95640
11.89985,93769
11.90797,87181
11.91610,89295
11.92422,90258
11.93233,99172
11.94047,110767
11.94858,110588
11.95672,106202
11.96483,106021
11.97295,94053
11.98108,85729
11.98920,85328
11.99733,78998
12.00545,79728
12.01357,81455
12.02170,82231
12.02982,79244
12.03793,79364
12.04607,77274
12.05418,82881
12.06232,79053
12.07043,83015
12.07855,91533
12.08668,96445
12.09480,105557
12.10293,132338
12.11105,177776
12.11917,309511
12.12730,589888
12.13542,1023893
12.14355,1525339
12.15167,1835687
12.15978,1865443
12.16792,1572982
12.17603,1144158
12.18415,774595
12.19228,548080
12.20040,462716
12.20853,416249
12.21665,391568
12.22477,366243
12.23290,331129
12.24102,307985
12.24915,287932
12.25727,280635
12.26538,263369
12.27352,246013
12.28163,234844
12.28977,222916
12.29788,209668
12.30600,211600
12.31413,198091
12.32225,181413
12.33037,179319
12.33850,172372
12.34662,178121
12.35475,175767
12.36287,170523
12.37098,171432
12.37912,164139
12.38723,162636
12.39537,166611
12.40348,186247
12.41160,238619
12.41973,333858
12.42785,492834
12.43597,646038
12.44410,706082
12.45222,683358
12.46035,545323
12.46847,424898
12.47658,317959
12.48472,258629
12.49283,216328
12.50097,206077
12.50908,196095
12.51720,182207
12.52533,187135
12.53345,185018
12.54158,223998
12.54970,275208
12.55782,332875
12.56595,408401
12.57407,436058
12.58218,433344
12.59032,378984
12.59843,315984
12.60657,244155
12.61468,205893
12.62280,185637
12.63093,175483
12.63905,161657
12.64718,163406
12.65530,149850
12.66342,146263
12.67155,139313
12.67967,144828
12.68778,139402
12.69592,140865
12.70403,132138
12.71217,129294
12.72028,132842
12.72840,131694
12.73653,123021
12.74465,126917
12.75278,133726
12.76090,137518
12.76902,129602
12.77715,135345
12.78527,121719
12.79340,112002
12.80152,119299
12.80963,109707
12.81777,100858
12.82588,102693
12.83400,87320
12.84213,84771
12.85025,76782
12.85838,71110
12.86650,70962
12.87462,71019
12.88275,69299
12.89087,67551
12.89900,69297
12.90712,65080
12.91523,67792
12.92337,62918
12.93148,65481
12.93962,60656
12.94773,64042
12.95585,67045
12.96398,67820
12.97210,73459
12.98022,83092
12.98835,90171
12.99647,100709
13.00460,99863
13.01272,89889
13.02083,89754
13.02897,75061
13.03708,69175
13.04522,70743
13.05333,71576
13.06145,74031
13.06958,68647
13.07770,68872
13.08582,74870
13.09395,82229
13.10207,81142
13.11020,81800
13.11832,79241
13.12643,80033
13.13457,70518
13.14268,71310
13.15082,69043
13.15893,69128
13.16705,69680
13.17518,75794
13.18330,79879
13.19143,83589
13.19955,84946
13.20767,87368
13.21580,82931
13.22392,92119
13.23203,96741
13.24017,103572
13.24828,106863
13.25642,104012
13.26453,107439
13.27265,109129
13.28078,103763
13.28890,95479
13.29703,84445
13.30515,82467
13.31327,78450
13.32140,65173
13.32952,68660
13.33765,63421
13.34577,60376
13.35388,73814
13.36202,66167
13.37013,67187
13.37825,61132
13.38638,64141
13.39450,62393
13.40263,63597
13.41075,67956
13.41887,62061
13.42700,64816
13.43512,64740
13.44325,63520
13.45137,61991
13.45948,63309
13.46762,65802
13.47573,65277
13.48385,72173
13.49198,75650
13.50010,69525
13.50823,66746
13.51635,66961
13.52447,75295
13.53260,76138
13.54072,87978
13.54885,90637
13.55697,88253
13.56508,74369
13.57322,69275
13.58133,74197
13.58947,79220
13.59758,90508
13.60570,110745
13.61383,130989
13.62195,148946
13.63007,173337
13.63820,183910
13.64632,170536
13.65445,150407
13.66257,122323
13.67068,92031
13.67882,78201
13.68693,71286
13.69507,61346
13.70318,63234
13.71130,58841
13.71943,57029
13.72755,59125
13.73567,58978
13.74380,61679
13.75192,65507
13.76005,75817
13.76817,108845
13.77628,160500
13.78442,226076
13.79253,332180
13.80067,460319
13.80878,619088
13.81690,758780
13.82503,886427
13.83315,1028851
13.84128,1232363
13.84940,1406739
13.85752,1496186
13.86565,1406073
13.87377,1169589
13.88188,903533
13.89002,635735
13.89813,448197
13.90627,325549
13.91438,253353
13.92250,195893
13.93063,166897
13.93875,152663
13.94688,132147
13.95500,125159
13.96312,111006
13.97125,103492
13.97937,98961
13.98750,93990
13.99562,96890
14.00373,88953
14.01187,95433
14.01998,105236
14.02810,103955
14.03623,109316
14.04435,93389
14.05248,88706
14.06060,82075
14.06872,78385
14.07685,84099
14.08497,82091
14.09310,79212
14.10122,78906
14.10933,77966
14.11747,81907
14.12558,74715
14.13372,75122
14.14183,67894
14.14995,74322
14.15808,82950
14.16620,89001
14.17432,101837
14.18245,113044
14.19057,113741
14.19870,120081
14.20682,131162
14.21493,162071
14.22307,206876
14.23118,255505
14.23932,303666
14.24743,324080
14.25555,336948
14.26368,352457
14.27180,369687
14.27992,347987
14.28805,311168
14.29617,264075
14.30430,214579
14.31242,182867
14.32053,161108
14.32867,147213
14.33678,141691
14.34492,132970
14.35303,130587
14.36115,131104
14.36928,131578
14.37740,119359
14.38553,121247
14.39365,102309
14.40177,98506
14.40990,115306
14.41802,157274
14.42613,208452
14.43427,269431
14.44238,293798
14.45052,285080
14.45863,243293
14.46675,198340
14.47488,164673
14.48300,157926
14.49113,144434
14.49925,151681
14.50737,149423
14.51550,133730
14.52362,125229
14.53173,115900
14.53987,105378
14.54798,102830
14.55612,98996
14.56423,93275
14.57235,86720
14.58048,84910
14.58860,85134
14.59673,74426
14.60485,71323
14.61297,71637
14.62110,65681
14.62922,67202
14.63735,62002
14.64547,63713
14.65358,68758
14.66172,60886
14.66983,57356
14.67795,57293
14.68608,61576
14.69420,63980
14.70233,58895
14.71045,60504
14.71857,63577
14.72670,67304
14.73482,68383
14.74295,68297
14.75107,69064
14.75918,70646
14.76732,75150
14.77543,75275
14.78357,79503
14.79168,105660
14.79980,178676
14.80793,475440
14.81605,1373569
14.82417,3565773
14.83230,7505814
14.84042,1.288849E+07
14.84855,1.897799E+07
14.85667,2.424095E+07
14.86478,2.573815E+07
14.87292,2.272572E+07
14.88103,1.548945E+07
14.88917,8732301
14.89728,4550581
14.90540,2765488
14.91353,1992918
14.92165,1685601
14.92977,1401832
14.93790,1216061
14.94602,1123842
14.95415,1000376
14.96227,954477
14.97038,874212
14.97852,784741
14.98663,758110
14.99477,701905
15.00288,678527
15.01100,641460
15.01913,605685
15.02725,581969
15.03538,539982
15.04350,521098
15.05162,490717
15.05975,458590
15.06787,443107
15.07598,425509
15.08412,402668
15.09223,395054
15.10037,383373
15.10848,361099
15.11660,343576
15.12473,341576
15.13285,359453
15.14098,383565
15.14910,440741
15.15722,513484
15.16535,519658
15.17347,487797
15.18160,397126
15.18972,289925
15.19783,224800
15.20597,171754
15.21408,151718
15.22220,134155
15.23033,125556
15.23845,125973
15.24658,114762
15.25470,120710
15.26282,107819
15.27095,107074
15.27907,107880
15.28720,104765
15.29532,99490
15.30343,91538
15.31157,89940
15.31968,89431
15.32780,91414
15.33593,86150
15.34405,84947
15.35218,88285
15.36030,85784
15.36842,89017
15.37655,86129
15.38467,97828
15.39280,100512
15.40092,103151
15.40903,100183
15.41717,95969
15.42528,95660
15.43342,84123
15.44153,83750
15.44965,79322
15.45778,87126
15.46590,84397
15.47402,103843
15.48215,137070
15.49027,215163
15.49840,343116
15.50652,504516
15.51463,653798
15.52277,741136
15.53088,756734
15.53902,667942
15.54713,550164
15.55525,441594
15.56338,339324
15.57150,252514
15.57962,199908
15.58775,164640
15.59587,137135
15.60400,128308
15.61212,124967
15.62023,118134
15.62837,120329
15.63648,111077
15.64462,116693
15.65273,107259
15.66085,108596
15.66898,101705
15.67710,96627
15.68523,95679
15.69335,86033
15.70147,87760
15.70960,87641
15.71772,79444
15.72583,75051
15.73397,73332
15.74208,76654
15.75022,82968
15.75833,100176
15.76645,162486
15.77458,331817
15.78270,683279
15.79083,1234190
15.79895,1811555
15.80707,2160311
15.81520,2099458
15.82332,1673353
15.83145,1134311
15.83957,701071
15.84768,440273
15.85582,303744
15.86393,247592
15.87205,217330
15.88018,201961
15.88830,190320
15.89643,170416
15.90455,162431
15.91267,156730
15.92080,147036
15.92892,146298
15.93705,140753
15.94517,132075
15.95328,128578
15.96142,125364
15.96953,118553
15.97765,116000
15.98578,106180
15.99390,112084
16.00203,113465
16.01015,129783
16.01827,141963
16.02640,166566
16.03452,177727
16.04265,191831
16.05077,194685
16.05888,169770
16.06702,144600
16.07513,126955
16.08327,116695
16.09138,101163
16.09950,93560
16.10763,85981
16.11575,89801
16.12387,94289
16.13200,98140
16.14012,115772
16.14825,132034
16.15637,150598
16.16448,168024
16.17262,169589
16.18073,165535
16.18887,150202
16.19698,126703
16.20510,110024
16.21323,102634
16.22135,100363
16.22948,104174
16.23760,107463
16.24572,107505
16.25385,100354
16.26197,90804
16.27008,82311
16.27822,83652
16.28633,81376
16.29447,98072
16.30258,111434
16.31070,131353
16.31883,141226
16.32695,153522
16.33508,147842
16.34320,134777
16.35132,123989
16.35945,109793
16.36757,115422
16.37568,108932
16.38382,104021
16.39193,102632
16.40007,97814
16.40818,89982
16.41630,83906
16.42443,85019
16.43255,92310
16.44068,93605
16.44880,121089
16.45692,202329
16.46505,500080
16.47317,1215025
16.48130,2543002
16.48942,4256255
16.49753,5772163
16.50567,6382094
16.51378,5582704
16.52190,4096678
16.53003,2475158
16.53815,1412672
16.54628,809126
16.55440,561536
16.56252,425259
16.57065,363426
16.57877,321962
16.58690,298265
16.59502,281334
16.60313,266915
16.61127,242544
16.61938,229898
16.62750,212216
16.63563,192781
16.64375,191786
16.65188,172909
16.66000,156868
16.66812,157570
16.67625,153097
16.68437,146818
16.69250,150122
16.70062,137563
16.70873,125166
16.71687,124058
16.72498,115064
16.73312,107169
16.74123,99908
16.74935,106657
16.75748,111614
16.76560,137978
16.77372,171147
16.78185,196006
16.78997,196287
16.79810,174732
16.80622,152257
16.81433,116560
16.82247,97584
16.83058,85459
16.83872,79828
16.84683,75890
16.85495,77015
16.86308,76305
16.87120,68615
16.87933,68743
16.88745,66553
16.89557,70138
16.90370,69401
16.91182,62398
16.91993,63154
16.92807,68699
16.93618,63146
16.94432,69669
16.95243,62900
16.96055,70649
16.96868,65896
16.97680,70561
16.98493,70066
16.99305,70423
17.00117,68385
17.00930,68593
17.01742,73364
17.02553,71041
17.03367,75164
17.04178,83428
17.04992,102299
17.05803,127855
17.06615,156380
17.07428,175735
17.08240,180687
17.09053,152227
17.09865,134761
17.10677,111033
17.11490,95965
17.12302,94172
17.13115,96153
17.13927,100305
17.14738,108652
17.15552,104293
17.16363,101434
17.17175,104415
17.17988,96460
17.18800,96767
17.19613,88753
17.20425,81119
17.21237,77495
17.22050,77614
17.22862,73856
17.23675,69607
17.24487,74649
17.25298,76029
17.26112,74415
17.26923,79573
17.27737,78249
17.28548,70108
17.29360,74171
17.30173,71979
17.30985,68214
17.31797,71565
17.32610,88667
17.33422,121211
17.34235,170066
17.35047,222977
17.35858,269588
17.36672,286525
17.37483,291973
17.38297,255165
17.39108,232127
17.39920,212474
17.40733,195744
17.41545,180876
17.42357,181630
17.43170,179069
17.43982,174313
17.44795,176201
17.45607,167768
17.46418,160529
17.47232,144793
17.48043,136243
17.48857,126277
17.49668,118234
17.50480,109232
17.51293,105344
17.52105,105992
17.52918,99630
17.53730,103841
17.54542,103241
17.55355,107300
17.56167,109234
17.56978,153373
17.57792,276784
17.58603,602908
17.59417,1336038
17.60228,2558594
17.61040,4093687
17.61853,5416499
17.62665,5881555
17.63478,5493827
17.64290,4392590
17.65102,3097661
17.65915,1920966
17.66727,1186709
17.67540,715262
17.68352,480252
17.69163,348969
17.69977,301722
17.70788,259758
17.71600,242395
17.72413,229801
17.73225,211164
17.74038,197719
17.74850,181835
17.75662,164026
17.76475,150558
17.77287,138138
17.78100,136230
17.78912,116673
17.79723,117066
17.80537,108518
17.81348,106264
17.82160,99319
17.82973,103766
17.83785,105944
17.84598,114553
17.85410,133177
17.86222,172171
17.87035,224999
17.87847,267737
17.88660,302616
17.89472,300985
17.90283,249640
17.91097,197043
17.91908,146402
17.92722,114496
17.93533,94750
17.94345,85453
17.95158,85857
17.95970,86226
17.96782,80361
17.97595,73413
17.98407,74962
17.99220,74057
18.00032,71501
18.00843,74583
18.01657,81682
18.02468,111832
18.03282,164315
18.04093,248048
18.04905,349501
18.05718,466210
18.06530,589097
18.07342,912549
18.08155,1715956
18.08967,3385839
18.09780,5647531
18.10592,8039857
18.11403,9247415
18.12217,9106126
18.13028,7713387
18.13842,5709618
18.14653,4072519
18.15465,2956035
18.16278,2321194
18.17090,1939334
18.17903,1679043
18.18715,1474528
18.19527,1319957
18.20340,1143877
18.21152,1040833
18.21963,935854
18.22777,864013
18.23588,800450
18.24402,748392
18.25213,692558
18.26025,646314
18.26838,609731
18.27650,554954
18.28463,486272
18.29275,416786
18.30087,329878
18.30900,261941
18.31712,207721
18.32525,174619
18.33337,149540
18.34148,136225
18.34962,133566
18.35773,127683
18.36585,117707
18.37398,120514
18.38210,115505
18.39023,111159
18.39835,116446
18.40647,113806
18.41460,111572
18.42272,122417
18.43085,143213
18.43897,169962
18.44708,199622
18.45522,268957
18.46333,413305
18.47145,651261
18.47958,1046819
18.48770,1552907
18.49583,1970575
18.50395,2100200
18.51207,1930626
18.52020,1543215
18.52832,1071856
18.53645,691087
18.54457,417782
18.55268,285081
18.56082,212980
18.56893,171123
18.57707,146725
18.58518,131693
18.59330,121485
18.60143,124156
18.60955,125031
18.61767,133479
18.62580,144397
18.63392,145629
18.64205,163129
18.65017,152687
18.65828,145869
18.66642,133394
18.67453,117393
18.68267,103846
18.69078,99188
18.69890,92663
18.70703,86247
18.71515,81053
18.72328,83674
18.73140,81316
18.73952,80474
18.74765,78489
18.75577,73899
18.76388,75920
18.77202,79933
18.78013,80987
18.78827,72608
18.79638,73464
18.80450,76174
18.81263,79461
18.82075,82290
18.82888,77696
18.83700,78106
18.84512,80770
18.85325,77818
18.86137,76694
18.86948,81476
18.87762,86881
18.88573,91679
18.89387,112515
18.90198,149649
18.91010,206416
18.91823,252098
18.92635,280666
18.93448,295234
18.94260,325278
18.95072,350185
18.95885,379125
18.96697,412402
18.97510,426835
18.98322,438517
18.99133,420358
18.99947,401226
19.00758,369149
19.01570,344044
19.02383,317529
19.03195,310499
19.04008,302013
19.04820,290856
19.05632,286876
19.06445,288717
19.07257,281529
19.08070,273219
19.08882,278289
19.09693,302326
19.10507,327129
19.11318,353123
19.12130,380569
19.12943,381467
19.13755,372330
19.14568,343891
19.15380,320766
19.16192,300578
19.17005,294241
19.17817,280769
19.18630,266005
19.19442,277255
19.20253,267877
19.21067,257611
19.21878,245895
19.22692,255356
19.23503,255158
19.24315,266425
19.25128,260671
19.25940,254300
19.26752,254802
19.27565,252227
19.28377,253058
19.29190,249437
19.30002,246078
19.30813,272912
19.31627,271521
19.32438,269578
19.33252,269084
19.34063,253848
19.34875,257985
19.35688,266726
19.36500,306597
19.37313,368738
19.38125,477233
19.38937,575664
19.39750,621635
19.40562,588668
19.41373,508644
19.42187,429674
19.42998,366698
19.43812,331600
19.44623,297996
19.45435,282286
19.46248,279829
19.47060,270759
19.47873,257696
19.48685,264095
19.49497,262872
19.50310,277829
19.51122,291033
19.51935,323414
19.52747,358022
19.53558,400976
19.54372,429370
19.55183,447951
19.55995,415514
19.56808,382775
19.57620,350108
19.58433,308335
19.59245,279398
19.60057,253037
19.60870,245868
19.61682,222070
19.62495,230569
19.63307,224809
19.64118,235869
19.64932,251320
19.65743,317697
19.66555,432448
19.67368,621637
19.68180,845908
19.68993,1021236
19.69805,1149908
19.70617,1115265
19.71430,1008136
19.72242,867813
19.73055,741624
19.73867,633250
19.74678,536320
19.75492,469582
19.76303,405967
19.77117,354151
19.77928,333811
19.78740,332036
19.79553,362582
19.80365,417246
19.81177,457888
19.81990,506422
19.82802,506242
19.83615,463103
19.84427,414351
19.85238,356521
19.86052,303687
19.86863,287989
19.87677,284075
19.88488,325292
19.89300,424893
19.90113,590546
19.90925,747544
19.91737,844984
19.92550,877491
19.93362,803053
19.94175,666136
19.94987,533193
19.95798,442335
19.96612,381096
19.97423,349209
19.98237,319019
19.99048,293599
19.99860,290919
20.00673,270605
20.01485,275169
20.02298,270440
20.03110,270106
20.03922,266439
20.04735,253937
20.05547,263027
20.06358,263426
20.07172,263152
20.07983,312541
20.08797,347370
20.09608,408158
20.10420,430905
20.11233,437424
20.12045,403151
20.12858,360767
20.13670,318865
20.14482,292475
20.15295,273055
20.16107,306127
20.16920,375145
20.17732,529852
20.18543,788973
20.19357,1056579
20.20168,1344851
20.20980,1502684
20.21793,1523328
20.22605,1393751
20.23418,1156117
20.24230,923134
20.25042,791966
20.25855,773130
20.26667,841775
20.27480,1024717
20.28292,1253926
20.29103,1466282
20.29917,1642179
20.30728,1651890
20.31540,1488640
20.32353,1247012
20.33165,985645
20.33978,726010
20.34790,538124
20.35602,435286
20.36415,350113
20.37227,294920
20.38040,272032
20.38852,247290
20.39663,225347
20.40477,216835
20.41288,211290
20.42102,201244
20.42913,200083
20.43725,210512
20.44538,240732
20.45350,269279
20.46162,291496
20.46975,318010
20.47787,330392
20.48600,309980
20.49412,294594
20.50223,251998
20.51037,229572
20.51848,204719
20.52662,191821
20.53473,191644
20.54285,190834
20.55098,198873
20.55910,198770
20.56723,203016
20.57535,198788
20.58347,184415
20.59160,184103
20.59972,170994
20.60783,168264
20.61597,166600
20.62408,163412
20.63222,161416
20.64033,163916
20.64845,166157
20.65658,172419
20.66470,185441
20.67283,188344
20.68095,188164
20.68907,194404
20.69720,175395
20.70532,165895
20.71343,163369
20.72157,151633
20.72968,147730
20.73782,147196
20.74593,155928
20.75405,153565
20.76218,172608
20.77030,177634
20.77843,194228
20.78655,225401
20.79467,279677
20.80280,422911
20.81092,723897
20.81905,1176781
20.82717,1730610
20.83528,2151086
20.84342,2189400
20.85153,1843553
20.85965,1340066
20.86778,865481
20.87590,524910
20.88403,347265
20.89215,264280
20.90027,214300
20.90840,206647
20.91652,205714
20.92465,211988
20.93277,209090
20.94088,224608
20.94902,233525
20.95713,249486
20.96525,237818
20.97338,232833
20.98150,215252
20.98963,194839
20.99775,176099
21.00587,165470
21.01400,158564
21.02212,155784
21.03025,152936
21.03837,162810
21.04648,164044
21.05462,168034
21.06273,167316
21.07087,163148
21.07898,159929
21.08710,158126
21.09523,150096
21.10335,147933
21.11147,143372
21.11960,147650
21.12772,144372
21.13585,154920
21.14397,175417
21.15208,235694
21.16022,325846
21.16833,449045
21.17647,567335
21.18458,625319
21.19270,597853
21.20083,513752
21.20895,403235
21.21708,303489
21.22520,255260
21.23332,224271
21.24145,196270
21.24957,185924
21.25768,168688
21.26582,157628
21.27393,148419
21.28207,137181
21.29018,138957
21.29830,132218
21.30643,130769
21.31455,127196
21.32268,126316
21.33080,123643
21.33892,128431
21.34705,124083
21.35517,125660
21.36328,126154
21.37142,137546
21.37953,131759
21.38767,141031
21.39578,166236
21.40390,194940
21.41203,248817
21.42015,309035
21.42828,361060
21.43640,387293
21.44452,373651
21.45265,338055
21.46077,304101
21.46890,256603
21.47702,226462
21.48513,197585
21.49327,185093
21.50138,167375
21.50950,153903
21.51763,143123
21.52575,137934
21.53388,131127
21.54200,134810
21.55012,127769
21.55825,124507
21.56637,123983
21.57450,125528
21.58262,136551
21.59073,156737
21.59887,180335
21.60698,207290
21.61512,223699
21.62323,216971
21.63135,209964
21.63948,200590
21.64760,200144
21.65572,232131
21.66385,272238
21.67197,311131
21.68010,354024
21.68822,396994
21.69633,402227
21.70447,379272
21.71258,345881
21.72072,290965
21.72883,249433
21.73695,202643
21.74508,176625
21.75320,152352
21.76132,152971
21.76945,147175
21.77757,138176
21.78570,135900
21.79382,134654
21.80193,130233
21.81007,129995
21.81818,127204
21.82632,132041
21.83443,145907
21.84255,153458
21.85068,178918
21.85880,215292
21.86693,235223
21.87505,256063
21.88317,248305
21.89130,227194
21.89942,208908
21.90753,183474
21.91567,170523
21.92378,158356
21.93192,160346
21.94003,152182
21.94815,139158
21.95628,136566
21.96440,126158
21.97253,111299
21.98065,109332
21.98877,105193
21.99690,100846
22.00502,100994
22.01315,97204
22.02127,97950
22.02938,106411
22.03752,115069
22.04563,122915
22.05375,123745
22.06188,137682
22.07000,132895
22.07813,131884
22.08625,131551
22.09437,117468
22.10250,113912
22.11062,114400
22.11875,108037
22.12687,106280
22.13498,107279
22.14312,96502
22.15123,91010
22.15935,91092
22.16748,95514
22.17560,93096
22.18373,92652
22.19185,96131
22.19997,97190
22.20810,92209
22.21622,95796
22.22435,90278
22.23247,100186
22.24058,102338
22.24872,114784
22.25683,128202
22.26497,126439
22.27308,135542
22.28120,138491
22.28933,138943
22.29745,144306
22.30557,147586
22.31370,157004
22.32182,153821
22.32995,154472
22.33807,140246
22.34618,128614
22.35432,126361
22.36243,116606
22.37057,117844
22.37868,108086
22.38680,116530
22.39493,125464
22.40305,169494
22.41117,244842
22.41930,369650
22.42742,499944
22.43555,615377
22.44367,682067
22.45178,623294
22.45992,524769
22.46803,391959
22.47617,288733
22.48428,238601
22.49240,208197
22.50053,222896
22.50865,248947
22.51678,282454
22.52490,307067
22.53302,317950
22.54115,301859
22.54927,273633
22.55738,243266
22.56552,205726
22.57363,178872
22.58177,154109
22.58988,142936
22.59800,140391
22.60613,121136
22.61425,109516
22.62238,103710
22.63050,100310
22.63862,97143
22.64675,100854
22.65487,101894
22.66300,105890
22.67112,118657
22.67923,118530
22.68737,122773
22.69548,134062
22.70360,157796
22.71173,214307
22.71985,262861
22.72798,330050
22.73610,372034
22.74422,365320
22.75235,332254
22.76047,284682
22.76860,229173
22.77672,206420
22.78483,207390
22.79297,238576
22.80108,306623
22.80920,424331
22.81733,562120
22.82545,671258
22.83358,702478
22.84170,646334
22.84982,565557
22.85795,424322
22.86607,341450
22.87420,286403
22.88232,276163
22.89043,276935
22.89857,307758
22.90668,325460
22.91482,338289
22.92293,378267
22.93105,420248
22.93918,463989
22.94730,514079
22.95542,519684
22.96355,471329
22.97167,395938
22.97980,305901
22.98792,231091
22.99603,185039
23.00417,161162
23.01228,137947
23.02042,130387
23.02853,121120
23.03665,107233
23.04478,106083
23.05290,99197
23.06103,106149
23.06915,108169
23.07727,111984
23.08540,121410
23.09352,127442
23.10163,122595
23.10977,123745
23.11788,112999
23.12602,106501
23.13413,99907
23.14225,101512
23.15038,101217
23.15850,107085
23.16663,104168
23.17475,105319
23.18287,99219
23.19100,93029
23.19912,85987
23.20723,89175
23.21537,78469
23.22348,81867
23.23162,82792
23.23973,79868
23.24785,86029
23.25598,97453
23.26410,121284
23.27223,153190
23.28035,183946
23.28847,200869
23.29660,191914
23.30472,174425
23.31285,148341
23.32097,131767
23.32908,110957
23.33722,115185
23.34533,132774
23.35345,177144
23.36158,232635
23.36970,315943
23.37783,394744
23.38595,427628
23.39407,437047
23.40220,392109
23.41032,325807
23.41845,253198
23.42657,203086
23.43468,168239
23.44282,142151
23.45093,134979
23.45905,126129
23.46718,114169
23.47530,113447
23.48343,105712
23.49155,102386
23.49967,101011
23.50780,100532
23.51592,93131
23.52405,95303
23.53217,91776
23.54028,93382
23.54842,102540
23.55653,107834
23.56467,116839
23.57278,123325
23.58090,158068
23.58903,195995
23.59715,241776
23.60527,302003
23.61340,358158
23.62152,397809
23.62965,379936
23.63777,327474
23.64588,263900
23.65402,199993
23.66213,161698
23.67027,145869
23.67838,132690
23.68650,136311
23.69463,129442
23.70275,116975
23.71088,112723
23.71900,99798
23.72712,99251
23.73525,90726
23.74337,89082
23.75148,86676
23.75962,91719
23.76773,134783
23.77587,244012
23.78398,520347
23.79210,1087265
23.80023,1850231
23.80835,2495310
23.81648,2756188
23.82460,2766740
23.83272,2279474
23.84085,1781941
23.84897,1274840
23.85710,935775
23.86522,711472
23.87333,561576
23.88147,480945
23.88958,424730
23.89770,385706
23.90583,381021
23.91395,385406
23.92208,434720
23.93020,486979
23.93832,523207
23.94645,506380
23.95457,440582
23.96270,380210
23.97082,310078
23.97893,256245
23.98707,232461
23.99518,203898
24.00330,183754
24.01143,194518
24.01955,190545
24.02768,205364
24.03580,227870
24.04392,266345
24.05205,310623
24.06017,308951
24.06830,275729
24.07642,231527
24.08453,192222
24.09267,167563
24.10078,147901
24.10892,136608
24.11703,135623
24.12515,133345
24.13328,133478
24.14140,138434
24.14952,152081
24.15765,180275
24.16577,204104
24.17390,221677
24.18202,235523
24.19013,230638
24.19827,236186
24.20638,236640
24.21452,231589
24.22263,206528
24.23075,214148
24.23888,207844
24.24700,189239
24.25512,185990
24.26325,175140
24.27137,166556
24.27950,155616
24.28762,138145
24.29573,132721
24.30387,137494
24.31198,130841
24.32012,138895
24.32823,137645
24.33635,144286
24.34448,145986
24.35260,152268
24.36073,146738
24.36885,130327
24.37697,122037
24.38510,117041
24.39322,117706
24.40133,119279
24.40947,127053
24.41758,144591
24.42572,158974
24.43383,170657
24.44195,185647
24.45008,169469
24.45820,147934
24.46633,133876
24.47445,127395
24.48257,120497
24.49070,121623
24.49882,120251
24.50695,119784
24.51507,131106
24.52318,130157
24.53132,139064
24.53943,174866
24.54755,195714
24.55568,224337
24.56380,258312
24.57193,274496
24.58005,291748
24.58817,285665
24.59630,261188
24.60442,231615
24.61255,207771
24.62067,196001
24.62878,168243
24.63692,148532
24.64503,136963
24.65315,127244
24.66128,109931
24.66940,113906
24.67753,113427
24.68565,128250
24.69377,118123
24.70190,120004
24.71002,128017
24.71815,118408
24.72627,122938
24.73438,128443
24.74252,135501
24.75063,130172
24.75877,134666
24.76688,136912
24.77500,145902
24.78313,154684
24.79125,181117
24.79937,194011
24.80750,205234
24.81562,205941
24.82375,200301
24.83187,197939
24.83998,211395
24.84812,262384
24.85623,350550
24.86437,498231
24.87248,719936
24.88060,1041396
24.88873,1571827
24.89685,2241859
24.90498,2889273
24.91310,3246629
24.92122,3100148
24.92935,2624818
24.93747,1892702
24.94558,1223438
24.95372,744775
24.96183,439961
24.96997,293015
24.97808,221455
24.98620,169449
24.99433,159600
25.00245,142430
25.01058,132378
25.01870,127364
25.02682,125987
25.03495,123717
25.04307,122212
25.05118,122206
25.05932,127522
25.06743,125501
25.07557,119925
25.08368,122502
25.09180,125503
25.09993,152910
25.10805,204967
25.11618,398814
25.12430,966032
25.13242,2313353
25.14055,4788645
25.14867,8186660
25.15680,1.195305E+07
25.16492,1.468111E+07
25.17303,1.535032E+07
25.18117,1.334172E+07
25.18928,1.003267E+07
25.19740,6457393
25.20553,3565690
25.21365,1960087
25.22178,1046004
25.22990,573086
25.23802,386943
25.24615,304643
25.25427,314215
25.26240,399544
25.27052,542847
25.27863,673702
25.28677,792018
25.29488,804792
25.30300,727897
25.31113,591554
25.31925,446480
25.32738,325668
25.33550,238656
25.34362,179860
25.35175,150266
25.35987,132029
25.36800,122429
25.37612,111985
25.38423,104495
25.39237,103114
25.40048,100210
25.40862,97954
25.41673,99364
25.42485,94020
25.43298,93342
25.44110,89094
25.44922,92792
25.45735,88153
25.46547,88057
25.47360,93320
25.48172,94127
25.48983,89760
25.49797,94093
25.50608,103562
25.51422,104598
25.52233,103416
25.53045,96428
25.53858,98551
25.54670,94623
25.55483,95097
25.56295,100542
25.57107,124095
25.57920,137878
25.58732,135514
25.59543,107950
25.60357,104057
25.61168,99456
25.61982,96675
25.62793,92256
25.63605,91856
25.64418,89531
25.65230,87712
25.66043,84977
25.66855,79409
25.67667,84671
25.68480,87594
25.69292,88772
25.70103,91313
25.70917,94103
25.71728,96597
25.72542,109935
25.73353,102495
25.74165,98288
25.74978,93661
25.75790,91189
25.76603,89240
25.77415,87521
25.78227,80474
25.79040,74769
25.79852,78739
25.80665,80268
25.81477,76018
25.82288,83343
25.83102,82463
25.83913,78882
25.84725,79711
25.85538,80171
25.86350,83929
25.87163,81592
25.87975,78472
25.88787,76764
25.89600,79273
25.90412,77196
25.91225,80025
25.92037,77692
25.92848,77616
25.93662,85680
25.94473,86011
25.95287,86936
25.96098,96002
25.96910,130169
25.97723,183251
25.98535,249592
25.99347,324852
26.00160,366315
26.00972,372736
26.01785,372141
26.02597,373599
26.03408,383309
26.04222,397368
26.05033,383558
26.05847,385780
26.06658,391832
26.07470,403548
26.08283,408350
26.09095,411691
26.09907,413297
26.10720,429210
26.11532,422386
26.12345,429903
26.13157,421715
26.13968,406604
26.14782,406423
26.15593,425840
26.16407,423736
26.17218,430926
26.18030,425278
26.18843,423532
26.19655,423977
26.20468,425515
26.21280,417682
26.22092,404159
26.22905,399869
26.23717,401388
26.24528,395919
26.25342,399385
26.26153,395364
26.26967,376741
26.27778,372077
26.28590,365811
26.29403,368091
26.30215,370391
26.31028,363982
26.31840,364157
26.32652,356769
26.33465,350084
26.34277,346120
26.35090,340488
26.35902,374689
26.36713,394011
26.37527,489565
26.38338,626118
26.39150,831187
26.39963,1127927
26.40775,1372017
26.41588,1501334
26.42400,1519580
26.43212,1379280
26.44025,1154671
26.44837,900557
26.45650,701481
26.46462,550207
26.47273,456763
26.48087,425286
26.48898,380395
26.49710,372634
26.50523,367778
26.51335,354756
26.52148,338722
26.52960,336772
26.53772,306660
26.54585,302749
26.55397,299684
26.56210,291737
26.57022,297471
26.57833,297475
26.58647,292323
26.59458,283240
26.60272,287517
26.61083,281361
26.61895,287377
26.62708,282654
26.63520,278109
26.64332,276595
26.65145,269808
26.65957,270872
26.66770,272879
26.67582,272845
26.68393,286011
26.69207,264615
26.70018,260015
26.70832,268342
26.71643,264899
26.72455,259388
26.73268,264964
26.74080,257381
26.74892,252895
26.75705,255109
26.76517,252757
26.77330,257894
26.78142,255812
26.78953,247576
26.79767,254179
26.80578,256048
26.81392,255637
26.82203,272154
26.83015,266718
26.83828,257281
26.84640,253032
26.85453,255223
26.86265,250725
26.87077,244869
26.87890,239030
26.88702,249476
26.89513,249548
26.90327,239898
26.91138,242998
26.91952,237000
26.92763,232134
26.93575,226830
26.94388,214341
26.95200,226060
26.96013,226249
26.96825,223900
26.97637,240484
26.98450,266102
26.99262,327441
27.00075,472516
27.00887,732600
27.01698,1084452
27.02512,1604321
27.03323,2063985
27.04135,2314750
27.04948,2226404
27.05760,1893913
27.06573,1507795
27.07385,1201841
27.08197,907789
27.09010,722064
27.09822,609682
27.10635,528604
27.11447,477309
27.12258,449357
27.13072,423582
27.13883,408146
27.14695,409527
27.15508,384247
27.16320,388418
27.17133,385984
27.17945,385680
27.18757,405853
27.19570,458096
27.20382,487272
27.21195,490364
27.22007,463128
27.22818,428855
27.23632,377369
27.24443,342369
27.25257,317052
27.26068,298835
27.26880,276636
27.27693,266939
27.28505,255167
27.29317,245889
27.30130,232575
27.30942,226907
27.31755,232752
27.32567,231999
27.33378,228776
27.34192,233147
27.35003,228985
27.35817,225885
27.36628,227404
27.37440,223819
27.38253,235562
27.39065,228141
27.39878,234578
27.40690,224654
27.41502,214981
27.42315,202113
27.43127,200054
27.43938,202401
27.44752,200494
27.45563,197859
27.46377,203143
27.47188,196848
27.48000,187898
27.48813,188689
27.49625,176731
27.50438,182477
27.51250,177584
27.52062,169767
27.52875,175593
27.53687,176212
27.54498,179073
27.55312,180120
27.56123,185690
27.56937,174919
27.57748,192205
27.58560,196846
27.59373,236563
27.60185,281140
27.60998,312661
27.61810,352181
27.62622,332916
27.63435,305273
27.64247,276052
27.65060,241581
27.65872,210050
27.66683,192674
27.67497,181419
27.68308,180765
27.69120,176099
27.69933,184277
27.70745,183357
27.71558,183251
27.72370,172062
27.73182,171656
27.73995,162924
27.74807,151469
27.75620,146445
27.76432,140638
27.77243,142777
27.78057,148001
27.78868,148444
27.79680,159187
27.80493,170065
27.81305,170757
27.82118,168863
27.82930,158042
27.83742,155212
27.84555,139953
27.85367,137145
27.86180,136405
27.86992,130842
27.87803,124080
27.88617,127751
27.89428,133733
27.90242,123847
27.91053,127395
27.91865,125220
27.92678,128858
27.93490,122820
27.94302,128219
27.95115,118810
27.95927,111258
27.96740,117495
27.97552,116406
27.98363,117872
27.99177,112048
27.99988,120614
28.00802,121482
28.01613,123618
28.02425,133185
28.03238,143514
28.04050,160038
28.04863,184719
28.05675,209631
28.06487,231790
28.07300,249932
28.08112,230836
28.08923,199164
28.09737,181014
28.10548,151430
28.11362,133074
28.12173,124970
28.12985,120808
28.13798,114577
28.14610,111510
28.15423,115865
28.16235,115399
28.17047,115823
28.17860,115464
28.18672,114684
28.19483,120451
28.20297,141595
28.21108,176069
28.21922,222263
28.22733,280456
28.23545,306558
28.24358,343301
28.25170,333304
28.25983,303238
28.26795,255746
28.27607,214512
28.28420,165509
28.29232,138375
28.30045,137550
28.30857,133991
28.31668,152058
28.32482,171711
28.33293,207067
28.34105,221905
28.34918,255001
28.35730,264458
28.36543,290995
28.37355,315554
28.38167,326470
28.38980,371337
28.39792,370762
28.40605,366138
28.41417,374552
28.42228,378382
28.43042,343609
28.43853,320957
28.44667,278965
28.45478,253462
28.46290,231821
28.47103,208333
28.47915,199835
28.48727,184558
28.49540,175945
28.50352,182819
28.51165,185913
28.51977,188542
28.52788,188573
28.53602,183649
28.54413,177484
28.55227,157683
28.56038,144363
28.56850,132251
28.57663,137816
28.58475,129454
28.59287,123406
28.60100,126960
28.60912,124621
28.61725,126647
28.62537,130707
28.63348,131476
28.64162,136792
28.64973,144738
28.65787,150352
28.66598,145382
28.67410,141083
28.68223,151710
28.69035,142435
28.69848,129466
28.70660,127138
28.71472,125015
28.72285,120793
28.73097,106482
28.73908,109670
28.74722,107141
28.75533,106414
28.76347,104148
28.77158,105281
28.77970,111356
28.78783,117812
28.79595,127891
28.80408,141743
28.81220,163273
28.82032,169872
28.82845,188418
28.83657,179770
28.84468,170642
28.85282,156678
28.86093,139504
28.86907,135473
28.87718,132115
28.88530,142174
28.89343,148541
28.90155,178911
28.90968,202671
28.91780,221495
28.92592,226108
28.93405,205683
28.94217,179028
28.95030,150378
28.95842,133268
28.96653,119378
28.97467,126116
28.98278,114200
28.99090,112391
28.99903,106108
29.00715,98717
29.01528,99841
29.02340,93324
29.03152,101518
29.03965,99411
29.04777,99771
29.05590,98237
29.06402,100226
29.07213,92433
29.08027,101702
29.08838,106715
29.09652,114055
29.10463,113701
29.11275,121531
29.12088,120663
29.12900,115251
29.13712,101893
29.14525,102055
29.15337,96657
29.16150,95331
29.16962,97525
29.17773,95420
29.18587,97099
29.19398,110172
29.20212,128269
29.21023,179868
29.21835,236883
29.22648,307875
29.23460,342325
29.24273,341663
29.25085,319057
29.25897,281076
29.26710,237078
29.27522,203477
29.28333,176825
29.29147,153596
29.29958,132091
29.30772,115031
29.31583,110479
29.32395,97175
29.33208,94218
29.34020,93278
29.34833,92957
29.35645,88068
29.36457,87014
29.37270,86045
29.38082,87103
29.38893,86009
29.39707,86404
29.40518,86835
29.41332,88078
29.42143,90475
29.42955,97777
29.43768,99454
29.44580,103046
29.45393,102200
29.46205,95835
29.47017,93316
29.47830,90111
29.48642,87011
29.49455,88915
29.50267,89774
29.51078,99347
29.51892,99893
29.52703,107497
29.53515,107963
29.54328,103663
29.55140,95780
29.55953,99688
29.56765,94007
29.57577,96307
29.58390,89588
29.59202,86346
29.60015,85903
29.60827,85262
29.61638,83374
29.62452,86262
29.63263,83097
29.64075,84620
29.64888,81957
29.65700,89444
29.66513,84006
29.67325,86676
29.68137,88018
29.68950,92824
29.69762,104349
29.70575,114690
29.71387,124299
29.72198,125136
29.73012,118671
29.73823,107696
29.74637,108125
29.75448,94837
29.76260,91983
29.77073,88233
29.77885,84872
29.78697,84201
29.79510,80483
29.80322,82205
29.81135,79027
29.81947,77966
29.82758,73388
29.83572,76967
29.84383,76945
29.85197,76268
29.86008,79129
29.86820,81350
29.87633,86581
29.88445,96281
29.89258,119824
29.90070,160068
29.90882,199089
29.91695,246604
29.92507,243590
29.93318,232317
29.94132,189702
29.94943,146126
29.95757,120182
29.96568,109834
29.97380,100098
29.98193,89258
29.99005,100622
29.99818,107928
30.00630,117268
30.01442,131833
30.02255,147387
30.03067,157612
30.03878,176385
30.04692,190056
30.05503,194630
30.06317,199348
30.07128,197253
30.07940,193166
30.08753,188092
30.09565,187080
30.10378,175026
30.11190,165548
30.12002,159137
30.12815,154524
30.13627,144514
30.14440,147010
30.15252,133940
30.16063,128060
30.16877,123499
30.17688,123114
30.18500,126323
30.19313,127938
30.20125,122704
30.20938,122056
30.21750,136614
30.22562,128336
30.23375,122070
30.24187,120073
30.25000,108890
30.25812,115882
30.26623,97835
30.27437,100988
30.28248,95458
30.29062,99442
30.29873,95924
30.30685,88864
30.31498,92227
30.32310,87928
30.33122,88138
30.33935,89328
30.34747,91418
30.35560,87257
30.36372,95500
30.37183,94004
30.37997,94693
30.38808,90723
30.39622,97994
30.40433,86805
30.41245,86011
30.42058,82871
30.42870,78287
30.43682,82279
30.44495,82018
30.45307,80775
30.46120,78227
30.46932,78196
30.47743,77968
30.48557,82554
30.49368,81848
30.50182,78479
30.50993,88050
30.51805,84745
30.52618,91076
30.53430,80943
30.54243,86488
30.55055,84932
30.55867,84205
30.56680,84836
30.57492,87642
30.58303,89252
30.59117,89775
30.59928,83869
30.60742,82947
30.61553,89101
30.62365,91743
30.63178,81846
30.63990,75371
30.64803,86849
30.65615,80371
30.66427,79883
30.67240,77951
30.68052,78190
30.68863,80063
30.69677,73836
30.70488,70982
30.71302,72844
30.72113,70886
30.72925,76182
30.73738,76001
30.74550,77362
30.75363,75535
30.76175,76315
30.76987,78100
30.77800,78336
30.78612,87956
30.79425,110961
30.80237,151389
30.81048,216366
30.81862,290128
30.82673,379627
30.83485,374026
30.84298,330205
30.85110,274702
30.85923,216602
30.86735,153672
30.87547,123447
30.88360,113641
30.89172,104733
30.89985,100267
30.90797,101763
30.91608,100067
30.92422,90775
30.93233,86510
30.94047,83763
30.94858,83472
30.95670,79647
30.96483,87940
30.97295,86813
30.98107,85944
30.98920,92531
30.99732,84902
31.00545,82976
31.01357,82849
31.02168,84379
31.02982,82759
31.03793,77107
31.04607,73874
31.05418,78955
31.06230,79860
31.07043,82303
31.07855,84686
31.08667,80708
31.09480,79953
31.10292,99748
31.11105,110757
31.11917,129741
31.12728,140538
31.13542,140139
31.14353,141209
31.15167,122338
31.15978,121604
31.16790,120535
31.17603,117780
31.18415,134208
31.19228,135107
31.20040,149690
31.20852,183641
31.21665,240125
31.22477,299916
31.23288,382314
31.24102,445833
31.24913,451721
31.25727,405842
31.26538,307759
31.27350,235225
31.28163,170235
31.28975,129028
31.29788,112050
31.30600,97706
31.31412,95475
31.32225,100503
31.33037,103261
31.33850,112372
31.34662,118400
31.35473,128210
31.36287,118984
31.37098,119197
31.37910,115387
31.38723,101777
31.39535,91398
31.40348,84846
31.41160,74198
31.41972,80284
31.42785,78138
31.43597,81262
31.44410,79776
31.45222,82814
31.46033,81369
31.46847,78378
31.47658,78932
31.48470,79255
31.49283,76427
31.50095,83149
31.50908,87445
31.51720,92186
31.52532,104147
31.53345,97436
31.54157,112340
31.54970,104448
31.55782,107554
31.56593,104671
31.57407,96292
31.58218,95582
31.59032,89499
31.59843,91148
31.60655,81531
31.61468,84844
31.62280,80031
31.63092,80081
31.63905,77380
31.64717,77955
31.65530,85218
31.66342,89800
31.67153,107357
31.67967,111355
31.68778,133300
31.69592,136546
31.70403,133584
31.71215,125972
31.72028,106969
31.72840,106830
31.73652,91269
31.74465,91402
31.75277,83087
31.76090,71950
31.76902,70788
31.77713,77209
31.78527,75689
31.79338,72685
31.80152,77879
31.80963,79057
31.81775,80403
31.82588,84032
31.83400,80836
31.84213,82573
31.85025,76599
31.85837,80043
31.86650,81652
31.87462,86331
31.88273,91565
31.89087,83669
31.89898,87245
31.90712,79356
31.91523,79244
31.92335,81516
31.93148,79164
31.93960,82982
31.94773,84637
31.95585,92818
31.96397,104126
31.97210,109375
31.98022,127383
31.98835,143890
31.99647,153922
32.00458,163041
32.01272,176579
32.02083,176707
32.02895,174771
32.03708,169565
32.04520,164062
32.05333,152234
32.06145,134998
32.06957,124660
32.07770,113762
32.08582,108826
32.09395,110157
32.10207,109813
32.11018,109114
32.11832,104499
32.12643,100844
32.13455,96424
32.14268,94402
32.15080,90729
32.15893,83033
32.16705,80663
32.17517,88957
32.18330,77092
32.19142,80144
32.19955,79810
32.20767,87989
32.21578,81137
32.22392,79570
32.23203,81051
32.24017,81703
32.24828,73380
32.25640,75332
32.26453,73028
32.27265,80678
32.28077,88491
32.28890,84924
32.29702,82259
32.30515,78136
32.31327,81439
32.32138,86147
32.32952,83994
32.33763,80993
32.34577,82758
32.35388,77892
32.36200,79714
32.37013,74290
32.37825,74897
32.38638,82919
32.39450,81171
32.40262,80390
32.41075,72620
32.41887,77449
32.42698,71421
32.43512,77669
32.44323,76616
32.45137,72406
32.45948,69645
32.46760,69661
32.47573,74420
32.48385,68181
32.49198,72436
32.50010,69309
32.50822,69154
32.51635,69619
32.52447,73252
32.53258,72937
32.54072,74513
32.54883,76665
32.55697,75418
32.56508,77525
32.57320,74396
32.58133,77683
32.58945,75003
32.59758,71344
32.60570,71309
32.61382,70471
32.62195,73942
32.63007,75719
32.63820,71004
32.64632,68910
32.65443,66684
32.66257,77538
32.67068,70606
32.67880,79323
32.68693,80034
32.69505,93018
32.70318,91283
32.71130,93442
32.71942,88030
32.72755,93493
32.73567,84470
32.74380,76479
32.75192,76018
32.76003,74431
32.76817,77979
32.77628,78281
32.78442,72413
32.79253,72522
32.80065,68478
32.80878,68574
32.81690,74801
32.82502,66546
32.83315,74345
32.84127,80249
32.84940,75337
32.85752,73138
32.86563,75165
32.87377,76659
32.88188,80462
32.89002,76460
32.89813,81531
32.90625,83046
32.91438,98991
32.92250,96451
32.93062,100719
32.93875,97551
32.94687,93319
32.95500,83288
32.96312,77025
32.97123,75383
32.97937,80169
32.98748,93801
32.99562,117683
33.00373,147728
33.01185,189475
33.01998,225446
33.02810,238647
33.03623,228464
33.04435,194955
33.05247,160556
33.06060,140054
33.06872,139050
33.07683,145165
33.08497,161665
33.09308,169662
33.10122,190586
33.10933,210467
33.11745,229215
33.12558,242857
33.13370,238878
33.14183,220514
33.14995,195553
33.15807,165561
33.16620,152499
33.17432,140601
33.18243,126785
33.19057,118280
33.19868,109665
33.20682,97613
33.21493,94863
33.22305,91719
33.23118,89190
33.23930,94175
33.24743,96504
33.25555,104183
33.26367,95297
33.27180,94565
33.27992,92868
33.28805,84294
33.29617,82968
33.30428,82178
33.31242,75667
33.32053,83385
33.32865,83892
33.33678,85525
33.34490,82542
33.35303,89510
33.36115,102498
33.36927,113496
33.37740,112776
33.38552,115297
33.39365,113560
33.40177,103412
33.40988,101532
33.41802,90871
33.42613,82639
33.43427,75615
33.44238,75930
33.45050,73641
33.45863,75253
33.46675,72208
33.47487,73934
33.48300,71181
33.49112,68454
33.49925,79247
33.50737,78133
33.51548,80590
33.52362,85631
33.53173,94980
33.53987,95043
33.54798,101508
33.55610,115741
33.56423,122926
33.57235,129830
33.58047,138781
33.58860,138032
33.59672,122889
33.60485,112926
33.61297,99816
33.62108,79426
33.62922,80958
33.63733,80725
33.64547,78533
33.65358,83199
33.66170,84130
33.66983,88819
33.67795,94716
33.68608,96499
33.69420,91767
33.70232,90534
33.71045,76577
33.71857,80028
33.72668,79120
33.73482,73904
33.74293,71269
33.75107,74908
33.75918,72965
33.76730,73459
33.77543,72803
33.78355,71042
33.79168,72125
33.79980,69121
33.80792,71357
33.81605,70440
33.82417,68200
33.83230,71240
33.84042,69439
33.84853,71259
33.85667,69456
33.86478,72697
33.87290,74141
33.88103,77549
33.88915,77633
33.89728,77024
33.90540,81506
33.91352,80587
33.92165,79495
33.92977,75819
33.93790,82904
33.94602,73477
33.95413,78940
33.96227,79466
33.97038,74028
33.97850,71299
33.98663,73231
33.99475,70043
34.00288,69855
34.01100,72365
34.01912,70502
34.02725,73423
34.03537,67834
34.04350,69651
34.05162,68464
34.05973,73339
34.06787,72032
34.07598,72945
34.08412,70774
34.09223,72484
34.10035,70555
34.10848,70996
34.11660,67082
34.12472,69503
34.13285,72932
34.14097,76123
34.14910,76395
34.15722,77827
34.16533,71741
34.17347,77137
34.18158,68747
34.18972,72195
34.19783,73328
34.20595,67220
34.21408,68274
34.22220,80079
34.23032,73294
34.23845,73539
34.24657,69525
34.25470,72893
34.26282,70112
34.27093,69822
34.27907,68728
34.28718,66530
34.29532,66552
34.30343,71546
34.31155,67354
34.31968,68692
34.32780,66391
34.33593,69066
34.34405,69899
34.35217,70986
34.36030,69862
34.36842,72777
34.37653,68927
34.38467,69555
34.39278,74213
34.40092,68105
34.40903,70904
34.41715,69082
34.42528,68477
34.43340,74759
34.44153,71118
34.44965,68143
34.45777,71974
34.46590,68310
34.47402,73994
34.48215,67796
34.49027,71441
34.49838,70218
34.50652,69985
34.51463,70385
34.52275,71480
34.53088,67215
34.53900,75168
34.54713,78433
34.55525,83659
34.56337,101458
34.57150,111111
34.57962,126022
34.58775,130573
34.59587,128376
34.60398,128997
34.61212,122117
34.62023,119753
34.62837,104238
34.63648,99118
34.64460,91012
34.65273,94828
34.66085,90463
34.66897,86376
34.67710,90712
34.68522,82345
34.69335,82434
34.70147,81315
34.70958,81376
34.71772,79142
34.72583,80187
34.73397,73411
34.74208,77456
34.75020,84708
34.75833,79462
34.76645,81946
34.77457,86284
34.78270,83151
34.79082,88669
34.79895,90221
34.80707,89219
34.81518,87764
34.82332,84956
34.83143,82241
34.83957,79685
34.84768,75125
34.85580,77125
34.86393,77280
34.87205,74674
34.88018,79238
34.88830,80240
34.89642,72354
34.90455,76186
34.91267,73062
34.92078,77162
34.92892,77327
34.93703,75990
34.94517,77646
34.95328,75600
34.96140,79923
34.96953,85502
34.97765,91084
34.98578,100636
34.99390,101256
35.00202,100743
35.01015,93589
35.01827,89672
35.02638,81193
35.03452,81749
35.04263,82896
35.05077,73333
35.05888,80473
35.06700,75347
35.07513,79797
35.08325,72498
35.09138,73446
35.09950,82084
35.10762,70271
35.11575,73309
35.12387,71651
35.13200,81751
35.14012,75012
35.14823,76752
35.15637,76128
35.16448,82259
35.17260,88343
35.18073,87845
35.18885,90962
35.19698,85198
35.20510,84955
35.21322,81612
35.22135,81746
35.22947,72818
35.23760,82078
35.24572,78285
35.25383,79444
35.26197,79120
35.27008,76237
35.27822,77689
35.28633,80548
35.29445,78113
35.30258,76731
35.31070,76371
35.31882,77435
35.32695,79449
35.33507,79298
35.34320,74780
35.35132,73272
35.35943,72173
35.36757,73363
35.37568,73233
35.38382,78031
35.39193,78661
35.40005,75963
35.40818,78134
35.41630,83803
35.42442,86096
35.43255,92271
35.44067,94775
35.44880,92564
35.45692,97991
35.46503,97257
35.47317,88729
35.48128,89336
35.48942,92393
35.49753,86990
35.50565,92597
35.51378,91455
35.52190,84852
35.53003,86506
35.53815,79723
35.54627,81197
35.55440,79289
35.56252,76487
35.57063,82264
35.57877,74418
35.58688,75999
35.59502,74618
35.60313,72728
35.61125,80208
35.61938,79459
35.62750,76397
35.63563,76963
35.64375,77782
35.65187,76592
35.66000,75655
35.66812,77456
35.67625,76305
35.68437,76330
35.69248,81012
35.70062,81049
35.70873,78376
35.71685,84830
35.72498,84324
35.73310,95978
35.74123,88536
35.74935,96806
35.75747,98297
35.76560,111271
35.77372,121050
35.78185,142483
35.78997,143687
35.79808,135967
35.80622,137788
35.81433,122409
35.82245,106770
35.83058,97006
35.83870,89092
35.84683,84002
35.85495,83420
35.86307,79995
35.87120,79723
35.87932,83309
35.88745,83120
35.89557,80709
35.90368,76980
35.91182,79007
35.91993,81297
35.92807,79086
35.93618,79542
35.94430,77807
35.95243,83599
35.96055,81736
35.96867,78444
35.97680,74601
35.98492,75464
35.99305,81846
36.00117,78957
36.00928,77795
36.01742,79358
36.02553,79795
36.03367,79924
36.04178,79764
36.04990,85841
36.05803,79011
36.06615,80337
36.07427,83956
36.08240,80202
36.09052,82947
36.09865,79781
36.10677,85332
36.11488,79376
36.12302,82225
36.13113,82131
36.13927,93431
36.14738,85563
36.15550,94810
36.16363,105416
36.17175,105220
36.17988,104614
36.18800,94253
36.19612,88359
36.20425,88973
36.21237,84327
36.22048,79423
36.22862,82764
36.23673,82219
36.24487,79853
36.25298,88142
36.26110,81850
36.26923,78585
36.27735,77862
36.28548,81828
36.29360,78543
36.30172,74015
36.30985,80853
36.31797,85266
36.32610,86798
36.33422,87861
36.34233,93646
36.35047,92782
36.35858,95580
36.36670,90057
36.37483,92913
36.38295,90555
36.39108,88568
36.39920,89844
36.40732,89592
36.41545,96103
36.42357,91451
36.43170,94210
36.43982,95620
36.44793,93589
36.45607,92920
36.46418,98858
36.47230,89990
36.48043,86469
36.48855,85826
36.49668,78368
36.50480,75237
36.51292,77134
36.52105,80048
36.52917,79313
36.53730,78345
36.54542,83216
36.55353,85007
36.56167,81684
36.56978,77628
36.57792,80777
36.58603,83008
36.59415,84917
36.60228,78126
36.61040,77670
36.61852,79696
36.62665,83148
36.63477,78963
36.64290,80826
36.65102,79054
36.65913,81346
36.66727,83873
36.67538,87379
36.68352,78680
36.69163,84109
36.69975,79538
36.70788,80272
36.71600,83360
36.72413,83096
36.73225,87584
36.74037,92150
36.74850,90377
36.75662,86954
36.76473,86606
36.77287,91973
36.78098,80533
36.78912,85992
36.79723,79233
36.80535,83281
36.81348,76916
36.82160,81876
36.82973,77866
36.83785,81262
36.84597,79411
36.85410,83405
36.86222,78901
36.87033,82422
36.87847,80702
36.88658,75193
36.89472,79723
36.90283,73616
36.91095,73894
36.91908,77415
36.92720,78615
36.93533,77885
36.94345,83792
36.95157,92731
36.95970,107823
36.96782,145181
36.97595,178982
36.98407,197944
36.99218,221735
37.00032,222758
37.00843,201193
37.01655,164098
37.02468,127131
37.03280,117539
37.04093,102322
37.04905,106273
37.05717,88402
37.06530,88581
37.07342,92775
37.08155,95637
37.08967,97241
37.09778,102401
37.10592,101053
37.11403,97619
37.12217,101162
37.13028,97681
37.13840,92158
37.14653,96529
37.15465,89806
37.16277,88827
37.17090,82014
37.17902,83805
37.18715,82361
37.19527,83406
37.20338,87106
37.21152,90748
37.21963,89247
37.22777,90798
37.23588,90255
37.24400,98111
37.25213,90301
37.26025,94738
37.26837,85629
37.27650,88357
37.28462,87709
37.29275,82880
37.30087,89878
37.30898,91287
37.31712,88729
37.32523,87197
37.33337,89129
37.34148,90907
37.34960,92852
37.35773,98687
37.36585,98087
37.37398,90585
37.38210,99430
37.39022,104886
37.39835,105230
37.40647,105349
37.41458,106083
37.42272,102570
37.43083,104610
37.43897,109069
37.44708,121358
37.45520,103311
37.46333,110606
37.47145,107228
37.47958,105378
37.48770,99436
