Z:\data\JTB-E02\BACandBLUE\JTB-E02-197-08.D Thu Feb 21 11:17:20 2019
Start of data points
2.09520	88232
2.10332	83639
2.11143	82145
2.11957	75919
2.12768	75058
2.13580	74654
2.14393	74774
2.15205	76326
2.16018	73983
2.16830	70838
2.17642	70814
2.18455	68114
2.19267	65614
2.20080	64886
2.20892	65026
2.21703	62794
2.22517	60982
2.23328	62721
2.24142	68421
2.24953	63565
2.25765	104812
2.26578	661842
2.27390	1710341
2.28202	2039332
2.29015	1418000
2.29827	763267
2.30640	535659
2.31452	442676
2.32263	390844
2.33077	338455
2.33888	310289
2.34702	267758
2.35513	242030
2.36325	222451
2.37138	220251
2.37950	204373
2.38762	200965
2.39575	183344
2.40387	192074
2.41200	184510
2.42012	180725
2.42823	182064
2.43637	171059
2.44448	160743
2.45262	161710
2.46073	152488
2.46885	138483
2.47698	134252
2.48510	128858
2.49323	133598
2.50135	128452
2.50947	125158
2.51760	121630
2.52572	130779
2.53383	120123
2.54197	124384
2.55008	129627
2.55822	127076
2.56633	122229
2.57445	111668
2.58258	107198
2.59070	102864
2.59883	100596
2.60695	102096
2.61507	111104
2.62320	117581
2.63132	100570
2.63943	107232
2.64757	98854
2.65568	97401
2.66382	98622
2.67193	98480
2.68005	97263
2.68818	97752
2.69630	97162
2.70443	98412
2.71255	96180
2.72067	95358
2.72880	90779
2.73692	94633
2.74505	88963
2.75317	93562
2.76128	90766
2.76942	93135
2.77753	84039
2.78565	91343
2.79378	89144
2.80190	89136
2.81003	85715
2.81815	92826
2.82627	84345
2.83440	85693
2.84252	82807
2.85065	87187
2.85877	86588
2.86688	86218
2.87502	86983
2.88313	83148
2.89127	84693
2.89938	87131
2.90750	82927
2.91563	82623
2.92375	76901
2.93187	85389
2.94000	79151
2.94812	82330
2.95625	78817
2.96437	80475
2.97248	82069
2.98062	84115
2.98873	78955
2.99687	77906
3.00498	87810
3.01310	78872
3.02123	79039
3.02935	77999
3.03747	74311
3.04560	77499
3.05372	75746
3.06185	76954
3.06997	76181
3.07808	77580
3.08622	73429
3.09433	73184
3.10247	80660
3.11058	84380
3.11870	95758
3.12683	92020
3.13495	89798
3.14308	81558
3.15120	80076
3.15932	80310
3.16745	76085
3.17557	77807
3.18368	78808
3.19182	76687
3.19993	77634
3.20807	71089
3.21618	71088
3.22430	72009
3.23243	73163
3.24055	73636
3.24868	70720
3.25680	71566
3.26492	73765
3.27305	69615
3.28117	79202
3.28930	106422
3.29742	339138
3.30553	1358551
3.31367	3646611
3.32178	6098975
3.32990	6681727
3.33803	5519739
3.34615	4061800
3.35428	3066019
3.36240	2387324
3.37052	1946694
3.37865	1642438
3.38677	1414554
3.39490	1230919
3.40302	1105866
3.41113	1005295
3.41927	883174
3.42738	823588
3.43550	741515
3.44363	694742
3.45175	642879
3.45988	590221
3.46800	556445
3.47612	544536
3.48425	522809
3.49237	491632
3.50050	479584
3.50862	449116
3.51673	429867
3.52487	397440
3.53298	385134
3.54112	360303
3.54923	338776
3.55735	319417
3.56548	311954
3.57360	291634
3.58172	275334
3.58985	267507
3.59797	257164
3.60610	264169
3.61422	255993
3.62233	258189
3.63047	266035
3.63858	265753
3.64672	261534
3.65483	269427
3.66295	269002
3.67108	257613
3.67920	263838
3.68733	255719
3.69545	254194
3.70357	249280
3.71170	248145
3.71982	235934
3.72793	226585
3.73607	222012
3.74418	213541
3.75232	200993
3.76043	205003
3.76855	202030
3.77668	190237
3.78480	201184
3.79293	198409
3.80105	197913
3.80917	199548
3.81730	204415
3.82542	201945
3.83353	198658
3.84167	202432
3.84978	205482
3.85792	196000
3.86603	190599
3.87415	187676
3.88228	183094
3.89040	183217
3.89853	184521
3.90665	179718
3.91477	182461
3.92290	177706
3.93102	172099
3.93915	174049
3.94727	171426
3.95538	173713
3.96352	171900
3.97163	167404
3.97975	171952
3.98788	167368
3.99600	170752
4.00413	167711
4.01225	169138
4.02037	168189
4.02850	156219
4.03662	162561
4.04475	161256
4.05287	160546
4.06098	162729
4.06912	156900
4.07723	157051
4.08535	155039
4.09348	161287
4.10160	155197
4.10973	156968
4.11785	150604
4.12597	144222
4.13410	152027
4.14222	149349
4.15035	160861
4.15847	159452
4.16658	169845
4.17472	169138
4.18283	159830
4.19097	150617
4.19908	146665
4.20720	145854
4.21533	146343
4.22345	149188
4.23157	147737
4.23970	151075
4.24782	155828
4.25595	155948
4.26407	143987
4.27218	150727
4.28032	149847
4.28843	137405
4.29657	139884
4.30468	141923
4.31280	146685
4.32093	138417
4.32905	140505
4.33718	143075
4.34530	145115
4.35342	146262
4.36155	142826
4.36967	144654
4.37778	145464
4.38592	153516
4.39403	151737
4.40217	150765
4.41028	140539
4.41840	139138
4.42653	131774
4.43465	137326
4.44278	131714
4.45090	134460
4.45902	132905
4.46715	129953
4.47527	130623
4.48338	135715
4.49152	133965
4.49963	127768
4.50777	134301
4.51588	130318
4.52400	133038
4.53213	127856
4.54025	126894
4.54838	121049
4.55650	130793
4.56462	123356
4.57275	125147
4.58087	129311
4.58900	120309
4.59712	128436
4.60523	126651
4.61337	122078
4.62148	122437
4.62960	125268
4.63773	124561
4.64585	121088
4.65398	127053
4.66210	118663
4.67022	122582
4.67835	119862
4.68647	121587
4.69460	123957
4.70272	126126
4.71083	122949
4.71897	121688
4.72708	118656
4.73522	123368
4.74333	111361
4.75145	115689
4.75958	117303
4.76770	121368
4.77582	114929
4.78395	120745
4.79207	114572
4.80020	117076
4.80832	116651
4.81643	119849
4.82457	115610
4.83268	117384
4.84082	119446
4.84893	109582
4.85705	114278
4.86518	111757
4.87330	120967
4.88142	117442
4.88955	126486
4.89767	117357
4.90580	117292
4.91392	113901
4.92203	115064
4.93017	117552
4.93828	115347
4.94642	124469
4.95453	190694
4.96265	428978
4.97078	964419
4.97890	1786493
4.98703	2493065
4.99515	2682279
5.00327	2316801
5.01140	1775670
5.01952	1365145
5.02763	1058068
5.03577	871577
5.04388	740024
5.05202	666059
5.06013	584765
5.06825	541850
5.07638	500544
5.08450	467784
5.09263	433165
5.10075	390942
5.10887	372385
5.11700	350104
5.12512	316115
5.13323	306413
5.14137	288906
5.14948	271751
5.15762	277092
5.16573	270504
5.17385	267886
5.18198	265649
5.19010	268300
5.19823	270458
5.20635	274615
5.21447	258745
5.22260	262356
5.23072	252221
5.23885	243852
5.24697	251188
5.25508	240820
5.26322	242221
5.27133	220822
5.27945	219052
5.28758	213944
5.29570	215987
5.30383	210345
5.31195	217694
5.32007	205984
5.32820	207821
5.33632	197745
5.34445	203027
5.35257	201461
5.36068	195507
5.36882	201584
5.37693	192862
5.38507	195600
5.39318	183215
5.40130	185168
5.40943	179055
5.41755	183081
5.42567	185376
5.43380	179793
5.44192	177700
5.45005	179564
5.45817	175971
5.46628	171894
5.47442	171188
5.48253	178121
5.49067	164336
5.49878	161712
5.50690	172262
5.51503	165707
5.52315	166100
5.53128	167624
5.53940	162573
5.54752	165910
5.55565	163706
5.56377	158274
5.57188	161457
5.58002	156951
5.58813	163895
5.59627	156708
5.60438	164500
5.61250	158270
5.62063	159338
5.62875	172061
5.63688	183562
5.64500	182543
5.65312	191939
5.66125	189450
5.66937	179514
5.67748	182272
5.68562	176337
5.69373	167471
5.70187	172932
5.70998	187171
5.71810	196474
5.72623	190423
5.73435	185927
5.74248	159810
5.75060	166195
5.75872	156336
5.76685	150104
5.77497	151101
5.78310	155841
5.79122	144973
5.79933	146456
5.80747	147646
5.81558	145138
5.82370	140685
5.83183	149528
5.83995	151272
5.84808	144772
5.85620	138223
5.86432	143834
5.87245	146340
5.88057	138180
5.88870	140656
5.89682	139249
5.90493	139799
5.91307	129610
5.92118	122905
5.92930	106753
5.93743	104128
5.94555	102896
5.95368	112916
5.96180	101058
5.96992	111194
5.97805	110619
5.98617	107171
5.99430	116559
6.00242	121935
6.01053	120436
6.01867	117442
6.02678	114922
6.03492	109996
6.04303	107638
6.05115	106671
6.05928	104664
6.06740	103776
6.07552	103613
6.08365	103829
6.09177	102613
6.09990	103396
6.10802	106891
6.11613	99200
6.12427	101341
6.13238	103770
6.14052	112297
6.14863	108435
6.15675	113969
6.16488	113201
6.17300	106297
6.18113	110468
6.18925	112562
6.19737	113901
6.20550	114504
6.21362	118186
6.22173	115632
6.22987	123746
6.23798	128057
6.24612	129210
6.25423	123375
6.26235	135018
6.27048	126301
6.27860	126465
6.28673	137164
6.29485	136401
6.30297	145822
6.31110	147414
6.31922	152007
6.32733	149722
6.33547	151431
6.34358	162161
6.35172	152536
6.35983	160485
6.36795	164579
6.37608	172038
6.38420	168719
6.39233	168922
6.40045	174945
6.40857	174963
6.41670	179123
6.42482	178235
6.43295	181175
6.44107	183032
6.44918	184215
6.45732	189471
6.46543	192479
6.47355	192264
6.48168	203679
6.48980	209118
6.49793	200116
6.50605	202573
6.51417	201184
6.52230	198876
6.53042	176286
6.53855	148631
6.54667	139503
6.55478	130820
6.56292	123505
6.57103	128853
6.57917	124590
6.58728	116340
6.59540	116477
6.60353	125921
6.61165	117346
6.61977	111437
6.62790	110976
6.63602	113867
6.64415	113654
6.65227	109766
6.66038	111764
6.66852	108714
6.67663	107294
6.68477	104957
6.69288	108211
6.70100	109544
6.70913	105758
6.71725	105836
6.72537	100500
6.73350	103861
6.74162	105437
6.74975	100052
6.75787	109599
6.76598	97109
6.77412	99310
6.78223	103408
6.79037	99729
6.79848	98771
6.80660	96019
6.81473	102345
6.82285	96911
6.83098	102695
6.83910	101705
6.84722	98264
6.85535	92542
6.86347	91417
6.87158	84883
6.87972	76721
6.88783	73333
6.89597	81410
6.90408	77974
6.91220	83840
6.92033	74731
6.92845	80119
6.93658	70307
6.94470	73213
6.95282	73008
6.96095	71404
6.96907	70090
6.97718	68620
6.98532	65813
6.99343	62200
7.00157	62589
7.00968	71772
7.01780	65115
7.02593	69888
7.03405	60874
7.04218	63694
7.05030	60996
7.05842	65265
7.06655	64004
7.07467	67833
7.08280	65923
7.09092	69125
7.09903	64907
7.10717	63653
7.11528	67388
7.12340	67357
7.13153	63710
7.13965	63799
7.14778	60060
7.15590	64516
7.16402	58876
7.17215	59744
7.18027	62374
7.18840	62015
7.19652	60588
7.20463	61711
7.21277	61550
7.22088	62949
7.22902	59231
7.23713	64732
7.24525	63433
7.25338	62504
7.26150	62755
7.26962	63538
7.27775	59100
7.28587	58454
7.29400	63889
7.30212	64085
7.31023	59843
7.31837	56806
7.32648	59176
7.33462	60495
7.34273	58914
7.35085	60141
7.35898	61203
7.36710	57120
7.37522	62453
7.38335	60736
7.39147	62879
7.39960	55314
7.40772	64071
7.41583	60316
7.42397	62703
7.43208	63156
7.44022	60646
7.44833	62110
7.45645	67645
7.46458	72802
7.47270	72133
7.48083	72146
7.48895	64916
7.49707	63920
7.50520	61389
7.51332	62307
7.52143	61840
7.52957	62868
7.53768	63569
7.54582	60429
7.55393	60329
7.56205	60508
7.57018	59042
7.57830	58707
7.58643	61442
7.59455	57322
7.60267	57875
7.61080	59810
7.61892	58960
7.62705	59516
7.63517	58066
7.64328	54970
7.65142	58918
7.65953	61417
7.66765	60022
7.67578	55391
7.68390	57047
7.69203	57471
7.70015	59173
7.70827	60589
7.71640	62149
7.72452	57316
7.73265	60064
7.74077	58621
7.74888	55628
7.75702	56020
7.76513	54170
7.77325	59723
7.78138	56101
7.78950	60712
7.79763	60048
7.80575	57979
7.81387	56904
7.82200	56331
7.83012	59140
7.83825	54382
7.84637	57641
7.85448	51416
7.86262	53789
7.87073	55724
7.87887	51250
7.88698	51426
7.89510	56575
7.90323	53374
7.91135	54396
7.91947	51697
7.92760	52208
7.93572	54057
7.94385	52334
7.95197	54326
7.96008	55073
7.96822	52672
7.97633	50347
7.98447	49807
7.99258	54822
8.00070	58771
8.00883	59485
8.01695	59543
8.02507	56845
8.03320	53888
8.04132	51436
8.04945	52953
8.05757	50772
8.06568	51762
8.07382	51044
8.08193	55242
8.09007	56316
8.09818	54392
8.10630	51721
8.11443	55673
8.12255	53572
8.13068	56900
8.13880	52829
8.14692	56045
8.15505	51260
8.16317	50527
8.17128	56903
8.17942	52096
8.18753	56173
8.19567	57454
8.20378	60633
8.21190	60809
8.22003	58273
8.22815	57652
8.23628	57769
8.24440	53412
8.25252	57256
8.26065	53994
8.26877	55118
8.27690	58701
8.28502	61166
8.29313	55986
8.30127	53740
8.30938	59402
8.31750	50682
8.32563	60155
8.33375	52387
8.34188	57107
8.35000	55345
8.35812	61350
8.36625	60573
8.37437	63089
8.38250	60398
8.39062	62957
8.39873	54394
8.40687	53556
8.41498	54026
8.42310	54474
8.43123	57576
8.43935	60087
8.44748	54468
8.45560	58934
8.46372	59284
8.47185	55369
8.47997	57679
8.48810	56560
8.49622	53044
8.50433	53934
8.51247	55719
8.52058	57798
8.52872	60544
8.53683	60409
8.54495	71157
8.55308	72374
8.56120	63407
8.56932	64393
8.57745	64032
8.58557	61258
8.59370	57501
8.60182	59663
8.60993	60216
8.61807	62861
8.62618	61117
8.63432	61267
8.64243	56463
8.65055	61657
8.65868	58759
8.66680	61998
8.67493	53851
8.68305	57882
8.69117	55570
8.69930	57713
8.70742	57529
8.71553	58247
8.72367	53995
8.73178	55197
8.73992	53101
8.74803	52942
8.75615	56402
8.76428	55894
8.77240	55502
8.78053	60812
8.78865	70361
8.79677	98700
8.80490	176715
8.81302	318834
8.82113	485956
8.82927	591964
8.83738	595015
8.84552	546318
8.85363	446420
8.86175	380708
8.86988	314917
8.87800	256507
8.88613	223596
8.89425	206321
8.90237	193427
8.91050	185733
8.91862	174296
8.92675	165881
8.93487	150492
8.94298	149278
8.95112	147219
8.95923	141570
8.96735	132956
8.97548	137246
8.98360	126632
8.99173	128414
8.99985	126974
9.00797	123453
9.01610	122271
9.02422	117996
9.03235	116371
9.04047	119990
9.04858	112821
9.05672	109604
9.06483	121664
9.07297	115571
9.08108	110887
9.08920	111418
9.09733	109961
9.10545	109631
9.11357	108393
9.12170	102395
9.12982	98845
9.13795	109073
9.14607	105998
9.15418	108943
9.16232	106635
9.17043	100832
9.17857	101199
9.18668	102370
9.19480	98810
9.20293	94291
9.21105	99208
9.21917	101460
9.22730	100905
9.23542	95640
9.24355	93133
9.25167	97107
9.25978	95355
9.26792	97778
9.27603	93557
9.28417	92078
9.29228	95598
9.30040	89377
9.30853	89667
9.31665	84618
9.32478	83919
9.33290	85692
9.34102	80346
9.34915	83989
9.35727	84163
9.36538	88746
9.37352	84800
9.38163	79140
9.38977	77316
9.39788	82273
9.40600	78600
9.41413	80361
9.42225	78133
9.43038	75661
9.43850	77679
9.44662	75980
9.45475	79567
9.46287	82427
9.47098	79329
9.47912	75424
9.48723	78283
9.49537	76864
9.50348	76502
9.51160	69840
9.51973	77275
9.52785	76845
9.53598	74095
9.54410	75324
9.55222	73764
9.56035	76777
9.56847	75367
9.57660	70958
9.58472	67293
9.59283	64599
9.60097	58404
9.60908	61284
9.61720	66158
9.62533	64408
9.63345	63521
9.64158	59070
9.64970	58450
9.65782	60284
9.66595	57322
9.67407	59372
9.68220	54245
9.69032	53641
9.69843	50807
9.70657	56312
9.71468	51631
9.72282	50152
9.73093	55881
9.73905	51689
9.74718	52728
9.75530	52775
9.76342	49341
9.77155	54301
9.77967	53188
9.78780	48360
9.79592	53704
9.80403	51013
9.81217	50635
9.82028	50378
9.82842	46781
9.83653	49688
9.84465	49202
9.85278	53355
9.86090	52551
9.86902	54837
9.87715	55583
9.88527	51683
9.89340	56866
9.90152	49024
9.90963	48270
9.91777	50491
9.92588	50230
9.93402	51940
9.94213	51683
9.95025	49694
9.95838	56286
9.96650	48329
9.97463	48145
9.98275	53507
9.99087	49963
9.99900	49952
10.00712	55701
10.01523	58087
10.02337	54969
10.03148	52406
10.03962	58785
10.04773	64912
10.05585	67909
10.06398	72975
10.07210	70337
10.08023	70994
10.08835	68900
10.09647	65800
10.10460	60048
10.11272	61831
10.12085	54640
10.12897	56132
10.13708	56725
10.14522	59566
10.15333	56608
10.16145	51572
10.16958	55916
10.17770	55142
10.18583	50236
10.19395	52317
10.20207	53139
10.21020	52747
10.21832	50704
10.22645	46240
10.23457	49900
10.24268	56885
10.25082	53969
10.25893	53073
10.26705	60000
10.27518	57631
10.28330	59729
10.29143	53894
10.29955	52420
10.30767	56760
10.31580	51758
10.32392	55006
10.33205	51997
10.34017	55774
10.34828	58946
10.35642	56403
10.36453	56257
10.37267	53845
10.38078	55746
10.38890	55326
10.39703	57380
10.40515	53950
10.41327	50791
10.42140	55659
10.42952	48733
10.43765	47872
10.44577	49689
10.45388	50645
10.46202	50448
10.47013	51884
10.47827	51676
10.48638	52509
10.49450	47743
10.50263	53113
10.51075	49941
10.51887	49249
10.52700	51437
10.53512	50324
10.54325	51497
10.55137	46932
10.55948	45729
10.56762	47353
10.57573	49817
10.58387	50667
10.59198	46705
10.60010	47800
10.60823	46250
10.61635	48576
10.62448	45035
10.63260	48170
10.64072	43589
10.64885	43877
10.65697	47379
10.66508	45604
10.67322	45539
10.68133	44384
10.68947	47147
10.69758	47950
10.70570	47241
10.71383	52269
10.72195	50284
10.73008	47313
10.73820	49946
10.74632	48527
10.75445	51569
10.76257	50729
10.77070	45582
10.77882	48553
10.78693	51333
10.79507	50844
10.80318	53694
10.81130	49052
10.81943	52236
10.82755	47456
10.83568	46296
10.84380	51531
10.85192	45476
10.86005	49834
10.86817	47472
10.87630	49275
10.88442	48341
10.89253	43658
10.90067	45469
10.90878	46814
10.91692	47232
10.92503	43008
10.93315	47620
10.94128	41431
10.94940	45774
10.95752	44071
10.96565	45728
10.97377	46071
10.98190	45457
10.99002	48581
10.99813	47249
11.00627	48887
11.01438	51029
11.02252	46489
11.03063	44239
11.03875	43320
11.04688	42911
11.05500	40321
11.06312	45146
11.07125	45997
11.07937	46197
11.08750	39045
11.09562	44537
11.10373	44063
11.11187	41554
11.11998	43070
11.12812	42757
11.13623	39337
11.14435	39637
11.15248	42089
11.16060	41484
11.16873	41776
11.17685	46065
11.18497	41642
11.19310	41999
11.20122	51947
11.20933	55949
11.21747	65909
11.22558	64188
11.23372	63282
11.24183	62451
11.24995	57297
11.25808	50731
11.26620	48096
11.27433	51533
11.28245	42500
11.29057	42692
11.29870	45535
11.30682	44308
11.31493	45137
11.32307	43291
11.33118	43775
11.33932	42983
11.34743	44265
11.35555	41408
11.36368	44991
11.37180	43976
11.37993	40748
11.38805	43708
11.39617	50844
11.40430	47067
11.41242	43424
11.42055	39584
11.42867	39038
11.43678	41941
11.44492	41748
11.45303	40582
11.46115	41358
11.46928	41895
11.47740	40944
11.48553	43517
11.49365	39948
11.50177	37852
11.50990	38269
11.51802	44818
11.52615	44749
11.53427	44189
11.54238	39942
11.55052	44349
11.55863	37861
11.56677	40450
11.57488	42043
11.58300	38669
11.59113	43053
11.59925	40619
11.60737	42951
11.61550	40002
11.62362	39356
11.63175	39875
11.63987	39023
11.64798	43080
11.65612	38092
11.66423	37412
11.67237	36012
11.68048	36558
11.68860	39384
11.69673	40776
11.70485	41272
11.71297	38755
11.72110	43061
11.72922	39980
11.73735	43253
11.74547	41220
11.75358	42085
11.76172	41605
11.76983	40285
11.77797	42497
11.78608	43597
11.79420	41782
11.80233	42439
11.81045	40542
11.81858	40575
11.82670	37817
11.83482	42611
11.84295	43822
11.85107	42460
11.85918	44272
11.86732	43600
11.87543	45466
11.88357	40487
11.89168	42553
11.89980	43403
11.90793	36695
11.91605	40782
11.92418	41271
11.93230	39313
11.94042	37543
11.94855	40060
11.95667	37043
11.96480	40067
11.97292	41594
11.98103	38621
11.98917	40718
11.99728	38368
12.00540	40219
12.01353	40412
12.02165	39915
12.02978	41984
12.03790	40299
12.04602	38478
12.05415	39051
12.06227	40055
12.07040	40114
12.07852	37621
12.08663	40128
12.09477	41177
12.10288	39674
12.11100	38719
12.11913	36997
12.12725	36067
12.13538	40747
12.14350	39394
12.15162	40624
12.15975	41011
12.16787	39278
12.17600	40260
12.18412	43788
12.19223	41377
12.20037	42170
12.20848	42167
12.21662	43880
12.22473	47106
12.23285	42190
12.24098	40196
12.24910	37307
12.25722	40952
12.26535	44495
12.27347	41634
12.28160	45809
12.28972	41772
12.29783	40314
12.30597	40490
12.31408	35966
12.32222	40702
12.33033	40823
12.33845	40878
12.34658	36550
12.35470	38695
12.36282	41469
12.37095	38636
12.37907	43775
12.38720	43968
12.39532	38731
12.40343	47917
12.41157	42720
12.41968	39859
12.42782	38039
12.43593	39536
12.44405	38958
12.45218	44818
12.46030	39433
12.46843	45331
12.47655	43928
12.48467	45079
12.49280	45593
12.50092	48720
12.50903	44287
12.51717	41832
12.52528	39152
12.53342	44147
12.54153	40331
12.54965	39717
12.55778	43759
12.56590	42983
12.57403	42880
12.58215	41057
12.59027	42201
12.59840	41214
12.60652	41965
12.61465	42915
12.62277	38878
12.63088	41938
12.63902	41505
12.64713	38322
12.65525	39260
12.66338	44894
12.67150	39182
12.67963	40066
12.68775	38199
12.69587	39483
12.70400	37990
12.71212	42614
12.72025	40957
12.72837	40718
12.73648	40149
12.74462	46581
12.75273	50044
12.76085	54541
12.76898	55588
12.77710	52444
12.78523	52202
12.79335	51220
12.80147	47378
12.80960	44907
12.81772	48357
12.82585	46779
12.83397	47672
12.84208	40566
12.85022	39457
12.85833	39344
12.86647	40527
12.87458	41249
12.88270	41005
12.89083	38909
12.89895	39938
12.90707	43349
12.91520	38505
12.92332	35836
12.93145	38758
12.93957	38990
12.94768	40989
12.95582	39072
12.96393	36328
12.97207	40258
12.98018	41516
12.98830	38509
12.99643	41548
13.00455	41864
13.01268	40395
13.02080	41094
13.02892	41030
13.03705	39479
13.04517	40866
13.05328	41249
13.06142	41280
13.06953	41830
13.07767	35006
13.08578	39739
13.09390	40065
13.10203	38844
13.11015	39336
13.11828	39112
13.12640	42234
13.13452	38362
13.14265	38362
13.15077	42130
13.15888	40514
13.16702	42307
13.17513	39964
13.18327	42211
13.19138	39576
13.19950	40139
13.20763	45123
13.21575	42415
13.22388	41789
13.23200	47653
13.24012	47200
13.24825	49245
13.25637	45091
13.26450	44607
13.27262	40987
13.28073	44543
13.28887	41024
13.29698	41404
13.30510	40450
13.31323	40988
13.32135	41408
13.32948	39291
13.33760	37816
13.34572	38376
13.35385	41824
13.36197	39126
13.37010	38392
13.37822	40228
13.38633	36414
13.39447	39901
13.40258	37676
13.41072	36777
13.41883	41492
13.42695	39692
13.43508	37036
13.44320	39240
13.45132	38382
13.45945	37717
13.46757	38967
13.47570	39532
13.48382	36350
13.49193	40824
13.50007	38401
13.50818	39173
13.51632	41196
13.52443	35968
13.53255	39616
13.54068	36751
13.54880	36777
13.55692	36772
13.56505	37108
13.57317	33960
13.58130	41777
13.58942	38938
13.59753	35446
13.60567	34953
13.61378	35622
13.62192	37019
13.63003	36281
13.63815	37713
13.64628	37225
13.65440	37355
13.66253	35232
13.67065	39574
13.67877	37220
13.68690	35914
13.69502	35641
13.70313	36648
13.71127	34043
13.71938	39927
13.72752	37014
13.73563	35054
13.74375	36264
13.75188	36263
13.76000	33665
13.76813	37462
13.77625	37146
13.78437	36572
13.79250	39743
13.80062	35032
13.80873	38626
13.81687	37806
13.82498	39495
13.83312	38635
13.84123	36869
13.84935	39192
13.85748	39988
13.86560	36344
13.87373	41081
13.88185	40097
13.88997	37297
13.89810	37323
13.90622	40404
13.91435	37505
13.92247	41066
13.93058	42119
13.93872	40258
13.94683	41226
13.95495	44166
13.96308	43754
13.97120	44395
13.97933	40539
13.98745	41378
13.99557	38924
14.00370	38829
14.01182	38235
14.01995	38922
14.02807	37842
14.03618	37843
14.04432	41856
14.05243	38649
14.06057	36373
14.06868	36642
14.07680	41688
14.08493	40976
14.09305	46663
14.10117	50926
14.10930	44786
14.11742	43435
14.12555	43193
14.13367	39541
14.14178	41859
14.14992	39795
14.15803	36605
14.16617	41920
14.17428	40738
14.18240	37593
14.19053	43912
14.19865	48782
14.20677	55601
14.21490	95517
14.22302	138879
14.23115	191666
14.23927	224398
14.24738	243480
14.25552	221344
14.26363	195675
14.27177	156962
14.27988	145004
14.28800	133710
14.29613	114033
14.30425	113415
14.31238	109849
14.32050	96563
14.32862	90674
14.33675	87624
14.34487	86882
14.35298	85784
14.36112	79768
14.36923	67746
14.37737	63827
14.38548	55458
14.39360	48947
14.40173	48187
14.40985	46360
14.41798	40991
14.42610	47457
14.43422	40068
14.44235	43245
14.45047	45133
14.45860	42198
14.46672	41656
14.47483	40928
14.48297	41819
14.49108	43430
14.49920	40905
14.50733	40634
14.51545	40925
14.52358	40040
14.53170	43336
14.53982	42438
14.54795	40484
14.55607	40109
14.56420	43909
14.57232	41004
14.58043	41352
14.58857	41443
14.59668	41072
14.60480	39870
14.61293	41592
14.62105	38792
14.62918	40216
14.63730	42292
14.64542	42050
14.65355	39321
14.66167	42846
14.66980	37493
14.67792	41828
14.68603	41871
14.69417	37321
14.70228	37388
14.71042	37779
14.71853	40567
14.72665	42385
14.73478	42112
14.74290	40464
14.75102	38409
14.75915	40872
14.76727	38740
14.77540	35932
14.78352	36253
14.79163	36901
14.79977	39239
14.80788	38662
14.81602	36729
14.82413	37469
14.83225	45883
14.84038	49050
14.84850	51449
14.85662	51861
14.86475	59557
14.87287	59935
14.88100	58644
14.88912	55876
14.89723	61387
14.90537	62761
14.91348	65284
14.92162	58453
14.92973	59853
14.93785	58087
14.94598	55582
14.95410	56301
14.96223	58918
14.97035	54589
14.97847	55769
14.98660	54480
14.99472	57076
15.00283	57203
15.01097	56286
15.01908	56378
15.02722	60563
15.03533	54647
15.04345	53639
15.05158	54091
15.05970	56249
15.06783	54647
15.07595	52870
15.08407	57046
15.09220	53417
15.10032	52593
15.10845	53212
15.11657	53999
15.12468	54533
15.13282	51558
15.14093	53471
15.14905	50501
15.15718	53770
15.16530	46250
15.17343	49131
15.18155	45324
15.18967	45527
15.19780	47988
15.20592	41454
15.21405	41495
15.22217	44520
15.23028	49141
15.23842	44441
15.24653	42544
15.25465	46537
15.26278	43798
15.27090	44726
15.27903	43443
15.28715	40595
15.29527	38107
15.30340	44648
15.31152	42803
15.31965	40432
15.32777	40820
15.33588	42224
15.34402	39015
15.35213	41394
15.36027	44489
15.36838	41856
15.37650	39473
15.38463	43160
15.39275	40503
15.40087	40321
15.40900	38220
15.41712	43105
15.42525	41624
15.43337	40590
15.44148	40163
15.44962	39249
15.45773	35748
15.46587	40938
15.47398	37138
15.48210	42264
15.49023	37177
15.49835	38213
15.50648	38253
15.51460	39260
15.52272	45279
15.53085	41246
15.53897	43143
15.54708	46269
15.55522	44494
15.56333	40349
15.57147	40451
15.57958	37707
15.58770	41656
15.59583	40237
15.60395	40773
15.61208	39832
15.62020	38503
15.62832	40625
15.63645	41052
15.64457	44390
15.65268	44159
15.66082	41429
15.66893	38882
15.67707	40753
15.68518	38008
15.69330	43547
15.70143	36857
15.70955	39458
15.71768	36860
15.72580	38026
15.73392	37054
15.74205	37796
15.75017	37798
15.75830	42924
15.76642	42449
15.77453	41649
15.78267	40174
15.79078	38429
15.79890	42776
15.80703	36778
15.81515	40938
15.82328	41929
15.83140	43409
15.83952	40304
15.84765	41721
15.85577	40700
15.86390	41345
15.87202	39455
15.88013	40147
15.88827	44404
15.89638	44631
15.90450	44809
15.91263	38878
15.92075	42074
15.92888	41544
15.93700	41626
15.94512	41719
15.95325	37300
15.96137	42619
15.96950	41415
15.97762	42444
15.98573	39250
15.99387	43456
16.00198	40263
16.01012	44290
16.01823	46190
16.02635	60932
16.03448	76183
16.04260	95086
16.05072	117002
16.05885	131107
16.06697	128318
16.07510	112198
16.08322	98339
16.09133	84933
16.09947	78564
16.10758	66303
16.11572	63646
16.12383	59680
16.13195	56908
16.14008	58357
16.14820	58847
16.15633	52635
16.16445	52981
16.17257	54959
16.18070	50849
16.18882	52791
16.19693	54696
16.20507	51662
16.21318	53122
16.22132	52526
16.22943	51354
16.23755	48248
16.24568	46902
16.25380	49613
16.26193	48837
16.27005	52963
16.27817	47112
16.28630	50169
16.29442	47849
16.30255	45105
16.31067	46871
16.31878	45932
16.32692	47974
16.33503	47644
16.34315	46644
16.35128	44859
16.35940	43908
16.36753	44996
16.37565	38097
16.38377	44611
16.39190	45331
16.40002	41864
16.40815	42629
16.41627	43130
16.42438	42083
16.43252	42520
16.44063	39159
16.44875	45500
16.45688	44027
16.46500	41921
16.47313	45680
16.48125	42671
16.48937	44459
16.49750	42719
16.50562	42835
16.51375	49364
16.52187	45803
16.52998	45560
16.53812	46806
16.54623	48089
16.55437	44834
16.56248	44389
16.57060	44726
16.57873	44091
16.58685	40767
16.59497	42602
16.60310	44399
16.61122	42356
16.61935	41499
16.62747	46592
16.63558	41826
16.64372	41015
16.65183	38767
16.65997	40342
16.66808	40904
16.67620	39556
16.68433	41449
16.69245	38462
16.70057	38063
16.70870	44969
16.71682	40985
16.72495	42687
16.73307	40147
16.74118	40909
16.74932	40443
16.75743	40399
16.76557	40122
16.77368	38483
16.78180	39113
16.78993	38393
16.79805	39060
16.80618	38590
16.81430	38978
16.82242	39941
16.83055	40686
16.83867	36694
16.84678	36239
16.85492	39392
16.86303	38848
16.87117	37875
16.87928	37638
16.88740	34312
16.89553	36435
16.90365	38010
16.91178	35898
16.91990	31863
16.92802	35832
16.93615	35770
16.94427	34760
16.95240	36631
16.96052	36072
16.96863	36828
16.97677	35974
16.98488	37400
16.99300	39148
17.00113	37500
17.00925	33272
17.01738	32063
17.02550	35563
17.03362	36205
17.04175	36339
17.04987	39448
17.05800	37504
17.06612	35198
17.07423	37556
17.08237	35967
17.09048	37675
17.09860	40493
17.10673	39142
17.11485	36925
17.12298	34445
17.13110	38265
17.13922	38383
17.14735	38207
17.15547	37080
17.16360	39111
17.17172	38226
17.17983	38173
17.18797	41089
17.19608	40049
17.20422	38085
17.21233	37286
17.22045	34871
17.22858	36575
17.23670	33031
17.24482	36370
17.25295	32266
17.26107	36398
17.26920	34822
17.27732	38070
17.28543	35885
17.29357	37527
17.30168	39856
17.30982	37112
17.31793	38262
17.32605	38825
17.33418	36313
17.34230	37797
17.35043	38238
17.35855	37855
17.36667	40431
17.37480	46323
17.38292	40584
17.39103	47587
17.39917	48421
17.40728	44539
17.41542	43024
17.42353	48569
17.43165	44367
17.43978	46179
17.44790	46674
17.45603	41890
17.46415	41863
17.47227	45815
17.48040	42884
17.48852	44409
17.49663	41608
17.50477	46697
17.51288	39955
17.52102	43334
17.52913	40189
17.53725	42390
17.54538	39544
17.55350	42683
17.56163	43928
17.56975	41384
17.57787	41141
17.58600	40906
17.59412	42813
17.60225	39736
17.61037	38159
17.61848	39979
17.62662	39340
17.63473	38319
17.64285	37463
17.65098	39844
17.65910	35648
17.66723	38788
17.67535	39751
17.68347	43059
17.69160	42438
17.69972	44890
17.70785	48939
17.71597	45816
17.72408	48071
17.73222	47256
17.74033	45428
17.74845	48985
17.75658	46647
17.76470	48248
17.77283	45112
17.78095	43809
17.78907	45324
17.79720	39820
17.80532	42492
17.81345	43670
17.82157	39197
17.82968	43141
17.83782	41787
17.84593	39982
17.85407	40180
17.86218	38954
17.87030	38931
17.87843	40333
17.88655	42504
17.89467	38469
17.90280	42219
17.91092	39433
17.91905	38122
17.92717	36014
17.93528	43879
17.94342	37756
17.95153	39319
17.95967	37448
17.96778	38312
17.97590	35394
17.98403	35492
17.99215	35875
18.00028	37038
18.00840	40706
18.01652	38175
18.02465	35922
18.03277	31847
18.04088	38085
18.04902	39069
18.05713	38352
18.06527	36732
18.07338	37558
18.08150	38733
18.08963	45045
18.09775	48111
18.10588	58546
18.11400	64924
18.12212	79641
18.13025	95737
18.13837	92709
18.14648	88360
18.15462	95766
18.16273	93943
18.17087	85535
18.17898	87071
18.18710	89102
18.19523	88692
18.20335	81801
18.21148	80855
18.21960	85819
18.22772	77489
18.23585	78043
18.24397	78020
18.25210	74194
18.26022	79580
18.26833	67969
18.27647	70984
18.28458	69988
18.29270	59847
18.30083	59122
18.30895	56887
18.31708	51704
18.32520	46052
18.33332	45021
18.34145	44280
18.34957	48009
18.35770	49164
18.36582	44251
18.37393	42986
18.38207	40487
18.39018	43546
18.39832	42408
18.40643	41115
18.41455	41261
18.42268	40988
18.43080	38228
18.43892	41272
18.44705	42736
18.45517	38358
18.46330	37373
18.47142	39305
18.47953	44105
18.48767	37480
18.49578	39113
18.50392	39589
18.51203	42017
18.52015	40516
18.52828	44870
18.53640	37317
18.54452	40979
18.55265	40174
18.56077	40914
18.56890	41983
18.57702	37467
18.58513	40418
18.59327	33528
18.60138	37537
18.60952	40008
18.61763	43326
18.62575	38835
18.63388	40283
18.64200	40419
18.65013	39483
18.65825	38515
18.66637	40819
18.67450	38181
18.68262	33757
18.69073	34556
18.69887	35588
18.70698	39116
18.71512	36059
18.72323	38338
18.73135	34016
18.73948	33681
18.74760	36252
18.75573	34385
18.76385	34556
18.77197	31280
18.78010	36903
18.78822	34729
18.79635	34711
18.80447	35566
18.81258	35563
18.82072	34517
18.82883	32398
18.83695	34060
18.84508	37811
18.85320	34723
18.86133	33627
18.86945	33942
18.87757	36337
18.88570	33446
18.89382	36270
18.90195	32726
18.91007	35663
18.91818	36774
18.92632	31172
18.93443	34531
18.94255	38698
18.95068	34864
18.95880	36690
18.96693	38639
18.97505	32868
18.98317	34979
18.99130	38944
18.99942	39886
19.00755	34238
19.01567	35526
19.02378	37493
19.03192	34646
19.04003	35873
19.04817	36155
19.05628	35312
19.06440	35663
19.07253	32038
19.08065	37350
19.08877	30591
19.09690	31230
19.10502	36545
19.11315	36923
19.12127	35776
19.12938	38576
19.13752	40077
19.14563	41461
19.15377	39543
19.16188	39418
19.17000	39944
19.17813	41629
19.18625	40173
19.19437	41252
19.20250	44755
19.21062	39479
19.21875	39374
19.22687	43601
19.23498	38297
19.24312	38019
19.25123	36939
19.25937	38931
19.26748	39654
19.27560	37707
19.28373	39043
19.29185	42551
19.29998	48311
19.30810	51747
19.31622	57923
19.32435	60138
19.33247	63595
19.34058	60805
19.34872	55837
19.35683	52720
19.36497	48933
19.37308	49897
19.38120	46001
19.38933	47230
19.39745	48771
19.40558	44856
19.41370	44914
19.42182	46690
19.42995	44382
19.43807	43256
19.44620	45217
19.45432	47478
19.46243	42614
19.47057	42140
19.47868	47354
19.48680	55300
19.49493	66344
19.50305	81851
19.51118	109476
19.51930	145259
19.52742	176976
19.53555	205284
19.54367	205906
19.55180	184847
19.55992	150793
19.56803	101159
19.57617	77759
19.58428	63470
19.59240	55053
19.60053	51550
19.60865	53592
19.61678	46365
19.62490	44126
19.63302	46021
19.64115	50051
19.64927	50974
19.65740	68626
19.66552	109339
19.67363	170251
19.68177	236494
19.68988	300224
19.69802	335607
19.70613	322290
19.71425	297081
19.72238	226501
19.73050	170939
19.73862	138010
19.74675	111026
19.75487	96198
19.76300	84846
19.77112	73566
19.77923	69506
19.78737	60217
19.79548	61924
19.80362	55275
19.81173	58216
19.81985	52541
19.82798	54397
19.83610	51728
19.84423	49720
19.85235	54433
19.86047	50450
19.86860	50380
19.87672	51623
19.88483	57604
19.89297	61043
19.90108	79889
19.90922	109366
19.91733	151026
19.92545	196373
19.93358	251685
19.94170	287769
19.94983	289842
19.95795	307345
19.96607	296459
19.97420	281144
19.98232	269785
19.99043	268792
19.99857	249821
20.00668	252558
20.01482	241249
20.02293	223545
20.03105	215340
20.03918	214556
20.04730	200523
20.05543	188993
20.06355	171611
20.07167	141950
20.07980	114333
20.08792	100936
20.09605	89720
20.10417	82318
20.11228	76086
20.12042	71610
20.12853	75015
20.13665	76155
20.14478	71310
20.15290	70012
20.16103	68837
20.16915	67359
20.17727	70929
20.18540	63987
20.19352	63766
20.20165	67056
20.20977	64767
20.21788	64580
20.22602	63090
20.23413	63662
20.24225	61422
20.25038	62851
20.25850	65682
20.26663	72140
20.27475	97699
20.28287	126704
20.29100	162055
20.29912	215687
20.30725	241251
20.31537	239255
20.32348	226794
20.33162	195305
20.33973	164286
20.34787	134932
20.35598	115234
20.36410	101379
20.37223	93885
20.38035	85429
20.38847	84163
20.39660	76996
20.40472	72715
20.41285	71314
20.42097	77225
20.42908	74450
20.43722	81171
20.44533	94967
20.45347	102703
20.46158	121071
20.46970	130875
20.47783	122732
20.48595	127956
20.49408	113008
20.50220	100538
20.51032	86068
20.51845	87012
20.52657	73922
20.53468	71833
20.54282	69638
20.55093	62816
20.55907	66216
20.56718	67367
20.57530	67888
20.58343	59148
20.59155	66661
20.59968	65121
20.60780	66445
20.61592	62509
20.62405	61940
20.63217	67348
20.64030	60476
20.64842	66123
20.65653	63063
20.66467	63719
20.67278	57377
20.68090	56908
20.68903	65975
20.69715	63893
20.70528	59438
20.71340	59532
20.72152	58826
20.72965	58957
20.73777	59318
20.74590	59317
20.75402	62468
20.76213	59134
20.77027	58340
20.77838	61105
20.78650	58318
20.79463	56794
20.80275	58987
20.81088	57744
20.81900	56641
20.82712	54655
20.83525	62409
20.84337	57510
20.85150	54475
20.85962	58216
20.86773	58259
20.87587	56727
20.88398	59369
20.89212	59600
20.90023	57062
20.90835	59138
20.91648	55392
20.92460	56290
20.93272	56882
20.94085	51563
20.94897	54560
20.95710	54551
20.96522	57377
20.97333	52657
20.98147	55001
20.98958	58762
20.99772	50752
21.00583	52215
21.01395	54534
21.02208	50415
21.03020	56366
21.03832	51064
21.04645	53802
21.05457	51325
21.06270	54011
21.07082	52865
21.07893	52358
21.08707	55260
21.09518	51664
21.10332	51129
21.11143	50842
21.11955	53048
21.12768	47198
21.13580	53492
21.14393	49238
21.15205	50663
21.16017	47615
21.16830	53647
21.17642	50809
21.18453	51818
21.19267	55032
21.20078	53343
21.20892	54429
21.21703	58392
21.22515	52028
21.23328	53732
21.24140	52406
21.24953	56799
21.25765	59990
21.26577	52878
21.27390	55959
21.28202	52226
21.29015	54240
21.29827	53724
21.30638	52389
21.31452	52782
21.32263	56364
21.33075	53459
21.33888	47844
21.34700	51003
21.35513	50379
21.36325	53447
21.37137	51506
21.37950	48540
21.38762	51441
21.39575	50814
21.40387	50542
21.41198	50144
21.42012	47701
21.42823	51359
21.43635	51965
21.44448	56318
21.45260	52465
21.46073	49787
21.46885	50116
21.47697	52609
21.48510	50240
21.49322	51971
21.50135	52932
21.50947	51729
21.51758	50225
21.52572	49498
21.53383	52668
21.54197	48194
21.55008	50245
21.55820	52601
21.56633	49636
21.57445	48270
21.58257	48427
21.59070	48345
21.59882	52271
21.60695	49720
21.61507	49435
21.62318	46728
21.63132	55264
21.63943	65680
21.64757	77758
21.65568	98081
21.66380	102031
21.67193	114333
21.68005	108918
21.68818	102412
21.69630	86511
21.70442	75676
21.71255	59379
21.72067	59362
21.72878	55105
21.73692	52909
21.74503	50761
21.75317	56747
21.76128	49746
21.76940	52284
21.77753	52506
21.78565	51431
21.79378	51987
21.80190	50307
21.81002	50263
21.81815	55024
21.82627	56212
21.83438	58711
21.84252	67587
21.85063	80413
21.85877	94388
21.86688	98552
21.87500	99382
21.88313	81779
21.89125	74553
21.89938	66390
21.90750	60377
21.91562	48510
21.92375	49944
21.93187	47069
21.94000	47360
21.94812	49225
21.95623	47705
21.96437	45055
21.97248	49217
21.98060	52024
21.98873	46046
21.99685	47019
22.00498	47193
22.01310	49656
22.02122	47715
22.02935	44623
22.03747	46134
22.04560	50376
22.05372	45459
22.06183	45533
22.06997	50808
22.07808	45123
22.08620	48491
22.09433	45133
22.10245	40856
22.11058	46788
22.11870	43049
22.12682	43415
22.13495	40434
22.14307	44102
22.15120	49973
22.15932	46525
22.16743	45447
22.17557	42066
22.18368	47396
22.19182	47377
22.19993	46122
22.20805	46775
22.21618	45070
22.22430	41761
22.23242	43177
22.24055	49274
22.24867	52660
22.25680	55085
22.26492	57263
22.27303	51272
22.28117	52030
22.28928	41753
22.29742	44994
22.30553	42113
22.31365	46077
22.32178	44183
22.32990	42708
22.33803	46068
22.34615	47053
22.35427	43388
22.36240	44417
22.37052	40055
22.37863	44114
22.38677	45173
22.39488	45204
22.40302	44905
22.41113	42633
22.41925	43518
22.42738	44546
22.43550	41331
22.44363	40210
22.45175	45132
22.45987	43828
22.46800	44493
22.47612	48950
22.48423	46626
22.49237	45529
22.50048	48155
22.50862	45190
22.51673	45768
22.52485	40104
22.53298	43326
22.54110	43601
22.54923	39900
22.55735	43131
22.56547	42889
22.57360	38595
22.58172	39154
22.58985	40973
22.59797	42213
22.60608	38755
22.61422	37547
22.62233	39088
22.63045	39397
22.63858	38627
22.64670	39197
22.65483	39862
22.66295	35182
22.67107	39540
22.67920	39223
22.68732	37001
22.69545	36331
22.70357	38353
22.71168	40804
22.71982	42142
22.72793	42940
22.73607	46074
22.74418	42144
22.75230	42975
22.76043	41815
22.76855	44016
22.77667	40804
22.78480	42123
22.79292	39067
22.80105	37474
22.80917	38222
22.81728	36717
22.82542	41617
22.83353	42812
22.84167	39381
22.84978	41721
22.85790	40483
22.86603	42048
22.87415	45070
22.88227	43166
22.89040	41861
22.89852	46862
22.90665	43049
22.91477	52914
22.92288	59862
22.93102	72732
22.93913	100111
22.94727	130953
22.95538	165340
22.96350	173431
22.97163	183542
22.97975	182018
22.98788	176154
22.99600	159619
23.00412	153314
23.01225	134563
23.02037	124888
23.02848	108080
23.03662	96267
23.04473	81557
23.05287	65497
23.06098	67739
23.06910	58882
23.07723	50765
23.08535	51281
23.09348	50173
23.10160	52531
23.10972	44829
23.11785	49206
23.12597	45067
23.13410	45025
23.14222	45493
23.15033	47479
23.15847	43789
23.16658	42508
23.17470	46193
23.18283	44277
23.19095	44109
23.19908	44362
23.20720	44302
23.21532	43417
23.22345	38827
23.23157	35362
23.23970	37839
23.24782	37712
23.25593	37682
23.26407	36829
23.27218	35872
23.28030	36332
23.28843	39211
23.29655	38272
23.30468	36004
23.31280	39157
23.32092	36979
23.32905	36263
23.33717	39690
23.34530	37912
23.35342	39257
23.36153	34780
23.36967	34254
23.37778	38521
23.38592	38214
23.39403	38191
23.40215	39032
23.41028	35595
23.41840	39899
23.42652	42085
23.43465	38698
23.44277	41104
23.45090	42465
23.45902	38747
23.46713	39493
23.47527	38382
23.48338	42121
23.49152	36748
23.49963	36714
23.50775	34851
23.51588	34477
23.52400	38813
23.53212	38745
23.54025	38882
23.54837	36769
23.55650	38763
23.56462	38293
23.57273	41044
23.58087	39036
23.58898	37776
23.59712	41737
23.60523	41766
23.61335	39979
23.62148	35752
23.62960	37097
23.63773	37661
23.64585	42785
23.65397	43490
23.66210	35434
23.67022	46886
23.67833	48556
23.68647	52760
23.69458	52227
23.70272	55227
23.71083	57073
23.71895	57785
23.72708	61190
23.73520	55746
23.74333	53702
23.75145	55184
23.75957	72113
23.76770	127883
23.77582	313044
23.78395	809777
23.79207	1796063
23.80018	3025634
23.80832	3930627
23.81643	4319470
23.82455	3994044
23.83268	3164235
23.84080	2266755
23.84893	1556816
23.85705	1099941
23.86517	818867
23.87330	620312
23.88142	493431
23.88955	436776
23.89767	365399
23.90578	322657
23.91392	288689
23.92203	259688
23.93015	241282
23.93828	214556
23.94640	207720
23.95453	193471
23.96265	186907
23.97077	172875
23.97890	162560
23.98702	155589
23.99515	146986
24.00327	136729
24.01138	138382
24.01952	125013
24.02763	131750
24.03577	120192
24.04388	119931
24.05200	130243
24.06013	112094
24.06825	116969
24.07637	111767
24.08450	105780
24.09262	104802
24.10075	101893
24.10887	100256
24.11698	97127
24.12512	92740
24.13323	97216
24.14137	91087
24.14948	94339
24.15760	100465
24.16573	97719
24.17385	98306
24.18198	108045
24.19010	94384
24.19822	87861
24.20635	92344
24.21447	84011
24.22258	88582
24.23072	95418
24.23883	96521
24.24697	97298
24.25508	100100
24.26320	94248
24.27133	88877
24.27945	76939
24.28758	76122
24.29570	73894
24.30382	74711
24.31195	78878
24.32007	76587
24.32818	74924
24.33632	78115
24.34443	72761
24.35257	73748
24.36068	71242
24.36880	71190
24.37693	73588
24.38505	68742
24.39318	75808
24.40130	84081
24.40942	105146
24.41755	130629
24.42567	148232
24.43380	149923
24.44192	142895
24.45003	115355
24.45817	92815
24.46628	79536
24.47440	73247
24.48253	65248
24.49065	61412
24.49878	65688
24.50690	60670
24.51502	66382
24.52315	79595
24.53127	78088
24.53940	86315
24.54752	92416
24.55563	80965
24.56377	81994
24.57188	71981
24.58000	70221
24.58813	65778
24.59625	67457
24.60438	65292
24.61250	60427
24.62062	62229
24.62875	66988
24.63687	65955
24.64500	70038
24.65312	66905
24.66123	60390
24.66937	62349
24.67748	66833
24.68562	63863
24.69373	65907
24.70185	64543
24.70998	63404
24.71810	62756
24.72622	59470
24.73435	59244
24.74247	58879
24.75060	54939
24.75872	54361
24.76683	51895
24.77497	52910
24.78308	54145
24.79122	52138
24.79933	53637
24.80745	52231
24.81558	49259
24.82370	52062
24.83183	49267
24.83995	51503
24.84807	51207
24.85620	51631
24.86432	49454
24.87243	50192
24.88057	49920
24.88868	50965
24.89682	50026
24.90493	52361
24.91305	51617
24.92118	49277
24.92930	52704
24.93743	48338
24.94555	52104
24.95367	50190
24.96180	46067
24.96992	47775
24.97803	49651
24.98617	49992
24.99428	44043
25.00242	46526
25.01053	45849
25.01865	48311
25.02678	49404
25.03490	42797
25.04303	43785
25.05115	47590
25.05927	48922
25.06740	47308
25.07552	44989
25.08365	48228
25.09177	47191
25.09988	44579
25.10802	48570
25.11613	52466
25.12425	51317
25.13238	50515
25.14050	51246
25.14863	53857
25.15675	53741
25.16487	64443
25.17300	71757
25.18112	72882
25.18925	69709
25.19737	65951
25.20548	66689
25.21362	61526
25.22173	59732
25.22987	51582
25.23798	51777
25.24610	52156
25.25423	52799
25.26235	49649
25.27047	51245
25.27860	54245
25.28672	48233
25.29485	48890
25.30297	44210
25.31108	49452
25.31922	47943
25.32733	50352
25.33547	55184
25.34358	51175
25.35170	54688
25.35983	52346
25.36795	51553
25.37607	48555
25.38420	44263
25.39232	42000
25.40045	43654
25.40857	44156
25.41668	41519
25.42482	44342
25.43293	42213
25.44107	46027
25.44918	42554
25.45730	42255
25.46543	41059
25.47355	42501
25.48168	45485
25.48980	50395
25.49792	53463
25.50605	56458
25.51417	54424
25.52228	57712
25.53042	56592
25.53853	49524
25.54667	51529
25.55478	45957
25.56290	48899
25.57103	42402
25.57915	41225
25.58728	44431
25.59540	43642
25.60352	41692
25.61165	40345
25.61977	39294
25.62790	42469
25.63602	44634
25.64413	37214
25.65227	39709
25.66038	41992
25.66850	43404
25.67663	37903
25.68475	39748
25.69288	41288
25.70100	36899
25.70912	40248
25.71725	40903
25.72537	38122
25.73350	36374
25.74162	40655
25.74973	41741
25.75787	39510
25.76598	41520
25.77410	38799
25.78223	38744
25.79035	35303
25.79848	34895
25.80660	40419
25.81472	41590
25.82285	41282
25.83097	40552
25.83910	43232
25.84722	43186
25.85533	42595
25.86347	41826
25.87158	36278
25.87972	38563
25.88783	41487
25.89595	41889
25.90408	35295
25.91220	40553
25.92032	37864
25.92845	39215
25.93657	40642
25.94470	40323
25.95282	39790
25.96093	41663
25.96907	42695
25.97718	42221
25.98532	40188
25.99343	43529
26.00155	37803
26.00968	37093
26.01780	39238
26.02593	43162
26.03405	39512
26.04217	37183
26.05030	38076
26.05842	39572
26.06653	40440
26.07467	42158
26.08278	41104
26.09092	38650
26.09903	40482
26.10715	41035
26.11528	43674
26.12340	42044
26.13153	42525
26.13965	44601
26.14777	46900
26.15590	46030
26.16402	51165
26.17213	52649
26.18027	54165
26.18838	52596
26.19652	54228
26.20463	54663
26.21275	52411
26.22088	51139
26.22900	53520
26.23713	50333
26.24525	46843
26.25337	48935
26.26150	52555
26.26962	50978
26.27775	49006
26.28587	46034
26.29398	44313
26.30212	43854
26.31023	43794
26.31835	43901
26.32648	44327
26.33460	45129
26.34273	43895
26.35085	42394
26.35897	46297
26.36710	44028
26.37522	41674
26.38335	43287
26.39147	42170
26.39958	44062
26.40772	45773
26.41583	43495
26.42395	45262
26.43208	48085
26.44020	47809
26.44833	44008
26.45645	37879
26.46457	41523
26.47270	43373
26.48082	40678
26.48895	41768
26.49707	41854
26.50518	41882
26.51332	43213
26.52143	40247
26.52957	37181
26.53768	37535
26.54580	36555
26.55393	36929
26.56205	40531
26.57017	39233
26.57830	38214
26.58642	40105
26.59455	37762
26.60267	40235
26.61078	40879
26.61892	38577
26.62703	39181
26.63517	38010
26.64328	36245
26.65140	41248
26.65953	39040
26.66765	42510
26.67578	41684
26.68390	40072
26.69202	41059
26.70015	44797
26.70827	43444
26.71638	41831
26.72452	41927
26.73263	42564
26.74077	40370
26.74888	36924
26.75700	37405
26.76513	43560
26.77325	44292
26.78138	40355
26.78950	41027
26.79762	43515
26.80575	36542
26.81387	38723
26.82198	40175
26.83012	40638
26.83823	38889
26.84637	43927
26.85448	48298
26.86260	46276
26.87073	42748
26.87885	45496
26.88698	43980
26.89510	47906
26.90322	42101
26.91135	41334
26.91947	40591
26.92760	38758
26.93572	41955
26.94383	40198
26.95197	40156
26.96008	40641
26.96820	44707
26.97633	61272
26.98445	93105
26.99258	168042
27.00070	314154
27.00882	615582
27.01695	1112810
27.02507	1799905
27.03320	2386019
27.04132	2684298
27.04943	2576130
27.05757	2134248
27.06568	1586614
27.07382	1118841
27.08193	797636
27.09005	597592
27.09818	491191
27.10630	410071
27.11442	344810
27.12255	300704
27.13067	270283
27.13880	236845
27.14692	212730
27.15503	200514
27.16317	186418
27.17128	181245
27.17942	163501
27.18753	158780
27.19565	157690
27.20378	148371
27.21190	140416
27.22002	136766
27.22815	132124
27.23627	137407
27.24440	125505
27.25252	121841
27.26063	112063
27.26877	103695
27.27688	101172
27.28502	104409
27.29313	93110
27.30125	100737
27.30938	90240
27.31750	88145
27.32563	86386
27.33375	85026
27.34187	87702
27.35000	81921
27.35812	75772
27.36623	79339
27.37437	79173
27.38248	74826
27.39062	78391
27.39873	77256
27.40685	74029
27.41498	82022
27.42310	72642
27.43123	76582
27.43935	70476
27.44747	64698
27.45560	68525
27.46372	66866
27.47183	61801
27.47997	66902
27.48808	60464
27.49622	66329
27.50433	63792
27.51245	60630
27.52058	65249
27.52870	62475
27.53683	63512
27.54495	59679
27.55307	64050
27.56120	62790
27.56932	69884
27.57745	62615
27.58557	68617
27.59368	60238
27.60182	56915
27.60993	59384
27.61805	58785
27.62618	60121
27.63430	63026
27.64243	60411
27.65055	58055
27.65867	58689
27.66680	57144
27.67492	57193
27.68305	59441
27.69117	50612
27.69928	53530
27.70742	52465
27.71553	54764
27.72367	54573
27.73178	50622
27.73990	55192
27.74803	49044
27.75615	51519
27.76427	52569
27.77240	48904
27.78052	46840
27.78865	47644
27.79677	46729
27.80488	46928
27.81302	52557
27.82113	51828
27.82927	48203
27.83738	48650
27.84550	48374
27.85363	48242
27.86175	49496
27.86987	52063
27.87800	51809
27.88612	51444
27.89425	46830
27.90237	50419
27.91048	49371
27.91862	48033
27.92673	47718
27.93487	46085
27.94298	46958
27.95110	49337
27.95923	49999
27.96735	47476
27.97548	45372
27.98360	40436
27.99172	50207
27.99985	41514
28.00797	46184
28.01608	50679
28.02422	42316
28.03233	45834
28.04047	46316
28.04858	48044
28.05670	47860
28.06483	48948
28.07295	48696
28.08108	47994
28.08920	46255
28.09732	48543
28.10545	45900
28.11357	44030
28.12170	45716
28.12982	42130
28.13793	41904
28.14607	43958
28.15418	45044
28.16230	40955
28.17043	43363
28.17855	42255
28.18668	44185
28.19480	43742
28.20292	48586
28.21105	50280
28.21917	48825
28.22730	51356
28.23542	52264
28.24353	57132
28.25167	55259
28.25978	50194
28.26790	47118
28.27603	48336
28.28415	50294
28.29228	45682
28.30040	45056
28.30852	53054
28.31665	60955
28.32477	83613
28.33290	120304
28.34102	167787
28.34913	229235
28.35727	292424
28.36538	360351
28.37352	413224
28.38163	453715
28.38975	456544
28.39788	446351
28.40600	410781
28.41412	373151
28.42225	328344
28.43037	274884
28.43850	232207
28.44662	209633
28.45473	182655
28.46287	168132
28.47098	146884
28.47912	140884
28.48723	129471
28.49535	118786
28.50348	117024
28.51160	113032
28.51973	103738
28.52785	105196
28.53597	95946
28.54410	96218
28.55222	90802
28.56033	90941
28.56847	88914
28.57658	88429
28.58472	88064
28.59283	77562
28.60095	82188
28.60908	81398
28.61720	77569
28.62533	75566
28.63345	76590
28.64157	72930
28.64970	70956
28.65782	73453
28.66593	71873
28.67407	76301
28.68218	72284
28.69032	74396
28.69843	74152
28.70655	73535
28.71468	67113
28.72280	68764
28.73093	69501
28.73905	64362
28.74717	67307
28.75530	62988
28.76342	62561
28.77155	70781
28.77967	81014
28.78778	89166
28.79592	96518
28.80403	98542
28.81215	98229
28.82028	82260
28.82840	75166
28.83653	67612
28.84465	61960
28.85277	54278
28.86090	57135
28.86902	52489
28.87715	54191
28.88527	57582
28.89338	51543
28.90152	57110
28.90963	54535
28.91775	53677
28.92588	53989
28.93400	55114
28.94213	54577
28.95025	54506
28.95837	53148
28.96650	49308
28.97462	56711
28.98275	53403
28.99087	58079
28.99898	54486
29.00712	55059
29.01523	51425
29.02337	59335
29.03148	57078
29.03960	49498
29.04773	50431
29.05585	48822
29.06397	48417
29.07210	51232
29.08022	47471
29.08835	53249
29.09647	50249
29.10458	45022
29.11272	48137
29.12083	52642
29.12897	49916
29.13708	47982
29.14520	50114
29.15333	51564
29.16145	53231
29.16958	49467
29.17770	51767
29.18582	51456
29.19395	51941
29.20207	53762
29.21018	47595
29.21832	50723
29.22643	53527
29.23457	52918
29.24268	49998
29.25080	48474
29.25893	48582
29.26705	49077
29.27518	57034
29.28330	52313
29.29142	49443
29.29955	44090
29.30767	48142
29.31578	47375
29.32392	48310
29.33203	49914
29.34017	54032
29.34828	48614
29.35640	53509
29.36453	50250
29.37265	49767
29.38078	47848
29.38890	48129
29.39702	47562
29.40515	45985
29.41327	49833
29.42140	53734
29.42952	49047
29.43763	52208
29.44577	52154
29.45388	50817
29.46200	50497
29.47013	46600
29.47825	50011
29.48638	47507
29.49450	50216
29.50262	51557
29.51075	56420
29.51887	54444
29.52700	51448
29.53512	58715
29.54323	49414
29.55137	55306
29.55948	46933
29.56762	51240
29.57573	47699
29.58385	48720
29.59198	50565
29.60010	45932
29.60822	47048
29.61635	45865
29.62447	43266
29.63260	46669
29.64072	47402
29.64883	44555
29.65697	45234
29.66508	48094
29.67322	47214
29.68133	49796
29.68945	44307
29.69758	47996
29.70570	47903
29.71382	43086
29.72195	44110
29.73007	43520
29.73820	42975
29.74632	46136
29.75443	43762
29.76257	44127
29.77068	41431
29.77882	44406
29.78693	45559
29.79505	46085
29.80318	44032
29.81130	46782
29.81943	40476
29.82755	40541
29.83567	40962
29.84380	41773
29.85192	42022
29.86003	43546
29.86817	39884
29.87628	44254
29.88442	42338
29.89253	44170
29.90065	44992
29.90878	49876
29.91690	56032
29.92503	52001
29.93315	54664
29.94127	55521
29.94940	50410
29.95752	51193
29.96563	62361
29.97377	65025
29.98188	77482
29.99002	87712
29.99813	108576
30.00625	131966
30.01438	149887
30.02250	167593
30.03063	176428
30.03875	184611
30.04687	195515
30.05500	192769
30.06312	192161
30.07125	177707
30.07937	171538
30.08748	158900
30.09562	151925
30.10373	147375
30.11185	127180
30.11998	119954
30.12810	102999
30.13623	108698
30.14435	91942
30.15247	86143
30.16060	94207
30.16872	89770
30.17685	80096
30.18497	80197
30.19308	77991
30.20122	73777
30.20933	74552
30.21747	68419
30.22558	67217
30.23370	63916
30.24183	63804
30.24995	63296
30.25807	67064
30.26620	60553
30.27432	56179
30.28245	59503
30.29057	63234
30.29868	56446
30.30682	54745
30.31493	57550
30.32307	58930
30.33118	54543
30.33930	55851
30.34743	53775
30.35555	51124
30.36367	56802
30.37180	52042
30.37992	51514
30.38805	52191
30.39617	52613
30.40428	50002
30.41242	53178
30.42053	48308
30.42867	48984
30.43678	52724
30.44490	49499
30.45303	48174
30.46115	45745
30.46928	47379
30.47740	49993
30.48552	50819
30.49365	47412
30.50177	49203
30.50988	45647
30.51802	47790
30.52613	49593
30.53427	48807
30.54238	45208
30.55050	47883
30.55863	46619
30.56675	47680
30.57488	53349
30.58300	43279
30.59112	39667
30.59925	48064
30.60737	44153
30.61550	44690
30.62362	40780
30.63173	42437
30.63987	44285
30.64798	44465
30.65610	44312
30.66423	45591
30.67235	45759
30.68048	45969
30.68860	40034
30.69672	43632
30.70485	42637
30.71297	45822
30.72110	46553
30.72922	38940
30.73733	41964
30.74547	42478
30.75358	41041
30.76170	39149
30.76983	42241
30.77795	42709
30.78608	40655
30.79420	41880
30.80232	45919
30.81045	47810
30.81857	49687
30.82670	53073
30.83482	50127
30.84293	50350
30.85107	49925
30.85918	45316
30.86732	43699
30.87543	42748
30.88355	45266
30.89168	43516
30.89980	45064
30.90792	46330
30.91605	41476
30.92417	41995
30.93230	42251
30.94042	42408
30.94853	40858
30.95667	40246
30.96478	43232
30.97292	41712
30.98103	43418
30.98915	45018
30.99728	39795
31.00540	44616
31.01352	42082
31.02165	40545
31.02977	41081
31.03790	42441
31.04602	41060
31.05413	45299
31.06227	45076
31.07038	45006
31.07852	44313
31.08663	43970
31.09475	51440
31.10288	53526
31.11100	60741
31.11913	64155
31.12725	60586
31.13537	63215
31.14350	55559
31.15162	55134
31.15973	53495
31.16787	54753
31.17598	55008
31.18412	62398
31.19223	76441
31.20035	109497
31.20848	157872
31.21660	234025
31.22473	324265
31.23285	416976
31.24097	466842
31.24910	457747
31.25722	358722
31.26535	275240
31.27347	190147
31.28158	123950
31.28972	82326
31.29783	64648
31.30595	60752
31.31408	49973
31.32220	49130
31.33033	46893
31.33845	48327
31.34657	50132
31.35470	45823
31.36282	45269
31.37095	44696
31.37907	45999
31.38718	46659
31.39532	46638
31.40343	39895
31.41157	44368
31.41968	45711
31.42780	44926
31.43593	50434
31.44405	46491
31.45217	47355
31.46030	52040
31.46842	46159
31.47655	41454
31.48467	47521
31.49278	47538
31.50092	45041
31.50903	40869
31.51717	43327
31.52528	44442
31.53340	44317
31.54153	42838
31.54965	42892
31.55777	40358
31.56590	41027
31.57402	44519
31.58215	40221
31.59027	45182
31.59838	45298
31.60652	41256
31.61463	41938
31.62277	42464
31.63088	41387
31.63900	42274
31.64713	42514
31.65525	44316
31.66338	40677
31.67150	41693
31.67962	42849
31.68775	48297
31.69587	43703
31.70398	45175
31.71212	42676
31.72023	47530
31.72837	42722
31.73648	40074
31.74460	38273
31.75273	39934
31.76085	41944
31.76898	40345
31.77710	40393
31.78522	39273
31.79335	43842
31.80147	41732
31.80958	44987
31.81772	47887
31.82583	42392
31.83397	43963
31.84208	45942
31.85020	46770
31.85833	49104
31.86645	50089
31.87458	52254
31.88270	58911
31.89082	58601
31.89895	51252
31.90707	57275
31.91520	52897
31.92332	55623
31.93143	62753
31.93957	65504
31.94768	77938
31.95580	86785
31.96393	95447
31.97205	108822
31.98018	118201
31.98830	116613
31.99642	114825
32.00455	109254
32.01267	110880
32.02080	105998
32.02892	104847
32.03703	98934
32.04517	87159
32.05328	84657
32.06142	78198
32.06953	74587
32.07765	72817
32.08578	72960
32.09390	76098
32.10202	70896
32.11015	74381
32.11827	71796
32.12640	68137
32.13452	65476
32.14263	62674
32.15077	58801
32.15888	56243
32.16702	58128
32.17513	58363
32.18325	50436
32.19138	53565
32.19950	48803
32.20762	50258
32.21575	52038
32.22387	47880
32.23200	49647
32.24012	48055
32.24823	52320
32.25637	49628
32.26448	50622
32.27262	48763
32.28073	48894
32.28885	47678
32.29698	48429
32.30510	50208
32.31323	49261
32.32135	49207
32.32947	51080
32.33760	54222
32.34572	52726
32.35383	55822
32.36197	60233
32.37008	58639
32.37822	63635
32.38633	59126
32.39445	52951
32.40258	57422
32.41070	49632
32.41883	52793
32.42695	53107
32.43507	49293
32.44320	48132
32.45132	48436
32.45945	48946
32.46757	47729
32.47568	50391
32.48382	51204
32.49193	46362
32.50005	47292
32.50818	44361
32.51630	42907
32.52443	44843
32.53255	43566
32.54067	41766
32.54880	41849
32.55692	42140
32.56505	44775
32.57317	43540
32.58128	47474
32.58942	46839
32.59753	46530
32.60565	42037
32.61378	42460
32.62190	48430
32.63003	42877
32.63815	41486
32.64627	45567
32.65440	43445
32.66252	50114
32.67065	56007
32.67877	61647
32.68688	72419
32.69502	76937
32.70313	77684
32.71127	69224
32.71938	64395
32.72750	57817
32.73563	53088
32.74375	51105
32.75187	46694
32.76000	45811
32.76812	49688
32.77625	45027
32.78437	46642
32.79248	44249
32.80062	47044
32.80873	42062
32.81687	43872
32.82498	45389
32.83310	50575
32.84123	46484
32.84935	47422
32.85747	46056
32.86560	42079
32.87372	39020
32.88185	44272
32.88997	44736
32.89808	40804
32.90622	42379
32.91433	46640
32.92247	48262
32.93058	44876
32.93870	49261
32.94683	45013
32.95495	42852
32.96308	46624
32.97120	42503
32.97932	42797
32.98745	45099
32.99557	44367
33.00368	44204
33.01182	48693
33.01993	46940
33.02807	42392
33.03618	43927
33.04430	42149
33.05243	43658
33.06055	41103
33.06868	45728
33.07680	44743
33.08492	43906
33.09305	48651
33.10117	43975
33.10930	49483
33.11742	50566
33.12553	60578
33.13367	66682
33.14178	69248
33.14990	63284
33.15803	58319
33.16615	53338
33.17428	50268
33.18240	47635
33.19052	44228
33.19865	48070
33.20677	47293
33.21490	49769
33.22302	48854
33.23113	46809
33.23927	50314
33.24738	48018
33.25550	48862
33.26363	47452
33.27175	48517
33.27988	45477
33.28800	44297
33.29612	39509
33.30425	46718
33.31237	46170
33.32050	44843
33.32862	41619
33.33673	45785
33.34487	42590
33.35298	42689
33.36112	42091
33.36923	42229
33.37735	44668
33.38548	47440
33.39360	47695
33.40172	46987
33.40985	47047
33.41797	47520
33.42610	46305
33.43422	45161
33.44233	43694
33.45047	43572
33.45858	43620
33.46672	44907
33.47483	46269
33.48295	42792
33.49108	43619
33.49920	43887
33.50733	44057
33.51545	44582
33.52357	39997
33.53170	39463
33.53982	45226
33.54793	45082
33.55607	42675
33.56418	44074
33.57232	45408
33.58043	47225
33.58855	47291
33.59668	48152
33.60480	43650
33.61293	41358
33.62105	46940
33.62917	45249
33.63730	42163
33.64542	41424
33.65353	40095
33.66167	45819
33.66978	44506
33.67792	45439
33.68603	46282
33.69415	47125
33.70228	49520
33.71040	48296
33.71853	44942
33.72665	44325
33.73477	44708
33.74290	47119
33.75102	43246
33.75915	41841
33.76727	46710
33.77538	44239
33.78352	48846
33.79163	46972
33.79975	43705
33.80788	44605
33.81600	43700
33.82413	43892
33.83225	42349
33.84037	47232
33.84850	51243
33.85662	46061
33.86475	47870
33.87287	47464
33.88098	49287
33.88912	49315
33.89723	48051
33.90537	45760
33.91348	51092
33.92160	47294
33.92973	46428
33.93785	49566
33.94597	47525
33.95410	43057
33.96222	47652
33.97035	49397
33.97847	48937
33.98658	43363
33.99472	45038
34.00283	45012
34.01097	45834
34.01908	47074
34.02720	50400
34.03533	47562
34.04345	46034
34.05157	48008
34.05970	45058
34.06782	48105
34.07595	44531
34.08407	44928
34.09218	51401
34.10032	47743
34.10843	48933
34.11657	44688
34.12468	49503
34.13280	51505
34.14093	47982
34.14905	46831
34.15718	47950
34.16530	46260
34.17342	48266
34.18155	45846
34.18967	45246
34.19778	46084
34.20592	43497
34.21403	42305
34.22217	48815
34.23028	48925
34.23840	45524
34.24653	46446
34.25465	48448
34.26278	45989
34.27090	47711
34.27902	49008
34.28715	48079
34.29527	49194
34.30338	49017
34.31152	46613
34.31963	46376
34.32777	48924
34.33588	49959
34.34400	46689
34.35213	47596
34.36025	47293
34.36838	45629
34.37650	50336
34.38462	48520
34.39275	51758
34.40087	50493
34.40900	48034
34.41712	49851
34.42523	49760
34.43337	48768
34.44148	48817
34.44960	45161
34.45773	50840
34.46585	47628
34.47398	49421
34.48210	49681
34.49022	48488
34.49835	49933
34.50647	51364
34.51460	50405
34.52272	49433
34.53083	52287
34.53897	61230
34.54708	63242
34.55522	74995
34.56333	84913
34.57145	94816
34.57958	92701
34.58770	100131
34.59582	89859
34.60395	86555
34.61207	83286
34.62020	73045
34.62832	70937
34.63643	71595
34.64457	68250
34.65268	63552
34.66082	64431
34.66893	60767
34.67705	57787
34.68518	56788
34.69330	56183
34.70142	56637
34.70955	52787
34.71767	58097
34.72580	54337
34.73392	57168
34.74203	59394
34.75017	54015
34.75828	56824
34.76642	50547
34.77453	53173
34.78265	56446
34.79078	55325
34.79890	52611
34.80703	54906
34.81515	55550
34.82327	52849
34.83140	53359
34.83952	52621
34.84763	54256
34.85577	52883
34.86388	59011
34.87202	55009
34.88013	54713
34.88825	55028
34.89638	51970
34.90450	49763
34.91263	54386
34.92075	59818
34.92887	52749
34.93700	52622
34.94512	51298
34.95325	59032
34.96137	58771
34.96948	58175
34.97762	59883
34.98573	65025
34.99385	64372
35.00198	69932
35.01010	63798
35.01823	61295
35.02635	57861
35.03447	60867
35.04260	58527
35.05072	55780
35.05885	58488
35.06697	59237
35.07508	57829
35.08322	62100
35.09133	55146
35.09945	57341
35.10758	53590
35.11570	51956
35.12383	53752
35.13195	55524
35.14007	64258
35.14820	61879
35.15632	65021
35.16445	67061
35.17257	66427
35.18068	65409
35.18882	67370
35.19693	64504
35.20507	61066
35.21318	53648
35.22130	57115
35.22943	55003
35.23755	52303
35.24567	55031
35.25380	55609
35.26192	54673
35.27005	55382
35.27817	58139
35.28628	58179
35.29442	56716
35.30253	56793
35.31067	54100
35.31878	53535
35.32690	52306
35.33503	53029
35.34315	53730
35.35127	51631
35.35940	55754
35.36752	50271
35.37565	50800
35.38377	53735
35.39188	51111
35.40002	50489
35.40813	53097
35.41627	53023
35.42438	50835
35.43250	53453
35.44063	53995
35.44875	51338
35.45688	54912
35.46500	53090
35.47312	54729
35.48125	59483
35.48937	52520
35.49748	54671
35.50562	55853
35.51373	53432
35.52187	54157
35.52998	54095
35.53810	52562
35.54623	49547
35.55435	53168
35.56248	54159
35.57060	53135
35.57872	57834
35.58685	54172
35.59497	52072
35.60310	54832
35.61122	57296
35.61933	57623
35.62747	58813
35.63558	56776
35.64370	54425
35.65183	51045
35.65995	52254
35.66808	56179
35.67620	48451
35.68432	54668
35.69245	59138
35.70057	58911
35.70870	59852
35.71682	62688
35.72493	57421
35.73307	62376
35.74118	64853
35.74932	59675
35.75743	57308
35.76555	57142
35.77368	62255
35.78180	57747
35.78992	53260
35.79805	55235
35.80617	55372
35.81430	53204
35.82242	57343
35.83053	53086
35.83867	51598
35.84678	60341
35.85492	55187
35.86303	57630
35.87115	58394
35.87928	52037
35.88740	51398
35.89552	57788
35.90365	55632
35.91177	56357
35.91990	54215
35.92802	54442
35.93613	56312
35.94427	52836
35.95238	55271
35.96052	58013
35.96863	58228
35.97675	53782
35.98488	50959
35.99300	56654
36.00113	55668
36.00925	55535
36.01737	54342
36.02550	57971
36.03362	52878
36.04173	61124
36.04987	59501
36.05798	64223
36.06612	62413
36.07423	67337
36.08235	59223
36.09048	60680
36.09860	60959
36.10673	58189
36.11485	57732
36.12297	58283
36.13110	59695
36.13922	53678
36.14733	56285
36.15547	62607
36.16358	58938
36.17172	60307
36.17983	59967
36.18795	56940
36.19608	56478
36.20420	60922
36.21233	58139
36.22045	60322
36.22857	59816
36.23670	64362
36.24482	59698
36.25295	61113
36.26107	58644
36.26918	55190
36.27732	57255
36.28543	60164
36.29355	56023
36.30168	60895
36.30980	61869
36.31793	62537
36.32605	72429
36.33417	82998
36.34230	90410
36.35042	85007
36.35855	79466
36.36667	76879
36.37478	72014
36.38292	72650
36.39103	79108
36.39917	77816
36.40728	74551
36.41540	80897
36.42353	76069
36.43165	67992
36.43977	66223
36.44790	64167
36.45602	60628
36.46415	59517
36.47227	60192
36.48038	61250
36.48852	56244
36.49663	56996
36.50477	55679
36.51288	62073
36.52100	57693
36.52913	55958
36.53725	55336
36.54537	57300
36.55350	57270
36.56162	59923
36.56975	55418
36.57787	60591
36.58598	60083
36.59412	61366
36.60223	56763
36.61037	61750
36.61848	57604
36.62660	56232
36.63473	54352
36.64285	59517
36.65098	61853
36.65910	60588
36.66722	61624
36.67535	58807
36.68347	60103
36.69158	63626
36.69972	58576
36.70783	61344
36.71597	55677
36.72408	62054
36.73220	64558
36.74033	61073
36.74845	64976
36.75658	63276
36.76470	56568
36.77282	62680
36.78095	59262
36.78907	61169
36.79720	60029
36.80532	61874
36.81343	60163
36.82157	63647
36.82968	57346
36.83780	57683
36.84593	60038
36.85405	56191
36.86218	58125
36.87030	62684
36.87842	64095
36.88655	57553
36.89467	57613
36.90280	59053
36.91092	61062
36.91903	56782
36.92717	59028
36.93528	57191
36.94340	59196
36.95153	58449
36.95965	57711
36.96778	60352
36.97590	59988
36.98402	58868
36.99215	64558
37.00027	57484
37.00840	58293
37.01652	65016
37.02463	61217
37.03277	64353
37.04088	58047
37.04902	57804
37.05713	59299
37.06525	58326
37.07338	62232
37.08150	63872
37.08962	60561
37.09775	65103
37.10587	64303
37.11400	62844
37.12212	64660
37.13023	58620
37.13837	62402
37.14648	64963
37.15462	60762
37.16273	61635
37.17085	63892
37.17898	64543
37.18710	62420
37.19522	59795
37.20335	67092
37.21147	60954
37.21960	66743
37.22772	68104
37.23583	68299
37.24397	70197
37.25208	75233
37.26022	73893
37.26833	79644
37.27645	75628
37.28458	82548
37.29270	75718
37.30083	76354
37.30895	72410
37.31707	70365
37.32520	67690
37.33332	66046
37.34143	78128
37.34957	77477
37.35768	76779
37.36582	90476
37.37393	97348
37.38205	93771
37.39018	96179
37.39830	92709
37.40643	93012
37.41455	89968
37.42267	90033
37.43080	87348
37.43892	91316
37.44705	80811
37.45517	77629
37.46328	81677
37.47142	76559
37.47953	78791
37.48765	81327
