C:\MassHunter\GCMS\1\data\JTB-E02\BACandBLUE\JTB-E18-014-13.D Tue Jun 25 17:28:02 2019
Start of data points
2.09528	80219
2.10340	79727
2.11152	77430
2.11965	73758
2.12777	82605
2.13590	82943
2.14402	79988
2.15213	82684
2.16027	79064
2.16838	81500
2.17650	77632
2.18463	76259
2.19275	75980
2.20088	74543
2.20900	74325
2.21712	73499
2.22525	71187
2.23337	68615
2.24150	68756
2.24962	73809
2.25773	70513
2.26587	79789
2.27398	290926
2.28212	1093047
2.29023	1183917
2.29835	555125
2.30648	329333
2.31460	252353
2.32272	235041
2.33085	213161
2.33897	247628
2.34710	241066
2.35522	194120
2.36333	167802
2.37147	159101
2.37958	150375
2.38772	152323
2.39583	144998
2.40395	138598
2.41208	135201
2.42020	137053
2.42833	130923
2.43645	132738
2.44457	132559
2.45270	130133
2.46082	133294
2.46893	128782
2.47707	117986
2.48518	123291
2.49332	151736
2.50143	195290
2.50955	162887
2.51768	136915
2.52580	135064
2.53393	127534
2.54205	130528
2.55017	128738
2.55830	169549
2.56642	260826
2.57453	236688
2.58267	176621
2.59078	153653
2.59892	148869
2.60703	163329
2.61515	248997
2.62328	317066
2.63140	262729
2.63953	197358
2.64765	172482
2.65577	159390
2.66390	143984
2.67202	141557
2.68015	136841
2.68827	136113
2.69638	131431
2.70452	129581
2.71263	126709
2.72075	129391
2.72888	123724
2.73700	124270
2.74513	120615
2.75325	122055
2.76137	121879
2.76950	122025
2.77762	127412
2.78575	170476
2.79387	229953
2.80198	211730
2.81012	160290
2.81823	168449
2.82637	193174
2.83448	239503
2.84260	258394
2.85073	205542
2.85885	163093
2.86697	146042
2.87510	141216
2.88322	133154
2.89135	133548
2.89947	128142
2.90758	123325
2.91572	118487
2.92383	116493
2.93197	118035
2.94008	117555
2.94820	120382
2.95633	117792
2.96445	113082
2.97257	107842
2.98070	116856
2.98882	119643
2.99695	126288
3.00507	137723
3.01318	142748
3.02132	136904
3.02943	130048
3.03757	121318
3.04568	116981
3.05380	120104
3.06193	133264
3.07005	151885
3.07818	142390
3.08630	140823
3.09442	227462
3.10255	745857
3.11067	2467113
3.11878	3767615
3.12692	2831701
3.13503	1749692
3.14317	1255956
3.15128	1006884
3.15940	820018
3.16753	728260
3.17565	691882
3.18378	696909
3.19190	1102643
3.20002	1812335
3.20815	1793294
3.21627	1236782
3.22438	925578
3.23252	791756
3.24063	654402
3.24877	579922
3.25688	520794
3.26500	464307
3.27313	425516
3.28125	407116
3.28938	543967
3.29750	1435619
3.30562	3937255
3.31375	6698555
3.32187	6997068
3.33000	5221333
3.33812	3470260
3.34623	2512417
3.35437	1956967
3.36248	1618894
3.37060	1350042
3.37873	1169121
3.38685	1025781
3.39498	924503
3.40310	830858
3.41122	775213
3.41935	722272
3.42747	679105
3.43560	639014
3.44372	609492
3.45183	591732
3.45997	553843
3.46808	555947
3.47622	567263
3.48433	563442
3.49245	543344
3.50058	517566
3.50870	486253
3.51682	452488
3.52495	440571
3.53307	446791
3.54120	461902
3.54932	453863
3.55743	433812
3.56557	416185
3.57368	390710
3.58182	378892
3.58993	373029
3.59805	365613
3.60618	370702
3.61430	358786
3.62242	361225
3.63055	398457
3.63867	455736
3.64680	488320
3.65492	462945
3.66303	540912
3.67117	1682824
3.67928	5269307
3.68742	8465511
3.69553	7264791
3.70365	4296911
3.71178	2712080
3.71990	2063648
3.72803	1689200
3.73615	1484967
3.74427	1318788
3.75240	1189183
3.76052	1093653
3.76863	1011810
3.77677	953224
3.78488	884893
3.79302	851048
3.80113	859378
3.80925	1201312
3.81738	2051642
3.82550	2579105
3.83363	2148715
3.84175	1495031
3.84987	1173520
3.85800	1016229
3.86612	923806
3.87425	835817
3.88237	788776
3.89048	744516
3.89862	703900
3.90673	668588
3.91485	678075
3.92298	747559
3.93110	945708
3.93923	1021019
3.94735	916121
3.95547	798789
3.96360	839167
3.97172	936932
3.97985	876730
3.98797	761122
3.99608	655198
4.00422	783194
4.01233	1212103
4.02045	1655923
4.02858	1555765
4.03670	1133776
4.04483	814865
4.05295	663577
4.06107	582935
4.06920	532607
4.07732	493016
4.08545	487085
4.09357	457705
4.10168	451543
4.10982	434657
4.11793	417095
4.12607	413449
4.13418	429162
4.14230	587857
4.15043	984875
4.15855	1384884
4.16667	1336074
4.17480	1047976
4.18292	825872
4.19105	689458
4.19917	591266
4.20728	646047
4.21542	1513672
4.22353	4839672
4.23167	1.074576E+07
4.23978	1.524944E+07
4.24790	1.531009E+07
4.25603	1.115893E+07
4.26415	6933398
4.27228	4671568
4.28040	3431840
4.28852	2698028
4.29665	2153783
4.30477	1804475
4.31288	1548295
4.32102	1392361
4.32913	1277226
4.33727	1190332
4.34538	1112084
4.35350	1059246
4.36163	1047622
4.36975	1018909
4.37788	956077
4.38600	884613
4.39412	793450
4.40225	746461
4.41037	692254
4.41848	673284
4.42662	628310
4.43473	611553
4.44287	586664
4.45098	555918
4.45910	550122
4.46723	523439
4.47535	506811
4.48348	492497
4.49160	484763
4.49972	472632
4.50785	469293
4.51597	457917
4.52410	442972
4.53222	442066
4.54033	417903
4.54847	420720
4.55658	416664
4.56470	419798
4.57283	403857
4.58095	385427
4.58908	378148
4.59720	374759
4.60532	357646
4.61345	376103
4.62157	396214
4.62970	523050
4.63782	803097
4.64593	1136660
4.65407	1186298
4.66218	959915
4.67030	710123
4.67843	578539
4.68655	501363
4.69468	450003
4.70280	416415
4.71092	393236
4.71905	379124
4.72717	353119
4.73530	345602
4.74342	327328
4.75153	319979
4.75967	318368
4.76778	313773
4.77592	306251
4.78403	304101
4.79215	305720
4.80028	321218
4.80840	364044
4.81652	376247
4.82465	362600
4.83277	347265
4.84090	351595
4.84902	365515
4.85713	387451
4.86527	349605
4.87338	322503
4.88152	304049
4.88963	302014
4.89775	293244
4.90588	283201
4.91400	277582
4.92213	283146
4.93025	316790
4.93837	496419
4.94650	1078686
4.95462	2237599
4.96273	3525049
4.97087	4124221
4.97898	3685848
4.98712	2803575
4.99523	1960551
5.00335	1433976
5.01148	1146855
5.01960	951802
5.02773	944595
5.03585	1170152
5.04397	1492118
5.05210	1573648
5.06022	1364510
5.06833	1075604
5.07647	899444
5.08458	782188
5.09272	718480
5.10083	656019
5.10895	621986
5.11708	599717
5.12520	560261
5.13333	535233
5.14145	519029
5.14957	507477
5.15770	538758
5.16582	597256
5.17395	658297
5.18207	638399
5.19018	593429
5.19832	576231
5.20643	611214
5.21455	652942
5.22268	660985
5.23080	598164
5.23893	557448
5.24705	525081
5.25517	472409
5.26330	434081
5.27142	409473
5.27955	391646
5.28767	363093
5.29578	356429
5.30392	340064
5.31203	334184
5.32017	331452
5.32828	348969
5.33640	384251
5.34453	430922
5.35265	424285
5.36077	387851
5.36890	362820
5.37702	347283
5.38515	331145
5.39327	361432
5.40138	376321
5.40952	384903
5.41763	373353
5.42577	346206
5.43388	330075
5.44200	311682
5.45013	321716
5.45825	331438
5.46637	324962
5.47450	331143
5.48262	308346
5.49075	288407
5.49887	274503
5.50698	275188
5.51512	280439
5.52323	287358
5.53137	296542
5.53948	281899
5.54760	274933
5.55573	292497
5.56385	315355
5.57198	400460
5.58010	456564
5.58822	454196
5.59635	384131
5.60447	325718
5.61258	289077
5.62072	277068
5.62883	278488
5.63697	293135
5.64508	296790
5.65320	305753
5.66133	286263
5.66945	284022
5.67758	281740
5.68570	297167
5.69382	334596
5.70195	352897
5.71007	341534
5.71818	316780
5.72632	294907
5.73443	278488
5.74257	265277
5.75068	253004
5.75880	244140
5.76693	242923
5.77505	238275
5.78318	233943
5.79130	228694
5.79942	235461
5.80755	227708
5.81567	221424
5.82380	227483
5.83192	240975
5.84003	233228
5.84817	239691
5.85628	234423
5.86440	222624
5.87253	227302
5.88065	218331
5.88878	224464
5.89690	211628
5.90502	203302
5.91315	183779
5.92127	179708
5.92940	169553
5.93752	165994
5.94563	166223
5.95377	177627
5.96188	190742
5.97002	218958
5.97813	258364
5.98625	302610
5.99438	337813
6.00250	333666
6.01062	284517
6.01875	252326
6.02687	207119
6.03500	193394
6.04312	185368
6.05123	181547
6.05937	171461
6.06748	161514
6.07562	155604
6.08373	153171
6.09185	158005
6.09998	158446
6.10810	155229
6.11623	154241
6.12435	176632
6.13247	256063
6.14060	425752
6.14872	610433
6.15683	672513
6.16497	576170
6.17308	421534
6.18122	337910
6.18933	268461
6.19745	242109
6.20558	229122
6.21370	216661
6.22183	209497
6.22995	201857
6.23807	205037
6.24620	211048
6.25432	217361
6.26243	236020
6.27057	239056
6.27868	234079
6.28682	224787
6.29493	203107
6.30305	203023
6.31118	197588
6.31930	203218
6.32743	203884
6.33555	203556
6.34367	198547
6.35180	198287
6.35992	204106
6.36805	196086
6.37617	202363
6.38428	207467
6.39242	203380
6.40053	200779
6.40865	202782
6.41678	205854
6.42490	196685
6.43303	203122
6.44115	201939
6.44927	202529
6.45740	194301
6.46552	197940
6.47365	192880
6.48177	196353
6.48988	203497
6.49802	208568
6.50613	215771
6.51425	205161
6.52238	213382
6.53050	221525
6.53863	220986
6.54675	223076
6.55487	221871
6.56300	229546
6.57112	283668
6.57925	339735
6.58737	402662
6.59548	392165
6.60362	351377
6.61173	295172
6.61987	264601
6.62798	251157
6.63610	248552
6.64423	316110
6.65235	674619
6.66047	1809040
6.66860	3844334
6.67672	5597482
6.68485	5650002
6.69297	4205628
6.70108	2567768
6.70922	1585388
6.71733	1143813
6.72547	898435
6.73358	771889
6.74170	677548
6.74983	689990
6.75795	600133
6.76608	543580
6.77420	504962
6.78232	469667
6.79045	426166
6.79857	408976
6.80668	377943
6.81482	357634
6.82293	340323
6.83107	324793
6.83918	297274
6.84730	305292
6.85543	293855
6.86355	284492
6.87168	263327
6.87980	241863
6.88792	226898
6.89605	200360
6.90417	196537
6.91228	185262
6.92042	180725
6.92853	172542
6.93667	163254
6.94478	154969
6.95290	163672
6.96103	161755
6.96915	175856
6.97728	198228
6.98540	224368
6.99352	209980
7.00165	187941
7.00977	148541
7.01790	141635
7.02602	159711
7.03413	189104
7.04227	187494
7.05038	198609
7.05850	194685
7.06663	199384
7.07475	197835
7.08288	197571
7.09100	190195
7.09912	173208
7.10725	170387
7.11537	158430
7.12350	148740
7.13162	154762
7.13973	154752
7.14787	181175
7.15598	236298
7.16412	294422
7.17223	319867
7.18035	304688
7.18848	249691
7.19660	205374
7.20472	191114
7.21285	232358
7.22097	414930
7.22910	843341
7.23722	1378417
7.24533	1664596
7.25347	1463645
7.26158	1017112
7.26972	647486
7.27783	463399
7.28595	345643
7.29408	272371
7.30220	200591
7.31032	160583
7.31845	165184
7.32657	154406
7.33470	157618
7.34282	154141
7.35093	145019
7.35907	146577
7.36718	147747
7.37532	139402
7.38343	145804
7.39155	147871
7.39968	144081
7.40780	140027
7.41593	138435
7.42405	130246
7.43217	130631
7.44030	122592
7.44842	128557
7.45653	125439
7.46467	121843
7.47278	120019
7.48092	121612
7.48903	115786
7.49715	112348
7.50528	118281
7.51340	139704
7.52153	195965
7.52965	335027
7.53777	589415
7.54590	935640
7.55402	1290762
7.56213	1509749
7.57027	1495030
7.57838	1254878
7.58652	937084
7.59463	614333
7.60275	411047
7.61088	292604
7.61900	223134
7.62713	191956
7.63525	164865
7.64337	151833
7.65150	141426
7.65962	127333
7.66775	130982
7.67587	121228
7.68398	117421
7.69212	112566
7.70023	106988
7.70835	104350
7.71648	108766
7.72460	101917
7.73273	106443
7.74085	98987
7.74897	105725
7.75710	107197
7.76522	121727
7.77335	120934
7.78147	128448
7.78958	129444
7.79772	142301
7.80583	149490
7.81397	140653
7.82208	145996
7.83020	133809
7.83833	123118
7.84645	117690
7.85457	120276
7.86270	131464
7.87082	141390
7.87895	163381
7.88707	182146
7.89518	181480
7.90332	166218
7.91143	151700
7.91957	128996
7.92768	133699
7.93580	156100
7.94393	186170
7.95205	196518
7.96017	193765
7.96830	170084
7.97642	144312
7.98455	130591
7.99267	110200
8.00078	105172
8.00892	95764
8.01703	92072
8.02517	88053
8.03328	85951
8.04140	99219
8.04953	95313
8.05765	90549
8.06578	88026
8.07390	88654
8.08202	88949
8.09015	85245
8.09827	87014
8.10638	84948
8.11452	80572
8.12263	83097
8.13077	93275
8.13888	109184
8.14700	124659
8.15513	134896
8.16325	132762
8.17138	132996
8.17950	113004
8.18762	98848
8.19575	93598
8.20387	83515
8.21200	86953
8.22012	87381
8.22823	82547
8.23637	85879
8.24448	86598
8.25260	77095
8.26073	88663
8.26885	74504
8.27698	77674
8.28510	73429
8.29322	78781
8.30135	76455
8.30947	79494
8.31760	91334
8.32572	82723
8.33383	86455
8.34197	76311
8.35008	80058
8.35820	78833
8.36633	76368
8.37445	73815
8.38258	81444
8.39070	85607
8.39882	75441
8.40695	75401
8.41507	71232
8.42320	72659
8.43132	68081
8.43943	64550
8.44757	63181
8.45568	74220
8.46382	69037
8.47193	61708
8.48005	68630
8.48818	67655
8.49630	68832
8.50442	62521
8.51255	62064
8.52067	69691
8.52880	96035
8.53692	166896
8.54503	263882
8.55317	347671
8.56128	362788
8.56942	295573
8.57753	210493
8.58565	137629
8.59378	108887
8.60190	94041
8.61003	92242
8.61815	94439
8.62627	85706
8.63440	83193
8.64252	72581
8.65063	73930
8.65877	71469
8.66688	74117
8.67502	71300
8.68313	76821
8.69125	80124
8.69938	88784
8.70750	99092
8.71563	100204
8.72375	91380
8.73187	88286
8.74000	80351
8.74812	100282
8.75623	195315
8.76437	408345
8.77248	798179
8.78062	1221490
8.78873	1497418
8.79685	1423888
8.80498	1082959
8.81310	708091
8.82123	457462
8.82935	299324
8.83747	236976
8.84560	219107
8.85372	216659
8.86185	209215
8.86997	201155
8.87808	195342
8.88622	177995
8.89433	170655
8.90245	155633
8.91058	148849
8.91870	152062
8.92683	149422
8.93495	158596
8.94307	164121
8.95120	174897
8.95932	180083
8.96745	168313
8.97557	158942
8.98368	164877
8.99182	164636
8.99993	164384
9.00805	153537
9.01618	133177
9.02430	126386
9.03243	122576
9.04055	116285
9.04867	113527
9.05680	113695
9.06492	108778
9.07305	108577
9.08117	111987
9.08928	114628
9.09742	125171
9.10553	151172
9.11367	179132
9.12178	206237
9.12990	203772
9.13803	186971
9.14615	162304
9.15427	140964
9.16240	128195
9.17052	117591
9.17865	108726
9.18677	109065
9.19488	102203
9.20302	101662
9.21113	94730
9.21927	98634
9.22738	94820
9.23550	100700
9.24363	98572
9.25175	97997
9.25988	99241
9.26800	94009
9.27612	99525
9.28425	94542
9.29237	91451
9.30048	89426
9.30862	94331
9.31673	89706
9.32487	92603
9.33298	90093
9.34110	94893
9.34923	85010
9.35735	88338
9.36548	87283
9.37360	85843
9.38172	86954
9.38985	86897
9.39797	95634
9.40608	102819
9.41422	127642
9.42233	173143
9.43047	222459
9.43858	259165
9.44670	272435
9.45483	256440
9.46295	221214
9.47108	167252
9.47920	139144
9.48732	114004
9.49545	102803
9.50357	103594
9.51170	111882
9.51982	134385
9.52793	144899
9.53607	145620
9.54418	132987
9.55230	117817
9.56043	96951
9.56855	85680
9.57668	71952
9.58480	75201
9.59292	75402
9.60105	67092
9.60917	65674
9.61730	64091
9.62542	62233
9.63353	59785
9.64167	63349
9.64978	56643
9.65792	58224
9.66603	59041
9.67415	59098
9.68228	58390
9.69040	57749
9.69852	52196
9.70665	52803
9.71477	49415
9.72290	51576
9.73102	48234
9.73913	50915
9.74727	50814
9.75538	48939
9.76352	48169
9.77163	46234
9.77975	45964
9.78788	48113
9.79600	48984
9.80412	48283
9.81225	48227
9.82037	46632
9.82850	47161
9.83662	45602
9.84473	49052
9.85287	50343
9.86098	51533
9.86912	53578
9.87723	49572
9.88535	55089
9.89348	54578
9.90160	49795
9.90973	51832
9.91785	54723
9.92597	53090
9.93410	71332
9.94222	92908
9.95033	118269
9.95847	132677
9.96658	140494
9.97472	126763
9.98283	110169
9.99095	93160
9.99908	82721
10.00720	72283
10.01533	69388
10.02345	63769
10.03157	65366
10.03970	55316
10.04782	52669
10.05593	52647
10.06407	56330
10.07218	55720
10.08032	54770
10.08843	58943
10.09655	62607
10.10468	59607
10.11280	62173
10.12093	64120
10.12905	56812
10.13717	57800
10.14530	55729
10.15342	54071
10.16155	50865
10.16967	52793
10.17778	52084
10.18592	50324
10.19403	45918
10.20215	47319
10.21028	50553
10.21840	51337
10.22653	58615
10.23465	57027
10.24277	65052
10.25090	73523
10.25902	98515
10.26715	167836
10.27527	387435
10.28338	848226
10.29152	1611468
10.29963	2473742
10.30777	3482005
10.31588	4983947
10.32400	7186725
10.33213	9851763
10.34025	1.173174E+07
10.34837	1.129426E+07
10.35650	8979588
10.36462	6313337
10.37275	4437089
10.38087	3338596
10.38898	2518037
10.39712	1769633
10.40523	1163067
10.41337	773482
10.42148	551686
10.42960	440122
10.43773	401253
10.44585	399750
10.45397	419930
10.46210	406556
10.47022	386856
10.47835	360079
10.48647	336233
10.49458	293299
10.50272	273265
10.51083	255520
10.51897	244305
10.52708	240903
10.53520	240573
10.54333	238787
10.55145	220853
10.55958	220689
10.56770	204393
10.57582	189345
10.58395	187938
10.59207	173833
10.60018	164514
10.60832	156318
10.61643	150061
10.62457	145793
10.63268	142046
10.64080	128220
10.64893	133135
10.65705	122683
10.66518	124757
10.67330	119195
10.68142	121323
10.68955	118422
10.69767	120955
10.70580	117659
10.71392	120857
10.72203	114835
10.73017	116947
10.73828	112770
10.74640	110069
10.75453	114893
10.76265	106124
10.77078	101080
10.77890	105949
10.78702	93640
10.79515	101260
10.80327	102711
10.81140	110095
10.81952	113212
10.82763	108451
10.83577	106948
10.84388	96238
10.85200	86850
10.86013	83603
10.86825	84125
10.87638	78547
10.88450	77369
10.89262	77117
10.90075	78382
10.90887	76688
10.91700	78997
10.92512	75013
10.93323	75402
10.94137	74019
10.94948	67966
10.95762	71335
10.96573	71000
10.97385	73882
10.98198	74876
10.99010	77382
10.99822	76738
11.00635	82494
11.01447	87935
11.02260	87918
11.03072	75704
11.03883	73952
11.04697	73576
11.05508	72509
11.06322	75617
11.07133	76780
11.07945	81561
11.08758	88885
11.09570	93445
11.10382	90286
11.11195	91319
11.12007	83911
11.12820	78021
11.13632	64197
11.14443	63570
11.15257	59450
11.16068	61483
11.16882	66173
11.17693	70321
11.18505	69120
11.19318	69780
11.20130	66789
11.20943	64815
11.21755	62616
11.22567	57485
11.23380	56660
11.24192	51980
11.25003	48187
11.25817	51629
11.26628	48456
11.27442	49367
11.28253	51768
11.29065	59287
11.29878	95720
11.30690	187487
11.31503	402533
11.32315	829794
11.33127	1476928
11.33940	2128230
11.34752	2524039
11.35565	2514723
11.36377	2035203
11.37188	1450111
11.38002	976529
11.38813	628500
11.39625	461754
11.40438	368998
11.41250	354683
11.42063	334500
11.42875	302261
11.43687	272801
11.44500	245548
11.45312	225213
11.46125	197739
11.46937	189356
11.47748	194739
11.48562	226933
11.49373	259557
11.50187	284018
11.50998	291529
11.51810	272218
11.52623	219541
11.53435	195436
11.54247	163744
11.55060	156406
11.55872	148711
11.56685	152543
11.57497	146102
11.58308	136032
11.59122	141841
11.59933	142098
11.60747	147934
11.61558	159655
11.62370	178673
11.63183	171540
11.63995	155045
11.64807	137271
11.65620	109935
11.66432	101238
11.67245	97909
11.68057	92736
11.68868	98712
11.69682	103871
11.70493	101267
11.71307	106409
11.72118	101110
11.72930	92210
11.73743	84048
11.74555	81922
11.75368	76161
11.76180	71128
11.76992	68007
11.77805	68758
11.78617	60480
11.79428	65547
11.80242	66224
11.81053	63173
11.81867	62195
11.82678	61467
11.83490	60568
11.84303	61795
11.85115	61704
11.85928	54876
11.86740	64841
11.87552	56083
11.88365	57534
11.89177	57827
11.89988	54345
11.90802	51448
11.91613	60080
11.92427	62236
11.93238	62000
11.94050	61929
11.94863	66034
11.95675	62098
11.96488	53555
11.97300	57012
11.98112	60295
11.98925	79021
11.99737	112214
12.00550	166629
12.01362	197395
12.02173	200979
12.02987	185051
12.03798	143992
12.04610	117260
12.05423	92236
12.06235	85574
12.07048	84484
12.07860	88482
12.08672	90471
12.09485	97869
12.10297	102940
12.11110	106559
12.11922	112725
12.12733	124583
12.13547	139194
12.14358	138676
12.15172	128572
12.15983	110081
12.16795	92752
12.17608	75038
12.18420	64580
12.19232	60657
12.20045	63563
12.20857	61330
12.21670	65762
12.22482	63352
12.23293	61363
12.24107	63314
12.24918	63518
12.25732	68455
12.26543	64660
12.27355	67337
12.28168	60031
12.28980	56842
12.29792	56188
12.30605	55530
12.31417	53161
12.32230	52521
12.33042	51322
12.33853	52635
12.34667	52165
12.35478	45259
12.36292	51383
12.37103	50127
12.37915	51617
12.38728	51190
12.39540	54792
12.40353	64656
12.41165	74034
12.41977	86320
12.42790	97218
12.43602	104403
12.44413	97293
12.45227	89409
12.46038	78138
12.46852	77763
12.47663	75666
12.48475	69363
12.49288	64550
12.50100	62091
12.50913	59942
12.51725	58855
12.52537	60284
12.53350	65166
12.54162	74658
12.54975	90481
12.55787	119800
12.56598	146450
12.57412	149170
12.58223	139313
12.59035	133822
12.59848	108223
12.60660	88830
12.61473	82061
12.62285	74263
12.63097	69646
12.63910	68786
12.64722	63764
12.65535	61905
12.66347	58759
12.67158	53500
12.67972	57690
12.68783	53900
12.69595	53435
12.70408	51122
12.71220	51414
12.72033	49295
12.72845	57128
12.73657	51536
12.74470	53995
12.75282	50674
12.76095	50318
12.76907	45495
12.77718	46820
12.78532	44457
12.79343	45882
12.80157	43362
12.80968	44826
12.81780	46684
12.82593	42647
12.83405	39428
12.84217	41514
12.85030	41975
12.85842	46645
12.86655	40360
12.87467	42572
12.88278	41267
12.89092	39184
12.89903	39704
12.90717	40682
12.91528	38481
12.92340	41475
12.93153	40221
12.93965	37772
12.94777	39168
12.95590	42337
12.96402	51179
12.97215	67780
12.98027	83014
12.98838	95866
12.99652	98548
13.00463	90525
13.01277	76205
13.02088	64127
13.02900	59350
13.03713	53069
13.04525	53975
13.05338	50241
13.06150	46488
13.06962	44812
13.07775	46670
13.08587	44179
13.09398	41636
13.10212	44869
13.11023	43666
13.11837	42715
13.12648	39713
13.13460	41341
13.14273	39390
13.15085	41931
13.15898	38836
13.16710	44669
13.17522	43904
13.18335	41749
13.19147	47175
13.19960	50331
13.20772	53405
13.21583	49051
13.22397	52843
13.23208	51023
13.24020	50035
13.24833	47816
13.25645	44968
13.26458	49248
13.27270	43368
13.28082	41174
13.28895	42769
13.29707	38117
13.30520	39247
13.31332	39268
13.32143	38966
13.32957	38580
13.33768	40703
13.34580	39290
13.35393	37665
13.36205	38227
13.37018	38875
13.37830	37313
13.38642	36645
13.39455	37511
13.40267	36225
13.41080	37095
13.41892	33131
13.42703	35925
13.43517	39203
13.44328	37031
13.45142	37470
13.45953	38183
13.46765	40138
13.47578	44660
13.48390	46497
13.49202	44898
13.50015	40596
13.50827	37613
13.51640	41355
13.52452	38566
13.53263	39961
13.54077	40431
13.54888	39132
13.55702	35397
13.56513	38413
13.57325	39979
13.58138	44418
13.58950	51593
13.59763	61522
13.60575	82548
13.61387	109232
13.62200	135725
13.63012	151992
13.63823	143661
13.64637	116066
13.65448	86102
13.66262	67543
13.67073	57238
13.67885	49457
13.68698	43961
13.69510	43888
13.70323	44018
13.71135	43552
13.71947	40261
13.72760	46039
13.73572	61901
13.74383	108038
13.75197	240496
13.76008	541587
13.76822	952452
13.77633	1367858
13.78445	1607439
13.79258	1574372
13.80070	1304016
13.80883	1016473
13.81695	843725
13.82507	799444
13.83320	819374
13.84132	849559
13.84945	776887
13.85757	689433
13.86568	572304
13.87382	444319
13.88193	348657
13.89005	300803
13.89818	242911
13.90630	216865
13.91443	186956
13.92255	173670
13.93067	163718
13.93880	155578
13.94692	150153
13.95505	148421
13.96317	144677
13.97128	145944
13.97942	158919
13.98753	145473
13.99567	148185
14.00378	134424
14.01190	131234
14.02003	126486
14.02815	129540
14.03627	119522
14.04440	120751
14.05252	109597
14.06065	112841
14.06877	107177
14.07688	114249
14.08502	110371
14.09313	104365
14.10127	104517
14.10938	93953
14.11750	97465
14.12563	100907
14.13375	100920
14.14187	103403
14.15000	107613
14.15812	111420
14.16625	122112
14.17437	147538
14.18248	211026
14.19062	317855
14.19873	437633
14.20687	520184
14.21498	537063
14.22310	453433
14.23123	375479
14.23935	275694
14.24748	228735
14.25560	205724
14.26372	190548
14.27185	175492
14.27997	148189
14.28808	139772
14.29622	124744
14.30433	114839
14.31247	106154
14.32058	102476
14.32870	97929
14.33683	95129
14.34495	92969
14.35308	81017
14.36120	81139
14.36932	74080
14.37745	66934
14.38557	63807
14.39368	88659
14.40182	134426
14.40993	203791
14.41807	298186
14.42618	394282
14.43430	396098
14.44243	332518
14.45055	238364
14.45868	175533
14.46680	127544
14.47492	103990
14.48305	93016
14.49117	85788
14.49930	78087
14.50742	77205
14.51553	77460
14.52367	72708
14.53178	80588
14.53990	74298
14.54803	69816
14.55615	68200
14.56428	62407
14.57240	66675
14.58052	59503
14.58865	52530
14.59677	55695
14.60490	54265
14.61302	49806
14.62113	56760
14.62927	51871
14.63738	50440
14.64552	49164
14.65363	51188
14.66175	50549
14.66988	50956
14.67800	47157
14.68612	46425
14.69425	47368
14.70237	44847
14.71050	50973
14.71862	50038
14.72673	52853
14.73487	54749
14.74298	56918
14.75112	62212
14.75923	59931
14.76735	61677
14.77548	65389
14.78360	63654
14.79172	93515
14.79985	196354
14.80797	446440
14.81610	958089
14.82422	1681088
14.83233	2359931
14.84047	2630464
14.84858	2430545
14.85672	1832978
14.86483	1195768
14.87295	740698
14.88108	476109
14.88920	338172
14.89733	270183
14.90545	231481
14.91357	212658
14.92170	194072
14.92982	173057
14.93793	163136
14.94607	152484
14.95418	145686
14.96232	137065
14.97043	127323
14.97855	125575
14.98668	116514
14.99480	109735
15.00293	108656
15.01105	106213
15.01917	104750
15.02730	113996
15.03542	103417
15.04355	101438
15.05167	100744
15.05978	95640
15.06792	90377
15.07603	83766
15.08415	81016
15.09228	78082
15.10040	84672
15.10853	72625
15.11665	76565
15.12477	83017
15.13290	82248
15.14102	87939
15.14915	89225
15.15727	84271
15.16538	81419
15.17352	72969
15.18163	71386
15.18975	63758
15.19788	58545
15.20600	58653
15.21413	55612
15.22225	51507
15.23037	57219
15.23850	54006
15.24662	52317
15.25475	52791
15.26287	48543
15.27098	53714
15.27912	46657
15.28723	47992
15.29537	42159
15.30348	44346
15.31160	46871
15.31973	42485
15.32785	41726
15.33597	40092
15.34410	41745
15.35222	40871
15.36035	40495
15.36847	43346
15.37658	39371
15.38472	41996
15.39283	44393
15.40097	45910
15.40908	45734
15.41720	44886
15.42533	46898
15.43345	46094
15.44157	47215
15.44970	45052
15.45782	56271
15.46595	73342
15.47407	115955
15.48218	196255
15.49032	289963
15.49843	407436
15.50657	493633
15.51468	529360
15.52280	533987
15.53093	549337
15.53905	601836
15.54718	697570
15.55530	764908
15.56342	731572
15.57155	613416
15.57967	442248
15.58778	315627
15.59592	225525
15.60403	178888
15.61217	144943
15.62028	129477
15.62840	109444
15.63653	99281
15.64465	95173
15.65278	83822
15.66090	78961
15.66902	77893
15.67715	70604
15.68527	66855
15.69340	65510
15.70152	66511
15.70963	64039
15.71777	65826
15.72588	62526
15.73400	61603
15.74213	63131
15.75025	61398
15.75838	84865
15.76650	116534
15.77462	162766
15.78275	228343
15.79087	292500
15.79900	306905
15.80712	273960
15.81523	214280
15.82337	153442
15.83148	118769
15.83962	94824
15.84773	84357
15.85585	79539
15.86398	73032
15.87210	76070
15.88022	69581
15.88835	72451
15.89647	69042
15.90460	66914
15.91272	62996
15.92083	63211
15.92897	59819
15.93708	63682
15.94522	62517
15.95333	67347
15.96145	78662
15.96958	96434
15.97770	107981
15.98582	114083
15.99395	111617
16.00207	104808
16.01020	88792
16.01832	79813
16.02643	81263
16.03457	76259
16.04268	73314
16.05082	66583
16.05893	62833
16.06705	60607
16.07518	61709
16.08330	53675
16.09143	54568
16.09955	55955
16.10767	51264
16.11580	57741
16.12392	61662
16.13203	65659
16.14017	68733
16.14828	75518
16.15642	72988
16.16453	72667
16.17265	71634
16.18078	64801
16.18890	68709
16.19703	58118
16.20515	53500
16.21327	59825
16.22140	55752
16.22952	55444
16.23763	53051
16.24577	48489
16.25388	51212
16.26202	52023
16.27013	46391
16.27825	54735
16.28638	57139
16.29450	62275
16.30263	67310
16.31075	72629
16.31887	71799
16.32700	65436
16.33512	60366
16.34325	62665
16.35137	60624
16.35948	73757
16.36762	92655
16.37573	102151
16.38385	112235
16.39198	108011
16.40010	96991
16.40823	86775
16.41635	71286
16.42447	60587
16.43260	59720
16.44072	53740
16.44885	63433
16.45697	73490
16.46508	89150
16.47322	120904
16.48133	140625
16.48947	148940
16.49758	152718
16.50570	118908
16.51383	100319
16.52195	85191
16.53007	68555
16.53820	65576
16.54632	60976
16.55445	52331
16.56257	54849
16.57068	56514
16.57882	65107
16.58693	62168
16.59507	69575
16.60318	91164
16.61130	95976
16.61943	100737
16.62755	101849
16.63567	99920
16.64380	87720
16.65192	77207
16.66005	63296
16.66817	63078
16.67628	54672
16.68442	57708
16.69253	51086
16.70067	61650
16.70878	49960
16.71690	51755
16.72503	48897
16.73315	50421
16.74128	49299
16.74940	48532
16.75752	57257
16.76565	46521
16.77377	49986
16.78188	50145
16.79002	48265
16.79813	44651
16.80627	46163
16.81438	45270
16.82250	47736
16.83063	42802
16.83875	42747
16.84688	47455
16.85500	43180
16.86312	42923
16.87125	41239
16.87937	42404
16.88750	41509
16.89562	35853
16.90373	41206
16.91187	42572
16.91998	41366
16.92810	38653
16.93623	40299
16.94435	44140
16.95248	41312
16.96060	40347
16.96872	47392
16.97685	41610
16.98497	42443
16.99310	40202
17.00122	41119
17.00933	46535
17.01747	46121
17.02558	46752
17.03370	47319
17.04183	52255
17.04995	56773
17.05808	58671
17.06620	51756
17.07432	51168
17.08245	54271
17.09057	48910
17.09870	41968
17.10682	45730
17.11493	50245
17.12307	49139
17.13118	55449
17.13932	53979
17.14743	55979
17.15555	57810
17.16368	54921
17.17180	55422
17.17992	53804
17.18805	55408
17.19617	46760
17.20430	49208
17.21242	45150
17.22053	42603
17.22867	42676
17.23678	44835
17.24492	45594
17.25303	47270
17.26115	45304
17.26928	45199
17.27740	44577
17.28552	44408
17.29365	42606
17.30177	44220
17.30990	42463
17.31802	45618
17.32613	54707
17.33427	57655
17.34238	69482
17.35052	74895
17.35863	75129
17.36675	70829
17.37488	70538
17.38300	66300
17.39113	69372
17.39925	66677
17.40737	67720
17.41550	66122
17.42362	72251
17.43173	74007
17.43987	74222
17.44798	70699
17.45612	67858
17.46423	60664
17.47235	59621
17.48048	54233
17.48860	50871
17.49673	52458
17.50485	45970
17.51297	46915
17.52110	47737
17.52922	54381
17.53735	50828
17.54547	48874
17.55358	55677
17.56172	70808
17.56983	105809
17.57795	163007
17.58608	289247
17.59420	470132
17.60233	720784
17.61045	895106
17.61857	929197
17.62670	810641
17.63482	631472
17.64295	448797
17.65107	322993
17.65918	243784
17.66732	194667
17.67543	181466
17.68355	152268
17.69168	142259
17.69980	129537
17.70793	113171
17.71605	107772
17.72417	103326
17.73230	104589
17.74042	93519
17.74855	93954
17.75667	92349
17.76478	86156
17.77292	85250
17.78103	74129
17.78917	72498
17.79728	67907
17.80540	65355
17.81353	67342
17.82165	68288
17.82977	77355
17.83790	72168
17.84602	84119
17.85415	90943
17.86227	95883
17.87038	94979
17.87852	93356
17.88663	84517
17.89477	74192
17.90288	66740
17.91100	63839
17.91913	58701
17.92725	54729
17.93538	57253
17.94350	54260
17.95162	53756
17.95975	51312
17.96787	49857
17.97598	48601
17.98412	50230
17.99223	48981
18.00037	51930
18.00848	48637
18.01660	58696
18.02473	64475
18.03285	84664
18.04098	93868
18.04910	96360
18.05722	87933
18.06535	87085
18.07347	81707
18.08158	81887
18.08972	84544
18.09783	86854
18.10597	99093
18.11408	104573
18.12220	103967
18.13033	105774
18.13845	103029
18.14658	100900
18.15470	98333
18.16282	93434
18.17095	88265
18.17907	84535
18.18720	77674
18.19532	75705
18.20343	74058
18.21157	69747
18.21968	66992
18.22780	66189
18.23593	60905
18.24405	67283
18.25218	62257
18.26030	60186
18.26842	56843
18.27655	56858
18.28467	55079
18.29280	52073
18.30092	48547
18.30903	49786
18.31717	46127
18.32528	44915
18.33340	44837
18.34153	45424
18.34965	48713
18.35778	46734
18.36590	42786
18.37402	46257
18.38215	48029
18.39027	50136
18.39840	53140
18.40652	51456
18.41463	59120
18.42277	68617
18.43088	91451
18.43902	107260
18.44713	127088
18.45525	149675
18.46338	181958
18.47150	220092
18.47962	249233
18.48775	276522
18.49587	270096
18.50400	242599
18.51212	191346
18.52023	153920
18.52837	121350
18.53648	100917
18.54462	85307
18.55273	83738
18.56085	72337
18.56898	64375
18.57710	62910
18.58523	63646
18.59335	67444
18.60147	72815
18.60960	83792
18.61772	88476
18.62583	97888
18.63397	101407
18.64208	100213
18.65022	92464
18.65833	87984
18.66645	81740
18.67458	74054
18.68270	64516
18.69083	64574
18.69895	58048
18.70707	54416
18.71520	52301
18.72332	56587
18.73143	55490
18.73957	54935
18.74768	58176
18.75582	70295
18.76393	92917
18.77205	107122
18.78018	121088
18.78830	130974
18.79643	130947
18.80455	139279
18.81267	150395
18.82080	143118
18.82892	146307
18.83705	141085
18.84517	151009
18.85328	147718
18.86142	154290
18.86953	149217
18.87765	161923
18.88578	164235
18.89390	166350
18.90203	159337
18.91015	160887
18.91827	157164
18.92640	160620
18.93452	162095
18.94265	155184
18.95077	164274
18.95888	157793
18.96702	162964
18.97513	154927
18.98327	155664
18.99138	150475
18.99950	152717
19.00763	155525
19.01575	148698
19.02387	150141
19.03200	146040
19.04012	143160
19.04825	145393
19.05637	152915
19.06448	193150
19.07262	294720
19.08073	497573
19.08887	867809
19.09698	1397798
19.10510	1846873
19.11323	2039126
19.12135	1876899
19.12947	1508664
19.13760	1091201
19.14572	750280
19.15385	504975
19.16197	380305
19.17008	298252
19.17822	258708
19.18633	232440
19.19447	212493
19.20258	204299
19.21070	180206
19.21883	178932
19.22695	166756
19.23508	162847
19.24320	149023
19.25132	140050
19.25945	145636
19.26757	135883
19.27568	132709
19.28382	134613
19.29193	136465
19.30007	146654
19.30818	141240
19.31630	141178
19.32443	135059
19.33255	139058
19.34068	131603
19.34880	141314
19.35692	151430
19.36505	167803
19.37317	188679
19.38130	199142
19.38942	194048
19.39753	185489
19.40567	167675
19.41378	153084
19.42190	144717
19.43003	141513
19.43815	132524
19.44628	136193
19.45440	132085
19.46252	135376
19.47065	146602
19.47877	163234
19.48690	204707
19.49502	262247
19.50313	349994
19.51127	396795
19.51938	391952
19.52750	348907
19.53563	284588
19.54375	227275
19.55188	181220
19.56000	160088
19.56812	151011
19.57625	140039
19.58437	126219
19.59250	119715
19.60062	121179
19.60873	108694
19.61687	107064
19.62498	109563
19.63312	111510
19.64123	126371
19.64935	149993
19.65748	182321
19.66560	240384
19.67372	271875
19.68185	304856
19.68997	317231
19.69810	305681
19.70622	287655
19.71433	241979
19.72247	208172
19.73058	188762
19.73872	167703
19.74683	164027
19.75495	147181
19.76308	144754
19.77120	148874
19.77932	162690
19.78745	191753
19.79557	222158
19.80370	242872
19.81182	238538
19.81993	236384
19.82807	208265
19.83618	179193
19.84432	149282
19.85243	129456
19.86055	122782
19.86868	133763
19.87680	150067
19.88493	204121
19.89305	272260
19.90117	335660
19.90930	391508
19.91742	420001
19.92553	418114
19.93367	403795
19.94178	374460
19.94992	349334
19.95803	331515
19.96615	310352
19.97428	297986
19.98240	280664
19.99053	269660
19.99865	273414
20.00677	265632
20.01490	258203
20.02302	257355
20.03115	245059
20.03927	233987
20.04738	224628
20.05552	225450
20.06363	235389
20.07175	251226
20.07988	276668
20.08800	301723
20.09613	297061
20.10425	296384
20.11237	265032
20.12050	217220
20.12862	192822
20.13675	168938
20.14487	171059
20.15298	206765
20.16112	279285
20.16923	401136
20.17735	593248
20.18548	778239
20.19360	936296
20.20173	1034542
20.20985	1035795
20.21797	904940
20.22610	753431
20.23422	624961
20.24235	543912
20.25047	516444
20.25858	575281
20.26672	662597
20.27483	766481
20.28297	776837
20.29108	768202
20.29920	701877
20.30733	575093
20.31545	454157
20.32357	358391
20.33170	285294
20.33982	219459
20.34795	178314
20.35607	159841
20.36418	143275
20.37232	134455
20.38043	122537
20.38857	112060
20.39668	106608
20.40480	99304
20.41293	97526
20.42105	100911
20.42918	103576
20.43730	106101
20.44542	102367
20.45355	102672
20.46167	100639
20.46978	95293
20.47792	101631
20.48603	92719
20.49417	92452
20.50228	82893
20.51040	77322
20.51853	75668
20.52665	72311
20.53478	70472
20.54290	69359
20.55102	73351
20.55915	66450
20.56727	72016
20.57538	69698
20.58352	68491
20.59163	67381
20.59977	72428
20.60788	68377
20.61600	70090
20.62413	69242
20.63225	71519
20.64038	76102
20.64850	75872
20.65662	78868
20.66475	83482
20.67287	81740
20.68100	74768
20.68912	71227
20.69723	70553
20.70537	65140
20.71348	63602
20.72160	64081
20.72973	62999
20.73785	57487
20.74598	66648
20.75410	69889
20.76222	71877
20.77035	79043
20.77847	97305
20.78660	132382
20.79472	208182
20.80283	327336
20.81097	502007
20.81908	655426
20.82720	707743
20.83533	633686
20.84345	523998
20.85158	357756
20.85970	234890
20.86782	168384
20.87595	123674
20.88407	109434
20.89220	107980
20.90032	98019
20.90843	100304
20.91657	106664
20.92468	107228
20.93282	110642
20.94093	110535
20.94905	108565
20.95718	105646
20.96530	93839
20.97342	93676
20.98155	86133
20.98967	75251
20.99780	70767
21.00592	73416
21.01403	72928
21.02217	74827
21.03028	79594
21.03842	77323
21.04653	77006
21.05465	73397
21.06278	69042
21.07090	63647
21.07903	65260
21.08715	68819
21.09527	67888
21.10340	64532
21.11152	64275
21.11963	64259
21.12777	66849
21.13588	75592
21.14402	98619
21.15213	124017
21.16025	161127
21.16838	166984
21.17650	165934
21.18463	151984
21.19275	131048
21.20087	105172
21.20900	89267
21.21712	78829
21.22525	79702
21.23337	75965
21.24148	71771
21.24962	70841
21.25773	71132
21.26585	66515
21.27398	67190
21.28210	63519
21.29023	61401
21.29835	62556
21.30647	63631
21.31460	67676
21.32272	54369
21.33085	57102
21.33897	58146
21.34708	59200
21.35522	55881
21.36333	56836
21.37145	57636
21.37958	54959
21.38770	57891
21.39583	60275
21.40395	65976
21.41207	66418
21.42020	63792
21.42832	62498
21.43645	62642
21.44457	59072
21.45268	56593
21.46082	58671
21.46893	56843
21.47707	54816
21.48518	53786
21.49330	54742
21.50143	52996
21.50955	51776
21.51767	56915
21.52580	53189
21.53392	55626
21.54205	52447
21.55017	58605
21.55828	54630
21.56642	59265
21.57453	61132
21.58267	59931
21.59078	68245
21.59890	77706
21.60703	79645
21.61515	81842
21.62327	81681
21.63140	87571
21.63952	91226
21.64765	91687
21.65577	97831
21.66388	101435
21.67202	102797
21.68013	105140
21.68827	103965
21.69638	96075
21.70450	88797
21.71263	82282
21.72075	72083
21.72888	66413
21.73700	62621
21.74512	64749
21.75325	65298
21.76137	63903
21.76948	64867
21.77762	65605
21.78573	60073
21.79387	60196
21.80198	64073
21.81010	69951
21.81823	69069
21.82635	72497
21.83448	78851
21.84260	82265
21.85072	81279
21.85885	72040
21.86697	73593
21.87510	65785
21.88322	65152
21.89133	64510
21.89947	65615
21.90758	62378
21.91570	59883
21.92383	59357
21.93195	60736
21.94008	54945
21.94820	52060
21.95632	53164
21.96445	49176
21.97257	46145
21.98070	47696
21.98882	50390
21.99693	46036
22.00507	46540
22.01318	48664
22.02130	50153
22.02943	53872
22.03755	50543
22.04568	50362
22.05380	50951
22.06192	51101
22.07005	51797
22.07817	47151
22.08630	49362
22.09442	50713
22.10253	49704
22.11067	47780
22.11878	55868
22.12692	57808
22.13503	60450
22.14315	60895
22.15128	67966
22.15940	68364
22.16752	69574
22.17565	64659
22.18377	75329
22.19190	72083
22.20002	70946
22.20813	76780
22.21627	73688
22.22438	79976
22.23252	80116
22.24063	79060
22.24875	82296
22.25688	78608
22.26500	81146
22.27313	88052
22.28125	96030
22.28937	98449
22.29750	97004
22.30562	101045
22.31373	97717
22.32187	93067
22.32998	88000
22.33812	89202
22.34623	83114
22.35435	74837
22.36248	66214
22.37060	63990
22.37873	67751
22.38685	76278
22.39497	94420
22.40310	120100
22.41122	151647
22.41933	184294
22.42747	194007
22.43558	188794
22.44372	170822
22.45183	141063
22.45995	111658
22.46808	98495
22.47620	94251
22.48433	98268
22.49245	110224
22.50057	125259
22.50870	141882
22.51682	147519
22.52495	141480
22.53307	132584
22.54118	119832
22.54932	102813
22.55743	93490
22.56555	85157
22.57368	76070
22.58180	69941
22.58993	63275
22.59805	66774
22.60617	56309
22.61430	59605
22.62242	61067
22.63055	66692
22.63867	87735
22.64678	101747
22.65492	106999
22.66303	113636
22.67115	115887
22.67928	117609
22.68740	124405
22.69553	128019
22.70365	131159
22.71177	130052
22.71990	143657
22.72802	140924
22.73615	138791
22.74427	136942
22.75238	134614
22.76052	132323
22.76863	126595
22.77677	128865
22.78488	134393
22.79300	147698
22.80113	151955
22.80925	152932
22.81737	151024
22.82550	159591
22.83362	148819
22.84175	145884
22.84987	137758
22.85798	144103
22.86612	156094
22.87423	173062
22.88237	195365
22.89048	215806
22.89860	234656
22.90673	257531
22.91485	267042
22.92298	268137
22.93110	271068
22.93922	261190
22.94735	234886
22.95547	205553
22.96358	178896
22.97172	157983
22.97983	138297
22.98797	133442
22.99608	131364
23.00420	125971
23.01233	117615
23.02045	115535
23.02858	115309
23.03670	111542
23.04482	108014
23.05295	108296
23.06107	108745
23.06918	107873
23.07732	107284
23.08543	110438
23.09357	107266
23.10168	104444
23.10980	101107
23.11793	94241
23.12605	95645
23.13418	97407
23.14230	94811
23.15042	92558
23.15855	96661
23.16667	94583
23.17480	92227
23.18292	90722
23.19103	89060
23.19917	83028
23.20728	83899
23.21540	85159
23.22353	83312
23.23165	84719
23.23978	88533
23.24790	93326
23.25602	90286
23.26415	96718
23.27227	102462
23.28040	101080
23.28852	95145
23.29663	86699
23.30477	85941
23.31288	85070
23.32102	90008
23.32913	96355
23.33725	109434
23.34538	121137
23.35350	139748
23.36162	165992
23.36975	189974
23.37787	179561
23.38600	183224
23.39412	162632
23.40223	139013
23.41037	113291
23.41848	102585
23.42662	98931
23.43473	90462
23.44285	90292
23.45098	84823
23.45910	77134
23.46722	77773
23.47535	77881
23.48347	77894
23.49160	75697
23.49972	74502
23.50783	76752
23.51597	81179
23.52408	74146
23.53222	73763
23.54033	76095
23.54845	80815
23.55658	90164
23.56470	99211
23.57283	127619
23.58095	172789
23.58907	250229
23.59720	322569
23.60532	381230
23.61343	385988
23.62157	356099
23.62968	309709
23.63782	247320
23.64593	220343
23.65405	208354
23.66218	212995
23.67030	214220
23.67843	201795
23.68655	175237
23.69467	152033
23.70280	130831
23.71092	117075
23.71905	97034
23.72717	90679
23.73528	93031
23.74342	98564
23.75153	135208
23.75965	240931
23.76778	482327
23.77590	875377
23.78403	1405153
23.79215	1906223
23.80027	2196756
23.80840	2171535
23.81652	1905959
23.82465	1575063
23.83277	1221097
23.84088	943975
23.84902	708562
23.85713	579063
23.86525	467829
23.87338	403851
23.88150	364096
23.88963	326764
23.89775	297848
23.90587	273476
23.91400	275307
23.92212	258681
23.93025	240005
23.93837	227610
23.94648	200730
23.95462	182646
23.96273	176064
23.97087	160638
23.97898	159355
23.98710	153927
23.99523	149641
24.00335	159356
24.01147	185314
24.01960	235433
24.02772	311203
24.03585	366762
24.04397	403461
24.05208	356539
24.06022	283619
24.06833	211714
24.07647	170872
24.08458	133287
24.09270	125806
24.10083	110782
24.10895	107546
24.11707	108641
24.12520	110549
24.13332	119148
24.14145	123036
24.14957	129682
24.15768	136290
24.16582	136961
24.17393	134542
24.18207	137077
24.19018	133847
24.19830	139823
24.20643	135187
24.21455	129837
24.22268	117274
24.23080	109119
24.23892	103578
24.24705	94759
24.25517	85724
24.26328	87175
24.27142	83268
24.27953	79098
24.28767	78202
24.29578	79527
24.30390	78872
24.31203	79983
24.32015	77219
24.32828	77152
24.33640	74881
24.34452	75423
24.35265	79668
24.36077	81446
24.36890	86673
24.37702	107856
24.38513	132998
24.39327	167097
24.40138	189893
24.40950	187503
24.41763	162575
24.42575	131221
24.43388	115009
24.44200	107492
24.45012	120183
24.45825	130121
24.46637	129282
24.47450	142611
24.48262	148576
24.49073	156260
24.49887	167432
24.50698	180563
24.51510	184620
24.52323	196336
24.53135	237829
24.53948	265290
24.54760	301741
24.55572	355917
24.56385	369182
24.57197	367052
24.58010	317217
24.58822	288065
24.59633	247986
24.60447	211585
24.61258	201192
24.62072	186912
24.62883	176024
24.63695	166564
24.64508	161382
24.65320	166526
24.66132	154946
24.66945	160877
24.67757	161182
24.68570	159579
24.69382	152830
24.70193	146321
24.71007	149410
24.71818	154153
24.72632	146405
24.73443	145462
24.74255	144048
24.75068	141814
24.75880	143278
24.76693	144294
24.77505	154519
24.78317	164476
24.79130	149571
24.79942	159144
24.80753	160617
24.81567	163671
24.82378	163256
24.83192	184581
24.84003	205108
24.84815	250712
24.85628	288527
24.86440	361301
24.87253	454134
24.88065	561700
24.88877	685143
24.89690	750635
24.90502	740562
24.91313	622124
24.92127	481825
24.92938	377460
24.93752	298129
24.94563	227521
24.95375	195779
24.96188	174028
24.97000	161220
24.97813	157399
24.98625	152391
24.99437	146248
25.00250	144345
25.01062	141888
25.01875	138815
25.02687	133434
25.03498	131761
25.04312	131471
25.05123	126100
25.05935	125298
25.06748	131205
25.07560	131187
25.08373	127777
25.09185	140603
25.09997	180341
25.10810	306279
25.11622	592163
25.12435	1138197
25.13247	1933553
25.14058	2848400
25.14872	3449783
25.15683	3517031
25.16495	3017246
25.17308	2253382
25.18120	1458712
25.18933	897785
25.19745	530510
25.20557	333783
25.21370	239218
25.22182	181620
25.22995	156721
25.23807	167844
25.24618	180680
25.25432	230159
25.26243	290731
25.27057	333449
25.27868	370970
25.28680	351609
25.29493	299174
25.30305	236517
25.31117	179802
25.31930	145854
25.32742	121877
25.33555	109534
25.34367	95212
25.35178	89886
25.35992	84799
25.36803	76246
25.37617	80268
25.38428	81607
25.39240	68050
25.40053	65686
25.40865	64743
25.41678	67869
25.42490	70169
25.43302	62893
25.44115	68274
25.44927	66717
25.45738	64496
25.46552	73109
25.47363	70372
25.48177	70038
25.48988	67841
25.49800	71361
25.50613	68827
25.51425	61496
25.52238	60913
25.53050	64125
25.53862	62602
25.54675	61004
25.55487	71691
25.56298	72850
25.57112	96025
25.57923	119491
25.58737	149938
25.59548	157892
25.60360	171736
25.61173	179947
25.61985	177127
25.62798	187345
25.63610	186965
25.64422	195327
25.65235	200944
25.66047	190412
25.66860	194970
25.67672	192355
25.68483	196837
25.69297	190097
25.70108	191519
25.70920	187570
25.71733	185574
25.72545	201012
25.73358	195622
25.74170	184602
25.74982	178784
25.75795	189703
25.76607	189767
25.77420	188527
25.78232	196720
25.79043	186946
25.79857	193430
25.80668	187365
25.81482	182668
25.82293	187403
25.83105	188045
25.83918	183426
25.84730	188194
25.85542	180531
25.86355	177702
25.87167	175614
25.87980	172276
25.88792	162672
25.89603	165301
25.90417	163978
25.91228	157199
25.92042	156215
25.92853	160775
25.93665	152843
25.94478	151579
25.95290	152455
25.96102	151537
25.96915	148435
25.97727	145797
25.98540	143484
25.99352	148872
26.00163	135636
26.00977	131225
26.01788	135243
26.02602	127562
26.03413	126474
26.04225	129543
26.05038	124604
26.05850	124600
26.06663	131114
26.07475	134110
26.08287	138770
26.09100	131986
26.09912	131688
26.10723	125927
26.11537	127800
26.12348	129829
26.13162	127550
26.13973	130526
26.14785	127418
26.15598	123560
26.16410	132029
26.17223	133408
26.18035	127217
26.18847	117813
26.19660	121243
26.20472	118758
26.21283	113221
26.22097	111122
26.22908	106027
26.23722	106085
26.24533	107580
26.25345	101178
26.26158	96034
26.26970	94585
26.27783	97086
26.28595	94056
26.29407	92829
26.30220	88175
26.31032	92178
26.31845	89333
26.32657	88265
26.33468	93907
26.34282	89655
26.35093	92966
26.35905	112386
26.36718	141971
26.37530	175393
26.38343	220096
26.39155	288630
26.39967	321244
26.40780	340825
26.41592	330032
26.42405	292389
26.43217	239343
26.44028	189380
26.44842	139588
26.45653	124842
26.46467	108586
26.47278	100764
26.48090	91763
26.48903	83070
26.49715	89324
26.50527	87806
26.51340	79463
26.52152	81788
26.52965	72899
26.53777	75724
26.54588	72583
26.55402	76244
26.56213	71592
26.57027	72756
26.57838	67190
26.58650	74444
26.59463	65367
26.60275	65392
26.61088	64371
26.61900	64641
26.62712	67650
26.63525	67295
26.64337	62512
26.65148	65417
26.65962	68443
26.66773	71499
26.67587	74291
26.68398	70847
26.69210	69717
26.70023	63056
26.70835	62425
26.71648	60559
26.72460	63228
26.73272	62138
26.74085	60695
26.74897	62995
26.75708	67554
26.76522	65942
26.77333	65810
26.78147	67186
26.78958	71525
26.79770	71709
26.80583	73591
26.81395	74369
26.82208	70919
26.83020	67984
26.83832	67779
26.84645	63824
26.85457	59004
26.86270	64616
26.87082	59197
26.87893	55041
26.88707	57181
26.89518	57954
26.90330	57419
26.91143	57234
26.91955	57277
26.92768	56388
26.93580	56420
26.94392	52711
26.95205	58105
26.96017	59962
26.96830	64273
26.97642	76763
26.98453	103031
26.99267	142273
27.00078	206384
27.00890	288646
27.01703	371787
27.02515	428051
27.03328	472624
27.04140	477126
27.04952	455615
27.05765	380203
27.06577	327699
27.07390	273227
27.08202	237160
27.09013	206673
27.09827	177121
27.10638	158175
27.11452	152480
27.12263	150717
27.13075	131313
27.13888	125353
27.14700	122562
27.15512	119447
27.16325	125162
27.17137	123817
27.17950	140830
27.18762	138871
27.19573	137593
27.20387	127978
27.21198	121408
27.22012	112356
27.22823	106529
27.23635	100861
27.24448	91709
27.25260	90191
27.26073	93100
27.26885	84595
27.27697	81291
27.28510	76822
27.29322	79186
27.30133	78011
27.30947	77129
27.31758	76177
27.32572	75445
27.33383	79445
27.34195	77427
27.35008	78346
27.35820	76937
27.36633	79146
27.37445	77707
27.38257	78403
27.39070	76209
27.39882	71640
27.40693	70256
27.41507	70225
27.42318	71193
27.43132	69159
27.43943	68601
27.44755	69228
27.45568	65337
27.46380	68679
27.47193	66210
27.48005	61924
27.48817	68574
27.49630	63423
27.50442	63604
27.51255	68692
27.52067	68633
27.52878	72455
27.53692	69723
27.54503	71061
27.55315	64577
27.56128	63074
27.56940	66383
27.57753	68372
27.58565	77592
27.59377	91880
27.60190	95582
27.61002	98758
27.61815	92050
27.62627	85024
27.63438	83729
27.64252	68325
27.65063	67021
27.65877	69203
27.66688	79278
27.67500	87001
27.68313	97644
27.69125	110186
27.69937	111045
27.70750	101130
27.71562	93356
27.72375	83180
27.73187	74268
27.73998	65496
27.74812	61751
27.75623	57450
27.76437	54855
27.77248	55777
27.78060	60822
27.78873	61325
27.79685	61446
27.80497	59325
27.81310	60181
27.82122	59948
27.82935	56855
27.83747	57314
27.84558	55798
27.85372	52305
27.86183	52750
27.86997	54039
27.87808	54420
27.88620	52318
27.89433	53981
27.90245	51885
27.91058	48686
27.91870	53319
27.92682	53066
27.93495	48823
27.94307	50223
27.95118	49605
27.95932	51205
27.96743	51885
27.97557	52104
27.98368	51760
27.99180	53176
27.99993	59636
28.00805	66269
28.01618	80915
28.02430	105190
28.03242	145791
28.04055	190846
28.04867	232657
28.05678	249518
28.06492	232598
28.07303	203677
28.08117	160766
28.08928	120273
28.09740	98404
28.10553	77165
28.11365	71432
28.12178	64294
28.12990	63389
28.13802	55507
28.14615	58292
28.15427	54805
28.16240	53191
28.17052	57407
28.17863	58322
28.18677	58981
28.19488	75614
28.20300	75615
28.21113	91643
28.21925	93336
28.22738	99548
28.23550	92530
28.24362	83759
28.25175	78116
28.25987	66898
28.26800	59954
28.27612	57180
28.28423	57376
28.29237	64575
28.30048	67327
28.30862	71971
28.31673	80683
28.32485	95842
28.33298	110388
28.34110	116276
28.34922	127423
28.35735	137165
28.36547	157100
28.37360	159377
28.38172	174335
28.38983	179459
28.39797	182935
28.40608	182933
28.41422	181722
28.42233	172133
28.43045	157285
28.43858	157162
28.44670	140948
28.45482	137649
28.46295	132074
28.47107	123805
28.47920	124002
28.48732	118099
28.49543	119411
28.50357	115814
28.51168	117812
28.51982	105948
28.52793	98245
28.53605	92782
28.54418	89190
28.55230	80337
28.56043	78628
28.56855	77228
28.57667	76563
28.58480	72203
28.59292	69245
28.60103	73552
28.60917	73503
28.61728	74191
28.62542	74921
28.63353	78163
28.64165	85966
28.64978	79724
28.65790	76742
28.66603	72146
28.67415	75883
28.68227	73218
28.69040	71066
28.69852	69571
28.70665	63431
28.71477	63509
28.72288	61641
28.73102	65252
28.73913	64039
28.74725	72483
28.75538	83088
28.76350	91003
28.77163	104070
28.77975	102460
28.78787	97036
28.79600	93532
28.80412	90498
28.81225	78007
28.82037	73221
28.82848	71067
28.83662	68233
28.84473	68684
28.85285	64968
28.86098	69204
28.86910	67417
28.87723	70579
28.88535	77377
28.89347	79663
28.90160	80530
28.90972	85486
28.91785	83108
28.92597	76439
28.93408	77104
28.94222	70083
28.95033	71016
28.95847	72580
28.96658	70710
28.97470	66986
28.98283	62935
28.99095	61507
28.99907	59949
29.00720	53315
29.01532	52057
29.02345	51516
29.03157	54751
29.03968	54389
29.04782	50350
29.05593	53686
29.06407	53915
29.07218	59283
29.08030	61121
29.08843	58749
29.09655	57758
29.10468	57117
29.11280	56344
29.12092	53794
29.12905	49148
29.13717	52990
29.14528	49414
29.15342	50036
29.16153	53244
29.16967	55348
29.17778	54175
29.18590	62952
29.19403	69109
29.20215	79860
29.21028	95088
29.21840	101338
29.22652	113340
29.23465	118211
29.24277	127284
29.25088	149657
29.25902	183444
29.26713	200491
29.27527	210254
29.28338	186616
29.29150	159776
29.29963	122164
29.30775	96099
29.31588	75489
29.32400	66740
29.33212	59649
29.34025	58286
29.34837	53971
29.35650	47788
29.36462	55486
29.37273	52059
29.38087	44521
29.38898	51965
29.39710	56591
29.40523	53633
29.41335	50344
29.42148	56053
29.42960	55837
29.43772	58421
29.44585	55181
29.45397	53408
29.46210	55815
29.47022	52317
29.47833	56040
29.48647	53038
29.49458	53226
29.50270	51756
29.51083	57708
29.51895	57302
29.52708	57349
29.53520	53629
29.54332	49874
29.55145	51459
29.55957	49858
29.56770	47158
29.57582	46277
29.58393	47319
29.59207	44376
29.60018	48748
29.60832	45464
29.61643	44648
29.62455	46326
29.63268	44807
29.64080	44773
29.64892	45516
29.65705	44721
29.66517	49089
29.67330	52920
29.68142	54513
29.68953	55410
29.69767	58442
29.70578	52435
29.71392	57007
29.72203	54235
29.73015	57577
29.73828	58504
29.74640	50141
29.75453	49215
29.76265	44922
29.77077	45686
29.77890	45744
29.78702	44262
29.79513	46771
29.80327	43381
29.81138	46142
29.81952	43356
29.82763	43784
29.83575	42685
29.84388	45134
29.85200	42251
29.86013	47329
29.86825	58110
29.87637	71663
29.88450	95758
29.89262	119462
29.90073	145425
29.90887	152733
29.91698	140360
29.92512	117011
29.93323	91955
29.94135	72367
29.94948	67748
29.95760	64754
29.96573	69851
29.97385	73595
29.98197	78272
29.99010	81217
29.99822	95087
30.00635	99866
30.01447	110483
30.02258	112433
30.03072	112694
30.03883	106674
30.04695	110315
30.05508	110299
30.06320	108691
30.07133	114974
30.07945	105409
30.08757	100149
30.09570	100162
30.10382	98781
30.11195	96649
30.12007	99083
30.12818	91780
30.13632	86221
30.14443	88238
30.15257	82990
30.16068	82449
30.16880	89573
30.17693	82177
30.18505	84910
30.19317	87777
30.20130	93384
30.20942	97936
30.21755	88182
30.22567	80299
30.23378	76846
30.24192	74939
30.25003	68148
30.25817	63272
30.26628	60464
30.27440	61737
30.28253	57547
30.29065	57177
30.29877	52702
30.30690	58845
30.31502	55562
30.32315	57919
30.33127	55704
30.33938	54473
30.34752	53646
30.35563	59723
30.36377	60337
30.37188	57153
30.38000	57006
30.38813	53762
30.39625	51633
30.40438	51471
30.41250	50063
30.42062	51232
30.42875	47912
30.43687	50059
30.44498	50016
30.45312	52395
30.46123	45974
30.46937	49205
30.47748	45842
30.48560	47136
30.49373	48006
30.50185	50357
30.50998	47298
30.51810	45297
30.52622	46966
30.53435	48481
30.54247	44085
30.55058	48022
30.55872	51665
30.56683	47907
30.57497	53707
30.58308	53315
30.59120	51769
30.59933	50330
30.60745	49088
30.61558	48777
30.62370	48912
30.63182	46707
30.63995	44582
30.64807	43566
30.65620	44593
30.66432	47430
30.67243	47470
30.68057	43863
30.68868	48167
30.69680	46018
30.70493	45491
30.71305	39591
30.72118	44348
30.72930	47457
30.73742	43222
30.74555	44324
30.75367	46849
30.76180	42541
30.76992	51795
30.77803	54148
30.78617	64316
30.79428	76835
30.80242	98105
30.81053	108711
30.81865	104723
30.82678	102168
30.83490	89516
30.84302	74166
30.85115	64022
30.85927	57199
30.86740	54470
30.87552	57973
30.88363	56052
30.89177	60367
30.89988	57153
30.90802	59835
30.91613	65072
30.92425	62704
30.93238	63829
30.94050	59032
30.94863	57106
30.95675	64445
30.96487	60447
30.97300	58098
30.98112	57766
30.98923	59727
30.99737	57571
31.00548	58457
31.01362	61445
31.02173	62228
31.02985	63312
31.03798	65744
31.04610	61690
31.05423	67827
31.06235	61284
31.07047	70048
31.07860	71565
31.08672	77838
31.09483	76337
31.10297	87810
31.11108	86720
31.11922	80028
31.12733	79950
31.13545	74974
31.14358	70431
31.15170	72594
31.15983	74394
31.16795	75971
31.17607	76204
31.18420	85116
31.19232	100337
31.20045	119607
31.20857	140135
31.21668	177808
31.22482	204678
31.23293	205535
31.24105	200271
31.24918	167184
31.25730	131627
31.26543	106094
31.27355	85046
31.28167	74269
31.28980	65648
31.29792	67482
31.30605	64629
31.31417	69858
31.32228	63632
31.33042	60089
31.33853	59490
31.34665	63452
31.35478	58601
31.36290	62662
31.37103	62202
31.37915	60590
31.38727	63936
31.39540	63505
31.40352	57933
31.41165	62373
31.41977	65217
31.42788	61815
31.43602	62708
31.44413	57242
31.45227	53230
31.46038	56911
31.46850	55976
31.47663	57211
31.48475	55428
31.49287	59709
31.50100	59015
31.50912	64911
31.51725	67507
31.52537	71451
31.53348	65611
31.54162	71035
31.54973	69899
31.55787	67971
31.56598	67581
31.57410	67883
31.58223	59113
31.59035	57710
31.59847	56749
31.60660	59607
31.61472	55240
31.62285	54388
31.63097	56627
31.63908	58351
31.64722	59364
31.65533	59714
31.66347	57834
31.67158	62066
31.67970	59175
31.68783	62860
31.69595	58308
31.70408	56217
31.71220	57366
31.72032	55760
31.72845	54422
31.73657	53347
31.74468	54001
31.75282	51835
31.76093	52580
31.76907	52852
31.77718	49293
31.78530	50766
31.79343	48026
31.80155	50766
31.80968	53771
31.81780	50763
31.82592	52845
31.83405	51584
31.84217	48417
31.85030	50728
31.85842	52774
31.86653	58627
31.87467	55013
31.88278	53741
31.89090	59987
31.89903	67995
31.90715	66782
31.91528	71847
31.92340	78826
31.93152	80592
31.93965	83929
31.94777	91171
31.95590	89321
31.96402	92713
31.97213	97378
31.98027	95743
31.98838	100820
31.99652	100441
32.00463	100843
32.01275	101007
32.02088	99111
32.02900	99119
32.03712	95571
32.04525	94315
32.05337	91663
32.06150	86378
32.06962	79722
32.07773	78801
32.08587	80057
32.09398	76711
32.10212	73501
32.11023	68789
32.11835	67310
32.12648	60981
32.13460	62862
32.14272	60212
32.15085	59795
32.15897	58343
32.16710	63033
32.17522	61875
32.18333	61129
32.19147	60460
32.19958	58642
32.20772	58415
32.21583	58300
32.22395	56761
32.23208	57474
32.24020	57015
32.24833	54403
32.25645	58658
32.26457	57052
32.27270	59046
32.28082	62661
32.28893	58382
32.29707	56384
32.30518	57089
32.31332	54548
32.32143	50940
32.32955	52597
32.33768	49773
32.34580	52911
32.35393	51832
32.36205	58315
32.37017	55534
32.37830	53254
32.38642	51130
32.39453	51547
32.40267	52541
32.41078	48119
32.41892	54000
32.42703	51313
32.43515	47561
32.44328	46516
32.45140	51505
32.45953	44515
32.46765	47963
32.47577	46947
32.48390	46327
32.49202	45816
32.50015	49201
32.50827	51505
32.51638	49953
32.52452	47427
32.53263	47383
32.54075	47547
32.54888	50224
32.55700	48131
32.56513	50498
32.57325	46366
32.58137	47613
32.58950	46640
32.59762	48413
32.60575	45648
32.61387	49090
32.62198	48307
32.63012	50095
32.63823	51976
32.64637	58243
32.65448	63425
32.66260	68908
32.67073	71927
32.67885	73137
32.68697	62836
32.69510	61990
32.70322	53350
32.71135	54152
32.71947	55279
32.72758	52078
32.73572	50540
32.74383	49630
32.75197	51384
32.76008	53639
32.76820	47352
32.77633	45054
32.78445	49927
32.79257	46918
32.80070	42722
32.80882	47329
32.81695	48560
32.82507	47908
32.83318	46169
32.84132	47951
32.84943	46920
32.85757	46871
32.86568	42393
32.87380	46255
32.88193	57162
32.89005	61861
32.89818	65603
32.90630	72634
32.91442	74817
32.92255	69619
32.93067	65638
32.93878	59150
32.94692	58078
32.95503	52185
32.96317	53113
32.97128	56907
32.97940	55175
32.98753	66203
32.99565	65178
33.00378	76195
33.01190	72626
33.02002	72080
33.02815	64790
33.03627	62393
33.04440	59330
33.05252	55501
33.06063	56495
33.06877	61309
33.07688	70146
33.08500	74080
33.09313	82742
33.10125	86922
33.10938	88788
33.11750	92053
33.12562	88951
33.13375	83706
33.14187	75781
33.15000	68961
33.15812	68133
33.16623	61015
33.17437	55541
33.18248	59852
33.19060	53214
33.19873	56905
33.20685	55594
33.21498	56902
33.22310	53964
33.23122	55512
33.23935	53987
33.24747	54876
33.25560	52285
33.26372	52120
33.27183	51072
33.27997	50361
33.28808	51004
33.29622	56247
33.30433	55991
33.31245	52134
33.32058	54140
33.32870	51783
33.33682	52830
33.34495	54991
33.35307	59391
33.36120	61567
33.36932	55780
33.37743	57831
33.38557	55327
33.39368	51590
33.40182	49335
33.40993	51587
33.41805	45973
33.42618	43783
33.43430	45248
33.44242	47087
33.45055	44243
33.45867	44879
33.46680	53231
33.47492	46324
33.48303	42084
33.49117	45340
33.49928	46301
33.50742	47665
33.51553	48819
33.52365	51058
33.53178	54982
33.53990	53444
33.54803	55311
33.55615	53687
33.56427	56311
33.57240	57367
33.58052	54627
33.58863	55930
33.59677	53543
33.60488	47941
33.61302	48738
33.62113	47590
33.62925	49294
33.63738	50712
33.64550	52072
33.65363	55673
33.66175	52033
33.66987	56990
33.67800	54338
33.68612	53813
33.69425	49284
33.70237	50724
33.71048	48368
33.71862	46759
33.72673	47356
33.73485	47225
33.74298	49017
33.75110	51661
33.75923	49026
33.76735	43631
33.77547	43430
33.78360	46217
33.79172	43641
33.79985	46679
33.80797	49036
33.81608	47328
33.82422	46651
33.83233	48989
33.84045	48925
33.84858	48867
33.85670	45729
33.86483	51899
33.87295	53828
33.88107	53879
33.88920	60262
33.89732	59196
33.90545	61490
33.91357	57788
33.92168	54316
33.92982	56308
33.93793	52740
33.94607	54611
33.95418	54080
33.96230	45398
33.97043	50848
33.97855	44804
33.98667	47650
33.99480	49059
34.00292	46048
34.01105	50016
34.01917	43857
34.02728	46653
34.03542	46581
34.04353	51898
34.05167	48938
34.05978	47665
34.06790	46130
34.07603	51180
34.08415	48846
34.09228	50384
34.10040	47674
34.10852	51598
34.11665	49341
34.12477	46835
34.13288	47363
34.14102	46127
34.14913	51733
34.15727	50326
34.16538	50717
34.17350	50545
34.18163	49159
34.18975	50813
34.19788	48757
34.20600	50129
34.21412	48117
34.22225	49571
34.23037	49554
34.23848	49205
34.24662	51879
34.25473	52778
34.26287	51870
34.27098	45434
34.27910	47991
34.28723	51403
34.29535	51416
34.30348	48790
34.31160	46468
34.31972	49505
34.32785	49698
34.33597	48285
34.34410	51152
34.35222	54291
34.36033	48076
34.36847	48016
34.37658	48166
34.38470	47067
34.39283	48456
34.40095	50127
34.40908	47650
34.41720	47259
34.42532	45708
34.43345	50193
34.44157	47231
34.44970	51171
34.45782	46511
34.46593	49102
34.47407	47120
34.48218	45729
34.49032	46518
34.49843	49270
34.50655	52754
34.51468	60394
34.52280	65460
34.53092	76171
34.53905	81851
34.54717	82817
34.55530	87847
34.56342	92111
34.57153	92543
34.57967	95224
34.58778	85405
34.59592	82238
34.60403	77829
34.61215	76255
34.62028	67846
34.62840	70832
34.63652	64329
34.64465	64654
34.65277	64527
34.66090	68780
34.66902	54670
34.67713	55051
34.68527	56277
34.69338	55430
34.70152	55206
34.70963	58093
34.71775	52879
34.72588	56640
34.73400	59787
34.74213	56269
34.75025	56610
34.75837	55723
34.76650	58025
34.77462	54313
34.78273	59981
34.79087	57668
34.79898	52168
34.80712	60976
34.81523	57043
34.82335	58861
34.83148	58589
34.83960	59783
34.84773	53146
34.85585	51998
34.86397	54274
34.87210	55876
34.88022	53841
34.88833	56536
34.89647	53639
34.90458	56223
34.91272	56326
34.92083	58469
34.92895	55304
34.93708	56553
34.94520	58552
34.95333	60633
34.96145	63496
34.96957	56725
34.97770	57841
34.98582	63306
34.99395	61408
35.00207	61479
35.01018	60225
35.01832	57901
35.02643	56127
35.03455	52418
35.04268	51601
35.05080	52789
35.05893	52816
35.06705	56239
35.07517	53022
35.08330	49369
35.09142	52520
35.09955	53293
35.10767	48307
35.11578	49251
35.12392	53661
35.13203	49199
35.14017	53055
35.14828	52957
35.15640	51435
35.16453	56974
35.17265	52841
35.18077	52814
35.18890	52048
35.19702	49760
35.20515	56915
35.21327	47095
35.22138	51600
35.22952	49266
35.23763	48062
35.24577	47489
35.25388	46352
35.26200	48455
35.27013	52217
35.27825	49312
35.28637	50540
35.29450	49615
35.30262	49433
35.31075	48926
35.31887	52307
35.32698	48292
35.33512	50997
35.34323	50158
35.35137	48023
35.35948	46600
35.36760	48317
35.37573	50905
35.38385	54536
35.39198	63032
35.40010	71343
35.40822	86057
35.41635	95341
35.42447	111490
35.43258	114840
35.44072	112929
35.44883	111051
35.45697	96113
35.46508	82566
35.47320	71024
35.48133	65067
35.48945	66262
35.49758	61510
35.50570	59482
35.51382	61784
35.52195	59129
35.53007	55588
35.53820	57421
35.54632	56812
35.55443	58059
35.56257	56394
35.57068	49725
35.57880	54121
35.58693	54600
35.59505	51522
35.60318	53409
35.61130	56383
35.61942	53877
35.62755	55596
35.63567	50862
35.64380	54139
35.65192	50511
35.66003	51799
35.66817	54698
35.67628	56552
35.68440	59035
35.69253	56412
35.70065	56511
35.70878	54642
35.71690	57717
35.72502	53961
35.73315	54551
35.74127	56120
35.74940	61034
35.75752	62090
35.76563	61948
35.77377	67217
35.78188	65045
35.79002	64092
35.79813	58565
35.80625	61596
35.81438	58070
35.82250	56184
35.83062	49686
35.83875	51022
35.84687	52476
35.85500	55497
35.86312	59806
35.87123	54445
35.87937	51833
35.88748	47686
35.89562	50733
35.90373	54495
35.91185	50283
35.91998	51723
35.92810	51853
35.93622	50957
35.94435	51455
35.95247	49072
35.96060	50333
35.96872	48637
35.97683	51739
35.98497	53858
35.99308	51896
36.00122	59307
36.00933	55541
36.01745	57602
36.02558	57545
36.03370	55878
36.04183	54830
36.04995	54052
36.05807	56031
36.06620	60295
36.07432	54587
36.08243	55725
36.09057	55004
36.09868	52213
36.10682	57045
36.11493	57024
36.12305	54838
36.13118	53960
36.13930	58119
36.14743	59132
36.15555	57141
36.16367	60442
36.17180	58737
36.17992	52488
36.18805	57951
36.19617	58949
36.20428	53762
36.21242	54631
36.22053	55002
36.22865	53115
36.23678	54948
36.24490	54525
36.25303	56566
36.26115	56990
36.26927	55191
36.27740	53865
36.28552	61808
36.29365	63271
36.30177	67144
36.30988	78271
36.31802	77369
36.32613	77052
36.33427	72113
36.34238	66479
36.35050	58083
36.35863	57282
36.36675	59208
36.37487	53949
36.38300	55082
36.39112	57678
36.39925	58291
36.40737	58945
36.41548	59387
36.42362	61589
36.43173	58963
36.43987	62117
36.44798	58789
36.45610	57317
36.46423	55364
36.47235	61707
36.48047	60424
36.48860	62904
36.49672	58016
36.50485	57611
36.51297	61822
36.52108	61233
36.52922	62334
36.53733	59606
36.54547	60798
36.55358	60215
36.56170	60536
36.56983	57983
36.57795	63194
36.58608	59433
36.59420	58820
36.60232	64010
36.61045	61540
36.61857	64533
36.62668	58873
36.63482	62440
36.64293	61677
36.65107	63607
36.65918	67776
36.66730	63906
36.67543	63480
36.68355	65762
36.69168	62334
36.69980	58627
36.70792	60520
36.71605	56241
36.72417	62626
36.73228	62584
36.74042	58814
36.74853	58565
36.75667	64248
36.76478	58946
36.77290	62987
36.78103	58238
36.78915	64309
36.79728	60923
36.80540	63902
36.81352	61621
36.82165	58149
36.82977	58923
36.83790	60478
36.84602	59573
36.85413	63540
36.86227	58828
36.87038	60197
36.87850	60438
36.88663	60759
36.89475	59294
36.90288	58772
36.91100	63177
36.91912	61031
36.92725	65086
36.93537	64212
36.94350	65863
36.95162	70196
36.95973	70863
36.96787	73432
36.97598	81124
36.98410	77362
36.99223	76646
37.00035	71536
37.00848	66705
37.01660	66879
37.02472	63431
37.03285	65500
37.04097	62328
37.04910	62310
37.05722	64070
37.06533	61482
37.07347	60708
37.08158	66891
37.08972	65697
37.09783	68760
37.10595	63856
37.11408	61958
37.12220	59739
37.13032	59134
37.13845	58543
37.14657	65431
37.15470	62491
37.16282	60160
37.17093	61083
37.17907	61231
37.18718	62368
37.19532	62123
37.20343	62552
37.21155	62529
37.21968	60106
37.22780	60493
37.23593	61245
37.24405	63377
37.25217	57601
37.26030	57854
37.26842	61331
37.27653	57854
37.28467	58486
37.29278	63739
37.30092	60072
37.30903	64072
37.31715	69918
37.32528	80747
37.33340	80267
37.34153	88307
37.34965	88752
37.35777	92901
37.36590	91961
37.37402	89954
37.38215	92546
37.39027	82010
37.39838	80870
37.40652	80666
37.41463	78357
37.42275	77370
37.43088	76157
37.43900	81024
37.44713	75121
37.45525	71415
37.46337	71251
37.47150	72308
37.47962	69584
37.48775	67165
