Z:\data\JTB-E02\BACandBLUE\JTB-E02-201-18.D Fri Mar 01 08:29:06 2019
Start of data points
2.09533,39203
2.10345,39623
2.11158,43501
2.11970,42898
2.12782,40740
2.13595,43573
2.14407,45083
2.15220,44973
2.16032,47494
2.16843,47358
2.17657,50714
2.18468,50768
2.19280,50015
2.20093,47165
2.20905,48518
2.21718,49558
2.22530,49090
2.23342,46517
2.24155,47031
2.24967,41536
2.25780,63591
2.26592,528260
2.27403,2305848
2.28217,2830165
2.29028,1498548
2.29840,729365
2.30653,513736
2.31465,410756
2.32278,376771
2.33090,321816
2.33902,292971
2.34715,251970
2.35527,231266
2.36340,204179
2.37152,192738
2.37963,186484
2.38777,189771
2.39588,179370
2.40402,275284
2.41213,290842
2.42025,554580
2.42838,616712
2.43650,343598
2.44462,264521
2.45275,232748
2.46087,201252
2.46900,177830
2.47712,161250
2.48523,155774
2.49337,147024
2.50148,141810
2.50962,130807
2.51773,128284
2.52585,128311
2.53398,122245
2.54210,124232
2.55023,144066
2.55835,221492
2.56647,246411
2.57460,168284
2.58272,130189
2.59083,116534
2.59897,113411
2.60708,115398
2.61522,121826
2.62333,118583
2.63145,110418
2.63958,106574
2.64770,96619
2.65583,100295
2.66395,102143
2.67207,102189
2.68020,91705
2.68832,96177
2.69643,90526
2.70457,92505
2.71268,93978
2.72082,93372
2.72893,89218
2.73705,86130
2.74518,85351
2.75330,86439
2.76143,83077
2.76955,85341
2.77767,84669
2.78580,88951
2.79392,85209
2.80205,88071
2.81017,91482
2.81828,93227
2.82642,81766
2.83453,83978
2.84265,83871
2.85078,81083
2.85890,82762
2.86703,80868
2.87515,77138
2.88327,79151
2.89140,84755
2.89952,82408
2.90765,78929
2.91577,76704
2.92388,75202
2.93202,76876
2.94013,73626
2.94827,72168
2.95638,77434
2.96450,77336
2.97263,78146
2.98075,80162
2.98887,75431
2.99700,74032
3.00512,82052
3.01325,80530
3.02137,75271
3.02948,72501
3.03762,69978
3.04573,70176
3.05387,70252
3.06198,74522
3.07010,73732
3.07823,71672
3.08635,71546
3.09447,76779
3.10260,83245
3.11072,97518
3.11885,104628
3.12697,103931
3.13508,94934
3.14322,88665
3.15133,83871
3.15947,83045
3.16758,77074
3.17570,77408
3.18383,78495
3.19195,72618
3.20008,77883
3.20820,69797
3.21632,72461
3.22445,72792
3.23257,70499
3.24068,67072
3.24882,67912
3.25693,69161
3.26507,66615
3.27318,71027
3.28130,90692
3.28943,302568
3.29755,1448951
3.30568,4652846
3.31380,8599933
3.32192,9890960
3.33005,8309128
3.33817,6134142
3.34628,4637737
3.35442,3637695
3.36253,2969347
3.37067,2508556
3.37878,2152915
3.38690,1886479
3.39503,1666700
3.40315,1527928
3.41128,1362662
3.41940,1237557
3.42752,1151077
3.43565,1065428
3.44377,993590
3.45190,942788
3.46002,885376
3.46813,833189
3.47627,803585
3.48438,748459
3.49250,724551
3.50063,693025
3.50875,666029
3.51688,642340
3.52500,624277
3.53312,601812
3.54125,571974
3.54937,553988
3.55750,521910
3.56562,513898
3.57373,496264
3.58187,488876
3.58998,474389
3.59812,460649
3.60623,451762
3.61435,431198
3.62248,438991
3.63060,421702
3.63872,412733
3.64685,391501
3.65497,375825
3.66310,376887
3.67122,380944
3.67933,388191
3.68747,380851
3.69558,379177
3.70372,365163
3.71183,368754
3.71995,353309
3.72808,351574
3.73620,337246
3.74432,325050
3.75245,317661
3.76057,316095
3.76870,300267
3.77682,305040
3.78493,301558
3.79307,296403
3.80118,303410
3.80932,293756
3.81743,290773
3.82555,299198
3.83368,286210
3.84180,288457
3.84993,275156
3.85805,276793
3.86617,268145
3.87430,258100
3.88242,269850
3.89053,258047
3.89867,251221
3.90678,256469
3.91492,251182
3.92303,252028
3.93115,241897
3.93928,244468
3.94740,242612
3.95553,237816
3.96365,232178
3.97177,236948
3.97990,228294
3.98802,228878
3.99615,230179
4.00427,238752
4.01238,229201
4.02052,232161
4.02863,223380
4.03675,227771
4.04488,233496
4.05300,221186
4.06113,225594
4.06925,213510
4.07737,211778
4.08550,212397
4.09362,207232
4.10175,207306
4.10987,208339
4.11798,207677
4.12612,215321
4.13423,207821
4.14235,252499
4.15048,319596
4.15860,372856
4.16673,356227
4.17485,308452
4.18297,266391
4.19110,242449
4.19922,221436
4.20735,216495
4.21547,210516
4.22358,208035
4.23172,223976
4.23983,233662
4.24797,227379
4.25608,211256
4.26420,205833
4.27233,199669
4.28045,197304
4.28857,190850
4.29670,187117
4.30482,178726
4.31295,183769
4.32107,180533
4.32918,186611
4.33732,189588
4.34543,188444
4.35357,175780
4.36168,175018
4.36980,178011
4.37793,179696
4.38605,177663
4.39418,171836
4.40230,167726
4.41042,166041
4.41855,170536
4.42667,170598
4.43478,171571
4.44292,171275
4.45103,167378
4.45917,159720
4.46728,154520
4.47540,156445
4.48353,158487
4.49165,156796
4.49978,163052
4.50790,160860
4.51602,163359
4.52415,159737
4.53227,148412
4.54038,158942
4.54852,158683
4.55663,159911
4.56477,152737
4.57288,158629
4.58100,156789
4.58913,151000
4.59725,149083
4.60538,150764
4.61350,150970
4.62162,153084
4.62975,148788
4.63787,148127
4.64600,151636
4.65412,151220
4.66223,150883
4.67037,143937
4.67848,146373
4.68660,144831
4.69473,137467
4.70285,139427
4.71098,133529
4.71910,144258
4.72722,139920
4.73535,134066
4.74347,136177
4.75160,140205
4.75972,139875
4.76783,132131
4.77597,136736
4.78408,143644
4.79220,133719
4.80033,139065
4.80845,134533
4.81658,135992
4.82470,131651
4.83282,136364
4.84095,136277
4.84907,130343
4.85720,126830
4.86532,129450
4.87343,135873
4.88157,138259
4.88968,132125
4.89782,138757
4.90593,132577
4.91405,132884
4.92218,131303
4.93030,141935
4.93842,197584
4.94655,466272
4.95467,1218296
4.96280,2528366
4.97092,3885679
4.97903,4464992
4.98717,4067090
4.99528,3166219
5.00342,2354614
5.01153,1804658
5.01965,1460225
5.02778,1206565
5.03590,1047419
5.04403,904098
5.05215,821067
5.06027,743143
5.06840,697234
5.07652,637671
5.08463,604769
5.09277,572298
5.10088,546070
5.10902,512124
5.11713,493074
5.12525,477551
5.13338,441504
5.14150,444893
5.14963,416201
5.15775,419236
5.16587,405927
5.17400,401842
5.18212,386757
5.19023,393473
5.19837,370310
5.20648,363219
5.21462,360260
5.22273,356268
5.23085,349094
5.23898,350532
5.24710,355394
5.25523,356985
5.26335,341441
5.27147,320923
5.27960,312700
5.28772,294527
5.29585,290009
5.30397,289772
5.31208,284933
5.32022,274236
5.32833,273369
5.33645,262703
5.34458,262984
5.35270,260633
5.36083,261459
5.36895,254586
5.37707,247138
5.38520,245156
5.39332,246438
5.40145,247993
5.40957,236283
5.41768,232929
5.42582,233829
5.43393,235467
5.44207,222697
5.45018,222859
5.45830,221676
5.46643,228782
5.47455,225592
5.48267,212174
5.49080,210961
5.49892,215633
5.50705,213351
5.51517,212317
5.52328,208545
5.53142,205668
5.53953,202664
5.54767,207931
5.55578,205190
5.56390,204602
5.57203,203039
5.58015,202997
5.58827,201462
5.59640,192197
5.60452,194971
5.61265,208674
5.62077,199809
5.62888,220971
5.63702,221169
5.64513,213155
5.65327,207610
5.66138,214412
5.66950,198457
5.67763,203385
5.68575,217462
5.69388,241820
5.70200,254203
5.71012,249620
5.71825,231884
5.72637,212991
5.73448,197786
5.74262,194120
5.75073,191701
5.75887,183332
5.76698,185344
5.77510,179854
5.78323,179123
5.79135,173865
5.79948,171660
5.80760,170455
5.81572,174553
5.82385,179487
5.83197,177182
5.84008,162224
5.84822,165430
5.85633,166943
5.86447,166324
5.87258,162429
5.88070,161722
5.88883,161607
5.89695,159798
5.90508,157978
5.91320,139092
5.92132,126365
5.92945,116778
5.93757,124198
5.94570,125996
5.95382,119055
5.96193,126766
5.97007,128626
5.97818,151802
5.98630,157473
5.99443,169980
6.00255,161746
6.01068,147165
6.01880,143803
6.02692,124619
6.03505,124275
6.04317,116845
6.05130,123736
6.05942,126844
6.06753,120029
6.07567,124291
6.08378,119853
6.09192,124717
6.10003,121749
6.10815,119772
6.11628,112243
6.12440,117034
6.13252,119771
6.14065,122798
6.14877,123309
6.15690,130040
6.16502,129560
6.17313,125483
6.18127,127860
6.18938,128733
6.19752,128769
6.20563,127736
6.21375,129593
6.22188,125316
6.23000,130849
6.23813,132753
6.24625,136523
6.25437,133618
6.26250,141075
6.27062,150025
6.27873,138613
6.28687,138097
6.29498,139764
6.30312,140881
6.31123,147154
6.31935,143454
6.32748,153002
6.33560,147690
6.34373,149485
6.35185,164434
6.35997,154795
6.36810,150444
6.37622,155612
6.38433,164562
6.39247,156168
6.40058,160832
6.40872,152290
6.41683,163248
6.42495,163089
6.43308,161020
6.44120,171419
6.44933,175374
6.45745,177869
6.46557,184766
6.47370,183453
6.48182,178610
6.48995,185470
6.49807,176172
6.50618,185718
6.51432,175879
6.52243,175830
6.53055,181335
6.53868,181655
6.54680,184534
6.55493,180248
6.56305,182528
6.57117,182412
6.57930,169075
6.58742,157279
6.59555,140897
6.60367,134805
6.61178,131736
6.61992,135668
6.62803,128122
6.63615,123485
6.64428,125970
6.65240,120776
6.66053,122744
6.66865,123515
6.67677,117343
6.68490,123916
6.69302,112511
6.70115,113551
6.70927,119166
6.71738,109806
6.72552,112454
6.73363,112779
6.74177,120474
6.74988,112731
6.75800,110823
6.76613,110434
6.77425,108629
6.78237,111130
6.79050,107694
6.79862,114942
6.80675,111554
6.81487,105178
6.82298,103782
6.83112,99612
6.83923,103769
6.84737,99624
6.85548,99819
6.86360,99799
6.87173,78766
6.87985,71713
6.88798,69354
6.89610,66004
6.90422,66075
6.91235,63053
6.92047,63702
6.92858,59632
6.93672,64581
6.94483,62218
6.95297,57328
6.96108,64894
6.96920,65678
6.97733,61504
6.98545,59320
6.99358,66495
7.00170,60774
7.00982,58863
7.01795,58606
7.02607,58378
7.03418,60146
7.04232,62227
7.05043,63478
7.05857,59921
7.06668,64529
7.07480,61305
7.08293,54763
7.09105,58063
7.09918,52495
7.10730,53795
7.11542,54387
7.12355,55513
7.13167,59497
7.13980,52299
7.14792,53799
7.15603,58547
7.16417,53331
7.17228,58712
7.18040,56577
7.18853,65020
7.19665,66232
7.20478,67008
7.21290,73559
7.22102,72748
7.22915,68933
7.23727,60544
7.24540,57037
7.25352,58886
7.26163,62593
7.26977,56681
7.27788,59684
7.28602,58323
7.29413,55334
7.30225,56758
7.31038,61873
7.31850,59010
7.32662,57589
7.33475,58674
7.34287,55276
7.35100,56859
7.35912,57490
7.36723,55300
7.37537,56866
7.38348,55841
7.39162,57010
7.39973,60106
7.40785,55376
7.41598,62064
7.42410,60976
7.43222,66603
7.44035,67743
7.44847,58304
7.45660,65841
7.46472,60563
7.47283,58609
7.48097,53885
7.48908,60904
7.49722,54351
7.50533,56612
7.51345,57720
7.52158,56372
7.52970,53225
7.53783,55573
7.54595,54752
7.55407,54779
7.56220,54989
7.57032,54506
7.57843,57831
7.58657,54307
7.59468,56192
7.60282,54813
7.61093,54351
7.61905,56831
7.62718,52609
7.63530,51431
7.64343,53563
7.65155,53982
7.65967,51955
7.66780,52875
7.67592,53436
7.68403,52834
7.69217,52285
7.70028,50937
7.70842,51233
7.71653,53130
7.72465,51021
7.73278,48291
7.74090,52410
7.74903,58082
7.75715,53630
7.76527,54641
7.77340,52251
7.78152,55858
7.78965,54753
7.79777,56157
7.80588,49988
7.81402,52423
7.82213,53542
7.83025,49383
7.83838,53252
7.84650,53151
7.85463,54920
7.86275,53167
7.87087,47538
7.87900,49214
7.88712,48082
7.89525,50267
7.90337,51500
7.91148,47951
7.91962,50216
7.92773,51427
7.93587,51869
7.94398,54373
7.95210,52059
7.96023,49968
7.96835,53143
7.97647,51860
7.98460,52333
7.99272,55405
8.00085,52482
8.00897,50330
8.01708,50009
8.02522,49949
8.03333,48521
8.04147,54239
8.04958,49838
8.05770,50473
8.06583,52191
8.07395,54942
8.08207,51734
8.09020,53939
8.09832,55041
8.10645,54594
8.11457,53677
8.12268,51377
8.13082,60303
8.13893,48346
8.14707,56556
8.15518,56216
8.16330,59556
8.17143,61793
8.17955,61053
8.18768,57136
8.19580,63156
8.20392,54305
8.21205,58649
8.22017,60501
8.22828,56762
8.23642,51984
8.24453,53877
8.25267,52933
8.26078,56612
8.26890,51994
8.27703,52804
8.28515,53644
8.29328,52753
8.30140,50615
8.30952,50980
8.31765,47970
8.32577,50974
8.33390,55612
8.34202,57969
8.35013,61662
8.35827,63754
8.36638,56366
8.37450,56996
8.38263,54322
8.39075,53346
8.39888,52841
8.40700,51974
8.41512,49240
8.42325,50366
8.43137,52236
8.43950,57725
8.44762,51065
8.45573,54585
8.46387,51681
8.47198,50426
8.48010,50302
8.48823,52911
8.49635,51398
8.50448,45788
8.51260,50814
8.52072,50182
8.52885,52445
8.53697,59304
8.54510,55277
8.55322,55766
8.56133,60253
8.56947,51841
8.57758,50134
8.58572,51510
8.59383,51500
8.60195,53067
8.61008,49878
8.61820,53195
8.62632,50033
8.63445,48359
8.64257,49461
8.65070,50597
8.65882,51619
8.66693,49240
8.67507,49106
8.68318,51568
8.69132,51677
8.69943,43416
8.70755,48601
8.71568,46719
8.72380,45683
8.73192,46975
8.74005,46508
8.74817,48195
8.75630,46389
8.76442,52141
8.77253,75255
8.78067,150730
8.78878,312789
8.79692,562474
8.80503,864822
8.81315,988261
8.82128,959192
8.82940,770135
8.83753,601697
8.84565,505936
8.85377,437615
8.86190,381420
8.87002,343891
8.87813,299004
8.88627,268060
8.89438,246610
8.90252,240129
8.91063,219749
8.91875,202889
8.92688,192962
8.93500,185553
8.94313,170105
8.95125,157308
8.95937,167805
8.96750,153912
8.97562,147905
8.98375,146011
8.99187,152165
8.99998,137725
9.00812,132704
9.01623,134594
9.02435,134974
9.03248,122838
9.04060,119757
9.04873,127217
9.05685,114403
9.06497,112882
9.07310,119484
9.08122,114117
9.08935,107295
9.09747,109500
9.10558,107263
9.11372,106727
9.12183,108651
9.12995,97466
9.13808,107525
9.14620,107255
9.15433,103976
9.16245,99723
9.17057,108841
9.17870,107180
9.18682,99517
9.19495,96316
9.20307,102408
9.21118,99248
9.21932,104305
9.22743,98938
9.23557,89889
9.24368,90770
9.25180,86394
9.25993,93761
9.26805,94371
9.27617,90498
9.28430,87249
9.29242,88702
9.30055,82684
9.30867,83447
9.31678,75299
9.32492,80157
9.33303,77691
9.34117,79012
9.34928,80122
9.35740,77830
9.36553,77143
9.37365,78537
9.38178,71552
9.38990,79959
9.39802,74902
9.40615,76392
9.41427,75848
9.42238,71902
9.43052,73449
9.43863,72667
9.44677,72624
9.45488,76517
9.46300,67045
9.47113,75036
9.47925,69554
9.48738,69107
9.49550,67832
9.50362,70685
9.51175,70719
9.51987,69663
9.52798,71209
9.53612,70904
9.54423,77358
9.55237,74062
9.56048,70581
9.56860,68145
9.57673,52024
9.58485,50988
9.59298,46260
9.60110,47750
9.60922,51096
9.61735,42648
9.62547,42594
9.63360,48246
9.64172,43317
9.64983,40974
9.65797,45408
9.66608,43993
9.67420,41073
9.68233,42166
9.69045,39723
9.69858,40454
9.70670,42164
9.71482,41357
9.72295,40605
9.73107,39310
9.73920,41420
9.74732,42647
9.75543,39032
9.76357,44014
9.77168,37317
9.77982,41701
9.78793,37977
9.79605,39449
9.80418,38561
9.81230,37104
9.82042,43170
9.82855,47654
9.83667,43762
9.84480,45311
9.85292,48256
9.86103,50854
9.86917,54298
9.87728,49478
9.88542,49652
9.89353,44303
9.90165,44813
9.90978,40923
9.91790,42122
9.92602,36874
9.93415,40040
9.94227,41147
9.95040,38449
9.95852,41423
9.96663,39822
9.97477,42788
9.98288,43881
9.99102,45851
9.99913,51417
10.00725,52561
10.01538,52887
10.02350,57200
10.03163,67162
10.03975,70326
10.04787,63359
10.05600,64148
10.06412,61373
10.07223,57597
10.08037,53527
10.08848,54532
10.09662,52532
10.10473,49281
10.11285,47778
10.12098,48459
10.12910,49179
10.13723,45791
10.14535,46595
10.15347,40712
10.16160,44220
10.16972,43059
10.17783,42856
10.18597,45613
10.19408,41964
10.20222,43495
10.21033,44901
10.21845,42564
10.22658,44073
10.23470,48072
10.24283,53201
10.25095,53066
10.25907,51642
10.26720,53467
10.27532,50637
10.28345,52109
10.29157,48434
10.29968,53797
10.30782,50965
10.31593,56890
10.32405,54990
10.33218,61354
10.34030,66690
10.34843,65036
10.35655,58263
10.36467,54771
10.37280,53093
10.38092,49262
10.38905,49983
10.39717,47952
10.40528,46943
10.41342,43969
10.42153,46232
10.42967,44661
10.43778,45934
10.44590,44410
10.45403,51075
10.46215,46598
10.47027,44331
10.47840,45767
10.48652,44101
10.49465,42760
10.50277,45988
10.51088,43270
10.51902,42663
10.52713,42877
10.53527,42678
10.54338,41779
10.55150,40780
10.55963,44834
10.56775,41519
10.57587,50869
10.58400,44822
10.59212,43600
10.60025,40190
10.60837,47273
10.61648,40750
10.62462,42932
10.63273,45601
10.64087,45800
10.64898,41272
10.65710,47448
10.66523,48935
10.67335,42926
10.68148,46928
10.68960,47761
10.69772,43380
10.70585,42713
10.71397,43391
10.72208,46527
10.73022,47318
10.73833,45009
10.74647,39708
10.75458,45616
10.76270,43190
10.77083,46315
10.77895,43856
10.78708,43726
10.79520,42344
10.80332,39869
10.81145,44486
10.81957,41853
10.82770,44472
10.83582,44444
10.84393,40406
10.85207,42012
10.86018,40508
10.86830,48756
10.87643,39829
10.88455,39156
10.89268,40272
10.90080,38237
10.90892,38191
10.91705,40013
10.92517,39179
10.93330,39490
10.94142,38259
10.94953,40964
10.95767,38950
10.96578,43988
10.97390,39930
10.98203,41020
10.99015,39936
10.99828,38340
11.00640,41397
11.01452,41931
11.02265,37100
11.03077,41446
11.03890,38559
11.04702,37607
11.05513,36525
11.06327,38085
11.07138,38943
11.07952,37377
11.08763,34812
11.09575,39934
11.10388,38524
11.11200,35359
11.12012,36101
11.12825,38452
11.13637,35886
11.14450,35073
11.15262,34747
11.16073,37028
11.16887,40681
11.17698,42861
11.18512,47634
11.19323,55570
11.20135,61365
11.20948,70541
11.21760,74174
11.22572,74676
11.23385,61858
11.24197,57577
11.25010,56123
11.25822,41785
11.26633,40287
11.27447,39643
11.28258,41184
11.29072,39590
11.29883,38413
11.30695,40245
11.31508,38933
11.32320,40126
11.33133,38576
11.33945,38005
11.34757,40543
11.35570,39695
11.36382,36471
11.37193,37811
11.38007,35343
11.38818,37547
11.39632,35075
11.40443,37455
11.41255,37099
11.42068,38337
11.42880,36037
11.43693,39531
11.44505,37726
11.45317,32330
11.46130,42355
11.46942,35714
11.47755,31597
11.48567,34584
11.49378,32946
11.50192,34146
11.51003,39826
11.51815,36236
11.52628,33110
11.53440,35487
11.54253,35697
11.55065,37303
11.55877,36396
11.56690,34993
11.57502,35903
11.58315,41206
11.59127,36656
11.59938,36297
11.60752,41052
11.61563,36996
11.62377,39117
11.63188,35532
11.64000,33689
11.64813,32013
11.65625,33859
11.66437,33410
11.67250,32187
11.68062,34284
11.68875,39633
11.69687,35047
11.70498,33531
11.71312,38256
11.72123,38693
11.72937,40315
11.73748,40640
11.74560,38337
11.75373,38451
11.76185,35984
11.76997,40518
11.77810,37958
11.78622,42766
11.79435,42794
11.80247,42761
11.81058,37588
11.81872,39835
11.82683,36755
11.83497,38218
11.84308,39075
11.85120,33152
11.85933,42334
11.86745,36489
11.87558,35667
11.88370,36750
11.89182,38706
11.89995,39724
11.90807,34744
11.91618,37740
11.92432,34669
11.93243,38952
11.94057,38381
11.94868,37392
11.95680,33746
11.96493,38569
11.97305,33326
11.98118,32097
11.98930,33020
11.99742,36010
12.00555,34332
12.01367,38910
12.02178,39517
12.02992,34175
12.03803,38144
12.04617,37554
12.05428,35494
12.06240,39943
12.07053,34260
12.07865,38518
12.08678,38011
12.09490,36436
12.10302,42552
12.11115,40400
12.11927,37589
12.12740,39441
12.13552,34181
12.14363,33554
12.15177,35754
12.15988,37211
12.16800,36268
12.17613,39704
12.18425,39143
12.19238,41533
12.20050,45081
12.20862,40332
12.21675,43100
12.22487,42597
12.23300,44208
12.24112,43587
12.24923,44119
12.25737,41672
12.26548,39627
12.27362,38850
12.28173,36877
12.28985,40937
12.29798,38428
12.30610,37731
12.31422,36559
12.32235,40657
12.33047,39119
12.33860,38930
12.34672,38093
12.35483,39373
12.36297,43901
12.37108,38465
12.37922,40400
12.38733,36848
12.39545,38658
12.40358,35156
12.41170,47221
12.41982,40336
12.42795,46357
12.43607,42611
12.44420,44642
12.45232,42459
12.46043,43619
12.46857,43961
12.47668,39857
12.48482,44492
12.49293,43399
12.50105,43786
12.50918,37687
12.51730,45040
12.52543,38042
12.53355,38436
12.54167,38864
12.54980,39476
12.55792,36227
12.56603,34533
12.57417,38037
12.58228,42851
12.59042,40681
12.59853,44009
12.60665,39829
12.61478,38100
12.62290,33013
12.63103,40585
12.63915,39936
12.64727,35778
12.65540,35361
12.66352,36914
12.67165,36716
12.67977,35607
12.68788,38825
12.69602,33703
12.70413,35637
12.71225,36535
12.72038,37701
12.72850,37366
12.73663,43840
12.74475,36177
12.75287,41698
12.76100,43783
12.76912,40615
12.77725,44065
12.78537,41489
12.79348,39642
12.80162,38928
12.80973,38453
12.81785,35954
12.82598,37736
12.83410,37182
12.84223,37141
12.85035,34085
12.85847,35130
12.86660,34085
12.87472,32361
12.88285,38323
12.89097,34784
12.89908,32833
12.90722,33025
12.91533,36298
12.92347,33754
12.93158,39746
12.93970,41360
12.94783,35375
12.95595,32227
12.96407,30393
12.97220,33482
12.98032,37224
12.98845,37524
12.99657,34849
13.00468,30704
13.01282,37151
13.02093,33727
13.02907,34875
13.03718,38306
13.04530,34608
13.05343,37298
13.06155,35545
13.06967,30763
13.07780,35234
13.08592,37137
13.09405,38956
13.10217,33401
13.11028,34306
13.11842,31945
13.12653,33973
13.13467,38328
13.14278,34517
13.15090,34487
13.15903,37713
13.16715,34044
13.17528,32205
13.18340,35786
13.19152,35731
13.19965,40578
13.20777,42545
13.21588,46677
13.22402,49690
13.23213,50617
13.24027,40857
13.24838,36287
13.25650,38032
13.26463,35908
13.27275,36869
13.28088,35729
13.28900,36534
13.29712,34078
13.30525,36919
13.31337,34117
13.32150,35665
13.32962,35069
13.33773,36188
13.34587,34181
13.35398,36016
13.36210,38653
13.37023,37818
13.37835,34061
13.38648,32775
13.39460,32554
13.40272,33805
13.41085,34560
13.41897,31290
13.42710,36281
13.43522,34025
13.44333,37148
13.45147,34905
13.45958,32547
13.46770,33214
13.47583,35139
13.48395,37220
13.49208,37253
13.50020,35161
13.50832,35459
13.51645,36650
13.52457,34861
13.53270,35321
13.54082,37014
13.54893,36917
13.55707,33597
13.56518,35694
13.57332,34475
13.58143,39721
13.58955,35191
13.59768,34607
13.60580,37041
13.61392,38449
13.62205,31788
13.63017,31095
13.63830,34268
13.64642,32890
13.65453,27293
13.66267,36554
13.67078,36777
13.67892,34895
13.68703,36156
13.69515,33069
13.70328,31219
13.71140,33106
13.71953,31700
13.72765,32048
13.73577,33528
13.74390,34322
13.75202,32636
13.76013,33326
13.76827,34122
13.77638,32694
13.78452,34475
13.79263,37484
13.80075,40451
13.80888,37195
13.81700,33407
13.82513,36540
13.83325,38083
13.84137,40445
13.84950,37542
13.85762,39206
13.86573,33673
13.87387,39417
13.88198,38363
13.89012,37085
13.89823,39212
13.90635,33729
13.91448,34656
13.92260,34514
13.93073,38096
13.93885,42612
13.94697,39496
13.95510,44126
13.96322,41584
13.97135,41479
13.97947,36614
13.98758,37352
13.99572,35297
14.00383,37945
14.01195,41525
14.02008,40498
14.02820,38089
14.03633,36767
14.04445,39029
14.05257,36295
14.06070,43694
14.06882,37535
14.07695,39841
14.08507,37753
14.09318,42041
14.10132,39808
14.10943,39668
14.11757,38078
14.12568,39640
14.13380,39438
14.14193,41108
14.15005,36824
14.15817,37397
14.16630,40629
14.17442,38997
14.18255,43422
14.19067,54975
14.19878,90643
14.20692,145176
14.21503,225277
14.22317,281682
14.23128,323907
14.23940,314528
14.24753,266842
14.25565,217153
14.26377,183824
14.27190,155263
14.28002,132834
14.28815,124346
14.29627,112427
14.30438,104821
14.31252,97466
14.32063,97663
14.32877,90154
14.33688,85265
14.34500,85094
14.35313,80005
14.36125,73576
14.36938,65871
14.37750,58551
14.38562,58574
14.39375,47782
14.40187,44709
14.40998,45938
14.41812,43055
14.42623,42231
14.43437,39700
14.44248,37305
14.45060,38187
14.45873,41476
14.46685,38964
14.47498,41900
14.48310,38096
14.49122,39746
14.49935,37739
14.50747,39235
14.51558,42690
14.52372,36541
14.53183,40555
14.53997,36460
14.54808,36409
14.55620,36982
14.56433,37223
14.57245,35061
14.58058,35531
14.58870,33675
14.59682,36057
14.60495,36149
14.61307,34731
14.62120,36943
14.62932,35966
14.63743,33284
14.64557,34577
14.65368,31519
14.66180,36024
14.66993,32383
14.67805,34552
14.68618,39278
14.69430,36855
14.70242,32189
14.71055,32288
14.71867,33257
14.72680,36289
14.73492,32214
14.74303,33274
14.75117,32442
14.75928,30062
14.76742,35069
14.77553,34905
14.78365,35412
14.79178,32640
14.79990,34059
14.80802,31974
14.81615,32121
14.82427,37808
14.83240,38250
14.84052,51152
14.84863,58231
14.85677,58847
14.86488,65962
14.87302,61464
14.88113,59387
14.88925,57795
14.89738,55774
14.90550,59589
14.91362,55622
14.92175,57156
14.92987,52531
14.93800,54245
14.94612,51934
14.95423,53203
14.96237,55001
14.97048,51322
14.97862,52553
14.98673,50852
14.99485,50745
15.00298,49097
15.01110,47607
15.01923,46001
15.02735,47585
15.03547,52272
15.04360,43773
15.05172,49467
15.05983,46454
15.06797,45731
15.07608,43175
15.08422,41800
15.09233,44485
15.10045,48066
15.10858,45183
15.11670,41846
15.12483,44886
15.13295,43560
15.14107,40713
15.14920,42429
15.15732,39529
15.16545,44550
15.17357,40879
15.18168,36474
15.18982,37583
15.19793,34607
15.20605,33852
15.21418,32899
15.22230,36128
15.23043,36332
15.23855,33997
15.24667,36697
15.25480,35284
15.26292,33921
15.27105,38717
15.27917,30940
15.28728,35337
15.29542,34517
15.30353,31522
15.31165,32236
15.31978,34494
15.32790,37028
15.33603,32756
15.34415,28843
15.35227,32082
15.36040,31680
15.36852,33362
15.37665,33966
15.38477,35517
15.39288,30591
15.40102,29048
15.40913,33658
15.41727,34798
15.42538,34039
15.43350,33675
15.44163,34495
15.44975,32103
15.45787,31327
15.46600,31562
15.47412,32774
15.48225,31427
15.49037,31418
15.49848,35497
15.50662,41460
15.51473,36129
15.52287,34422
15.53098,38153
15.53910,38090
15.54723,32215
15.55535,35478
15.56347,35140
15.57160,34712
15.57972,33203
15.58785,32433
15.59597,31953
15.60408,28866
15.61222,33646
15.62033,34602
15.62847,31320
15.63658,29334
15.64470,32337
15.65283,33227
15.66095,32157
15.66908,33330
15.67720,31845
15.68532,32995
15.69345,34449
15.70157,35900
15.70968,34041
15.71782,31725
15.72593,31694
15.73407,39007
15.74218,35461
15.75030,33112
15.75843,32305
15.76655,30016
15.77468,30709
15.78280,28057
15.79092,32783
15.79905,34758
15.80717,33502
15.81530,32076
15.82342,35892
15.83153,35010
15.83967,36038
15.84778,35341
15.85590,35460
15.86403,37648
15.87215,32756
15.88028,34352
15.88840,35118
15.89652,35216
15.90465,31460
15.91277,32711
15.92090,33421
15.92902,31964
15.93713,36587
15.94527,34835
15.95338,32216
15.96150,33031
15.96963,34184
15.97775,31410
15.98588,33244
15.99400,28056
16.00212,34114
16.01025,35464
16.01837,35802
16.02650,42313
16.03462,41351
16.04273,46992
16.05087,47498
16.05898,42222
16.06712,42288
16.07523,35442
16.08335,36524
16.09148,37825
16.09960,34962
16.10772,37296
16.11585,36851
16.12397,40595
16.13210,37065
16.14022,34547
16.14833,30436
16.15647,34938
16.16458,34545
16.17272,36627
16.18083,34230
16.18895,34646
16.19708,30734
16.20520,31158
16.21333,32957
16.22145,31840
16.22957,33060
16.23770,31820
16.24582,34490
16.25393,34093
16.26207,32768
16.27018,33294
16.27832,33405
16.28643,32206
16.29455,31324
16.30268,30484
16.31080,37036
16.31893,35114
16.32705,31639
16.33517,37651
16.34330,35421
16.35142,32484
16.35953,30059
16.36767,31436
16.37578,34532
16.38392,36725
16.39203,32300
16.40015,37321
16.40828,30386
16.41640,32111
16.42453,31560
16.43265,31992
16.44077,33696
16.44890,34379
16.45702,30374
16.46515,33591
16.47327,33151
16.48138,36975
16.48952,37289
16.49763,37306
16.50575,35947
16.51388,37532
16.52200,37693
16.53013,38114
16.53825,38051
16.54637,33531
16.55450,33668
16.56262,35514
16.57075,32300
16.57887,33235
16.58698,33085
16.59512,34950
16.60323,35272
16.61135,30740
16.61948,35424
16.62760,33344
16.63573,29256
16.64385,32911
16.65197,31824
16.66010,30137
16.66822,32535
16.67635,36657
16.68447,34809
16.69258,33604
16.70072,31473
16.70883,32183
16.71697,28654
16.72508,30322
16.73320,34316
16.74133,30675
16.74945,29342
16.75757,30770
16.76570,30744
16.77382,29580
16.78195,29742
16.79007,27976
16.79818,30948
16.80632,28147
16.81443,28905
16.82257,29378
16.83068,27064
16.83880,26895
16.84693,30652
16.85505,31562
16.86318,29661
16.87130,29926
16.87942,30188
16.88755,29358
16.89567,26994
16.90378,31484
16.91192,27027
16.92003,28959
16.92817,29089
16.93628,30435
16.94440,29681
16.95253,29522
16.96065,27310
16.96878,30123
16.97690,29266
16.98502,28486
16.99315,27955
17.00127,34854
17.00940,26385
17.01752,28174
17.02563,31236
17.03377,28567
17.04188,27739
17.05000,30922
17.05813,31648
17.06625,26174
17.07438,29513
17.08250,32205
17.09062,29913
17.09875,30024
17.10687,30597
17.11500,29936
17.12312,28497
17.13123,27179
17.13937,27884
17.14748,29961
17.15560,32525
17.16373,31090
17.17185,33286
17.17998,29059
17.18810,32016
17.19622,26781
17.20435,29746
17.21247,31226
17.22060,27396
17.22872,29097
17.23683,28818
17.24497,30044
17.25308,30683
17.26122,28345
17.26933,27460
17.27745,28812
17.28558,28734
17.29370,32193
17.30182,34804
17.30995,33969
17.31807,30329
17.32620,31573
17.33432,34664
17.34243,29116
17.35057,32810
17.35868,33877
17.36682,35593
17.37493,34891
17.38305,46542
17.39118,41619
17.39930,42682
17.40742,35391
17.41555,40588
17.42367,43840
17.43180,36502
17.43992,36194
17.44803,33799
17.45617,38180
17.46428,35701
17.47242,34179
17.48053,33586
17.48865,31283
17.49678,31783
17.50490,36367
17.51303,33561
17.52115,29943
17.52927,33337
17.53740,32986
17.54552,33981
17.55363,32678
17.56177,33587
17.56988,32090
17.57802,35791
17.58613,36727
17.59425,31025
17.60238,27048
17.61050,28503
17.61863,34799
17.62675,28494
17.63487,31889
17.64300,34684
17.65112,31731
17.65925,31300
17.66737,33839
17.67548,34655
17.68362,30652
17.69173,37532
17.69985,37788
17.70798,36030
17.71610,32187
17.72423,35116
17.73235,37760
17.74047,39110
17.74860,35669
17.75672,38511
17.76485,33601
17.77297,31342
17.78108,32813
17.78922,33884
17.79733,34144
17.80545,34584
17.81358,34616
17.82170,32654
17.82983,31906
17.83795,33911
17.84607,35090
17.85420,29773
17.86232,32962
17.87045,30879
17.87857,33739
17.88668,32957
17.89482,27657
17.90293,31487
17.91107,29495
17.91918,31673
17.92730,33385
17.93543,29686
17.94355,30525
17.95167,29558
17.95980,32301
17.96792,29311
17.97605,27579
17.98417,30801
17.99228,28830
18.00042,26631
18.00853,28175
18.01667,28063
18.02478,29453
18.03290,26868
18.04103,27834
18.04915,31795
18.05728,31914
18.06540,28592
18.07352,33828
18.08165,33691
18.08977,38815
18.09788,46338
18.10602,54658
18.11413,62033
18.12227,63913
18.13038,65935
18.13850,59038
18.14663,64749
18.15475,62540
18.16288,61200
18.17100,61552
18.17912,58698
18.18725,63238
18.19537,54675
18.20348,54041
18.21162,52203
18.21973,52765
18.22787,52388
18.23598,51559
18.24410,51849
18.25223,51244
18.26035,51320
18.26848,50031
18.27660,52684
18.28472,43413
18.29285,43040
18.30097,36357
18.30910,36359
18.31722,35169
18.32533,34292
18.33347,33785
18.34158,34042
18.34970,35470
18.35783,34729
18.36595,34634
18.37408,31925
18.38220,34621
18.39032,31547
18.39845,31159
18.40657,31954
18.41470,33248
18.42282,31449
18.43093,34736
18.43907,34012
18.44718,29514
18.45530,33943
18.46343,34132
18.47155,31589
18.47968,28525
18.48780,29719
18.49592,30421
18.50405,30346
18.51217,29264
18.52030,28869
18.52842,30298
18.53653,31834
18.54467,30614
18.55278,36342
18.56092,28512
18.56903,28426
18.57715,32002
18.58528,29448
18.59340,32319
18.60152,31525
18.60965,32661
18.61777,30033
18.62590,31316
18.63402,31834
18.64213,34605
18.65027,29143
18.65838,35357
18.66652,30715
18.67463,34558
18.68275,29673
18.69088,27113
18.69900,28371
18.70713,30817
18.71525,27466
18.72337,26642
18.73150,30452
18.73962,29585
18.74773,28269
18.75587,28328
18.76398,27407
18.77212,28405
18.78023,28368
18.78835,27479
18.79648,26800
18.80460,27278
18.81273,27163
18.82085,27682
18.82897,34125
18.83710,26481
18.84522,31624
18.85333,29268
18.86147,25336
18.86958,27403
18.87772,25855
18.88583,28746
18.89395,27747
18.90208,26318
18.91020,29593
18.91833,29349
18.92645,29582
18.93457,27162
18.94270,28868
18.95082,30321
18.95895,27260
18.96707,29909
18.97518,31962
18.98332,25989
18.99143,27682
18.99955,31753
19.00768,30143
19.01580,30806
19.02393,27547
19.03205,29160
19.04017,28509
19.04830,31491
19.05642,27701
19.06455,27643
19.07267,28705
19.08078,28478
19.08892,30231
19.09703,29145
19.10517,32756
19.11328,38182
19.12140,32381
19.12953,30806
19.13765,28352
19.14577,32360
19.15390,30597
19.16202,30737
19.17015,30712
19.17827,31128
19.18638,32616
19.19452,33513
19.20263,30015
19.21077,30496
19.21888,27900
19.22700,31358
19.23513,31723
19.24325,27419
19.25137,30829
19.25950,27192
19.26762,30100
19.27575,27355
19.28387,35232
19.29198,36997
19.30012,39735
19.30823,37591
19.31637,40813
19.32448,38150
19.33260,34273
19.34073,34845
19.34885,31624
19.35698,34064
19.36510,28171
19.37322,32187
19.38135,37259
19.38947,34594
19.39758,31968
19.40572,33921
19.41383,36045
19.42197,32456
19.43008,35620
19.43820,36217
19.44633,28414
19.45445,31689
19.46258,32022
19.47070,32216
19.47882,33140
19.48695,39713
19.49507,41350
19.50320,60783
19.51132,91151
19.51943,123378
19.52757,158352
19.53568,168382
19.54380,149926
19.55193,117994
19.56005,88786
19.56818,65382
19.57630,44137
19.58442,43144
19.59255,37997
19.60067,34184
19.60880,35080
19.61692,35443
19.62503,35076
19.63317,37430
19.64128,49969
19.64940,78035
19.65753,122354
19.66565,178888
19.67378,262596
19.68190,320505
19.69002,357426
19.69815,357233
19.70627,302049
19.71440,248015
19.72252,196479
19.73063,157945
19.73877,146284
19.74688,120766
19.75502,112356
19.76313,113782
19.77125,100304
19.77938,102127
19.78750,92951
19.79562,83797
19.80375,86824
19.81187,90592
19.82000,86143
19.82812,83442
19.83623,80682
19.84437,80713
19.85248,80048
19.86062,83477
19.86873,87929
19.87685,107995
19.88498,137055
19.89310,214976
19.90122,344473
19.90935,539157
19.91747,746495
19.92560,926409
19.93372,1089025
19.94183,1106851
19.94997,1122539
19.95808,1127318
19.96622,1058243
19.97433,1050014
19.98245,1022871
19.99058,988538
19.99870,951005
20.00683,923297
20.01495,881833
20.02307,835172
20.03120,793499
20.03932,764004
20.04743,706625
20.05557,599815
20.06368,496717
20.07182,391068
20.07993,314381
20.08805,256358
20.09618,214464
20.10430,202882
20.11243,196410
20.12055,179011
20.12867,183493
20.13680,162225
20.14492,165806
20.15305,160686
20.16117,166783
20.16928,157867
20.17742,158897
20.18553,148056
20.19365,150327
20.20178,144639
20.20990,142717
20.21803,142640
20.22615,137725
20.23427,140377
20.24240,144382
20.25052,144519
20.25865,179598
20.26677,226734
20.27488,286787
20.28302,397331
20.29113,493495
20.29925,529343
20.30738,522701
20.31550,469957
20.32363,387534
20.33175,292314
20.33987,231701
20.34800,186928
20.35612,140479
20.36425,122268
20.37237,104188
20.38048,94312
20.38862,86177
20.39673,86775
20.40487,89577
20.41298,85911
20.42110,88434
20.42923,98007
20.43735,119676
20.44547,139882
20.45360,155514
20.46172,163972
20.46985,168601
20.47797,154607
20.48608,134635
20.49422,107550
20.50233,96177
20.51047,86264
20.51858,78670
20.52670,71817
20.53483,73011
20.54295,71516
20.55108,69086
20.55920,68296
20.56732,63220
20.57545,62533
20.58357,60160
20.59168,63895
20.59982,59037
20.60793,61489
20.61607,59341
20.62418,59672
20.63230,64316
20.64043,57297
20.64855,57706
20.65668,56203
20.66480,59075
20.67292,60033
20.68105,62865
20.68917,53971
20.69728,59254
20.70542,57188
20.71353,55945
20.72167,53911
20.72978,51104
20.73790,53868
20.74603,60077
20.75415,54638
20.76228,62207
20.77040,52422
20.77852,56114
20.78665,54170
20.79477,54584
20.80290,52100
20.81102,50256
20.81913,56272
20.82727,51791
20.83538,51912
20.84350,52449
20.85163,53367
20.85975,50241
20.86788,49038
20.87600,51665
20.88412,52248
20.89225,51356
20.90037,52423
20.90850,48727
20.91662,52632
20.92473,50473
20.93287,51677
20.94098,47629
20.94910,45880
20.95723,46496
20.96535,47885
20.97348,49626
20.98160,47030
20.98972,45119
20.99785,45541
21.00597,42855
21.01410,44789
21.02222,43104
21.03033,46418
21.03847,48817
21.04658,50319
21.05472,45435
21.06283,40061
21.07095,42815
21.07908,44756
21.08720,43212
21.09532,43133
21.10345,44660
21.11157,46774
21.11970,43240
21.12782,44820
21.13593,42647
21.14407,45427
21.15218,43836
21.16032,44963
21.16843,53533
21.17655,46277
21.18468,50218
21.19280,48281
21.20093,49430
21.20905,46145
21.21717,50358
21.22530,43673
21.23342,47286
21.24153,43473
21.24967,47949
21.25778,47073
21.26592,47760
21.27403,49626
21.28215,46106
21.29028,48803
21.29840,46935
21.30653,50518
21.31465,40993
21.32277,44188
21.33090,42924
21.33902,42139
21.34713,44099
21.35527,41755
21.36338,42868
21.37152,40627
21.37963,40685
21.38775,39734
21.39588,41458
21.40400,42765
21.41213,39715
21.42025,41569
21.42837,43692
21.43650,43381
21.44462,45820
21.45275,39653
21.46087,39781
21.46898,43319
21.47712,41330
21.48523,37687
21.49335,38798
21.50148,40608
21.50960,39566
21.51773,39920
21.52585,40615
21.53397,37043
21.54210,40788
21.55022,37672
21.55835,37421
21.56647,43245
21.57458,39129
21.58272,41381
21.59083,37622
21.59897,41092
21.60708,42116
21.61520,40946
21.62333,53067
21.63145,68103
21.63957,89436
21.64770,102897
21.65582,121608
21.66395,137601
21.67207,111812
21.68018,104227
21.68832,82722
21.69643,72335
21.70457,59051
21.71268,53036
21.72080,48179
21.72893,44459
21.73705,41815
21.74517,43424
21.75330,42327
21.76142,42660
21.76955,45211
21.77767,43174
21.78578,42415
21.79392,45545
21.80203,41553
21.81017,44485
21.81828,46067
21.82640,53621
21.83453,67529
21.84265,87299
21.85078,100761
21.85890,105167
21.86702,97387
21.87515,89572
21.88327,71322
21.89138,58686
21.89952,58729
21.90763,46349
21.91577,43020
21.92388,39233
21.93200,37643
21.94013,40278
21.94825,42530
21.95638,40457
21.96450,40255
21.97262,43112
21.98075,39042
21.98887,37699
21.99698,39200
22.00512,36580
22.01323,35874
22.02137,35913
22.02948,32978
22.03760,38304
22.04573,33441
22.05385,37660
22.06198,33973
22.07010,30417
22.07822,32438
22.08635,36993
22.09447,32829
22.10260,39654
22.11072,38405
22.11883,34690
22.12697,35324
22.13508,34822
22.14320,34143
22.15133,34637
22.15945,39696
22.16758,40109
22.17570,34675
22.18382,37611
22.19195,38693
22.20007,39836
22.20820,39508
22.21632,42422
22.22443,39728
22.23257,48105
22.24068,46912
22.24882,49433
22.25693,48958
22.26505,48716
22.27318,43915
22.28130,41888
22.28942,35974
22.29755,33347
22.30567,33312
22.31380,34431
22.32192,33394
22.33003,34297
22.33817,39315
22.34628,37959
22.35442,39775
22.36253,39152
22.37065,39847
22.37878,39109
22.38690,38111
22.39503,37687
22.40315,40009
22.41127,39114
22.41940,38859
22.42752,38315
22.43563,36251
22.44377,39260
22.45188,37280
22.46002,37866
22.46813,35306
22.47625,34658
22.48438,34666
22.49250,34089
22.50063,37051
22.50875,30549
22.51687,34864
22.52500,32330
22.53312,31419
22.54123,32481
22.54937,28945
22.55748,28277
22.56562,35243
22.57373,35866
22.58185,30331
22.58998,29297
22.59810,26819
22.60623,27117
22.61435,27497
22.62247,27410
22.63060,25891
22.63872,26860
22.64685,30168
22.65497,28111
22.66308,30583
22.67122,32046
22.67933,29687
22.68745,29105
22.69558,30602
22.70370,29413
22.71183,34862
22.71995,32925
22.72807,29428
22.73620,37968
22.74432,32790
22.75245,30585
22.76057,31301
22.76868,32975
22.77682,30292
22.78493,31847
22.79305,32525
22.80118,33760
22.80930,31257
22.81743,29530
22.82555,31324
22.83367,30944
22.84180,34983
22.84992,33692
22.85805,34695
22.86617,38477
22.87428,34838
22.88242,37321
22.89053,35200
22.89867,35813
22.90678,37719
22.91490,42566
22.92303,42467
22.93115,48614
22.93927,53288
22.94740,60526
22.95552,62000
22.96365,57867
22.97177,62186
22.97988,60930
22.98802,57848
22.99613,53859
23.00427,54212
23.01238,45470
23.02050,45885
23.02863,46670
23.03675,37379
23.04488,34954
23.05300,33028
23.06112,33340
23.06925,34576
23.07737,31504
23.08548,33220
23.09362,30483
23.10173,31756
23.10987,32271
23.11798,30486
23.12610,26954
23.13423,30569
23.14235,34012
23.15048,27322
23.15860,33361
23.16672,27884
23.17485,28300
23.18297,28647
23.19108,31566
23.19922,30606
23.20733,34950
23.21547,30312
23.22358,28709
23.23170,26348
23.23983,26744
23.24795,26806
23.25608,31214
23.26420,29051
23.27232,29605
23.28045,32703
23.28857,35434
23.29670,32044
23.30482,30175
23.31293,34738
23.32107,31157
23.32918,30547
23.33730,26647
23.34543,30197
23.35355,28223
23.36168,29596
23.36980,30873
23.37792,29650
23.38605,34413
23.39417,32069
23.40230,34592
23.41042,32705
23.41853,31023
23.42667,29659
23.43478,34049
23.44292,33447
23.45103,35938
23.45915,34172
23.46728,32511
23.47540,32462
23.48352,30669
23.49165,31639
23.49977,34664
23.50790,33775
23.51602,31130
23.52413,33158
23.53227,29695
23.54038,34853
23.54852,32709
23.55663,30210
23.56475,34462
23.57288,36055
23.58100,32679
23.58912,34193
23.59725,30154
23.60537,35708
23.61350,38348
23.62162,36656
23.62973,35213
23.63787,35949
23.64598,40595
23.65412,40519
23.66223,43039
23.67035,51723
23.67848,59024
23.68660,62152
23.69473,66055
23.70285,68376
23.71097,67235
23.71910,60666
23.72722,62994
23.73533,65266
23.74347,72831
23.75158,117636
23.75972,272887
23.76783,704913
23.77595,1861121
23.78408,3721372
23.79220,5651292
23.80033,6603123
23.80845,6646918
23.81657,5753475
23.82470,4371161
23.83282,3054765
23.84093,2016968
23.84907,1438277
23.85718,1061356
23.86532,775495
23.87343,637042
23.88155,506950
23.88968,459815
23.89780,411746
23.90593,351712
23.91405,320601
23.92217,295559
23.93030,268366
23.93842,243471
23.94655,229952
23.95467,217716
23.96278,201875
23.97092,191420
23.97903,187649
23.98715,173805
23.99528,177088
24.00340,162175
24.01153,160561
24.01965,158084
24.02777,145180
24.03590,145633
24.04402,135458
24.05215,134340
24.06027,135502
24.06838,130602
24.07652,122809
24.08463,119121
24.09277,117962
24.10088,113674
24.10900,116846
24.11713,105319
24.12525,107946
24.13337,108561
24.14150,114517
24.14962,119879
24.15775,122075
24.16587,118695
24.17398,117788
24.18212,109175
24.19023,109010
24.19837,103603
24.20648,94529
24.21460,101378
24.22273,103926
24.23085,111092
24.23897,107684
24.24710,109872
24.25522,112281
24.26335,99135
24.27147,94329
24.27958,85330
24.28772,87878
24.29583,83133
24.30397,79788
24.31208,77349
24.32020,73784
24.32833,68132
24.33645,77999
24.34458,76250
24.35270,74018
24.36082,69894
24.36895,73607
24.37707,71289
24.38518,75041
24.39332,87354
24.40143,96612
24.40957,129934
24.41768,151580
24.42580,161152
24.43393,143300
24.44205,121623
24.45018,95614
24.45830,80555
24.46642,69818
24.47455,68871
24.48267,67579
24.49080,66216
24.49892,73974
24.50703,75188
24.51517,82460
24.52328,92547
24.53140,98653
24.53953,97917
24.54765,95685
24.55578,82641
24.56390,76107
24.57202,73651
24.58015,70941
24.58827,72825
24.59640,74076
24.60452,70127
24.61263,72892
24.62077,69273
24.62888,74985
24.63700,70444
24.64513,67976
24.65325,72176
24.66138,69068
24.66950,69572
24.67762,70470
24.68575,73236
24.69387,74296
24.70200,61922
24.71012,62577
24.71823,57650
24.72637,54840
24.73448,60340
24.74262,57430
24.75073,58828
24.75885,54708
24.76698,51965
24.77510,51658
24.78322,52354
24.79135,52641
24.79947,51493
24.80760,52137
24.81572,52497
24.82383,46513
24.83197,47324
24.84008,46770
24.84822,48803
24.85633,46987
24.86445,48502
24.87258,46028
24.88070,52151
24.88883,59205
24.89695,46965
24.90507,52174
24.91320,57085
24.92132,52241
24.92943,54716
24.93757,51612
24.94568,48482
24.95382,43797
24.96193,49512
24.97005,51846
24.97818,44278
24.98630,44312
24.99443,44527
25.00255,42697
25.01067,45313
25.01880,44117
25.02692,43196
25.03503,45623
25.04317,41807
25.05128,44530
25.05942,45327
25.06753,46190
25.07565,44091
25.08378,43604
25.09190,42975
25.10003,42237
25.10815,45146
25.11627,44520
25.12440,47498
25.13252,52098
25.14065,62752
25.14877,74388
25.15688,87898
25.16502,99512
25.17313,107077
25.18125,103455
25.18938,91461
25.19750,87666
25.20563,71876
25.21375,62576
25.22187,58641
25.23000,56790
25.23812,53057
25.24625,52868
25.25437,56555
25.26248,50876
25.27062,52241
25.27873,48389
25.28685,51380
25.29498,50430
25.30310,53343
25.31123,62007
25.31935,56786
25.32747,63123
25.33560,57330
25.34372,57953
25.35185,53151
25.35997,49571
25.36808,44800
25.37622,44723
25.38433,48873
25.39247,45481
25.40058,44490
25.40870,38942
25.41683,45433
25.42495,38700
25.43307,41159
25.44120,38880
25.44932,38969
25.45745,39315
25.46557,41721
25.47368,43439
25.48182,48089
25.48993,50196
25.49807,53061
25.50618,52967
25.51430,48393
25.52243,50688
25.53055,42056
25.53868,44977
25.54680,42927
25.55492,44320
25.56305,39789
25.57117,40685
25.57928,39554
25.58742,40833
25.59553,37021
25.60367,38298
25.61178,37598
25.61990,39785
25.62803,35688
25.63615,35648
25.64428,38425
25.65240,41756
25.66052,43433
25.66865,36154
25.67677,36487
25.68488,39084
25.69302,36778
25.70113,38836
25.70927,39374
25.71738,37918
25.72550,42381
25.73363,41477
25.74175,35075
25.74988,35743
25.75800,38426
25.76612,41450
25.77425,38690
25.78237,38287
25.79050,41544
25.79862,42411
25.80673,40005
25.81487,38217
25.82298,43129
25.83110,38555
25.83923,44745
25.84735,44018
25.85548,42022
25.86360,41394
25.87172,41170
25.87985,42330
25.88797,38771
25.89610,38724
25.90422,40903
25.91233,38596
25.92047,40142
25.92858,41098
25.93672,37977
25.94483,40857
25.95295,42340
25.96108,39979
25.96920,36301
25.97732,38368
25.98545,41435
25.99357,39997
26.00170,38850
26.00982,34947
26.01793,37168
26.02607,38799
26.03418,39242
26.04232,35357
26.05043,35639
26.05855,36357
26.06668,34798
26.07480,37248
26.08292,41243
26.09105,34804
26.09917,39556
26.10730,42591
26.11542,40671
26.12353,46708
26.13167,47523
26.13978,48176
26.14792,52945
26.15603,52111
26.16415,53544
26.17228,55034
26.18040,54982
26.18853,49463
26.19665,47645
26.20477,50064
26.21290,49102
26.22102,42469
26.22913,41214
26.23727,37195
26.24538,36968
26.25352,38717
26.26163,41495
26.26975,39849
26.27788,43865
26.28600,40516
26.29413,40329
26.30225,40699
26.31037,40837
26.31850,37450
26.32662,38082
26.33473,42083
26.34287,35576
26.35098,36409
26.35912,35583
26.36723,41826
26.37535,45932
26.38348,41896
26.39160,40637
26.39973,44679
26.40785,47616
26.41597,45233
26.42410,48335
26.43222,50390
26.44035,46634
26.44847,48244
26.45658,44188
26.46472,37936
26.47283,36419
26.48095,39093
26.48908,37911
26.49720,40304
26.50533,39732
26.51345,40640
26.52157,42730
26.52970,38028
26.53782,33983
26.54595,32514
26.55407,38331
26.56218,35171
26.57032,33820
26.57843,32868
26.58657,36077
26.59468,40343
26.60280,39031
26.61093,36091
26.61905,38072
26.62717,36964
26.63530,37477
26.64342,35091
26.65155,35871
26.65967,38604
26.66778,38976
26.67592,37441
26.68403,36431
26.69217,37952
26.70028,38902
26.70840,34740
26.71653,37771
26.72465,37618
26.73277,33530
26.74090,34868
26.74902,38132
26.75715,35731
26.76527,37803
26.77338,39047
26.78152,36064
26.78963,37161
26.79777,39998
26.80588,42512
26.81400,45267
26.82213,43564
26.83025,44346
26.83838,42040
26.84650,44666
26.85462,46739
26.86275,44781
26.87087,45105
26.87898,50298
26.88712,50489
26.89523,51628
26.90337,46802
26.91148,51423
26.91960,45609
26.92773,47456
26.93585,49333
26.94398,49188
26.95210,54939
26.96022,62011
26.96835,91716
26.97647,173433
26.98460,346068
26.99272,761753
27.00083,1659796
27.00897,3185923
27.01708,5105197
27.02520,6137718
27.03333,6350443
27.04145,5590717
27.04958,4410294
27.05770,3200883
27.06582,2287284
27.07395,1543268
27.08207,1160644
27.09020,903416
27.09832,704568
27.10643,593561
27.11457,488600
27.12268,428442
27.13080,388979
27.13893,356673
27.14705,299562
27.15518,287320
27.16330,274019
27.17142,254029
27.17955,237279
27.18767,221069
27.19580,210175
27.20392,204720
27.21203,189433
27.22017,181974
27.22828,173218
27.23642,165423
27.24453,168698
27.25265,153502
27.26078,148101
27.26890,138681
27.27702,131136
27.28515,135009
27.29327,131433
27.30140,128578
27.30952,117582
27.31763,118030
27.32577,117250
27.33388,111342
27.34202,98525
27.35013,99825
27.35825,106990
27.36638,101800
27.37450,101749
27.38262,100522
27.39075,96012
27.39887,94794
27.40700,86451
27.41512,92304
27.42323,93256
27.43137,80600
27.43948,86273
27.44762,76774
27.45573,81323
27.46385,84915
27.47198,76810
27.48010,83192
27.48823,80709
27.49635,78291
27.50447,72183
27.51260,71460
27.52072,75658
27.52883,74357
27.53697,81005
27.54508,77704
27.55322,77714
27.56133,77090
27.56945,71701
27.57758,71611
27.58570,67643
27.59383,71415
27.60195,65957
27.61007,72660
27.61820,69185
27.62632,65581
27.63445,67470
27.64257,73176
27.65068,67517
27.65882,65659
27.66693,68124
27.67505,67501
27.68318,65109
27.69130,69761
27.69943,62495
27.70755,58091
27.71567,55234
27.72380,63213
27.73192,56882
27.74005,56965
27.74817,60897
27.75628,58881
27.76442,63620
27.77253,53518
27.78067,54591
27.78878,57322
27.79690,61084
27.80503,56119
27.81315,56447
27.82127,56230
27.82940,60460
27.83752,58898
27.84565,60094
27.85377,54817
27.86188,53820
27.87002,56524
27.87813,58472
27.88627,56274
27.89438,55675
27.90250,51120
27.91063,52769
27.91875,47977
27.92687,49178
27.93500,46581
27.94312,49574
27.95125,54652
27.95937,51616
27.96748,51284
27.97562,47968
27.98373,44573
27.99187,51526
27.99998,46719
28.00810,51311
28.01623,43848
28.02435,44827
28.03248,49247
28.04060,49370
28.04872,48269
28.05685,49050
28.06497,46034
28.07308,51964
28.08122,45625
28.08933,48751
28.09747,42442
28.10558,50451
28.11370,45256
28.12183,51717
28.12995,51848
28.13808,46785
28.14620,45120
28.15432,43036
28.16245,45206
28.17057,43329
28.17868,44101
28.18682,47961
28.19493,42975
28.20307,53864
28.21118,51113
28.21930,55875
28.22743,61807
28.23555,59094
28.24368,59921
28.25180,52993
28.25992,55263
28.26805,47740
28.27617,48464
28.28430,47499
28.29242,56718
28.30053,76127
28.30867,101168
28.31678,161181
28.32490,246868
28.33303,376929
28.34115,533715
28.34928,709726
28.35740,920172
28.36552,1055689
28.37365,1151253
28.38177,1187202
28.38990,1179297
28.39802,1080512
28.40613,996846
28.41427,864073
28.42238,749459
28.43052,617070
28.43863,521367
28.44675,436948
28.45488,378779
28.46300,326601
28.47112,292319
28.47925,248915
28.48737,223745
28.49550,206586
28.50362,197076
28.51173,176615
28.51987,166041
28.52798,151577
28.53612,148424
28.54423,133978
28.55235,139134
28.56048,134823
28.56860,123856
28.57672,115877
28.58485,121053
28.59297,119459
28.60110,106380
28.60922,106950
28.61733,111747
28.62547,100167
28.63358,102553
28.64172,93371
28.64983,101161
28.65795,101659
28.66608,101297
28.67420,100220
28.68233,101072
28.69045,100081
28.69857,94234
28.70670,91141
28.71482,88051
28.72293,81226
28.73107,86875
28.73918,73988
28.74732,75576
28.75543,83599
28.76355,82939
28.77168,91022
28.77980,97017
28.78793,111744
28.79605,114714
28.80417,106645
28.81230,102598
28.82042,93367
28.82855,78354
28.83667,71910
28.84478,71640
28.85292,65779
28.86103,68563
28.86915,73094
28.87728,64760
28.88540,67326
28.89353,70266
28.90165,68987
28.90977,59462
28.91790,61991
28.92602,66105
28.93415,68520
28.94227,62997
28.95038,65115
28.95852,70179
28.96663,67032
28.97475,73941
28.98288,65976
28.99100,62542
28.99913,67260
29.00725,64378
29.01537,62588
29.02350,60098
29.03162,63512
29.03975,62834
29.04787,60887
29.05598,63587
29.06412,60083
29.07223,57368
29.08037,57697
29.08848,61377
29.09660,59992
29.10473,57653
29.11285,56538
29.12097,59502
29.12910,53256
29.13722,55206
29.14535,58369
29.15347,61622
29.16158,56071
29.16972,62708
29.17783,55456
29.18597,59818
29.19408,57440
29.20220,56885
29.21033,59427
29.21845,56375
29.22657,54537
29.23470,57042
29.24282,60810
29.25095,55517
29.25907,54413
29.26718,64507
29.27532,51905
29.28343,59735
29.29157,51506
29.29968,57086
29.30780,58115
29.31593,62896
29.32405,57219
29.33218,57391
29.34030,52162
29.34842,54931
29.35655,57532
29.36467,53881
29.37278,51821
29.38092,53020
29.38903,53833
29.39717,53370
29.40528,52736
29.41340,53560
29.42153,53140
29.42965,49881
29.43778,57863
29.44590,51098
29.45402,53672
29.46215,49451
29.47027,53272
29.47840,51191
29.48652,58579
29.49463,57162
29.50277,56841
29.51088,59701
29.51900,63804
29.52713,63966
29.53525,58030
29.54338,62962
29.55150,53904
29.55962,55894
29.56775,50852
29.57587,47793
29.58400,46440
29.59212,46631
29.60023,50855
29.60837,51366
29.61648,52179
29.62460,53594
29.63273,48262
29.64085,48191
29.64898,48067
29.65710,47189
29.66522,46610
29.67335,47003
29.68147,47184
29.68960,49263
29.69772,46885
29.70583,48949
29.71397,46769
29.72208,43375
29.73022,45349
29.73833,41261
29.74645,45575
29.75458,50004
29.76270,50418
29.77082,49686
29.77895,45302
29.78707,47328
29.79520,47969
29.80332,41483
29.81143,43107
29.81957,43338
29.82768,47350
29.83582,47995
29.84393,46324
29.85205,46082
29.86018,49021
29.86830,45558
29.87643,48559
29.88455,49670
29.89267,56650
29.90080,60256
29.90892,67225
29.91703,68991
29.92517,71062
29.93328,75404
29.94142,68255
29.94953,71588
29.95765,81975
29.96578,102915
29.97390,131784
29.98203,168723
29.99015,202162
29.99827,248862
30.00640,274896
30.01452,315669
30.02263,360481
30.03077,384581
30.03888,389101
30.04702,391003
30.05513,374595
30.06325,362038
30.07138,348415
30.07950,327499
30.08763,307371
30.09575,278012
30.10387,250718
30.11200,242124
30.12012,202048
30.12825,180943
30.13637,165173
30.14448,155367
30.15262,141158
30.16073,134695
30.16885,133098
30.17698,122564
30.18510,114186
30.19323,108042
30.20135,103150
30.20947,92017
30.21760,90331
30.22572,86249
30.23385,93880
30.24197,81874
30.25008,83574
30.25822,76877
30.26633,74635
30.27447,76737
30.28258,73393
30.29070,70985
30.29883,71927
30.30695,70807
30.31507,69776
30.32320,68896
30.33132,63277
30.33945,63413
30.34757,66784
30.35568,69669
30.36382,64799
30.37193,58304
30.38007,60230
30.38818,59611
30.39630,58237
30.40443,56871
30.41255,56302
30.42067,57370
30.42880,59207
30.43692,55936
30.44505,66367
30.45317,62392
30.46128,58714
30.46942,53920
30.47753,54512
30.48567,58641
30.49378,50678
30.50190,51514
30.51003,55703
30.51815,56687
30.52628,56753
30.53440,59378
30.54252,51522
30.55065,50278
30.55877,48823
30.56688,47866
30.57502,54241
30.58313,51406
30.59127,50744
30.59938,50557
30.60750,51887
30.61563,50520
30.62375,46433
30.63188,49330
30.64000,50489
30.64812,47289
30.65625,53365
30.66437,51258
30.67248,48488
30.68062,47927
30.68873,47068
30.69687,46995
30.70498,53883
30.71310,49107
30.72123,48080
30.72935,42642
30.73748,48184
30.74560,48388
30.75372,46469
30.76185,46785
30.76997,47810
30.77810,44040
30.78622,50606
30.79433,52230
30.80247,47977
30.81058,59066
30.81870,58605
30.82683,61431
30.83495,56650
30.84308,55256
30.85120,50431
30.85932,50217
30.86745,48631
30.87557,44135
30.88370,41990
30.89182,45373
30.89993,42855
30.90807,43704
30.91618,44818
30.92432,44682
30.93243,44752
30.94055,44309
30.94868,45954
30.95680,44430
30.96492,47197
30.97305,45936
30.98117,45994
30.98930,48557
30.99742,45282
31.00553,45032
31.01367,47568
31.02178,49881
31.02992,50639
31.03803,47076
31.04615,49835
31.05428,46353
31.06240,47842
31.07052,46338
31.07865,45449
31.08677,51135
31.09490,52163
31.10302,54640
31.11113,59341
31.11927,70227
31.12738,66099
31.13552,56608
31.14363,57346
31.15175,56461
31.15988,57308
31.16800,54436
31.17613,49001
31.18425,51151
31.19237,59193
31.20050,61686
31.20862,67375
31.21673,78204
31.22487,90949
31.23298,90740
31.24112,96483
31.24923,88445
31.25735,74470
31.26548,63870
31.27360,57414
31.28173,52049
31.28985,50114
31.29797,46769
31.30610,44706
31.31422,40996
31.32235,53929
31.33047,47820
31.33858,47294
31.34672,43544
31.35483,43465
31.36295,40357
31.37108,41584
31.37920,48812
31.38733,45767
31.39545,46073
31.40357,42207
31.41170,44585
31.41982,42502
31.42795,45424
31.43607,48347
31.44418,53550
31.45232,51677
31.46043,50843
31.46855,46553
31.47668,41929
31.48480,41579
31.49293,42842
31.50105,46092
31.50917,47062
31.51730,46166
31.52542,41557
31.53355,43772
31.54167,43881
31.54978,39719
31.55792,42624
31.56603,45965
31.57417,46145
31.58228,41991
31.59040,42905
31.59853,39579
31.60665,42745
31.61477,42661
31.62290,44299
31.63102,44228
31.63915,38972
31.64727,48733
31.65538,43079
31.66352,41269
31.67163,43763
31.67977,47035
31.68788,41113
31.69600,42851
31.70413,40583
31.71225,45180
31.72037,42600
31.72850,38582
31.73662,40027
31.74475,39076
31.75287,38239
31.76098,39940
31.76912,37727
31.77723,40863
31.78537,42834
31.79348,42220
31.80160,46261
31.80973,45161
31.81785,44209
31.82598,46235
31.83410,49674
31.84222,43971
31.85035,43064
31.85847,45443
31.86658,48206
31.87472,49941
31.88283,51548
31.89097,53434
31.89908,51834
31.90720,62613
31.91533,65231
31.92345,85511
31.93158,96322
31.93970,112964
31.94782,136928
31.95595,153925
31.96407,179390
31.97220,186782
31.98032,189302
31.98843,195770
31.99657,196889
32.00468,200408
32.01280,186200
32.02093,170871
32.02905,159195
32.03718,145759
32.04530,130752
32.05342,120514
32.06155,119702
32.06967,107867
32.07780,101169
32.08592,97545
32.09403,101448
32.10217,100673
32.11028,93773
32.11840,87877
32.12653,83643
32.13465,70834
32.14278,73156
32.15090,67881
32.15902,66100
32.16715,66272
32.17527,61951
32.18340,63151
32.19152,56462
32.19963,56987
32.20777,54605
32.21588,57156
32.22402,56751
32.23213,53673
32.24025,58172
32.24838,54044
32.25650,54266
32.26462,53569
32.27275,56262
32.28087,51018
32.28900,47085
32.29712,54971
32.30523,52027
32.31337,52700
32.32148,46052
32.32962,50097
32.33773,51470
32.34585,51470
32.35398,49252
32.36210,53173
32.37023,53712
32.37835,54481
32.38647,50780
32.39460,50818
32.40272,48139
32.41083,49584
32.41897,50186
32.42708,51634
32.43522,45993
32.44333,45736
32.45145,51184
32.45958,49067
32.46770,46843
32.47583,45640
32.48395,49833
32.49207,47755
32.50020,44180
32.50832,45790
32.51643,50337
32.52457,41454
32.53268,43783
32.54082,45124
32.54893,42865
32.55705,43004
32.56518,46408
32.57330,47545
32.58143,47225
32.58955,46817
32.59767,43884
32.60580,44637
32.61392,42923
32.62205,45043
32.63017,44127
32.63828,47479
32.64642,43989
32.65453,51580
32.66265,51242
32.67078,61486
32.67890,69862
32.68703,69435
32.69515,72270
32.70327,73982
32.71140,62669
32.71952,56800
32.72765,49853
32.73577,50464
32.74388,49945
32.75202,46677
32.76013,48309
32.76825,43251
32.77638,43459
32.78450,41562
32.79263,44178
32.80075,48940
32.80887,39927
32.81700,40480
32.82512,42839
32.83325,43913
32.84137,43585
32.84948,46092
32.85762,42246
32.86573,44170
32.87387,42879
32.88198,38924
32.89010,43917
32.89823,40020
32.90635,45908
32.91447,42805
32.92260,46309
32.93072,45301
32.93885,50991
32.94697,48634
32.95508,44452
32.96322,37922
32.97133,45462
32.97947,40470
32.98758,51633
32.99570,43968
33.00383,45480
33.01195,46066
33.02008,43977
33.02820,46342
33.03632,39606
33.04445,45412
33.05257,44295
33.06068,44230
33.06882,46299
33.07693,46045
33.08507,41240
33.09318,47022
33.10130,44341
33.10943,49030
33.11755,52219
33.12568,51526
33.13380,52857
33.14192,57285
33.15005,55200
33.15817,50501
33.16630,46010
33.17442,45468
33.18253,42545
33.19067,43508
33.19878,47475
33.20690,46913
33.21503,46273
33.22315,46677
33.23128,54458
33.23940,46393
33.24752,46645
33.25565,42822
33.26377,43134
33.27190,43367
33.28002,40424
33.28813,37886
33.29627,39714
33.30438,42467
33.31250,40096
33.32063,42642
33.32875,46666
33.33688,46176
33.34500,42224
33.35312,43620
33.36125,39930
33.36937,42318
33.37750,43280
33.38562,40135
33.39373,41195
33.40187,41120
33.40998,42933
33.41812,38202
33.42623,39545
33.43435,43320
33.44248,41216
33.45060,37514
33.45872,42905
33.46685,43039
33.47497,44312
33.48310,40931
33.49122,44323
33.49933,45409
33.50747,39438
33.51558,45736
33.52372,40198
33.53183,43241
33.53995,40323
33.54808,39503
33.55620,44243
33.56432,40075
33.57245,41828
33.58057,40637
33.58870,44062
33.59682,44941
33.60493,37877
33.61307,40025
33.62118,38821
33.62932,44599
33.63743,42752
33.64555,38838
33.65368,39613
33.66180,39075
33.66993,42433
33.67805,39885
33.68617,41361
33.69430,40745
33.70242,43771
33.71053,43092
33.71867,40643
33.72678,43018
33.73492,40629
33.74303,39407
33.75115,41363
33.75928,41513
33.76740,40013
33.77553,41274
33.78365,45141
33.79177,38320
33.79990,45267
33.80802,43224
33.81615,38668
33.82427,38779
33.83238,42359
33.84052,44580
33.84863,38606
33.85675,43965
33.86488,46634
33.87300,46393
33.88113,44642
33.88925,47366
33.89737,45223
33.90550,44648
33.91362,43359
33.92175,42884
33.92987,43967
33.93798,38987
33.94612,45189
33.95423,43312
33.96235,44477
33.97048,43573
33.97860,40985
33.98673,40777
33.99485,39960
34.00297,42154
34.01110,39737
34.01922,41063
34.02735,45025
34.03547,42424
34.04358,39329
34.05172,40728
34.05983,40700
34.06797,42115
34.07608,39872
34.08420,43426
34.09233,37348
34.10045,42455
34.10857,43324
34.11670,43703
34.12482,38447
34.13295,39687
34.14107,43321
34.14918,39749
34.15732,45055
34.16543,40827
34.17357,37577
34.18168,36650
34.18980,37604
34.19793,40228
34.20605,43478
34.21418,41088
34.22230,40975
34.23042,41498
34.23855,42666
34.24667,41237
34.25478,42575
34.26292,41448
34.27103,39784
34.27917,45243
34.28728,45798
34.29540,44415
34.30353,35973
34.31165,40224
34.31978,40647
34.32790,45669
34.33602,41866
34.34415,42021
34.35227,44627
34.36038,39568
34.36852,46033
34.37663,41342
34.38477,43863
34.39288,41981
34.40100,41243
34.40913,43221
34.41725,44851
34.42538,42097
34.43350,39865
34.44162,43829
34.44975,43048
34.45787,41784
34.46600,39086
34.47412,41128
34.48223,38083
34.49037,44920
34.49848,40114
34.50660,46459
34.51473,48705
34.52285,51882
34.53098,61807
34.53910,80038
34.54722,98075
34.55535,114199
34.56347,127631
34.57160,137944
34.57972,134818
34.58783,136694
34.59597,120529
34.60408,108725
34.61220,97536
34.62033,83368
34.62845,76841
34.63658,75830
34.64470,69062
34.65282,64542
34.66095,66537
34.66907,66773
34.67720,61517
34.68532,59460
34.69343,55135
34.70157,57110
34.70968,54079
34.71782,53809
34.72593,52684
34.73405,56074
34.74218,56659
34.75030,54557
34.75842,53377
34.76655,52245
34.77467,51840
34.78280,48603
34.79092,58118
34.79903,52537
34.80717,51088
34.81528,52007
34.82342,54189
34.83153,50590
34.83965,46548
34.84778,50524
34.85590,51645
34.86403,52964
34.87215,51045
34.88027,49341
34.88840,49640
34.89652,46536
34.90463,44277
34.91277,52679
34.92088,47587
34.92902,48202
34.93713,52197
34.94525,51013
34.95338,56106
34.96150,57551
34.96963,61213
34.97775,66874
34.98587,63079
34.99400,67354
35.00212,62336
35.01023,58150
35.01837,54129
35.02648,55652
35.03462,54226
35.04273,51731
35.05085,50116
35.05898,52352
35.06710,47676
35.07523,48775
35.08335,49872
35.09147,46411
35.09960,49091
35.10772,47539
35.11585,50500
35.12397,48574
35.13208,48912
35.14022,49571
35.14833,51122
35.15645,52375
35.16458,57107
35.17270,55411
35.18083,52565
35.18895,55217
35.19707,52638
35.20520,56807
35.21332,50544
35.22145,48748
35.22957,49438
35.23768,50341
35.24582,46898
35.25393,52374
35.26207,48558
35.27018,48777
35.27830,50860
35.28643,50068
35.29455,45908
35.30267,49270
35.31080,47202
35.31892,44227
35.32705,41361
35.33517,46259
35.34328,49825
35.35142,48647
35.35953,46287
35.36767,43725
35.37578,45262
35.38390,44695
35.39203,42809
35.40015,52829
35.40827,48204
35.41640,42072
35.42452,44988
35.43265,45918
35.44077,48971
35.44888,49655
35.45702,47075
35.46513,52807
35.47327,48008
35.48138,50592
35.48950,48236
35.49763,52273
35.50575,50723
35.51388,51388
35.52200,46438
35.53012,49010
35.53825,49025
35.54637,49980
35.55448,50939
35.56262,49308
35.57073,47002
35.57887,44592
35.58698,46712
35.59510,50406
35.60323,48308
35.61135,45523
35.61948,49749
35.62760,53513
35.63572,48795
35.64385,47892
35.65197,45606
35.66010,48878
35.66822,48127
35.67633,50173
35.68447,53668
35.69258,53148
35.70070,54870
35.70883,56539
35.71695,54525
35.72508,55677
35.73320,51219
35.74132,48000
35.74945,47649
35.75757,53248
35.76570,47072
35.77382,48569
35.78193,46384
35.79007,48172
35.79818,51171
35.80630,55800
35.81443,51780
35.82255,45251
35.83068,51619
35.83880,52902
35.84692,49068
35.85505,44045
35.86317,48520
35.87130,48588
35.87942,54657
35.88753,49046
35.89567,47469
35.90378,46823
35.91192,47578
35.92003,48274
35.92815,47745
35.93628,46005
35.94440,46111
35.95252,51791
35.96065,47412
35.96877,47861
35.97690,45568
35.98502,46664
35.99313,49816
36.00127,51718
36.00938,52277
36.01752,55484
36.02563,48821
36.03375,53566
36.04188,54944
36.05000,55335
36.05812,59542
36.06625,52892
36.07437,51867
36.08250,48963
36.09062,50785
36.09873,47280
36.10687,48149
36.11498,50699
36.12312,50460
36.13123,50445
36.13935,48348
36.14748,49331
36.15560,48755
36.16373,54877
36.17185,51964
36.17997,53691
36.18810,52426
36.19622,51357
36.20433,48712
36.21247,48871
36.22058,50979
36.22872,48138
36.23683,50718
36.24495,50256
36.25308,49777
36.26120,58216
36.26933,49634
36.27745,47444
36.28557,51233
36.29370,51791
36.30182,49930
36.30995,59058
36.31807,65709
36.32618,72964
36.33432,76649
36.34243,71793
36.35055,74872
36.35868,67273
36.36680,61826
36.37493,57550
36.38305,58914
36.39117,53322
36.39930,52648
36.40742,55917
36.41555,56828
36.42367,59158
36.43178,50354
36.43992,54149
36.44803,49350
36.45615,51248
36.46428,45924
36.47240,47171
36.48053,52318
36.48865,50872
36.49677,53276
36.50490,47335
36.51302,45092
36.52115,49622
36.52927,50463
36.53738,53824
36.54552,51488
36.55363,46293
36.56177,51766
36.56988,46908
36.57800,53132
36.58613,51154
36.59425,52149
36.60237,54835
36.61050,59202
36.61862,59262
36.62675,61566
36.63487,61286
36.64298,62962
36.65112,72983
36.65923,62658
36.66737,71424
36.67548,76920
36.68360,79622
36.69173,79889
36.69985,85802
36.70798,81356
36.71610,92074
36.72422,84353
36.73235,86642
36.74047,87325
36.74858,80946
36.75672,83883
36.76483,73947
36.77297,71730
36.78108,72413
36.78920,68156
36.79733,65039
36.80545,60389
36.81358,59874
36.82170,60330
36.82982,50897
36.83795,56283
36.84607,52734
36.85418,55754
36.86232,54583
36.87043,54842
36.87857,55198
36.88668,55097
36.89480,48303
36.90293,49568
36.91105,52602
36.91918,54914
36.92730,51009
36.93542,52117
36.94355,53683
36.95167,55188
36.95980,51970
36.96792,59032
36.97603,56292
36.98417,55395
36.99228,58410
37.00040,52029
37.00853,51779
37.01665,51702
37.02478,56233
37.03290,57423
37.04102,50725
37.04915,56573
37.05727,53125
37.06540,55840
37.07352,53094
37.08163,53660
37.08977,53254
37.09788,56615
37.10600,54125
37.11413,57756
37.12225,56568
37.13038,56657
37.13850,61170
37.14662,55599
37.15475,54346
37.16287,61983
37.17100,53486
37.17912,53357
37.18723,56278
37.19537,56783
37.20348,60671
37.21162,58729
37.21973,59100
37.22785,60232
37.23598,58901
37.24410,67368
37.25222,59972
37.26035,61084
37.26847,58759
37.27660,56153
37.28472,61214
37.29283,61972
37.30097,63548
37.30908,57950
37.31722,63287
37.32533,58755
37.33345,63799
37.34158,70526
37.34970,79196
37.35783,93704
37.36595,99476
37.37407,108276
37.38220,113774
37.39032,105224
37.39843,103759
37.40657,91697
37.41468,85167
37.42282,79479
37.43093,80245
37.43905,79788
37.44718,77483
37.45530,75880
37.46343,76615
37.47155,81096
37.47967,73838
37.48780,75878
