C:\MassHunter\GCMS\1\data\JTB-E02\BACandBLUE\JTB-E18-012-04.D Wed Jun 19 07:45:52 2019
Start of data points
2.09535,41107
2.10347,46844
2.11158,47174
2.11972,52549
2.12783,53239
2.13597,57240
2.14408,51312
2.15220,55268
2.16033,55231
2.16845,50194
2.17657,51137
2.18470,50697
2.19282,49620
2.20095,43683
2.20907,43495
2.21718,43330
2.22532,40128
2.23343,40204
2.24157,38963
2.24968,37830
2.25780,34932
2.26593,58139
2.27405,651893
2.28217,2684471
2.29030,2461800
2.29842,1019381
2.30655,530636
2.31467,388127
2.32278,329823
2.33092,282895
2.33903,250949
2.34717,231101
2.35528,195755
2.36340,179397
2.37153,171304
2.37965,159473
2.38778,154891
2.39590,144374
2.40402,139701
2.41215,141993
2.42027,146774
2.42838,186785
2.43652,165419
2.44463,148973
2.45277,140928
2.46088,135759
2.46900,119457
2.47713,113617
2.48525,107136
2.49338,123897
2.50150,149666
2.50962,132933
2.51775,115080
2.52587,113939
2.53400,106532
2.54212,97469
2.55023,100296
2.55837,106878
2.56648,105431
2.57460,103287
2.58273,94764
2.59085,92009
2.59898,90766
2.60710,89245
2.61522,103733
2.62335,106959
2.63147,98410
2.63960,92520
2.64772,88166
2.65583,85125
2.66397,83546
2.67208,85789
2.68020,78531
2.68833,79844
2.69645,79234
2.70458,73073
2.71270,76025
2.72082,75013
2.72895,76274
2.73707,71722
2.74520,73239
2.75332,71693
2.76143,70856
2.76957,69989
2.77768,70624
2.78582,69926
2.79393,65569
2.80205,70908
2.81018,73917
2.81830,70757
2.82642,66940
2.83455,65317
2.84267,62787
2.85080,66360
2.85892,66377
2.86703,63499
2.87517,65945
2.88328,65133
2.89142,64378
2.89953,65770
2.90765,65372
2.91578,62703
2.92390,61829
2.93202,63624
2.94015,59936
2.94827,61988
2.95640,62825
2.96452,56623
2.97263,64075
2.98077,63089
2.98888,58444
2.99702,63430
3.00513,57321
3.01325,61326
3.02138,58270
3.02950,59996
3.03763,59164
3.04575,55942
3.05387,58565
3.06200,59567
3.07012,57415
3.07823,55100
3.08637,54783
3.09448,59981
3.10262,58280
3.11073,69765
3.11885,78733
3.12698,77741
3.13510,70509
3.14323,75290
3.15135,70260
3.15947,65150
3.16760,68106
3.17572,66654
3.18385,65670
3.19197,62454
3.20008,62373
3.20822,63576
3.21633,64611
3.22445,57654
3.23258,64983
3.24070,56240
3.24883,58484
3.25695,58509
3.26507,61070
3.27320,62862
3.28132,81103
3.28945,310625
3.29757,1799026
3.30568,6441141
3.31382,1.233962E+07
3.32193,1.393817E+07
3.33005,1.121869E+07
3.33818,7680922
3.34630,5393607
3.35443,4062880
3.36255,3204989
3.37067,2648040
3.37880,2210710
3.38692,1869525
3.39505,1623427
3.40317,1444027
3.41128,1323246
3.41942,1196811
3.42753,1112537
3.43567,1021171
3.44378,962105
3.45190,889177
3.46003,864145
3.46815,827723
3.47627,766873
3.48440,763427
3.49252,716545
3.50065,684957
3.50877,654954
3.51688,639665
3.52502,610141
3.53313,594541
3.54127,593017
3.54938,547933
3.55750,557398
3.56563,528935
3.57375,523543
3.58188,506320
3.59000,508819
3.59812,493216
3.60625,485589
3.61437,474138
3.62248,466005
3.63062,461365
3.63873,453925
3.64687,444209
3.65498,435594
3.66310,420140
3.67123,421536
3.67935,405942
3.68748,398016
3.69560,389811
3.70372,398857
3.71185,382313
3.71997,389346
3.72808,381598
3.73622,373858
3.74433,355807
3.75247,368661
3.76058,360447
3.76870,363028
3.77683,347002
3.78495,341890
3.79308,345926
3.80120,335094
3.80932,335820
3.81745,334505
3.82557,334207
3.83370,325109
3.84182,320704
3.84993,316317
3.85807,320850
3.86618,309537
3.87430,310617
3.88243,304461
3.89055,303343
3.89868,299415
3.90680,291295
3.91492,295718
3.92305,301928
3.93117,297502
3.93930,301414
3.94742,290957
3.95553,281247
3.96367,284349
3.97178,289609
3.97992,285330
3.98803,278947
3.99615,270370
4.00428,270899
4.01240,278266
4.02052,285410
4.02865,284534
4.03677,269900
4.04490,268523
4.05302,266972
4.06113,252306
4.06927,258251
4.07738,260205
4.08552,258393
4.09363,245504
4.10175,253539
4.10988,244149
4.11800,249439
4.12612,253015
4.13425,257274
4.14237,264778
4.15050,272297
4.15862,287709
4.16673,288155
4.17487,260235
4.18298,258988
4.19112,239319
4.19923,240625
4.20735,236302
4.21548,234993
4.22360,242635
4.23173,243848
4.23985,249638
4.24797,250941
4.25610,242441
4.26422,244315
4.27233,241111
4.28047,234995
4.28858,227496
4.29672,228008
4.30483,226650
4.31295,223401
4.32108,210306
4.32920,214655
4.33733,231058
4.34545,226362
4.35357,206456
4.36170,220252
4.36982,220399
4.37793,226923
4.38607,222201
4.39418,216822
4.40232,211930
4.41043,211569
4.41855,211062
4.42668,212975
4.43480,214689
4.44293,206354
4.45105,212352
4.45917,198967
4.46730,207664
4.47542,199454
4.48355,205752
4.49167,190828
4.49978,199999
4.50792,204345
4.51603,197907
4.52415,199450
4.53228,195473
4.54040,193307
4.54853,200203
4.55665,189158
4.56477,191334
4.57290,189790
4.58102,189999
4.58915,188147
4.59727,196334
4.60538,188909
4.61352,189944
4.62163,180749
4.62977,186243
4.63788,185846
4.64600,183226
4.65413,180132
4.66225,181519
4.67037,178684
4.67850,181708
4.68662,186952
4.69475,183265
4.70287,178821
4.71098,181115
4.71912,177460
4.72723,175063
4.73537,176073
4.74348,171947
4.75160,169870
4.75973,176249
4.76785,172584
4.77597,170735
4.78410,178123
4.79222,179866
4.80035,181118
4.80847,169022
4.81658,170784
4.82472,175715
4.83283,165695
4.84097,173637
4.84908,172062
4.85720,170336
4.86533,174134
4.87345,169263
4.88158,166704
4.88970,164225
4.89782,165621
4.90595,172564
4.91407,169815
4.92218,173396
4.93032,212944
4.93843,420892
4.94657,1257002
4.95468,3222939
4.96280,5899136
4.97093,7700041
4.97905,7536690
4.98718,5884142
4.99530,4034095
5.00342,2772787
5.01155,2016178
5.01967,1581128
5.02780,1271109
5.03592,1090953
5.04403,952886
5.05217,854014
5.06028,784814
5.06840,745950
5.07653,681349
5.08465,637894
5.09278,618955
5.10090,583470
5.10902,553937
5.11715,534778
5.12527,518011
5.13340,522487
5.14152,488648
5.14963,477120
5.15777,460764
5.16588,462827
5.17400,454562
5.18213,444768
5.19025,420533
5.19838,422166
5.20650,420634
5.21462,404894
5.22275,403889
5.23087,418715
5.23900,447035
5.24712,487461
5.25523,486552
5.26337,456548
5.27148,419917
5.27962,389906
5.28773,380728
5.29585,365525
5.30398,358385
5.31210,345149
5.32022,346024
5.32835,330405
5.33647,325114
5.34460,322267
5.35272,330811
5.36083,318618
5.36897,307866
5.37708,317259
5.38522,303819
5.39333,294468
5.40145,299898
5.40958,311110
5.41770,292212
5.42582,299834
5.43395,292064
5.44207,290180
5.45020,291399
5.45832,290481
5.46643,280155
5.47457,283100
5.48268,278327
5.49082,276458
5.49893,271216
5.50705,270463
5.51518,269438
5.52330,270051
5.53143,270937
5.53955,263300
5.54767,263939
5.55580,263493
5.56392,256813
5.57203,261383
5.58017,259272
5.58828,261194
5.59642,259662
5.60453,259850
5.61265,258716
5.62078,248378
5.62890,251585
5.63703,257997
5.64515,262809
5.65327,270823
5.66140,256125
5.66952,258998
5.67765,258204
5.68577,284801
5.69388,306156
5.70202,303925
5.71013,297177
5.71825,284672
5.72638,267568
5.73450,256487
5.74263,255066
5.75075,240022
5.75887,238661
5.76700,242481
5.77512,233266
5.78325,226795
5.79137,237284
5.79948,234843
5.80762,228995
5.81573,230964
5.82385,231674
5.83198,224242
5.84010,227035
5.84823,221889
5.85635,219329
5.86447,218327
5.87260,219797
5.88072,220966
5.88885,208081
5.89697,210137
5.90508,210340
5.91322,183651
5.92133,159163
5.92947,150756
5.93758,141714
5.94570,144572
5.95383,141812
5.96195,144459
5.97007,145133
5.97820,144342
5.98632,142223
5.99445,143668
6.00257,141474
6.01068,141200
6.01882,137007
6.02693,140696
6.03507,139798
6.04318,135982
6.05130,136484
6.05943,133607
6.06755,138843
6.07568,137383
6.08380,138267
6.09192,128829
6.10005,139690
6.10817,132553
6.11628,134016
6.12442,137571
6.13253,138533
6.14067,128817
6.14878,139723
6.15690,139890
6.16503,147869
6.17315,136014
6.18128,134566
6.18940,139379
6.19752,141120
6.20565,139455
6.21377,147497
6.22188,145108
6.23002,155305
6.23813,144046
6.24627,151940
6.25438,145360
6.26250,147894
6.27063,154693
6.27875,155624
6.28688,151035
6.29500,157835
6.30312,158991
6.31125,160486
6.31937,159816
6.32750,153314
6.33562,153205
6.34373,162921
6.35187,163747
6.35998,157456
6.36810,158151
6.37623,158763
6.38435,162824
6.39248,152161
6.40060,161940
6.40872,169154
6.41685,167031
6.42497,169874
6.43310,173794
6.44122,171554
6.44933,173527
6.45747,172366
6.46558,180088
6.47370,174619
6.48183,174353
6.48995,179348
6.49808,174996
6.50620,177869
6.51432,173628
6.52245,179034
6.53057,163421
6.53870,158069
6.54682,145983
6.55493,140446
6.56307,146342
6.57118,140054
6.57932,138077
6.58743,139214
6.59555,137532
6.60368,132931
6.61180,134621
6.61992,136095
6.62805,129649
6.63617,136069
6.64430,130703
6.65242,124127
6.66053,123202
6.66867,125775
6.67678,130381
6.68492,131630
6.69303,130304
6.70115,122109
6.70928,126051
6.71740,125596
6.72553,119507
6.73365,119099
6.74177,122838
6.74990,121732
6.75802,115681
6.76613,119583
6.77427,121114
6.78238,123318
6.79052,118787
6.79863,116283
6.80675,112221
6.81488,120457
6.82300,117176
6.83113,119478
6.83925,118089
6.84737,109958
6.85550,102529
6.86362,92282
6.87175,77871
6.87987,65244
6.88798,65749
6.89612,62720
6.90423,65156
6.91235,62624
6.92048,64149
6.92860,62495
6.93673,62381
6.94485,60776
6.95297,61669
6.96110,60477
6.96922,62423
6.97735,57013
6.98547,60356
6.99358,62460
7.00172,58668
7.00983,62157
7.01795,63597
7.02608,63625
7.03420,63632
7.04233,60781
7.05045,64191
7.05857,65930
7.06670,57763
7.07482,60311
7.08295,60205
7.09107,59804
7.09918,60292
7.10732,65137
7.11543,61055
7.12357,60629
7.13168,62633
7.13980,60128
7.14793,60358
7.15605,59845
7.16417,64175
7.17230,56663
7.18042,63665
7.18855,58984
7.19667,64213
7.20478,57279
7.21292,58193
7.22103,59555
7.22917,56752
7.23728,59755
7.24540,62790
7.25353,60180
7.26165,56571
7.26977,57045
7.27790,58890
7.28602,56980
7.29415,62181
7.30227,59964
7.31038,55834
7.31852,60867
7.32663,57902
7.33477,58829
7.34288,60915
7.35100,58199
7.35913,57901
7.36725,61603
7.37538,58953
7.38350,60146
7.39162,56886
7.39975,57912
7.40787,60717
7.41598,61101
7.42412,61283
7.43223,62210
7.44037,60214
7.44848,63857
7.45660,66075
7.46473,69487
7.47285,66665
7.48098,67847
7.48910,61672
7.49722,64673
7.50535,58251
7.51347,56683
7.52160,56508
7.52972,56620
7.53783,56383
7.54597,59628
7.55408,57746
7.56220,59404
7.57033,56589
7.57845,54212
7.58658,56023
7.59470,57375
7.60282,63335
7.61095,54768
7.61907,55311
7.62720,59089
7.63532,55748
7.64343,55793
7.65157,54551
7.65968,55546
7.66780,53861
7.67593,51913
7.68405,58525
7.69218,57696
7.70030,54751
7.70842,52105
7.71655,56410
7.72467,58536
7.73280,55112
7.74092,55089
7.74903,52288
7.75717,54650
7.76528,56748
7.77342,51344
7.78153,54169
7.78965,58793
7.79778,63673
7.80590,55810
7.81402,59643
7.82215,56944
7.83027,53973
7.83840,55176
7.84652,48939
7.85463,51128
7.86277,53365
7.87088,49214
7.87902,52094
7.88713,50015
7.89525,50894
7.90338,49211
7.91150,51160
7.91963,49340
7.92775,45553
7.93587,46186
7.94400,49486
7.95212,48230
7.96023,48441
7.96837,51258
7.97648,49437
7.98462,54050
7.99273,51660
8.00085,51327
8.00898,49076
8.01710,49038
8.02523,50966
8.03335,49218
8.04147,46819
8.04960,49623
8.05772,51228
8.06583,51760
8.07397,51034
8.08208,51049
8.09022,49559
8.09833,49548
8.10645,54410
8.11458,48484
8.12270,49639
8.13083,48623
8.13895,46884
8.14707,51256
8.15520,46396
8.16332,45569
8.17145,49001
8.17957,48919
8.18768,51784
8.19582,47272
8.20393,51174
8.21205,49653
8.22018,46929
8.22830,45752
8.23643,49488
8.24455,51609
8.25267,46915
8.26080,46330
8.26892,50590
8.27705,47746
8.28517,51778
8.29328,48573
8.30142,50471
8.30953,47512
8.31765,46379
8.32578,49227
8.33390,51280
8.34203,48718
8.35015,49484
8.35827,48123
8.36640,47959
8.37452,53261
8.38265,52653
8.39077,50247
8.39888,49997
8.40702,50773
8.41513,46506
8.42327,50097
8.43138,50540
8.43950,52743
8.44763,49071
8.45575,50415
8.46387,50006
8.47200,46884
8.48012,44781
8.48825,48994
8.49637,47187
8.50448,49846
8.51262,57222
8.52073,55679
8.52887,58800
8.53698,61526
8.54510,58434
8.55323,53726
8.56135,51723
8.56948,54348
8.57760,49240
8.58572,51147
8.59385,50587
8.60197,49078
8.61008,49238
8.61822,53452
8.62633,51670
8.63447,47902
8.64258,47864
8.65070,54560
8.65883,50284
8.66695,46206
8.67508,49877
8.68320,50103
8.69132,47546
8.69945,50233
8.70757,46580
8.71568,53678
8.72382,135128
8.73193,495364
8.74007,486503
8.74818,242644
8.75630,140269
8.76443,179605
8.77255,384480
8.78068,821244
8.78880,1538561
8.79692,2214677
8.80505,2363969
8.81317,2016642
8.82130,1466895
8.82942,1015067
8.83753,720891
8.84567,549291
8.85378,460495
8.86190,387819
8.87003,350090
8.87815,319751
8.88628,303393
8.89440,289301
8.90252,266080
8.91065,253131
8.91877,242095
8.92690,228544
8.93502,219298
8.94313,207485
8.95127,212937
8.95938,206648
8.96752,200286
8.97563,187202
8.98375,188382
8.99188,184596
9.00000,178565
9.00812,177057
9.01625,174024
9.02437,175620
9.03250,165720
9.04062,161641
9.04873,156714
9.05687,157362
9.06498,158823
9.07312,153481
9.08123,155823
9.08935,148792
9.09748,139938
9.10560,140631
9.11372,236167
9.12185,1561104
9.12997,4325105
9.13810,4160448
9.14622,2260839
9.15433,1309428
9.16247,889455
9.17058,676590
9.17872,557149
9.18683,475342
9.19495,400636
9.20308,368567
9.21120,336254
9.21933,304479
9.22745,283989
9.23557,260010
9.24370,246733
9.25182,242503
9.25993,222958
9.26807,217704
9.27618,213653
9.28432,193549
9.29243,192394
9.30055,189645
9.30868,180047
9.31680,169066
9.32493,175871
9.33305,165106
9.34117,165136
9.34930,165125
9.35742,164221
9.36553,154950
9.37367,148170
9.38178,150454
9.38992,144973
9.39803,143694
9.40615,140647
9.41428,138674
9.42240,135099
9.43053,138971
9.43865,133044
9.44677,135524
9.45490,134363
9.46302,128350
9.47115,131428
9.47927,130661
9.48738,128718
9.49552,125182
9.50363,129427
9.51175,121361
9.51988,124010
9.52800,124456
9.53613,133183
9.54425,140160
9.55237,124919
9.56050,114141
9.56862,104304
9.57675,92205
9.58487,85448
9.59298,177511
9.60112,855884
9.60923,2340065
9.61737,2781517
9.62548,1917644
9.63360,1116094
9.64173,729326
9.64985,538801
9.65797,422299
9.66610,350129
9.67422,299985
9.68235,256916
9.69047,235628
9.69858,204735
9.70672,191889
9.71483,171804
9.72297,168057
9.73108,151141
9.73920,148637
9.74733,136986
9.75545,127802
9.76357,126624
9.77170,118944
9.77982,114356
9.78795,113361
9.79607,106428
9.80418,98950
9.81232,105183
9.82043,101592
9.82857,104303
9.83668,100100
9.84480,96143
9.85293,96967
9.86105,94508
9.86918,96628
9.87730,92152
9.88542,92175
9.89355,88455
9.90167,87000
9.90978,85749
9.91792,85884
9.92603,83046
9.93417,87285
9.94228,85058
9.95040,83255
9.95853,75140
9.96665,82782
9.97478,80777
9.98290,81649
9.99102,83372
9.99915,84649
10.00727,85308
10.01540,94558
10.02352,100434
10.03163,104092
10.03977,116433
10.04788,119749
10.05600,114292
10.06413,103855
10.07225,99259
10.08038,87141
10.08850,84756
10.09662,82986
10.10475,97225
10.11287,97570
10.12100,87040
10.12912,84454
10.13723,75677
10.14537,80108
10.15348,78056
10.16160,75523
10.16973,70880
10.17785,76709
10.18598,71774
10.19410,77687
10.20222,74183
10.21035,72223
10.21847,76925
10.22660,75109
10.23472,77818
10.24283,81200
10.25097,84238
10.25908,79154
10.26722,85935
10.27533,82499
10.28345,90092
10.29158,91920
10.29970,96507
10.30782,105541
10.31595,109939
10.32407,117018
10.33220,119248
10.34032,119968
10.34843,122375
10.35657,109796
10.36468,105028
10.37282,98145
10.38093,96627
10.38905,89899
10.39718,90541
10.40530,83979
10.41343,86905
10.42155,86256
10.42967,82911
10.43780,79082
10.44592,79176
10.45403,79084
10.46217,78084
10.47028,80081
10.47842,84407
10.48653,77983
10.49465,80464
10.50278,79722
10.51090,81711
10.51903,75657
10.52715,75431
10.53527,86667
10.54340,72736
10.55152,72538
10.55963,75301
10.56777,76267
10.57588,73157
10.58402,71559
10.59213,73509
10.60025,69859
10.60838,74341
10.61650,74510
10.62463,73460
10.63275,73725
10.64087,70314
10.64900,67933
10.65712,71040
10.66525,68574
10.67337,70867
10.68148,70199
10.68962,70313
10.69773,70437
10.70585,68213
10.71398,69928
10.72210,69402
10.73023,71516
10.73835,73664
10.74647,70543
10.75460,68747
10.76272,69972
10.77085,69645
10.77897,70785
10.78708,68150
10.79522,70221
10.80333,68407
10.81145,74052
10.81958,65986
10.82770,67695
10.83583,66836
10.84395,65767
10.85207,64010
10.86020,62485
10.86832,60482
10.87645,68770
10.88457,64833
10.89268,63699
10.90082,64509
10.90893,67638
10.91707,64297
10.92518,63282
10.93330,69879
10.94143,69530
10.94955,65016
10.95767,67992
10.96580,66145
10.97392,73377
10.98205,66906
10.99017,63218
10.99828,65695
11.00642,69235
11.01453,66189
11.02267,62971
11.03078,66791
11.03890,61367
11.04703,63682
11.05515,60574
11.06328,61631
11.07140,59597
11.07952,61109
11.08765,62700
11.09577,58416
11.10388,57995
11.11202,61225
11.12013,65043
11.12827,63822
11.13638,82789
11.14450,171028
11.15263,391399
11.16075,636863
11.16888,726828
11.17700,609107
11.18512,443087
11.19325,321590
11.20137,258497
11.20948,217240
11.21762,181781
11.22573,161849
11.23387,142380
11.24198,128114
11.25010,116161
11.25823,105379
11.26635,103255
11.27448,94204
11.28260,85387
11.29072,83984
11.29885,86393
11.30697,85726
11.31510,79807
11.32322,74982
11.33133,74901
11.33947,73655
11.34758,79012
11.35570,71715
11.36383,73004
11.37195,70440
11.38008,70010
11.38820,67514
11.39632,68135
11.40445,70720
11.41257,69253
11.42070,69698
11.42882,67908
11.43693,68471
11.44507,62520
11.45318,66914
11.46132,64509
11.46943,62691
11.47755,66364
11.48568,65342
11.49380,61018
11.50192,58278
11.51005,63906
11.51817,65324
11.52630,66298
11.53442,64178
11.54253,62602
11.55067,64732
11.55878,61709
11.56692,61912
11.57503,62187
11.58315,63905
11.59128,58557
11.59940,64495
11.60752,57365
11.61565,60822
11.62377,64140
11.63190,58801
11.64002,58982
11.64813,59450
11.65627,61002
11.66438,61545
11.67252,58429
11.68063,58712
11.68875,59002
11.69688,67966
11.70500,59993
11.71313,63949
11.72125,67433
11.72937,65154
11.73750,64231
11.74562,66750
11.75373,66788
11.76187,68275
11.76998,64272
11.77812,72460
11.78623,63199
11.79435,63478
11.80248,62516
11.81060,60744
11.81873,64315
11.82685,59816
11.83497,63953
11.84310,59529
11.85122,60896
11.85933,61460
11.86747,58759
11.87558,57452
11.88372,66537
11.89183,62257
11.89995,58966
11.90808,61589
11.91620,56622
11.92433,57642
11.93245,63360
11.94057,63045
11.94870,56654
11.95682,57043
11.96495,56127
11.97307,58777
11.98118,62432
11.98932,61139
11.99743,57711
12.00555,64812
12.01368,58988
12.02180,64595
12.02993,63769
12.03805,57532
12.04617,59475
12.05430,63501
12.06242,64345
12.07055,64821
12.07867,61826
12.08678,65935
12.09492,67244
12.10303,62763
12.11117,62374
12.11928,62238
12.12740,61165
12.13553,62722
12.14365,59291
12.15177,59782
12.15990,60394
12.16802,69978
12.17615,62441
12.18427,64489
12.19238,60609
12.20052,63988
12.20863,68635
12.21677,60113
12.22488,62832
12.23300,60714
12.24113,61724
12.24925,62525
12.25738,64535
12.26550,59519
12.27362,64715
12.28175,62775
12.28987,62853
12.29798,64526
12.30612,63994
12.31423,63544
12.32237,61103
12.33048,59608
12.33860,66607
12.34673,67308
12.35485,62046
12.36298,61065
12.37110,59664
12.37922,61506
12.38735,62446
12.39547,64079
12.40358,67828
12.41172,63287
12.41983,63463
12.42797,65621
12.43608,61828
12.44420,59105
12.45233,60190
12.46045,71239
12.46858,62176
12.47670,65587
12.48482,61716
12.49295,62273
12.50107,57177
12.50920,59455
12.51732,57465
12.52543,57267
12.53357,61827
12.54168,59677
12.54980,62141
12.55793,62890
12.56605,66228
12.57418,62176
12.58230,62847
12.59042,61128
12.59855,62328
12.60667,61632
12.61480,59888
12.62292,60629
12.63103,62504
12.63917,61038
12.64728,63193
12.65540,62124
12.66353,62318
12.67165,60094
12.67978,54061
12.68790,59443
12.69602,61105
12.70415,62146
12.71227,59692
12.72040,58238
12.72852,63324
12.73663,61528
12.74477,56964
12.75288,62733
12.76102,67617
12.76913,61159
12.77725,65575
12.78538,62744
12.79350,63912
12.80162,59551
12.80975,58997
12.81787,62977
12.82600,57473
12.83412,60872
12.84223,62617
12.85037,60616
12.85848,60379
12.86662,61772
12.87473,60345
12.88285,59991
12.89098,58731
12.89910,58241
12.90723,54017
12.91535,60530
12.92347,55423
12.93160,55347
12.93972,59394
12.94783,57022
12.95597,55674
12.96408,58678
12.97222,56637
12.98033,57233
12.98845,60204
12.99658,58548
13.00470,58387
13.01283,54788
13.02095,55659
13.02907,57614
13.03720,59050
13.04532,57025
13.05343,57594
13.06157,58552
13.06968,56722
13.07782,54424
13.08593,56457
13.09405,62155
13.10218,56687
13.11030,53276
13.11843,60508
13.12655,55473
13.13467,58227
13.14280,55442
13.15092,59694
13.15905,53243
13.16717,57912
13.17528,58060
13.18342,59156
13.19153,61387
13.19965,67028
13.20778,65138
13.21590,69150
13.22403,67340
13.23215,60221
13.24027,56692
13.24840,55295
13.25652,57724
13.26465,52523
13.27277,56784
13.28088,63775
13.28902,60104
13.29713,58816
13.30527,57429
13.31338,52531
13.32150,56224
13.32963,56685
13.33775,52608
13.34587,53104
13.35400,58070
13.36212,56522
13.37025,54217
13.37837,54459
13.38648,52007
13.39462,55356
13.40273,56917
13.41087,59299
13.41898,59686
13.42710,56596
13.43523,55221
13.44335,54440
13.45147,57864
13.45960,58080
13.46772,54957
13.47585,57550
13.48397,56818
13.49208,54937
13.50022,57792
13.50833,56548
13.51647,60420
13.52458,53568
13.53270,57048
13.54083,55964
13.54895,56566
13.55708,59450
13.56520,58808
13.57332,61254
13.58145,58805
13.58957,58368
13.59768,54346
13.60582,56053
13.61393,56294
13.62207,56066
13.63018,52359
13.63830,55922
13.64643,54846
13.65455,56298
13.66268,56850
13.67080,58611
13.67892,55357
13.68705,51876
13.69517,53620
13.70330,57098
13.71142,55059
13.71953,57612
13.72767,61676
13.73578,54478
13.74390,60716
13.75203,60152
13.76015,58710
13.76828,63214
13.77640,72727
13.78452,74170
13.79265,71656
13.80077,71355
13.80890,77560
13.81702,76542
13.82513,73125
13.83327,78453
13.84138,75272
13.84950,76595
13.85763,77575
13.86575,77256
13.87388,81448
13.88200,74729
13.89012,75898
13.89825,78642
13.90637,78472
13.91450,74062
13.92262,84008
13.93073,79951
13.93887,84394
13.94698,79903
13.95512,76770
13.96323,80952
13.97135,75263
13.97948,76049
13.98760,77092
13.99572,80872
14.00385,72081
14.01197,76734
14.02010,73905
14.02822,79600
14.03633,71768
14.04447,76405
14.05258,75749
14.06072,80561
14.06883,85271
14.07695,79914
14.08508,83581
14.09320,78964
14.10132,85591
14.10945,79360
14.11757,81876
14.12570,74714
14.13382,77781
14.14193,71365
14.15007,74903
14.15818,81753
14.16632,89555
14.17443,112357
14.18255,180701
14.19068,315266
14.19880,500994
14.20693,693063
14.21505,791183
14.22317,719342
14.23130,555191
14.23942,406926
14.24753,304111
14.25567,261830
14.26378,231570
14.27192,204624
14.28003,196662
14.28815,178218
14.29628,167793
14.30440,161389
14.31253,161854
14.32065,151399
14.32877,140010
14.33690,138935
14.34502,122338
14.35315,114591
14.36127,105990
14.36938,92217
14.37752,87822
14.38563,80149
14.39375,77804
14.40188,77125
14.41000,79654
14.41813,77850
14.42625,78682
14.43437,77850
14.44250,75439
14.45062,71805
14.45875,66795
14.46687,72208
14.47498,73658
14.48312,73590
14.49123,67469
14.49935,67643
14.50748,70078
14.51560,67413
14.52373,69151
14.53185,70418
14.53997,71170
14.54810,69912
14.55622,71451
14.56435,66816
14.57247,72717
14.58058,68684
14.58872,69763
14.59683,64388
14.60497,64723
14.61308,68307
14.62120,64395
14.62933,67340
14.63745,61550
14.64557,66670
14.65370,65193
14.66182,62405
14.66995,62807
14.67807,60365
14.68618,68544
14.69432,64801
14.70243,62518
14.71057,64236
14.71868,62461
14.72680,60256
14.73493,67534
14.74305,68603
14.75118,64398
14.75930,61509
14.76742,62640
14.77555,61722
14.78367,66748
14.79178,58448
14.79992,62420
14.80803,75923
14.81617,105964
14.82428,158425
14.83240,205600
14.84053,226712
14.84865,212133
14.85678,182418
14.86490,141245
14.87302,115801
14.88115,102089
14.88927,97082
14.89738,88796
14.90552,87801
14.91363,87494
14.92177,83625
14.92988,79016
14.93800,78224
14.94613,81253
14.95425,72794
14.96238,109509
14.97050,444474
14.97862,615274
14.98675,264395
14.99487,135926
15.00300,105319
15.01112,96367
15.01923,94383
15.02737,104489
15.03548,96691
15.04360,91915
15.05173,90514
15.05985,88999
15.06798,84698
15.07610,85573
15.08422,81156
15.09235,78183
15.10047,77602
15.10860,75839
15.11672,75599
15.12483,74542
15.13297,73896
15.14108,78487
15.14920,967980
15.15733,6447490
15.16545,4899911
15.17358,2084949
15.18170,1208909
15.18982,844596
15.19795,628865
15.20607,494440
15.21420,409680
15.22232,333329
15.23043,293010
15.23857,258703
15.24668,237154
15.25482,224745
15.26293,194225
15.27105,173644
15.27918,177203
15.28730,172077
15.29542,312966
15.30355,2740734
15.31167,4825532
15.31980,2551555
15.32792,1360874
15.33603,930763
15.34417,673745
15.35228,523101
15.36042,431729
15.36853,373205
15.37665,314707
15.38478,275837
15.39290,251471
15.40103,233050
15.40915,208607
15.41727,178726
15.42540,174774
15.43352,166255
15.44163,158531
15.44977,153615
15.45788,146530
15.46602,140816
15.47413,138136
15.48225,130024
15.49038,124883
15.49850,125195
15.50663,128859
15.51475,117900
15.52287,116471
15.53100,113297
15.53912,111427
15.54723,112713
15.55537,108199
15.56348,107244
15.57162,116877
15.57973,113001
15.58785,100604
15.59598,100860
15.60410,105561
15.61223,121284
15.62035,113631
15.62847,104330
15.63660,108380
15.64472,128486
15.65285,147173
15.66097,138207
15.66908,136583
15.67722,128871
15.68533,118778
15.69345,114678
15.70158,107046
15.70970,103059
15.71783,101510
15.72595,100127
15.73407,102027
15.74220,96818
15.75032,92221
15.75845,97872
15.76657,96057
15.77468,140717
15.78282,505195
15.79093,1159866
15.79907,1140140
15.80718,760682
15.81530,496286
15.82343,377215
15.83155,295559
15.83967,245472
15.84780,209124
15.85592,189603
15.86405,167929
15.87217,150723
15.88028,147677
15.88842,132992
15.89653,132798
15.90467,121207
15.91278,117981
15.92090,114326
15.92903,112553
15.93715,108505
15.94527,101916
15.95340,105922
15.96152,100605
15.96965,95252
15.97777,96336
15.98588,98779
15.99402,97729
16.00213,91921
16.01027,95616
16.01838,98109
16.02650,98456
16.03463,107191
16.04275,106017
16.05088,103169
16.05900,101901
16.06712,103186
16.07525,95075
16.08337,88634
16.09148,88232
16.09962,87714
16.10773,84679
16.11587,88152
16.12398,84714
16.13210,87693
16.14023,81491
16.14835,85056
16.15648,86123
16.16460,86253
16.17272,84353
16.18085,85595
16.18897,78953
16.19708,78669
16.20522,83615
16.21333,81773
16.22147,85335
16.22958,83992
16.23770,82161
16.24583,84546
16.25395,87930
16.26208,81511
16.27020,84083
16.27832,87665
16.28645,81231
16.29457,82338
16.30270,83067
16.31082,76782
16.31893,77175
16.32707,78472
16.33518,78520
16.34330,80494
16.35143,85258
16.35955,79100
16.36768,76240
16.37580,81056
16.38392,78744
16.39205,78345
16.40017,76424
16.40830,80067
16.41642,79563
16.42453,76699
16.43267,74029
16.44078,78732
16.44892,77531
16.45703,77838
16.46515,79791
16.47328,83502
16.48140,76173
16.48952,79776
16.49765,73365
16.50577,75594
16.51390,81492
16.52202,85872
16.53013,81878
16.53827,79555
16.54638,81321
16.55452,75810
16.56263,75579
16.57075,82241
16.57888,76490
16.58700,73024
16.59513,73718
16.60325,79704
16.61137,76631
16.61950,76803
16.62762,83255
16.63573,77840
16.64387,74806
16.65198,78352
16.66012,77910
16.66823,75057
16.67635,75014
16.68448,75820
16.69260,74272
16.70073,72147
16.70885,71100
16.71697,71746
16.72510,71631
16.73322,67880
16.74133,71914
16.74947,72970
16.75758,73905
16.76572,68188
16.77383,69560
16.78195,70383
16.79008,72224
16.79820,67581
16.80633,73405
16.81445,70941
16.82257,64408
16.83070,69490
16.83882,70692
16.84695,66948
16.85507,70625
16.86318,65916
16.87132,69154
16.87943,65074
16.88755,69386
16.89568,64345
16.90380,66668
16.91193,70863
16.92005,64399
16.92817,64593
16.93630,65472
16.94442,66390
16.95255,65475
16.96067,68082
16.96878,69386
16.97692,64343
16.98503,66119
16.99315,70731
17.00128,64986
17.00940,65728
17.01753,66534
17.02565,66138
17.03377,66687
17.04190,67553
17.05002,66085
17.05815,67556
17.06627,67027
17.07438,64741
17.08252,67115
17.09063,65738
17.09877,63852
17.10688,67737
17.11500,66865
17.12313,66858
17.13125,61973
17.13937,66577
17.14750,62701
17.15562,63660
17.16375,66570
17.17187,72383
17.17998,67692
17.18812,59370
17.19623,61713
17.20437,60893
17.21248,61340
17.22060,61679
17.22873,61802
17.23685,64762
17.24498,64351
17.25310,62647
17.26122,64743
17.26935,59580
17.27747,65263
17.28558,56259
17.29372,61191
17.30183,86364
17.30997,137731
17.31808,227702
17.32620,268251
17.33433,220505
17.34245,174564
17.35058,143620
17.35870,121047
17.36682,112737
17.37495,107471
17.38307,98853
17.39118,103018
17.39932,93823
17.40743,90287
17.41557,86300
17.42368,84663
17.43180,78992
17.43993,77973
17.44805,77028
17.45618,78825
17.46430,74174
17.47242,73026
17.48055,68455
17.48867,69449
17.49680,70401
17.50492,65286
17.51303,65807
17.52117,68454
17.52928,67288
17.53740,64001
17.54553,64281
17.55365,66144
17.56178,68399
17.56990,68639
17.57802,59535
17.58615,68721
17.59427,67073
17.60240,58837
17.61052,57849
17.61863,62155
17.62677,61944
17.63488,59025
17.64302,58898
17.65113,65749
17.65925,63068
17.66738,62857
17.67550,63371
17.68362,67570
17.69175,72113
17.69987,65641
17.70800,66441
17.71612,65126
17.72423,67720
17.73237,66426
17.74048,66873
17.74862,61314
17.75673,64939
17.76485,65145
17.77298,59620
17.78110,64965
17.78922,62691
17.79735,60580
17.80547,64753
17.81360,61130
17.82172,60732
17.82983,60557
17.83797,62531
17.84608,63228
17.85422,56004
17.86233,59745
17.87045,64138
17.87858,60639
17.88670,61200
17.89483,58129
17.90295,61055
17.91107,53204
17.91920,55641
17.92732,52126
17.93543,58322
17.94357,55508
17.95168,54626
17.95982,54705
17.96793,50562
17.97605,55520
17.98418,54666
17.99230,53038
18.00043,52779
18.00855,52941
18.01667,53265
18.02480,52129
18.03292,54887
18.04103,56205
18.04917,50383
18.05728,52433
18.06542,59440
18.07353,63548
18.08165,66384
18.08978,70771
18.09790,74659
18.10603,77264
18.11415,70838
18.12227,77261
18.13040,75740
18.13852,73536
18.14665,75397
18.15477,71172
18.16288,72873
18.17102,75131
18.17913,74479
18.18725,70537
18.19538,69571
18.20350,67941
18.21163,66706
18.21975,64261
18.22787,65156
18.23600,64580
18.24412,67165
18.25225,66125
18.26037,63478
18.26848,67553
18.27662,65999
18.28473,62979
18.29287,62137
18.30098,59882
18.30910,60305
18.31723,58688
18.32535,56670
18.33347,53784
18.34160,55428
18.34972,56716
18.35785,56707
18.36597,58796
18.37408,55306
18.38222,57055
18.39033,51970
18.39847,55643
18.40658,56434
18.41470,55386
18.42283,53464
18.43095,50518
18.43907,54961
18.44720,56678
18.45532,53497
18.46345,54406
18.47157,50812
18.47968,52416
18.48782,55054
18.49593,55148
18.50407,59589
18.51218,53880
18.52030,51931
18.52843,49936
18.53655,55039
18.54468,52864
18.55280,56431
18.56092,51269
18.56905,56376
18.57717,51209
18.58528,52053
18.59342,53612
18.60153,53395
18.60967,55687
18.61778,57082
18.62590,53544
18.63403,51065
18.64215,56353
18.65028,54127
18.65840,54664
18.66652,55263
18.67465,52424
18.68277,51774
18.69090,51165
18.69902,50620
18.70713,56757
18.71527,56012
18.72338,49848
18.73150,50924
18.73963,50181
18.74775,50011
18.75588,52293
18.76400,52811
18.77212,51019
18.78025,53067
18.78837,53219
18.79650,55842
18.80462,54594
18.81273,54191
18.82087,54149
18.82898,47976
18.83710,52098
18.84523,52839
18.85335,49326
18.86148,49458
18.86960,49565
18.87772,52678
18.88585,53948
18.89397,48132
18.90210,53921
18.91022,50094
18.91833,50661
18.92647,53434
18.93458,50168
18.94272,49690
18.95083,56047
18.95895,52803
18.96708,52677
18.97520,51230
18.98332,54536
18.99145,51147
18.99957,51229
19.00770,49835
19.01582,50717
19.02393,52509
19.03207,48629
19.04018,49595
19.04832,47177
19.05643,47307
19.06455,48226
19.07268,47168
19.08080,50140
19.08893,49979
19.09705,48847
19.10517,52354
19.11330,56622
19.12142,55973
19.12953,54648
19.13767,58184
19.14578,56026
19.15392,60634
19.16203,53229
19.17015,56726
19.17828,52220
19.18640,54863
19.19453,59273
19.20265,56993
19.21077,52356
19.21890,52085
19.22702,57547
19.23513,51579
19.24327,53395
19.25138,54368
19.25952,49918
19.26763,52801
19.27575,53419
19.28388,57819
19.29200,63734
19.30013,66037
19.30825,66677
19.31637,65211
19.32450,64728
19.33262,64665
19.34075,60568
19.34887,61292
19.35698,60704
19.36512,60060
19.37323,68744
19.38135,64637
19.38948,70205
19.39760,68927
19.40573,70528
19.41385,71784
19.42197,74324
19.43010,71535
19.43822,71284
19.44635,72219
19.45447,71003
19.46258,72617
19.47072,81269
19.47883,95655
19.48695,135281
19.49508,204415
19.50320,294843
19.51133,371144
19.51945,390986
19.52757,348357
19.53570,278480
19.54382,186638
19.55195,135366
19.56007,114333
19.56818,98266
19.57632,92406
19.58443,84944
19.59257,87407
19.60068,94255
19.60880,100535
19.61693,116619
19.62505,134795
19.63317,163350
19.64130,193791
19.64942,235943
19.65755,307819
19.66567,404416
19.67378,469568
19.68192,485701
19.69003,451213
19.69817,380219
19.70628,313355
19.71440,249531
19.72253,198636
19.73065,173013
19.73878,151964
19.74690,133040
19.75502,121784
19.76315,113262
19.77127,106170
19.77938,96902
19.78752,98643
19.79563,95864
19.80377,90912
19.81188,88119
19.82000,87813
19.82813,84196
19.83625,82097
19.84438,81655
19.85250,79950
19.86062,80957
19.86875,78338
19.87687,88710
19.88498,94299
19.89312,112273
19.90123,128798
19.90937,159213
19.91748,177824
19.92560,191796
19.93373,200545
19.94185,209220
19.94998,212149
19.95810,217627
19.96622,210131
19.97435,205704
19.98247,194444
19.99060,175862
19.99872,166257
20.00683,158524
20.01497,153751
20.02308,157934
20.03120,149019
20.03933,140510
20.04745,127444
20.05558,125456
20.06370,107694
20.07182,100491
20.07995,88708
20.08807,86302
20.09620,82719
20.10432,85770
20.11243,83953
20.12057,87100
20.12868,84384
20.13682,83375
20.14493,86210
20.15305,79789
20.16118,79797
20.16930,78129
20.17742,82173
20.18555,79134
20.19367,77380
20.20180,84738
20.20992,81406
20.21803,81112
20.22617,82858
20.23428,86600
20.24242,98348
20.25053,111412
20.25865,162493
20.26678,216618
20.27490,278774
20.28302,350449
20.29115,369071
20.29927,359915
20.30740,318633
20.31552,267662
20.32363,207326
20.33177,173268
20.33988,145135
20.34802,124636
20.35613,113250
20.36425,99805
20.37238,98204
20.38050,92514
20.38863,90824
20.39675,95289
20.40487,97030
20.41300,96915
20.42112,113955
20.42923,126889
20.43737,157827
20.44548,186062
20.45362,213946
20.46173,220866
20.46985,201110
20.47798,198997
20.48610,171862
20.49423,137648
20.50235,124787
20.51047,109858
20.51860,98579
20.52672,97615
20.53483,95289
20.54297,89330
20.55108,88421
20.55922,83780
20.56733,85864
20.57545,83468
20.58358,86526
20.59170,84647
20.59983,84216
20.60795,83956
20.61607,82711
20.62420,82209
20.63232,84121
20.64045,90334
20.64857,79177
20.65668,80165
20.66482,77071
20.67293,76960
20.68105,79554
20.68918,72502
20.69730,75693
20.70543,79873
20.71355,74743
20.72167,74635
20.72980,74782
20.73792,75686
20.74605,71753
20.75417,71358
20.76228,70418
20.77042,70243
20.77853,69011
20.78667,65514
20.79478,67342
20.80290,68102
20.81103,68444
20.81915,64235
20.82727,61920
20.83540,65545
20.84352,71088
20.85165,67048
20.85977,66268
20.86788,67429
20.87602,64360
20.88413,68416
20.89227,68260
20.90038,66477
20.90850,61615
20.91663,64706
20.92475,62419
20.93287,66119
20.94100,61271
20.94912,74119
20.95725,65857
20.96537,66277
20.97348,60354
20.98162,62509
20.98973,62791
20.99787,63208
21.00598,61201
21.01410,63555
21.02223,57718
21.03035,55751
21.03848,57819
21.04660,61152
21.05472,61839
21.06285,60569
21.07097,58321
21.07908,62051
21.08722,61632
21.09533,63791
21.10347,62587
21.11158,66273
21.11970,71442
21.12783,80064
21.13595,78776
21.14408,74947
21.15220,74875
21.16032,69746
21.16845,69731
21.17657,63667
21.18470,67881
21.19282,62394
21.20093,58455
21.20907,62945
21.21718,63540
21.22530,56637
21.23343,57405
21.24155,61632
21.24968,59462
21.25780,60546
21.26592,55235
21.27405,58373
21.28217,59937
21.29030,57020
21.29842,59833
21.30653,59232
21.31467,57039
21.32278,54133
21.33090,55370
21.33903,55118
21.34715,52965
21.35528,51322
21.36340,53396
21.37152,53129
21.37965,55789
21.38777,58954
21.39590,64731
21.40402,72612
21.41213,69706
21.42027,64925
21.42838,62545
21.43652,60856
21.44463,59649
21.45275,58218
21.46088,52629
21.46900,54453
21.47712,54467
21.48525,50961
21.49337,52958
21.50150,52837
21.50962,52140
21.51773,53963
21.52587,48452
21.53398,52986
21.54212,54766
21.55023,57634
21.55835,50348
21.56648,49608
21.57460,55090
21.58272,51621
21.59085,51290
21.59897,56244
21.60710,61347
21.61522,75053
21.62333,92617
21.63147,109309
21.63958,125797
21.64772,132761
21.65583,131041
21.66395,111778
21.67208,101772
21.68020,86034
21.68833,75315
21.69645,68867
21.70457,67705
21.71270,62450
21.72082,63694
21.72893,66563
21.73707,72750
21.74518,66167
21.75332,68035
21.76143,65638
21.76955,67513
21.77768,63029
21.78580,67878
21.79393,63748
21.80205,66857
21.81017,75245
21.81830,81053
21.82642,92697
21.83455,105719
21.84267,118945
21.85078,107200
21.85892,93647
21.86703,86290
21.87515,83238
21.88328,76911
21.89140,63697
21.89953,61309
21.90765,57622
21.91577,61309
21.92390,63717
21.93202,65790
21.94015,62338
21.94827,62031
21.95638,63873
21.96452,64478
21.97263,57344
21.98077,55323
21.98888,52903
21.99700,53530
22.00513,53671
22.01325,54000
22.02137,54685
22.02950,51088
22.03762,50177
22.04575,51048
22.05387,50591
22.06198,51485
22.07012,49143
22.07823,51282
22.08637,52197
22.09448,52722
22.10260,52693
22.11073,51520
22.11885,47938
22.12697,48131
22.13510,51391
22.14322,53742
22.15135,55776
22.15947,57303
22.16758,55301
22.17572,55737
22.18383,53613
22.19197,54737
22.20008,53493
22.20820,55090
22.21633,55739
22.22445,62472
22.23258,61793
22.24070,62932
22.24882,59672
22.25695,54724
22.26507,55405
22.27318,50024
22.28132,49494
22.28943,51561
22.29757,51052
22.30568,50086
22.31380,52334
22.32193,52670
22.33005,51779
22.33818,55727
22.34630,57536
22.35442,57260
22.36255,53817
22.37067,52139
22.37878,53070
22.38692,47876
22.39503,44632
22.40317,46952
22.41128,49121
22.41940,50164
22.42753,48201
22.43565,47028
22.44378,48560
22.45190,47504
22.46002,47493
22.46815,47932
22.47627,47958
22.48440,49858
22.49252,47506
22.50063,45737
22.50877,47543
22.51688,45421
22.52500,48401
22.53313,47434
22.54125,49599
22.54938,48456
22.55750,47863
22.56562,45451
22.57375,48165
22.58187,45713
22.59000,45878
22.59812,41097
22.60623,44010
22.61437,43855
22.62248,44638
22.63062,44886
22.63873,45924
22.64685,42714
22.65498,41041
22.66310,44529
22.67122,47882
22.67935,44922
22.68747,39179
22.69560,40668
22.70372,41403
22.71183,44902
22.71997,43513
22.72808,44130
22.73622,42595
22.74433,45215
22.75245,44182
22.76058,43054
22.76870,41124
22.77682,39466
22.78495,39922
22.79307,40363
22.80120,41689
22.80932,42159
22.81743,40192
22.82557,41783
22.83368,37955
22.84182,40181
22.84993,40849
22.85805,47107
22.86618,43306
22.87430,47618
22.88243,47713
22.89055,49180
22.89867,50422
22.90680,56482
22.91492,64086
22.92303,75183
22.93117,83370
22.93928,95695
22.94742,97258
22.95553,94618
22.96365,90686
22.97178,86815
22.97990,79554
22.98803,77176
22.99615,70385
23.00427,65175
23.01240,70101
23.02052,56323
23.02865,53555
23.03677,50722
23.04488,49316
23.05302,48664
23.06113,48162
23.06925,48197
23.07738,46820
23.08550,44196
23.09363,45867
23.10175,41168
23.10987,44447
23.11800,43242
23.12612,40685
23.13425,41531
23.14237,39733
23.15048,42395
23.15862,41031
23.16673,41502
23.17485,41575
23.18298,42818
23.19110,44584
23.19923,39822
23.20735,40727
23.21547,37181
23.22360,38870
23.23172,40165
23.23985,37975
23.24797,41130
23.25608,41673
23.26422,41820
23.27233,38594
23.28047,40258
23.28858,40303
23.29670,39564
23.30483,41329
23.31295,44215
23.32107,38135
23.32920,40829
23.33732,40556
23.34545,39036
23.35357,42372
23.36168,41950
23.36982,38029
23.37793,39798
23.38607,42264
23.39418,38498
23.40230,38840
23.41043,44872
23.41855,42523
23.42667,40559
23.43480,43275
23.44292,42947
23.45105,43836
23.45917,41035
23.46728,36449
23.47542,42364
23.48353,41565
23.49167,42066
23.49978,38304
23.50790,41772
23.51603,41549
23.52415,37567
23.53228,38769
23.54040,39771
23.54852,40448
23.55665,40106
23.56477,41616
23.57288,43204
23.58102,44370
23.58913,47143
23.59727,44497
23.60538,44782
23.61350,43748
23.62163,45239
23.62975,46952
23.63788,47587
23.64600,46004
23.65412,49105
23.66225,48836
23.67037,48393
23.67850,54772
23.68662,50250
23.69473,53945
23.70287,51272
23.71098,48910
23.71910,48546
23.72723,54075
23.73535,71792
23.74348,146885
23.75160,352291
23.75972,899186
23.76785,2152307
23.77597,3882498
23.78410,5346337
23.79222,6186446
23.80033,6081699
23.80847,5023970
23.81658,3804325
23.82470,2746779
23.83283,1974996
23.84095,1453857
23.84908,1063449
23.85720,823452
23.86532,687402
23.87345,653923
23.88157,712416
23.88970,812979
23.89782,965451
23.90593,1077979
23.91407,1088087
23.92218,1045490
23.93032,876127
23.93843,742714
23.94655,594219
23.95468,491847
23.96280,408294
23.97092,356839
23.97905,307988
23.98717,284911
23.99530,261843
24.00342,245888
24.01153,227944
24.01967,211620
24.02778,204306
24.03592,195715
24.04403,185964
24.05215,192135
24.06028,174550
24.06840,167995
24.07653,158933
24.08465,154451
24.09277,148347
24.10090,152978
24.10902,154139
24.11713,149020
24.12527,154650
24.13338,159654
24.14152,157775
24.14963,153618
24.15775,144181
24.16588,143464
24.17400,136741
24.18213,130295
24.19025,125254
24.19837,129723
24.20650,135378
24.21462,142832
24.22273,138611
24.23087,135286
24.23898,130158
24.24712,119482
24.25523,118603
24.26335,115301
24.27148,108895
24.27960,98381
24.28773,106546
24.29585,99043
24.30397,100040
24.31210,93373
24.32022,93570
24.32835,93734
24.33647,92775
24.34458,90388
24.35272,96220
24.36083,94932
24.36895,98734
24.37708,117445
24.38520,151328
24.39333,197082
24.40145,245926
24.40957,262981
24.41770,255819
24.42582,246698
24.43395,290586
24.44207,386400
24.45018,548416
24.45832,769785
24.46643,885207
24.47457,877843
24.48268,773710
24.49080,651425
24.49893,524550
24.50705,440931
24.51517,383448
24.52330,321112
24.53142,272202
24.53955,239838
24.54767,201850
24.55578,187279
24.56392,161020
24.57203,151397
24.58017,147410
24.58828,135591
24.59640,122352
24.60453,128373
24.61265,127158
24.62077,134415
24.62890,136900
24.63702,139099
24.64515,133549
24.65327,125496
24.66138,118946
24.66952,112489
24.67763,114633
24.68577,103267
24.69388,99386
24.70200,92085
24.71013,93579
24.71825,87439
24.72638,90476
24.73450,86232
24.74262,86864
24.75075,84233
24.75887,80650
24.76698,81818
24.77512,78030
24.78323,80958
24.79137,80484
24.79948,77616
24.80760,79248
24.81573,81426
24.82385,79991
24.83198,73021
24.84010,72438
24.84822,76349
24.85635,73607
24.86447,76233
24.87258,71465
24.88072,78132
24.88883,75738
24.89697,71461
24.90508,74817
24.91320,71307
24.92133,65489
24.92945,70797
24.93758,70175
24.94570,68880
24.95382,65906
24.96195,66133
24.97007,66127
24.97820,65048
24.98632,65130
24.99443,67791
25.00257,60489
25.01068,59405
25.01880,57742
25.02693,64084
25.03505,60112
25.04318,60154
25.05130,64517
25.05942,65193
25.06755,62311
25.07567,60873
25.08380,61898
25.09192,62527
25.10003,69110
25.10817,64213
25.11628,69485
25.12442,72901
25.13253,80205
25.14065,88213
25.14878,98297
25.15690,105890
25.16502,111722
25.17315,104688
25.18127,100898
25.18940,92005
25.19752,81120
25.20563,71618
25.21377,73358
25.22188,68712
25.23002,68245
25.23813,67836
25.24625,68074
25.25438,63455
25.26250,65327
25.27062,62179
25.27875,63569
25.28687,69558
25.29500,71286
25.30312,71763
25.31123,79960
25.31937,77254
25.32748,83649
25.33562,81971
25.34373,72901
25.35185,73123
25.35998,67404
25.36810,63843
25.37623,62077
25.38435,56504
25.39247,57541
25.40060,55338
25.40872,58298
25.41683,56018
25.42497,54563
25.43308,58400
25.44122,54735
25.44933,65236
25.45745,62106
25.46558,61180
25.47370,65652
25.48183,64377
25.48995,64082
25.49807,67878
25.50620,64720
25.51432,57670
25.52245,57424
25.53057,58404
25.53868,54392
25.54682,61711
25.55493,59144
25.56305,55544
25.57118,54848
25.57930,53047
25.58743,52756
25.59555,57611
25.60367,53254
25.61180,51085
25.61992,50844
25.62805,52809
25.63617,53104
25.64428,51220
25.65242,48427
25.66053,53692
25.66865,55525
25.67678,48238
25.68490,52740
25.69303,52262
25.70115,46758
25.70927,49621
25.71740,49635
25.72552,50361
25.73365,50786
25.74177,48939
25.74988,50054
25.75802,51126
25.76613,46989
25.77427,51139
25.78238,48702
25.79050,50827
25.79863,48008
25.80675,52749
25.81487,54508
25.82300,50992
25.83112,50792
25.83925,50550
25.84737,54004
25.85548,57613
25.86362,57148
25.87173,53488
25.87987,51775
25.88798,51074
25.89610,48104
25.90423,50932
25.91235,51902
25.92047,49363
25.92860,46433
25.93672,49452
25.94485,46301
25.95297,52127
25.96108,47636
25.96922,51203
25.97733,52699
25.98547,50698
25.99358,47559
26.00170,48199
26.00983,45931
26.01795,48339
26.02608,45662
26.03420,46069
26.04232,45828
26.05045,45335
26.05857,43820
26.06668,46858
26.07482,50628
26.08293,49395
26.09107,44639
26.09918,48893
26.10730,53965
26.11543,49287
26.12355,54585
26.13168,59078
26.13980,61216
26.14792,59790
26.15605,66793
26.16417,60623
26.17230,59435
26.18042,60191
26.18853,59836
26.19667,59806
26.20478,52404
26.21290,53501
26.22103,50844
26.22915,51052
26.23728,54640
26.24540,49308
26.25352,54683
26.26165,55173
26.26977,54086
26.27790,50279
26.28602,52731
26.29413,49325
26.30227,50076
26.31038,49582
26.31852,49785
26.32663,49433
26.33475,48421
26.34288,50095
26.35100,48588
26.35912,48929
26.36725,49408
26.37537,48378
26.38350,54052
26.39162,53967
26.39973,53468
26.40787,57543
26.41598,61424
26.42412,57580
26.43223,58365
26.44035,53480
26.44848,56540
26.45660,52280
26.46472,53064
26.47285,52307
26.48097,46318
26.48910,48215
26.49722,45197
26.50533,48842
26.51347,47323
26.52158,46280
26.52972,46303
26.53783,46021
26.54595,46263
26.55408,46045
26.56220,46126
26.57033,43733
26.57845,46593
26.58657,47009
26.59470,50914
26.60282,48951
26.61093,48282
26.61907,47660
26.62718,41212
26.63532,42960
26.64343,47888
26.65155,45368
26.65968,44398
26.66780,50829
26.67593,45507
26.68405,45834
26.69217,46641
26.70030,47330
26.70842,47159
26.71653,46306
26.72467,44725
26.73278,47684
26.74092,46346
26.74903,45381
26.75715,49660
26.76528,49533
26.77340,49913
26.78153,41967
26.78965,46898
26.79777,49913
26.80590,50175
26.81402,47580
26.82215,51289
26.83027,50141
26.83838,48820
26.84652,52355
26.85463,53602
26.86275,54863
26.87088,55299
26.87900,55487
26.88713,58601
26.89525,55494
26.90337,52337
26.91150,53907
26.91962,52131
26.92775,57184
26.93587,59919
26.94398,66994
26.95212,76557
26.96023,119660
26.96837,244684
26.97648,480146
26.98460,1001328
26.99273,2043304
27.00085,3798963
27.00897,5838506
27.01710,7159288
27.02522,7199805
27.03335,6726625
27.04147,5779843
27.04958,4674732
27.05772,3807214
27.06583,2991904
27.07397,2350661
27.08208,1794202
27.09020,1382164
27.09833,1146354
27.10645,912673
27.11457,748705
27.12270,653884
27.13082,550084
27.13895,484517
27.14707,446607
27.15518,403929
27.16332,369464
27.17143,351092
27.17957,314325
27.18768,306788
27.19580,296074
27.20393,269418
27.21205,259811
27.22018,248388
27.22830,247707
27.23642,251349
27.24455,266151
27.25267,305625
27.26078,378700
27.26892,468962
27.27703,539852
27.28517,614888
27.29328,638542
27.30140,639435
27.30953,601212
27.31765,554518
27.32578,485104
27.33390,396530
27.34202,364529
27.35015,298255
27.35827,272882
27.36640,251446
27.37452,226238
27.38263,214464
27.39077,194008
27.39888,190862
27.40700,175431
27.41513,163901
27.42325,162464
27.43138,150653
27.43950,145801
27.44762,143222
27.45575,146610
27.46387,132936
27.47200,129130
27.48012,126380
27.48823,126531
27.49637,121464
27.50448,126489
27.51260,127294
27.52073,128387
27.52885,125415
27.53698,124497
27.54510,117356
27.55322,121524
27.56135,114395
27.56947,108530
27.57760,110363
27.58572,109321
27.59383,112120
27.60197,109497
27.61008,111177
27.61822,108375
27.62633,106316
27.63445,101308
27.64258,101556
27.65070,98049
27.65882,95251
27.66695,92855
27.67507,86439
27.68320,91650
27.69132,91521
27.69943,92476
27.70757,90457
27.71568,84564
27.72382,81595
27.73193,84469
27.74005,82172
27.74818,82915
27.75630,83706
27.76442,83002
27.77255,80068
27.78067,83143
27.78880,84511
27.79692,77878
27.80503,82631
27.81317,76984
27.82128,75246
27.82942,76068
27.83753,77563
27.84565,76173
27.85378,77852
27.86190,70495
27.87003,77375
27.87815,73439
27.88627,77648
27.89440,75038
27.90252,68364
27.91063,71140
27.91877,75375
27.92688,75765
27.93502,64038
27.94313,73573
27.95125,72439
27.95938,69784
27.96750,66090
27.97563,66534
27.98375,68420
27.99187,75349
28.00000,70356
28.00812,63579
28.01625,62594
28.02437,70587
28.03248,67148
28.04062,67522
28.04873,65254
28.05685,65970
28.06498,63185
28.07310,62963
28.08123,60855
28.08935,65914
28.09747,64808
28.10560,65467
28.11372,65632
28.12185,62437
28.12997,59026
28.13808,62552
28.14622,59953
28.15433,60410
28.16245,63398
28.17058,59300
28.17870,63707
28.18683,71453
28.19495,84498
28.20307,88162
28.21120,93213
28.21932,87047
28.22745,83493
28.23557,83660
28.24368,74483
28.25182,73325
28.25993,70758
28.26807,73871
28.27618,90041
28.28430,110462
28.29243,154507
28.30055,229929
28.30867,352644
28.31680,533789
28.32492,800329
28.33305,1122280
28.34117,1410751
28.34928,1714132
28.35742,1980247
28.36553,2166427
28.37367,2225603
28.38178,2244952
28.38990,2150811
28.39803,2009553
28.40615,1806196
28.41428,1582554
28.42240,1414172
28.43052,1216355
28.43865,1056281
28.44677,891564
28.45488,763811
28.46302,671029
28.47113,598105
28.47927,536657
28.48738,482447
28.49550,441292
28.50363,436030
28.51175,422434
28.51988,422662
28.52800,426600
28.53612,433394
28.54425,422724
28.55237,401733
28.56048,395511
28.56862,407092
28.57673,382242
28.58487,366470
28.59298,331971
28.60110,326717
28.60923,299329
28.61735,288924
28.62548,275710
28.63360,257457
28.64172,239951
28.64985,238723
28.65797,232182
28.66610,215938
28.67422,217881
28.68233,205806
28.69047,194989
28.69858,181914
28.70670,171901
28.71483,164049
28.72295,161539
28.73108,157188
28.73920,154294
28.74732,166872
28.75545,174189
28.76357,199158
28.77170,209237
28.77982,223297
28.78793,221796
28.79607,200252
28.80418,175269
28.81232,158415
28.82043,148671
28.82855,148155
28.83668,142291
28.84480,134816
28.85292,126592
28.86105,119218
28.86917,120774
28.87730,120383
28.88542,109514
28.89353,110679
28.90167,112164
28.90978,109996
28.91792,109805
28.92603,105477
28.93415,101186
28.94228,104880
28.95040,106545
28.95852,106778
28.96665,106229
28.97477,104811
28.98290,103605
28.99102,99224
28.99913,97018
29.00727,101343
29.01538,91454
29.02352,92017
29.03163,90818
29.03975,95228
29.04788,88025
29.05600,94555
29.06413,89783
29.07225,88587
29.08037,89980
29.08850,86969
29.09662,83041
29.10473,86212
29.11287,82981
29.12098,84831
29.12912,87417
29.13723,88529
29.14535,84051
29.15348,82965
29.16160,83205
29.16973,87245
29.17785,79983
29.18597,82915
29.19410,85397
29.20222,83324
29.21033,85997
29.21847,80575
29.22658,81492
29.23472,86604
29.24283,86502
29.25095,90825
29.25908,98555
29.26720,101065
29.27533,103090
29.28345,99924
29.29157,100677
29.29970,90947
29.30782,87181
29.31595,91533
29.32407,80384
29.33218,82653
29.34032,80537
29.34843,84121
29.35655,80385
29.36468,81357
29.37280,79444
29.38093,78175
29.38905,76420
29.39717,83566
29.40530,77945
29.41342,75544
29.42155,76787
29.42967,76535
29.43778,77775
29.44592,75243
29.45403,73852
29.46217,76168
29.47028,80190
29.47840,77224
29.48653,82199
29.49465,89389
29.50277,83843
29.51090,92883
29.51902,83474
29.52715,88613
29.53527,81129
29.54338,76866
29.55152,75645
29.55963,74797
29.56777,71471
29.57588,66786
29.58400,65987
29.59213,71422
29.60025,70107
29.60837,65751
29.61650,70673
29.62462,69999
29.63275,64362
29.64087,65183
29.64898,66028
29.65712,67365
29.66523,60759
29.67337,63082
29.68148,64065
29.68960,66044
29.69773,67792
29.70585,66454
29.71398,59296
29.72210,62738
29.73022,63244
29.73835,64271
29.74647,62562
29.75458,66415
29.76272,61283
29.77083,64171
29.77897,57279
29.78708,62920
29.79520,59325
29.80333,57872
29.81145,55991
29.81958,57333
29.82770,56861
29.83582,58070
29.84395,57788
29.85207,59785
29.86020,57668
29.86832,60929
29.87643,61196
29.88457,66791
29.89268,64283
29.90080,69316
29.90893,76308
29.91705,82853
29.92518,91249
29.93330,105878
29.94142,125704
29.94955,159957
29.95767,212764
29.96580,270945
29.97392,341860
29.98203,392442
29.99017,463240
29.99828,538297
30.00640,598958
30.01453,638602
30.02265,686284
30.03078,709085
30.03890,726968
30.04702,734945
30.05515,720293
30.06327,695871
30.07140,676428
30.07952,648685
30.08763,628954
30.09577,586262
30.10388,532055
30.11202,521680
30.12013,485536
30.12825,449002
30.13638,421319
30.14450,394200
30.15262,366118
30.16075,340437
30.16887,322268
30.17700,304004
30.18512,285140
30.19323,267761
30.20137,254493
30.20948,239515
30.21762,211540
30.22573,210132
30.23385,199325
30.24198,185763
30.25010,182422
30.25822,168512
30.26635,162116
30.27447,152816
30.28260,156521
30.29072,143680
30.29883,136639
30.30697,124970
30.31508,129832
30.32322,120916
30.33133,125436
30.33945,117781
30.34758,116826
30.35570,109273
30.36383,112632
30.37195,103768
30.38007,104039
30.38820,103014
30.39632,100495
30.40443,97764
30.41257,99948
30.42068,94268
30.42882,95246
30.43693,89445
30.44505,99999
30.45318,92188
30.46130,91557
30.46943,88068
30.47755,85873
30.48567,91976
30.49380,85201
30.50192,82207
30.51005,86756
30.51817,80986
30.52628,85916
30.53442,84472
30.54253,78547
30.55065,73914
30.55878,78499
30.56690,74909
30.57503,78205
30.58315,75421
30.59127,81150
30.59940,73583
30.60752,78845
30.61565,74094
30.62377,72099
30.63188,76360
30.64002,75309
30.64813,76740
30.65625,73200
30.66438,70902
30.67250,65933
30.68063,68968
30.68875,71091
30.69687,67175
30.70500,72660
30.71312,66719
30.72125,67283
30.72937,69215
30.73748,68981
30.74562,65430
30.75373,67248
30.76187,66317
30.76998,67581
30.77810,68444
30.78623,66421
30.79435,71610
30.80247,75688
30.81060,80149
30.81872,79794
30.82685,74944
30.83497,71392
30.84308,67467
30.85122,69969
30.85933,70197
30.86747,63455
30.87558,63534
30.88370,63145
30.89183,63354
30.89995,62970
30.90808,62945
30.91620,62515
30.92432,64642
30.93245,62170
30.94057,59161
30.94868,59643
30.95682,62443
30.96493,60842
30.97307,60569
30.98118,60723
30.98930,61740
30.99743,61812
31.00555,59674
31.01368,62712
31.02180,60048
31.02992,64199
31.03805,63570
31.04617,59215
31.05428,65670
31.06242,67808
31.07053,66238
31.07867,71536
31.08678,76348
31.09490,82625
31.10303,91354
31.11115,88652
31.11928,83807
31.12740,80434
31.13552,79574
31.14365,75216
31.15177,76049
31.15990,72876
31.16802,76412
31.17613,80276
31.18427,85691
31.19238,95846
31.20050,113024
31.20863,134584
31.21675,160349
31.22488,169949
31.23300,177790
31.24112,158678
31.24925,136072
31.25737,118587
31.26550,96950
31.27362,88621
31.28173,80740
31.28987,72162
31.29798,69753
31.30610,69163
31.31423,66800
31.32235,63404
31.33048,67951
31.33860,65679
31.34672,69474
31.35485,63399
31.36297,67382
31.37110,70013
31.37922,73568
31.38733,73239
31.39547,79503
31.40358,80460
31.41172,75077
31.41983,75143
31.42795,72450
31.43608,69341
31.44420,72464
31.45232,66518
31.46045,63021
31.46857,60343
31.47670,61530
31.48482,57180
31.49293,58477
31.50107,61358
31.50918,61082
31.51732,57719
31.52543,59704
31.53355,57567
31.54168,57543
31.54980,59644
31.55793,57958
31.56605,59315
31.57417,54526
31.58230,55500
31.59042,57428
31.59853,56729
31.60667,53497
31.61478,53846
31.62292,54091
31.63103,54052
31.63915,57350
31.64728,55245
31.65540,58624
31.66353,57375
31.67165,59484
31.67977,55754
31.68790,55115
31.69602,52507
31.70415,51125
31.71227,52711
31.72038,51866
31.72852,54718
31.73663,56454
31.74475,50003
31.75288,53088
31.76100,54039
31.76913,58576
31.77725,52052
31.78537,54129
31.79350,56747
31.80162,58494
31.80975,57742
31.81787,62755
31.82598,57588
31.83412,61338
31.84223,58505
31.85035,63467
31.85848,63856
31.86660,68501
31.87473,67431
31.88285,76398
31.89097,87348
31.89910,117164
31.90722,141681
31.91535,179352
31.92347,219157
31.93158,256360
31.93972,314696
31.94783,347599
31.95597,369911
31.96408,401805
31.97220,422043
31.98033,429822
31.98845,435412
31.99657,441311
32.00470,419790
32.01282,394630
32.02095,381856
32.02907,344626
32.03718,330299
32.04532,308681
32.05343,289820
32.06157,271324
32.06968,260807
32.07780,252164
32.08593,232040
32.09405,220793
32.10217,201308
32.11030,179986
32.11842,169490
32.12655,153997
32.13467,148879
32.14278,141860
32.15092,137406
32.15903,130268
32.16717,132501
32.17528,122022
32.18340,113285
32.19153,111950
32.19965,107812
32.20778,105877
32.21590,103856
32.22402,100466
32.23215,103731
32.24027,97934
32.24838,97503
32.25652,96071
32.26463,95427
32.27277,90058
32.28088,89984
32.28900,90086
32.29713,87205
32.30525,81042
32.31338,84193
32.32150,80593
32.32962,78704
32.33775,78379
32.34587,81598
32.35400,83400
32.36212,84350
32.37023,76693
32.37837,75046
32.38648,79825
32.39460,77801
32.40273,72478
32.41085,73241
32.41898,76828
32.42710,72264
32.43522,69816
32.44335,75489
32.45147,73700
32.45960,77529
32.46772,69411
32.47583,66567
32.48397,68340
32.49208,65032
32.50020,68870
32.50833,70797
32.51645,62430
32.52458,68928
32.53270,67295
32.54082,68334
32.54895,66932
32.55707,68321
32.56520,68934
32.57332,66990
32.58143,66391
32.58957,68307
32.59768,66069
32.60582,65675
32.61393,63288
32.62205,66581
32.63018,65933
32.63830,71482
32.64642,86361
32.65455,92537
32.66267,114272
32.67080,123768
32.67892,127950
32.68703,121697
32.69517,110231
32.70328,90850
32.71142,86544
32.71953,82042
32.72765,76357
32.73578,79556
32.74390,73085
32.75203,76915
32.76015,72132
32.76827,67458
32.77640,65567
32.78452,67487
32.79263,60934
32.80077,64151
32.80888,61692
32.81702,59074
32.82513,66284
32.83325,59379
32.84138,58514
32.84950,59717
32.85763,58280
32.86575,61902
32.87387,63452
32.88200,64342
32.89012,60234
32.89823,61460
32.90637,66112
32.91448,66170
32.92262,66017
32.93073,64052
32.93885,58036
32.94698,62668
32.95510,62535
32.96323,62319
32.97135,63023
32.97947,58082
32.98760,60994
32.99572,63214
33.00385,59484
33.01197,61844
33.02008,58959
33.02822,58409
33.03633,57380
33.04445,60614
33.05258,60713
33.06070,56621
33.06883,57529
33.07695,57204
33.08507,61030
33.09320,60368
33.10132,61839
33.10945,68771
33.11757,71206
33.12568,76837
33.13382,74662
33.14193,71687
33.15005,72052
33.15818,64998
33.16630,67828
33.17443,60206
33.18255,60895
33.19067,62323
33.19880,66565
33.20692,72463
33.21505,68324
33.22317,63507
33.23128,67678
33.23942,62228
33.24753,62640
33.25567,62158
33.26378,61198
33.27190,61904
33.28003,59264
33.28815,60893
33.29627,59776
33.30440,58797
33.31252,64847
33.32065,60841
33.32877,60131
33.33688,59244
33.34502,59074
33.35313,61225
33.36127,58229
33.36938,53882
33.37750,59159
33.38563,63609
33.39375,63052
33.40188,59327
33.41000,56886
33.41812,56627
33.42625,60799
33.43437,54509
33.44248,55506
33.45062,57292
33.45873,58134
33.46687,57992
33.47498,62610
33.48310,56594
33.49123,57070
33.49935,63615
33.50748,56914
33.51560,60136
33.52372,57359
33.53185,53579
33.53997,60577
33.54808,62724
33.55622,57208
33.56433,57536
33.57247,58526
33.58058,54011
33.58870,56136
33.59683,57972
33.60495,60656
33.61308,57902
33.62120,55131
33.62932,56594
33.63745,54338
33.64557,61167
33.65370,58364
33.66182,56113
33.66993,58775
33.67807,52344
33.68618,58101
33.69430,56159
33.70243,54409
33.71055,54145
33.71868,57336
33.72680,51691
33.73492,52855
33.74305,56491
33.75117,52656
33.75930,54403
33.76742,58435
33.77553,55463
33.78367,56643
33.79178,53499
33.79992,52494
33.80803,55957
33.81615,56409
33.82428,58447
33.83240,56213
33.84052,62000
33.84865,62535
33.85677,60901
33.86490,56610
33.87302,59531
33.88113,56660
33.88927,59953
33.89738,55259
33.90552,57323
33.91363,59727
33.92175,58628
33.92988,64310
33.93800,63653
33.94612,60293
33.95425,59381
33.96237,58005
33.97050,61510
33.97862,50907
33.98673,55450
33.99487,55375
34.00298,56697
34.01112,53959
34.01923,54980
34.02735,50060
34.03548,57697
34.04360,56799
34.05173,53847
34.05985,54388
34.06797,59015
34.07610,51959
34.08422,54546
34.09233,54020
34.10047,55673
34.10858,54517
34.11672,54994
34.12483,54502
34.13295,56484
34.14108,54983
34.14920,55459
34.15733,54729
34.16545,54557
34.17357,53643
34.18170,56856
34.18982,53297
34.19795,56093
34.20607,57322
34.21418,52111
34.22232,54827
34.23043,53363
34.23855,55866
34.24668,56299
34.25480,58559
34.26293,52794
34.27105,57085
34.27917,59595
34.28730,56588
34.29542,58302
34.30355,55028
34.31167,53141
34.31978,53442
34.32792,59724
34.33603,56648
34.34415,54586
34.35228,59752
34.36040,58336
34.36853,58311
34.37665,58331
34.38477,59059
34.39290,56206
34.40102,58030
34.40915,53984
34.41727,61377
34.42538,57047
34.43352,56441
34.44163,54837
34.44977,53385
34.45788,55525
34.46600,54576
34.47413,58063
34.48225,59397
34.49037,69513
34.49850,81974
34.50662,112475
34.51475,148064
34.52287,204876
34.53098,269032
34.53912,325430
34.54723,359927
34.55537,385058
34.56348,391026
34.57160,386297
34.57973,349454
34.58785,303533
34.59597,277622
34.60410,244087
34.61222,217609
34.62035,200849
34.62847,180367
34.63658,167940
34.64472,156259
34.65283,144327
34.66097,137199
34.66908,123964
34.67720,129729
34.68533,126045
34.69345,118783
34.70158,107526
34.70970,111150
34.71782,107911
34.72595,104565
34.73407,106700
34.74218,101182
34.75032,98127
34.75843,99577
34.76657,92921
34.77468,88591
34.78280,89228
34.79093,93428
34.79905,88778
34.80718,87791
34.81530,92546
34.82342,87056
34.83155,86053
34.83967,84714
34.84780,88014
34.85592,84301
34.86403,79545
34.87217,86314
34.88028,87175
34.88840,83511
34.89653,80512
34.90465,81552
34.91278,87395
34.92090,87236
34.92902,85752
34.93715,85006
34.94527,84582
34.95340,87272
34.96152,87998
34.96963,88627
34.97777,82927
34.98588,84295
34.99400,83672
35.00213,83167
35.01025,77721
35.01838,79787
35.02650,79965
35.03462,85835
35.04275,76329
35.05087,76537
35.05900,70699
35.06712,73511
35.07523,74688
35.08337,72004
35.09148,76968
35.09962,73683
35.10773,73452
35.11585,78087
35.12398,69820
35.13210,76200
35.14022,73972
35.14835,80017
35.15647,77868
35.16460,80229
35.17272,83903
35.18083,76531
35.18897,77119
35.19708,71150
35.20522,73070
35.21333,71530
35.22145,69661
35.22958,70213
35.23770,73008
35.24583,79575
35.25395,66331
35.26207,67526
35.27020,75013
35.27832,71541
35.28643,74739
35.29457,70758
35.30268,67640
35.31082,73307
35.31893,65845
35.32705,67472
35.33518,69985
35.34330,64892
35.35143,65301
35.35955,66683
35.36767,63306
35.37580,69752
35.38392,69854
35.39203,61338
35.40017,64955
35.40828,65635
35.41642,65410
35.42453,71348
35.43265,66837
35.44078,70202
35.44890,70153
35.45703,74706
35.46515,71342
35.47327,69960
35.48140,71273
35.48952,73080
35.49765,73968
35.50577,70979
35.51388,70389
35.52202,70988
35.53013,67272
35.53825,67510
35.54638,68029
35.55450,73341
35.56263,70357
35.57075,69370
35.57887,69408
35.58700,66573
35.59512,70228
35.60325,71196
35.61137,70293
35.61948,68669
35.62762,70725
35.63573,64901
35.64385,66004
35.65198,70219
35.66010,76490
35.66823,78276
35.67635,79522
35.68447,85700
35.69260,81037
35.70072,82030
35.70885,76791
35.71697,71485
35.72508,68335
35.73322,68005
35.74133,71493
35.74947,68125
35.75758,71119
35.76570,67232
35.77383,69529
35.78195,73338
35.79007,72047
35.79820,66780
35.80632,73670
35.81445,66955
35.82257,73061
35.83068,72784
35.83882,71953
35.84693,72214
35.85507,68659
35.86318,69739
35.87130,73189
35.87943,71954
35.88755,66527
35.89568,67935
35.90380,68781
35.91192,60531
35.92005,67567
35.92817,64917
35.93628,62101
35.94442,68424
35.95253,65849
35.96067,61730
35.96878,67622
35.97690,68336
35.98503,62997
35.99315,66765
36.00128,68886
36.00940,74039
36.01752,73760
36.02565,71253
36.03377,77113
36.04188,70920
36.05002,72176
36.05813,74326
36.06627,70843
36.07438,72996
36.08250,69205
36.09063,67592
36.09875,71476
36.10688,67375
36.11500,68501
36.12312,65127
36.13125,75657
36.13937,68260
36.14750,67669
36.15562,72435
36.16373,69867
36.17187,73755
36.17998,67653
36.18810,65096
36.19623,71413
36.20435,66444
36.21248,67005
36.22060,66894
36.22872,61917
36.23685,67317
36.24497,69064
36.25310,70188
36.26122,71297
36.26933,71861
36.27747,76301
36.28558,78094
36.29372,91624
36.30183,104554
36.30995,128570
36.31808,132747
36.32620,127771
36.33432,116728
36.34245,110451
36.35057,101976
36.35870,91744
36.36682,93457
36.37493,87748
36.38307,80445
36.39118,83945
36.39932,81288
36.40743,83264
36.41555,80074
36.42368,76557
36.43180,72899
36.43992,72993
36.44805,73233
36.45617,73141
36.46430,75653
36.47242,74497
36.48053,71757
36.48867,72084
36.49678,74991
36.50492,70760
36.51303,70251
36.52115,75898
36.52928,71820
36.53740,71310
36.54553,72598
36.55365,68507
36.56177,72164
36.56990,75052
36.57802,79514
36.58613,77866
36.59427,74560
36.60238,71487
36.61052,73139
36.61863,71092
36.62675,77789
36.63488,70526
36.64300,75998
36.65113,75947
36.65925,77268
36.66737,80205
36.67550,77624
36.68362,78219
36.69173,76230
36.69987,74176
36.70798,74594
36.71612,76388
36.72423,74998
36.73235,74258
36.74048,78470
36.74860,70972
36.75673,78571
36.76485,75685
36.77297,75901
36.78110,71837
36.78922,73059
36.79735,74602
36.80547,72811
36.81358,75894
36.82172,74280
36.82983,73878
36.83795,75122
36.84608,78812
36.85420,80456
36.86233,82213
36.87045,84413
36.87857,83532
36.88670,87922
36.89482,94448
36.90295,90390
36.91107,101977
36.91918,103515
36.92732,105518
36.93543,111069
36.94357,110895
36.95168,116335
36.95980,111572
36.96793,120223
36.97605,113952
36.98417,111653
36.99230,101929
37.00042,105650
37.00855,99149
37.01667,91715
37.02478,93221
37.03292,94242
37.04103,87181
37.04917,87089
37.05728,81783
37.06540,77077
37.07353,81859
37.08165,76759
37.08978,74504
37.09790,82308
37.10602,75568
37.11415,77193
37.12227,78344
37.13038,78185
37.13852,76403
37.14663,75833
37.15477,74468
37.16288,73031
37.17100,79638
37.17913,73198
37.18725,73580
37.19538,79217
37.20350,76078
37.21162,77923
37.21975,78408
37.22787,77191
37.23598,76713
37.24412,72677
37.25223,77720
37.26037,80393
37.26848,78742
37.27660,73559
37.28473,77163
37.29285,76585
37.30098,79261
37.30910,99421
37.31722,124095
37.32535,158679
37.33347,200519
37.34160,240767
37.34972,277771
37.35783,287684
37.36597,283014
37.37408,269599
37.38220,250975
37.39033,221263
37.39845,208295
37.40658,180963
37.41470,167065
37.42282,161303
37.43095,150013
37.43907,145812
37.44720,144375
37.45532,140103
37.46343,127151
37.47157,132110
37.47968,128280
37.48780,122709
