Z:\data\JTB-E02\BACandBLUE\JTB-E02-204-17.D Sat Mar 09 15:59:29 2019
Start of data points
2.09532,56808
2.10345,58540
2.11157,62364
2.11968,57879
2.12782,60832
2.13593,63042
2.14407,64603
2.15218,59300
2.16030,58328
2.16843,52126
2.17655,54245
2.18468,54480
2.19280,60000
2.20092,53361
2.20905,47448
2.21717,49777
2.22528,48502
2.23342,49708
2.24153,48441
2.24967,47701
2.25778,90973
2.26590,567490
2.27403,1465737
2.28215,1405257
2.29028,747429
2.29840,478354
2.30652,376049
2.31465,324954
2.32277,281325
2.33088,248994
2.33902,229930
2.34713,202364
2.35527,190131
2.36338,188319
2.37150,173425
2.37963,165111
2.38775,162138
2.39588,155577
2.40400,153671
2.41212,156649
2.42025,147733
2.42837,139918
2.43650,137431
2.44462,137501
2.45273,127756
2.46087,124424
2.46898,123155
2.47710,117432
2.48523,127476
2.49335,135898
2.50148,124388
2.50960,125355
2.51772,121127
2.52585,109449
2.53397,116262
2.54210,131609
2.55022,200740
2.55833,362522
2.56647,379588
2.57458,258945
2.58272,214145
2.59083,208902
2.59895,391934
2.60708,955634
2.61520,1168523
2.62332,787351
2.63145,515896
2.63957,384190
2.64770,310017
2.65582,255310
2.66393,228546
2.67207,203181
2.68018,181752
2.68832,168616
2.69643,165518
2.70455,154525
2.71268,139026
2.72080,135151
2.72892,143229
2.73705,133001
2.74517,133190
2.75330,123485
2.76142,120182
2.76953,198575
2.77767,637188
2.78578,1164321
2.79392,998059
2.80203,596000
2.81015,443173
2.81828,374198
2.82640,344203
2.83453,312861
2.84265,259852
2.85077,233908
2.85890,218947
2.86702,199884
2.87513,186855
2.88327,180771
2.89138,167441
2.89952,160376
2.90763,150795
2.91575,144163
2.92388,138897
2.93200,135873
2.94013,127705
2.94825,125010
2.95637,136790
2.96450,130503
2.97262,129155
2.98073,126250
2.98887,121553
2.99698,123056
3.00512,141644
3.01323,129928
3.02135,129738
3.02948,115777
3.03760,115105
3.04573,113081
3.05385,116126
3.06197,118413
3.07010,134046
3.07822,328208
3.08635,1041527
3.09447,2327678
3.10258,4498729
3.11072,6085277
3.11883,5112194
3.12695,3374017
3.13508,2489442
3.14320,1968829
3.15133,1604213
3.15945,1358541
3.16757,1195747
3.17570,1106980
3.18382,1307846
3.19195,1791338
3.20007,1846158
3.20818,1421923
3.21632,1122937
3.22443,974209
3.23257,855837
3.24068,748547
3.24880,670924
3.25693,620205
3.26505,553198
3.27317,508602
3.28130,551716
3.28942,984856
3.29755,2523622
3.30567,5059101
3.31378,6473193
3.32192,5733619
3.33003,4203561
3.33817,3041163
3.34628,2377684
3.35440,1929008
3.36253,1683589
3.37065,1443124
3.37877,1284795
3.38690,1157752
3.39502,1059323
3.40315,960886
3.41127,891024
3.41938,834155
3.42752,768027
3.43563,741154
3.44377,693389
3.45188,647581
3.46000,643823
3.46813,631031
3.47625,636973
3.48438,592178
3.49250,559817
3.50062,528302
3.50875,502551
3.51687,477196
3.52498,459706
3.53312,471415
3.54123,466696
3.54937,442851
3.55748,426833
3.56560,409270
3.57373,400678
3.58185,379947
3.58998,358488
3.59810,355114
3.60622,357218
3.61435,359586
3.62247,363928
3.63060,364572
3.63872,359951
3.64683,360076
3.65497,498051
3.66308,1744498
3.67120,5911338
3.67933,1.068603E+07
3.68745,1.063647E+07
3.69558,7203635
3.70370,4664896
3.71182,3523412
3.71995,2869525
3.72807,2440007
3.73620,2181094
3.74432,1929381
3.75243,1742505
3.76057,1612311
3.76868,1505349
3.77680,1382550
3.78493,1294031
3.79305,1312108
3.80118,1683314
3.80930,2853494
3.81742,3972168
3.82555,3775354
3.83367,2803957
3.84180,2150457
3.84992,1796188
3.85803,1574526
3.86617,1419912
3.87428,1306290
3.88242,1226820
3.89053,1147600
3.89865,1095198
3.90678,1057200
3.91490,1040806
3.92302,1148367
3.93115,1222322
3.93927,1191407
3.94740,1268862
3.95552,1903050
3.96363,2749778
3.97177,3031227
3.97988,2392980
3.98802,1810918
3.99613,2207842
4.00425,4335377
4.01238,7283598
4.02050,7885653
4.02863,5808160
4.03675,3619745
4.04487,2364597
4.05300,1769005
4.06112,1465388
4.06923,1261573
4.07737,1116337
4.08548,1015658
4.09362,925100
4.10173,850695
4.10985,806041
4.11798,749889
4.12610,717141
4.13423,708599
4.14235,729704
4.15047,743450
4.15860,729763
4.16672,710653
4.17483,720296
4.18297,694540
4.19108,640980
4.19922,628049
4.20733,1067900
4.21545,3165240
4.22358,8375526
4.23170,1.432668E+07
4.23983,1.734491E+07
4.24795,1.576459E+07
4.25607,1.141079E+07
4.26420,7870365
4.27232,5750431
4.28045,4361979
4.28857,3389811
4.29668,2764509
4.30482,2287368
4.31293,1951821
4.32105,1667583
4.32918,1479047
4.33730,1303663
4.34543,1187617
4.35355,1115298
4.36167,1090286
4.36980,1064597
4.37792,989322
4.38605,903221
4.39417,787319
4.40228,740257
4.41042,701018
4.41853,669293
4.42665,625029
4.43478,599705
4.44290,565226
4.45103,547350
4.45915,525115
4.46727,510970
4.47540,489202
4.48352,473808
4.49165,465939
4.49977,469367
4.50788,444598
4.51602,433843
4.52413,431200
4.53227,409695
4.54038,423236
4.54850,415474
4.55663,418532
4.56475,390924
4.57287,380378
4.58100,373344
4.58912,361043
4.59725,356126
4.60537,347397
4.61348,359921
4.62162,391578
4.62973,511121
4.63787,691989
4.64598,795133
4.65410,739240
4.66223,588575
4.67035,486221
4.67848,434489
4.68660,423249
4.69472,382827
4.70285,371457
4.71097,356229
4.71908,361925
4.72722,354198
4.73533,349257
4.74347,322533
4.75158,307940
4.75970,303826
4.76783,296313
4.77595,321920
4.78408,460462
4.79220,1096540
4.80032,2438988
4.80845,3697386
4.81657,3753725
4.82468,2818562
4.83282,2012036
4.84093,1568759
4.84907,1351503
4.85718,1168834
4.86530,1015508
4.87343,904047
4.88155,816827
4.88968,752430
4.89780,685611
4.90592,647984
4.91405,611514
4.92217,581677
4.93030,557503
4.93842,627985
4.94653,886102
4.95467,1438822
4.96278,2247648
4.97090,2711757
4.97903,2655658
4.98715,2218314
4.99528,1740723
5.00340,1392706
5.01152,1163638
5.01965,1023222
5.02777,973365
5.03590,1023894
5.04402,1038679
5.05213,1001245
5.06027,913646
5.06838,803798
5.07652,752252
5.08463,679310
5.09275,660363
5.10088,627844
5.10900,596374
5.11712,567390
5.12525,539787
5.13337,526919
5.14150,531543
5.14962,543089
5.15773,585889
5.16587,648495
5.17398,672012
5.18212,628514
5.19023,589329
5.19835,580162
5.20648,593803
5.21460,612566
5.22272,588616
5.23085,544248
5.23897,517526
5.24710,500228
5.25522,468009
5.26333,441309
5.27147,414194
5.27958,386744
5.28772,374404
5.29583,367525
5.30395,362814
5.31208,353974
5.32020,361162
5.32833,376005
5.33645,406320
5.34457,414738
5.35270,430317
5.36082,393199
5.36893,350543
5.37707,346572
5.38518,347379
5.39332,349916
5.40143,360786
5.40955,359212
5.41768,339975
5.42580,321790
5.43393,324604
5.44205,308681
5.45017,323926
5.45830,323414
5.46642,320134
5.47453,309593
5.48267,290713
5.49078,275745
5.49892,278997
5.50703,282654
5.51515,275709
5.52328,286049
5.53140,287687
5.53953,282792
5.54765,282820
5.55577,317843
5.56390,409793
5.57202,517078
5.58015,600170
5.58827,598947
5.59638,522397
5.60452,423338
5.61263,359533
5.62075,328294
5.62888,311797
5.63700,300719
5.64513,298123
5.65325,287486
5.66137,281292
5.66950,270048
5.67762,290792
5.68575,331201
5.69387,383982
5.70198,400734
5.71012,397256
5.71823,331451
5.72637,303968
5.73448,277947
5.74260,259904
5.75073,250844
5.75885,246344
5.76697,243291
5.77510,225392
5.78322,226344
5.79135,224126
5.79947,224295
5.80758,209383
5.81572,213408
5.82383,219723
5.83197,209660
5.84008,213641
5.84820,214694
5.85633,208235
5.86445,211653
5.87257,206396
5.88070,205708
5.88882,197891
5.89695,206530
5.90507,201337
5.91318,193850
5.92132,203690
5.92943,188158
5.93757,182270
5.94568,179430
5.95380,198711
5.96193,222310
5.97005,272800
5.97818,333795
5.98630,397652
5.99442,444059
6.00255,411990
6.01067,372229
6.01878,294852
6.02692,252788
6.03503,232031
6.04317,208725
6.05128,195953
6.05940,186869
6.06753,188684
6.07565,181874
6.08378,178802
6.09190,180156
6.10002,185856
6.10815,210191
6.11627,233732
6.12440,267416
6.13252,325999
6.14063,434669
6.14877,525252
6.15688,537105
6.16500,443305
6.17313,359748
6.18125,300966
6.18938,261811
6.19750,250449
6.20562,243272
6.21375,233973
6.22187,220902
6.23000,216963
6.23812,213686
6.24623,218897
6.25437,219032
6.26248,221738
6.27060,229331
6.27873,221997
6.28685,210401
6.29498,200664
6.30310,200438
6.31122,202660
6.31935,203906
6.32747,205005
6.33560,228995
6.34372,240352
6.35183,241117
6.35997,225547
6.36808,215817
6.37622,208894
6.38433,211594
6.39245,204261
6.40058,207558
6.40870,204726
6.41682,207217
6.42495,198625
6.43307,198237
6.44120,210104
6.44932,203694
6.45743,201549
6.46557,214558
6.47368,205323
6.48182,204974
6.48993,206436
6.49805,208763
6.50618,212198
6.51430,212404
6.52243,215412
6.53055,209944
6.53867,228603
6.54680,221858
6.55492,218842
6.56303,242929
6.57117,287274
6.57928,351643
6.58742,397285
6.59553,395044
6.60365,336580
6.61178,274025
6.61990,252053
6.62803,242517
6.63615,237734
6.64427,295999
6.65240,537337
6.66052,1195215
6.66863,2179513
6.67677,2826804
6.68488,2555702
6.69302,1792808
6.70113,1123403
6.70925,767655
6.71738,607197
6.72550,512112
6.73363,483371
6.74175,428330
6.74987,399848
6.75800,361637
6.76612,330442
6.77425,310152
6.78237,284012
6.79048,272578
6.79862,253546
6.80673,248776
6.81485,234528
6.82298,225211
6.83110,214979
6.83923,219427
6.84735,226416
6.85547,225195
6.86360,217760
6.87172,206883
6.87985,195465
6.88797,174840
6.89608,156891
6.90422,149781
6.91233,149739
6.92047,132752
6.92858,141013
6.93670,135083
6.94483,134538
6.95295,131697
6.96107,136487
6.96920,166756
6.97732,197698
6.98545,217598
6.99357,209862
7.00168,186982
7.00982,174213
7.01793,160495
7.02607,155487
7.03418,148536
7.04230,145566
7.05043,153800
7.05855,155089
7.06667,159897
7.07480,164692
7.08292,154092
7.09105,139564
7.09917,129526
7.10728,125085
7.11542,131007
7.12353,126652
7.13167,125257
7.13978,132371
7.14790,149664
7.15603,185861
7.16415,213389
7.17228,227995
7.18040,213639
7.18852,181355
7.19665,162325
7.20477,205373
7.21288,410038
7.22102,945945
7.22913,1877075
7.23727,2718791
7.24538,2839185
7.25350,2166288
7.26163,1409886
7.26975,861645
7.27788,550370
7.28600,343615
7.29412,222064
7.30225,161923
7.31037,138194
7.31848,136818
7.32662,137976
7.33473,141590
7.34287,135860
7.35098,135611
7.35910,129901
7.36723,124673
7.37535,121376
7.38348,123455
7.39160,124606
7.39972,121967
7.40785,119292
7.41597,118981
7.42410,109416
7.43222,110078
7.44033,115812
7.44847,114821
7.45658,108689
7.46470,110492
7.47283,107945
7.48095,110532
7.48908,99641
7.49720,100683
7.50532,99982
7.51345,112828
7.52157,144876
7.52970,229209
7.53782,377819
7.54593,601296
7.55407,879805
7.56218,1036809
7.57032,1063874
7.57843,936484
7.58655,718839
7.59468,504932
7.60280,349096
7.61092,249081
7.61905,197010
7.62717,168089
7.63530,142078
7.64342,131619
7.65153,125869
7.65967,114557
7.66778,108695
7.67592,102203
7.68403,99844
7.69215,98335
7.70028,96768
7.70840,104790
7.71652,100729
7.72465,95930
7.73277,95550
7.74090,93480
7.74902,93177
7.75713,108021
7.76527,99404
7.77338,104759
7.78152,103824
7.78963,110296
7.79775,115619
7.80588,129140
7.81400,131927
7.82213,131552
7.83025,121081
7.83837,107934
7.84650,104581
7.85462,105966
7.86273,109959
7.87087,111641
7.87898,138655
7.88712,168119
7.89523,173192
7.90335,161562
7.91148,151159
7.91960,142811
7.92773,164069
7.93585,248955
7.94397,344093
7.95210,425537
7.96022,427171
7.96835,359913
7.97647,255122
7.98458,188370
7.99272,146264
8.00083,119137
8.00895,109502
8.01708,98969
8.02520,96809
8.03333,95545
8.04145,92211
8.04957,94166
8.05770,91189
8.06582,86817
8.07395,92283
8.08207,84176
8.09018,83916
8.09832,79603
8.10643,77185
8.11455,82194
8.12268,79556
8.13080,85287
8.13893,96576
8.14705,104108
8.15517,116728
8.16330,117912
8.17142,119306
8.17955,102150
8.18767,95096
8.19578,87913
8.20392,84589
8.21203,79599
8.22017,75341
8.22828,78737
8.23640,78799
8.24453,74113
8.25265,76624
8.26077,74651
8.26890,69577
8.27702,67675
8.28515,76410
8.29327,83930
8.30138,77475
8.30952,81320
8.31763,88298
8.32577,88875
8.33388,91495
8.34200,85487
8.35013,79350
8.35825,78454
8.36637,79317
8.37450,78669
8.38262,82427
8.39075,85442
8.39887,81876
8.40698,78083
8.41512,73628
8.42323,74055
8.43137,72067
8.43948,71039
8.44760,70062
8.45573,70028
8.46385,67484
8.47198,72858
8.48010,70653
8.48822,72430
8.49635,73505
8.50447,72526
8.51258,78760
8.52072,114386
8.52883,249370
8.53697,571157
8.54508,1088736
8.55320,1546208
8.56133,1631538
8.56945,1349264
8.57758,877332
8.58570,479905
8.59382,274174
8.60195,201624
8.61007,169947
8.61820,161118
8.62632,149363
8.63443,142556
8.64257,129669
8.65068,119836
8.65880,110901
8.66693,111229
8.67505,108367
8.68318,104362
8.69130,108354
8.69942,102348
8.70755,109483
8.71567,103894
8.72380,95120
8.73192,95579
8.74003,97057
8.74817,91650
8.75628,93715
8.76440,104467
8.77253,149685
8.78065,242232
8.78878,393420
8.79690,531338
8.80502,567265
8.81315,534153
8.82127,413397
8.82940,321947
8.83752,270916
8.84563,221976
8.85377,214729
8.86188,208210
8.87002,208459
8.87813,207070
8.88625,190730
8.89438,190494
8.90250,173160
8.91062,162746
8.91875,165550
8.92687,163363
8.93500,167942
8.94312,191014
8.95123,198766
8.95937,197490
8.96748,188705
8.97562,176698
8.98373,171217
8.99185,163546
8.99998,167614
9.00810,155581
9.01623,146965
9.02435,137228
9.03247,127094
9.04060,122750
9.04872,125736
9.05683,113394
9.06497,115830
9.07308,117031
9.08122,116539
9.08933,118871
9.09745,127929
9.10558,145518
9.11370,153628
9.12183,162408
9.12995,170075
9.13807,160565
9.14620,140066
9.15432,122738
9.16243,125084
9.17057,116304
9.17868,117525
9.18682,110980
9.19493,99544
9.20305,104897
9.21118,100354
9.21930,104947
9.22743,99449
9.23555,106211
9.24367,104254
9.25180,104814
9.25992,105086
9.26805,107317
9.27617,95871
9.28428,98721
9.29242,102899
9.30053,92365
9.30865,88998
9.31678,89559
9.32490,92453
9.33303,94423
9.34115,84331
9.34927,98629
9.35740,84384
9.36552,85667
9.37365,84591
9.38177,87809
9.38988,90681
9.39802,93910
9.40613,90631
9.41427,100890
9.42238,116436
9.43050,135262
9.43863,148100
9.44675,152282
9.45487,148884
9.46300,140946
9.47112,122709
9.47925,111257
9.48737,99904
9.49548,97512
9.50362,92838
9.51173,101503
9.51987,113020
9.52798,115284
9.53610,124005
9.54423,124266
9.55235,118814
9.56047,103539
9.56860,98007
9.57672,100078
9.58485,108632
9.59297,117174
9.60108,122143
9.60922,112594
9.61733,96625
9.62547,83756
9.63358,73322
9.64170,67647
9.64983,68439
9.65795,63843
9.66608,61509
9.67420,65427
9.68232,63626
9.69045,67130
9.69857,61426
9.70668,57991
9.71482,57735
9.72293,57943
9.73107,61821
9.73918,57651
9.74730,62586
9.75543,62512
9.76355,59306
9.77168,56259
9.77980,54858
9.78792,55166
9.79605,59731
9.80417,60006
9.81228,52999
9.82042,53277
9.82853,55674
9.83667,58362
9.84478,56439
9.85290,54487
9.86103,57404
9.86915,57730
9.87728,56590
9.88540,58432
9.89352,58913
9.90165,56154
9.90977,51950
9.91790,59874
9.92602,60263
9.93413,66745
9.94227,74273
9.95038,97215
9.95850,108759
9.96663,113124
9.97475,112745
9.98288,98448
9.99100,89350
9.99912,80828
10.00725,79186
10.01537,76991
10.02350,85474
10.03162,83340
10.03973,71857
10.04787,73342
10.05598,67287
10.06412,71633
10.07223,68064
10.08035,73180
10.08848,71734
10.09660,70156
10.10472,75419
10.11285,75719
10.12097,71934
10.12910,66431
10.13722,63331
10.14533,60826
10.15347,62042
10.16158,55510
10.16972,59429
10.17783,59022
10.18595,55914
10.19408,58425
10.20220,54073
10.21032,52229
10.21845,56510
10.22657,61325
10.23470,59534
10.24282,71173
10.25093,70886
10.25907,95833
10.26718,177239
10.27532,423395
10.28343,1021974
10.29155,2122956
10.29968,3589989
10.30780,5505660
10.31593,8101881
10.32405,1.213678E+07
10.33217,1.820922E+07
10.34030,2.510741E+07
10.34842,3.018902E+07
10.35653,3.011684E+07
10.36467,2.313287E+07
10.37278,1.329678E+07
10.38092,6383953
10.38903,3237976
10.39715,1992220
10.40528,1412992
10.41340,1063199
10.42153,864261
10.42965,759033
10.43777,657709
10.44590,619147
10.45402,555886
10.46215,529762
10.47027,495124
10.47838,475230
10.48652,431664
10.49463,394891
10.50275,367953
10.51088,343329
10.51900,348613
10.52713,358876
10.53525,396914
10.54337,438471
10.55150,442978
10.55962,420880
10.56775,370353
10.57587,323690
10.58398,266886
10.59212,254360
10.60023,247685
10.60835,238924
10.61648,214349
10.62460,208318
10.63273,194271
10.64085,193647
10.64897,189674
10.65710,174211
10.66522,169319
10.67335,170004
10.68147,161759
10.68958,163078
10.69772,160281
10.70583,160013
10.71397,154595
10.72208,150166
10.73020,153356
10.73833,139042
10.74645,144459
10.75457,139506
10.76270,144054
10.77082,137136
10.77895,137052
10.78707,126470
10.79518,128094
10.80332,128467
10.81143,124674
10.81957,131347
10.82768,125591
10.83580,121886
10.84393,112025
10.85205,111145
10.86017,107120
10.86830,108023
10.87642,108791
10.88455,103178
10.89267,99740
10.90078,107496
10.90892,96363
10.91703,95450
10.92517,100176
10.93328,100693
10.94140,90263
10.94953,91293
10.95765,87811
10.96578,89362
10.97390,96256
10.98202,94026
10.99015,86141
10.99827,86837
11.00638,97052
11.01452,86661
11.02263,85257
11.03077,83181
11.03888,80803
11.04700,76990
11.05513,81371
11.06325,77816
11.07138,87867
11.07950,84607
11.08762,85586
11.09575,87611
11.10387,88084
11.11200,81240
11.12012,77724
11.12823,75999
11.13637,65229
11.14448,64489
11.15260,62287
11.16073,67143
11.16885,69023
11.17698,68387
11.18510,66175
11.19322,71038
11.20135,81728
11.20947,77087
11.21760,74648
11.22572,73010
11.23383,65173
11.24197,58265
11.25008,53570
11.25822,54847
11.26633,55075
11.27445,54181
11.28258,58294
11.29070,63039
11.29882,67378
11.30695,81715
11.31507,134415
11.32320,222830
11.33132,363385
11.33943,527362
11.34757,662900
11.35568,688319
11.36382,597675
11.37193,450920
11.38005,312404
11.38818,223292
11.39630,169330
11.40442,154719
11.41255,144429
11.42067,133944
11.42880,132029
11.43692,121802
11.44503,110357
11.45317,104009
11.46128,99978
11.46942,101360
11.47753,110279
11.48565,124758
11.49378,158159
11.50190,189038
11.51003,209852
11.51815,200581
11.52627,189266
11.53440,152579
11.54252,145026
11.55063,135530
11.55877,140284
11.56688,132210
11.57502,117398
11.58313,101222
11.59125,98445
11.59938,106495
11.60750,123906
11.61563,148105
11.62375,171744
11.63187,186518
11.64000,180025
11.64812,157943
11.65623,120714
11.66437,98858
11.67248,84584
11.68062,81902
11.68873,77053
11.69685,84127
11.70498,78885
11.71310,77592
11.72123,82177
11.72935,78309
11.73747,78327
11.74560,71832
11.75372,68228
11.76185,65884
11.76997,70240
11.77808,66838
11.78622,64598
11.79433,65149
11.80245,58293
11.81058,62116
11.81870,59095
11.82683,58415
11.83495,55000
11.84307,62136
11.85120,59168
11.85932,59582
11.86745,54211
11.87557,59055
11.88368,51781
11.89182,53230
11.89993,56779
11.90807,54272
11.91618,54151
11.92430,60170
11.93243,65652
11.94055,69454
11.94867,64092
11.95680,61787
11.96492,57732
11.97305,55947
11.98117,55931
11.98928,56759
11.99742,63689
12.00553,77471
12.01367,83132
12.02178,88537
12.02990,95316
12.03803,83176
12.04615,71055
12.05427,61824
12.06240,63233
12.07052,60648
12.07865,63633
12.08677,60169
12.09488,55764
12.10302,63051
12.11113,75211
12.11927,100486
12.12738,133295
12.13550,168090
12.14363,173005
12.15175,163298
12.15988,140463
12.16800,110423
12.17612,88593
12.18425,79978
12.19237,68913
12.20048,69172
12.20862,66491
12.21673,73516
12.22487,67427
12.23298,67269
12.24110,66514
12.24923,63226
12.25735,60012
12.26548,65001
12.27360,59256
12.28172,61854
12.28985,60997
12.29797,59875
12.30610,60175
12.31422,56950
12.32233,61020
12.33047,58233
12.33858,54171
12.34670,52909
12.35483,55296
12.36295,52794
12.37108,59523
12.37920,54958
12.38732,56836
12.39545,52952
12.40357,62016
12.41170,71214
12.41982,90894
12.42793,116205
12.43607,126522
12.44418,129200
12.45230,119504
12.46043,100193
12.46855,92695
12.47668,78209
12.48480,73424
12.49292,67891
12.50105,58468
12.50917,63044
12.51730,58743
12.52542,64776
12.53353,66962
12.54167,78017
12.54978,123732
12.55792,183300
12.56603,255138
12.57415,326291
12.58228,332723
12.59040,273662
12.59852,188666
12.60665,138245
12.61477,109185
12.62290,82456
12.63102,82024
12.63913,75041
12.64727,68186
12.65538,64929
12.66352,59589
12.67163,64186
12.67975,57470
12.68788,56941
12.69600,53450
12.70412,59925
12.71225,61871
12.72037,65365
12.72850,64841
12.73662,72736
12.74473,80229
12.75287,78225
12.76098,69248
12.76912,69746
12.77723,63677
12.78535,58307
12.79348,56644
12.80160,54469
12.80973,50752
12.81785,51590
12.82597,52610
12.83410,48598
12.84222,52085
12.85033,46138
12.85847,43567
12.86658,43725
12.87472,45200
12.88283,47306
12.89095,44466
12.89908,48500
12.90720,49482
12.91533,47383
12.92345,41615
12.93157,46625
12.93970,43478
12.94782,44672
12.95595,43952
12.96407,41178
12.97218,46915
12.98032,50167
12.98843,55418
12.99655,55113
13.00468,48545
13.01280,48144
13.02093,45001
13.02905,43047
13.03717,43837
13.04530,47029
13.05342,42783
13.06155,43082
13.06967,45063
13.07778,43823
13.08592,44439
13.09403,47868
13.10215,46547
13.11028,46098
13.11840,45727
13.12653,43991
13.13465,42740
13.14277,45565
13.15090,46146
13.15902,43872
13.16715,42367
13.17527,43739
13.18338,47807
13.19152,50005
13.19963,46866
13.20777,49545
13.21588,54750
13.22400,54475
13.23213,51998
13.24025,49324
13.24837,54126
13.25650,51675
13.26462,47014
13.27275,48672
13.28087,46900
13.28898,45341
13.29712,42851
13.30523,42841
13.31337,41763
13.32148,43711
13.32960,41587
13.33773,36844
13.34585,44622
13.35398,40677
13.36210,39730
13.37022,45023
13.37835,38655
13.38647,41104
13.39458,43132
13.40272,41003
13.41083,38979
13.41897,38117
13.42708,42527
13.43520,41337
13.44333,35546
13.45145,36275
13.45958,37420
13.46770,37079
13.47582,39711
13.48395,41459
13.49207,42278
13.50018,37628
13.50832,41225
13.51643,38217
13.52457,42846
13.53268,43224
13.54080,39838
13.54893,42484
13.55705,43199
13.56518,45151
13.57330,49067
13.58142,46793
13.58955,48400
13.59767,51906
13.60580,51995
13.61392,54549
13.62203,55731
13.63017,59248
13.63828,59188
13.64640,55248
13.65453,52494
13.66265,43648
13.67078,44203
13.67890,43906
13.68702,35091
13.69515,39377
13.70327,38462
13.71140,41227
13.71952,40961
13.72763,40850
13.73577,48151
13.74388,48701
13.75202,60543
13.76013,72302
13.76825,97785
13.77638,135792
13.78450,169227
13.79262,200559
13.80075,218933
13.80887,220903
13.81700,230905
13.82512,230866
13.83323,247155
13.84137,256798
13.84948,255133
13.85762,240924
13.86573,202108
13.87385,164461
13.88198,143900
13.89010,114083
13.89822,107035
13.90635,88543
13.91447,76607
13.92260,72869
13.93072,70872
13.93883,71345
13.94697,66713
13.95508,74944
13.96322,79234
13.97133,106645
13.97945,129406
13.98758,173094
13.99570,180539
14.00383,179397
14.01195,149655
14.02007,123172
14.02820,111853
14.03632,87319
14.04443,78419
14.05257,74147
14.06068,72109
14.06882,66541
14.07693,72625
14.08505,70580
14.09318,69971
14.10130,62588
14.10943,64350
14.11755,69388
14.12567,55485
14.13380,59516
14.14192,55554
14.15003,67048
14.15817,60937
14.16628,61903
14.17442,65019
14.18253,65174
14.19065,72479
14.19878,83267
14.20690,98380
14.21503,138906
14.22315,169417
14.23127,199679
14.23940,216620
14.24752,235177
14.25565,251274
14.26377,240937
14.27188,233248
14.28002,199949
14.28813,160859
14.29625,139086
14.30438,117789
14.31250,103646
14.32063,98083
14.32875,91770
14.33687,90252
14.34500,87700
14.35312,90471
14.36125,87190
14.36937,79047
14.37748,72362
14.38562,71331
14.39373,56480
14.40187,53527
14.40998,66429
14.41810,66128
14.42623,74107
14.43435,76004
14.44247,75454
14.45060,68346
14.45872,62764
14.46685,63352
14.47497,57053
14.48308,59828
14.49122,59187
14.49933,55466
14.50747,54050
14.51558,56033
14.52370,51256
14.53183,52823
14.53995,54335
14.54807,49457
14.55620,51548
14.56432,53592
14.57245,48939
14.58057,55058
14.58868,46976
14.59682,45951
14.60493,47178
14.61307,43845
14.62118,45100
14.62930,42748
14.63743,45954
14.64555,42787
14.65368,45359
14.66180,40049
14.66992,39072
14.67805,41532
14.68617,40779
14.69428,42371
14.70242,40189
14.71053,48549
14.71867,45163
14.72678,40791
14.73490,42187
14.74303,42425
14.75115,46479
14.75928,44650
14.76740,44239
14.77552,42637
14.78365,50988
14.79177,69089
14.79990,120511
14.80802,295593
14.81613,765986
14.82427,1635833
14.83238,2885268
14.84050,3777677
14.84863,4194277
14.85675,3592784
14.86488,2575635
14.87300,1657896
14.88112,1027701
14.88925,677000
14.89737,494581
14.90550,401240
14.91362,347498
14.92173,282253
14.92987,268215
14.93798,247527
14.94610,228359
14.95423,208359
14.96235,195327
14.97048,186252
14.97860,181356
14.98672,174436
14.99485,169759
15.00297,162504
15.01110,151357
15.01922,149554
15.02733,136377
15.03547,125125
15.04358,124651
15.05172,132344
15.05983,118996
15.06795,117265
15.07608,111813
15.08420,109427
15.09232,101572
15.10045,110007
15.10857,103754
15.11670,96480
15.12482,96166
15.13293,97500
15.14107,108607
15.14918,114161
15.15732,122277
15.16543,117028
15.17355,99221
15.18168,83034
15.18980,73919
15.19792,72520
15.20605,60281
15.21417,62111
15.22230,52939
15.23042,57816
15.23853,53343
15.24667,51828
15.25478,55338
15.26292,54104
15.27103,50248
15.27915,51029
15.28728,47630
15.29540,48611
15.30353,47686
15.31165,53083
15.31977,49028
15.32790,49817
15.33602,47682
15.34413,45579
15.35227,40364
15.36038,45151
15.36852,42617
15.37663,48306
15.38475,51488
15.39288,49111
15.40100,49616
15.40913,47288
15.41725,49021
15.42537,46947
15.43350,53978
15.44162,44257
15.44975,46482
15.45787,45758
15.46598,48453
15.47412,55286
15.48223,69760
15.49035,82349
15.49848,104056
15.50660,116672
15.51473,126428
15.52285,128726
15.53097,134967
15.53910,129491
15.54722,138674
15.55535,135984
15.56347,125132
15.57158,104159
15.57972,95248
15.58783,75459
15.59597,66170
15.60408,54037
15.61220,60161
15.62033,56745
15.62845,51297
15.63657,53771
15.64470,48107
15.65282,50944
15.66095,49779
15.66907,49892
15.67718,46871
15.68532,52570
15.69343,50575
15.70157,51057
15.70968,50011
15.71780,44511
15.72593,46337
15.73405,44967
15.74217,44198
15.75030,51309
15.75842,58965
15.76655,74787
15.77467,111734
15.78278,178815
15.79092,254687
15.79903,307316
15.80717,309519
15.81528,268054
15.82340,207869
15.83153,153489
15.83965,109456
15.84778,90526
15.85590,81421
15.86402,76216
15.87215,74599
15.88027,71287
15.88838,65972
15.89652,64572
15.90463,71443
15.91277,65348
15.92088,59582
15.92900,58528
15.93713,57160
15.94525,58334
15.95338,58421
15.96150,63581
15.96962,67183
15.97775,71164
15.98587,82569
15.99398,82077
16.00212,84146
16.01023,95357
16.01837,98798
16.02648,101413
16.03460,103308
16.04273,102681
16.05085,94150
16.05898,86157
16.06710,74552
16.07522,66880
16.08335,60429
16.09147,58495
16.09960,55520
16.10772,50666
16.11583,56178
16.12397,59089
16.13208,56237
16.14020,56523
16.14833,59368
16.15645,60678
16.16458,63535
16.17270,58584
16.18082,60812
16.18895,56463
16.19707,52744
16.20520,51919
16.21332,51174
16.22143,52930
16.22957,51205
16.23768,52313
16.24582,52127
16.25393,52439
16.26205,47273
16.27018,49114
16.27830,54831
16.28642,54337
16.29455,54727
16.30267,55602
16.31080,56920
16.31892,56904
16.32703,54863
16.33517,51555
16.34328,55113
16.35142,57334
16.35953,60969
16.36765,71060
16.37578,81688
16.38390,92251
16.39202,97133
16.40015,90798
16.40827,81746
16.41640,69112
16.42452,66204
16.43263,63591
16.44077,57526
16.44888,67322
16.45702,87643
16.46513,143942
16.47325,260611
16.48138,401292
16.48950,550257
16.49763,613999
16.50575,552458
16.51387,439191
16.52200,289261
16.53012,198055
16.53823,141064
16.54637,117339
16.55448,92449
16.56262,88529
16.57073,87489
16.57885,86152
16.58698,83148
16.59510,77372
16.60323,80169
16.61135,83112
16.61947,82241
16.62760,88336
16.63572,81970
16.64385,79775
16.65197,79470
16.66008,67980
16.66822,61528
16.67633,61783
16.68445,58896
16.69258,57472
16.70070,57061
16.70883,56201
16.71695,50953
16.72507,51558
16.73320,59646
16.74132,47456
16.74945,50842
16.75757,57439
16.76568,56714
16.77382,59077
16.78193,60809
16.79005,60242
16.79818,56185
16.80630,52199
16.81443,48824
16.82255,48505
16.83067,47885
16.83880,46924
16.84692,43046
16.85505,44035
16.86317,41423
16.87128,46356
16.87942,43285
16.88753,42926
16.89567,43880
16.90378,43580
16.91190,44504
16.92003,42831
16.92815,44877
16.93627,48814
16.94440,40506
16.95252,39759
16.96065,43457
16.96877,38449
16.97688,41277
16.98502,41439
16.99313,44514
17.00127,47543
17.00938,46560
17.01750,45933
17.02563,48729
17.03375,50691
17.04187,50963
17.05000,48462
17.05812,54428
17.06625,59373
17.07437,53396
17.08248,58285
17.09062,58054
17.09873,57737
17.10687,51086
17.11498,58209
17.12310,59381
17.13123,52405
17.13935,52065
17.14748,53330
17.15560,52980
17.16372,52293
17.17185,51916
17.17997,49530
17.18808,47407
17.19622,44595
17.20433,46171
17.21247,43541
17.22058,43111
17.22870,46635
17.23683,42313
17.24495,46504
17.25308,45188
17.26120,44042
17.26932,46448
17.27745,42213
17.28557,38334
17.29370,41551
17.30182,42688
17.30993,41695
17.31807,41179
17.32618,46836
17.33430,46613
17.34243,53418
17.35055,54441
17.35868,55896
17.36680,58205
17.37492,60605
17.38305,58191
17.39117,53943
17.39930,58861
17.40742,59018
17.41553,55987
17.42367,53474
17.43178,52625
17.43990,53063
17.44803,51753
17.45615,51512
17.46428,49746
17.47240,48419
17.48052,54201
17.48865,49677
17.49677,46746
17.50490,45072
17.51302,45013
17.52113,46055
17.52927,44553
17.53738,46769
17.54552,47052
17.55363,49366
17.56175,51274
17.56988,67917
17.57800,97677
17.58612,146721
17.59425,224214
17.60237,336122
17.61050,466158
17.61862,518983
17.62673,518111
17.63487,451794
17.64298,359313
17.65112,287383
17.65923,264862
17.66735,274108
17.67548,294205
17.68360,285319
17.69173,266193
17.69985,225995
17.70797,173065
17.71610,148816
17.72422,120356
17.73233,108680
17.74047,101538
17.74858,84682
17.75672,91488
17.76483,84617
17.77295,84676
17.78108,76898
17.78920,68508
17.79733,70574
17.80545,68985
17.81357,67577
17.82170,67918
17.82982,67384
17.83793,72556
17.84607,75293
17.85418,75941
17.86232,82151
17.87043,86692
17.87855,90074
17.88668,83502
17.89480,75756
17.90293,68898
17.91105,68373
17.91917,56343
17.92730,53360
17.93542,49209
17.94355,49533
17.95167,50019
17.95978,46808
17.96792,42960
17.97603,47634
17.98415,48314
17.99228,45705
18.00040,45448
18.00853,48984
18.01665,48495
18.02477,59160
18.03290,66377
18.04102,79998
18.04915,86076
18.05727,95290
18.06538,88216
18.07352,80651
18.08163,81492
18.08975,101362
18.09788,122804
18.10600,140275
18.11413,156440
18.12225,144533
18.13037,145799
18.13850,132961
18.14662,124189
18.15475,119415
18.16287,114529
18.17098,113990
18.17912,111052
18.18723,98518
18.19537,97336
18.20348,93201
18.21160,90221
18.21973,84445
18.22785,76859
18.23597,73710
18.24410,74592
18.25222,71833
18.26035,75055
18.26847,74815
18.27658,78008
18.28472,69058
18.29283,68470
18.30097,60518
18.30908,55807
18.31720,52235
18.32533,50451
18.33345,51388
18.34158,47972
18.34970,48699
18.35782,47430
18.36595,48038
18.37407,45940
18.38218,47690
18.39032,44849
18.39843,41546
18.40657,47858
18.41468,45590
18.42280,52291
18.43093,51681
18.43905,58478
18.44718,58820
18.45530,75536
18.46342,93746
18.47155,117063
18.47967,147743
18.48778,178668
18.49592,190652
18.50403,187047
18.51217,169496
18.52028,131740
18.52840,104172
18.53653,85405
18.54465,73518
18.55278,70179
18.56090,61480
18.56902,60224
18.57715,60763
18.58527,57326
18.59340,53867
18.60152,55198
18.60963,60110
18.61777,66236
18.62588,58186
18.63400,60773
18.64213,62303
18.65025,77892
18.65838,117266
18.66650,159269
18.67462,194576
18.68275,222081
18.69087,237598
18.69900,241679
18.70712,249569
18.71523,254472
18.72337,247688
18.73148,245713
18.73962,251525
18.74773,267633
18.75585,256685
18.76398,250475
18.77210,259328
18.78022,252628
18.78835,244423
18.79647,251779
18.80460,250253
18.81272,262924
18.82083,265270
18.82897,248741
18.83708,253094
18.84522,245332
18.85333,242045
18.86145,247002
18.86958,246903
18.87770,244437
18.88582,247962
18.89395,237159
18.90207,243927
18.91020,245489
18.91832,241299
18.92643,246886
18.93457,244202
18.94268,247202
18.95082,250275
18.95893,256041
18.96705,272763
18.97518,260626
18.98330,243190
18.99143,252828
18.99955,242792
19.00767,240215
19.01580,230689
19.02392,233618
19.03203,218494
19.04017,222836
19.04828,215852
19.05642,211154
19.06453,206132
19.07265,211534
19.08078,209540
19.08890,222741
19.09703,242312
19.10515,266138
19.11327,284734
19.12140,279569
19.12952,281460
19.13765,273340
19.14577,255896
19.15388,240407
19.16202,228693
19.17013,230841
19.17825,236030
19.18638,228614
19.19450,234570
19.20263,234204
19.21075,221930
19.21887,225136
19.22700,211285
19.23512,204247
19.24325,201647
19.25137,192718
19.25948,202048
19.26762,198566
19.27573,204895
19.28385,214000
19.29198,238299
19.30010,254070
19.30823,261773
19.31635,256479
19.32447,240762
19.33260,223341
19.34072,213178
19.34885,198019
19.35697,199687
19.36508,206662
19.37322,226300
19.38133,228165
19.38947,240037
19.39758,236909
19.40570,219111
19.41383,203514
19.42195,193395
19.43007,182071
19.43820,183057
19.44632,173002
19.45445,177164
19.46257,174804
19.47068,156520
19.47882,164873
19.48693,168029
19.49507,170380
19.50318,190319
19.51130,201285
19.51943,229091
19.52755,251494
19.53567,268216
19.54380,256797
19.55192,239121
19.56005,211405
19.56817,185903
19.57628,168703
19.58442,158651
19.59253,155441
19.60067,155804
19.60878,142823
19.61690,140257
19.62503,145503
19.63315,154547
19.64128,160469
19.64940,209044
19.65752,284381
19.66565,405115
19.67377,550861
19.68188,653279
19.69002,677445
19.69813,658068
19.70627,570709
19.71438,473786
19.72250,391750
19.73063,319646
19.73875,273429
19.74688,239627
19.75500,217171
19.76312,201283
19.77125,189436
19.77937,186167
19.78750,180951
19.79562,181761
19.80373,185743
19.81187,195050
19.81998,187875
19.82810,182330
19.83623,169256
19.84435,154349
19.85248,155398
19.86060,158564
19.86872,168659
19.87685,213833
19.88497,329531
19.89310,501062
19.90122,777475
19.90933,1082776
19.91747,1341679
19.92558,1500502
19.93370,1504501
19.94183,1488158
19.94995,1402803
19.95808,1337841
19.96620,1254914
19.97432,1193854
19.98245,1099511
19.99057,1045911
19.99870,1020869
20.00682,976780
20.01493,931222
20.02307,887955
20.03118,841619
20.03932,796564
20.04743,728486
20.05555,639566
20.06368,546345
20.07180,450714
20.07992,369722
20.08805,312684
20.09617,283543
20.10430,267969
20.11242,246012
20.12053,241928
20.12867,228486
20.13678,218813
20.14492,213943
20.15303,208057
20.16115,229500
20.16928,246537
20.17740,255213
20.18553,285476
20.19365,296866
20.20177,295666
20.20990,287007
20.21802,292644
20.22613,266911
20.23427,251285
20.24238,238838
20.25052,235412
20.25863,257996
20.26675,309950
20.27488,373696
20.28300,458500
20.29113,530733
20.29925,580015
20.30737,573181
20.31550,500418
20.32362,424755
20.33173,340796
20.33987,293531
20.34798,250164
20.35612,202738
20.36423,172087
20.37235,152844
20.38048,138329
20.38860,137552
20.39673,127407
20.40485,116028
20.41297,115171
20.42110,118386
20.42922,125488
20.43735,136446
20.44547,153163
20.45358,171797
20.46172,180026
20.46983,172298
20.47795,164115
20.48608,154118
20.49420,142307
20.50233,125633
20.51045,123229
20.51857,116430
20.52670,107975
20.53482,107527
20.54295,102524
20.55107,104896
20.55918,96331
20.56732,94609
20.57543,100861
20.58355,96289
20.59168,101146
20.59980,90985
20.60793,98574
20.61605,92278
20.62417,87195
20.63230,88778
20.64042,93419
20.64855,87140
20.65667,88236
20.66478,94239
20.67292,93667
20.68103,92020
20.68917,89470
20.69728,83983
20.70540,82229
20.71353,82438
20.72165,88753
20.72977,87042
20.73790,83322
20.74602,87953
20.75415,76777
20.76227,85589
20.77038,89997
20.77852,92305
20.78663,93899
20.79477,111462
20.80288,133881
20.81100,179142
20.81913,222509
20.82725,270894
20.83538,288928
20.84350,255543
20.85162,206506
20.85975,173763
20.86787,135282
20.87598,113114
20.88412,99441
20.89223,101887
20.90037,93832
20.90848,88846
20.91660,89715
20.92473,90429
20.93285,86164
20.94098,82384
20.94910,87115
20.95722,81112
20.96535,84861
20.97347,83130
20.98158,79937
20.98972,77234
20.99783,77647
21.00597,74711
21.01408,72840
21.02220,83693
21.03033,78630
21.03845,77207
21.04658,74250
21.05470,78398
21.06282,75847
21.07095,74004
21.07907,77397
21.08720,78350
21.09532,74017
21.10343,78607
21.11157,72208
21.11968,72574
21.12780,76247
21.13593,79398
21.14405,85832
21.15218,97085
21.16030,109163
21.16842,118145
21.17655,126248
21.18467,126982
21.19280,117099
21.20092,102885
21.20903,94823
21.21717,85250
21.22528,83882
21.23342,86292
21.24153,84306
21.24965,77842
21.25778,79874
21.26590,78236
21.27402,75960
21.28215,74895
21.29027,76183
21.29840,69971
21.30652,72550
21.31463,70752
21.32277,74419
21.33088,67050
21.33902,65419
21.34713,68502
21.35525,68670
21.36338,66334
21.37150,65916
21.37962,63362
21.38775,74460
21.39587,67684
21.40400,77894
21.41212,81426
21.42023,79883
21.42837,96214
21.43648,96789
21.44462,98757
21.45273,93137
21.46085,84649
21.46898,84590
21.47710,79030
21.48523,74634
21.49335,73744
21.50147,71027
21.50960,71502
21.51772,65339
21.52583,62788
21.53397,66764
21.54208,61767
21.55022,61303
21.55833,62083
21.56645,66504
21.57458,66664
21.58270,70340
21.59083,71837
21.59895,77119
21.60707,80014
21.61520,73151
21.62332,82805
21.63143,82446
21.63957,96149
21.64768,106031
21.65582,121077
21.66393,131193
21.67205,130407
21.68018,125297
21.68830,119619
21.69643,118799
21.70455,98519
21.71267,88225
21.72080,83656
21.72892,76070
21.73705,67093
21.74517,62441
21.75328,63800
21.76142,61482
21.76953,59555
21.77765,57598
21.78578,62274
21.79390,67324
21.80203,63722
21.81015,61489
21.81827,61820
21.82640,64410
21.83452,73629
21.84265,84256
21.85077,102001
21.85888,108674
21.86702,108862
21.87513,104968
21.88327,92841
21.89138,84125
21.89950,72840
21.90763,62845
21.91575,65807
21.92387,63661
21.93200,60137
21.94012,56577
21.94825,62838
21.95637,54050
21.96448,50235
21.97262,48236
21.98073,50577
21.98887,47000
21.99698,50890
22.00510,46669
22.01323,52717
22.02135,51520
22.02948,51536
22.03760,50710
22.04572,50664
22.05385,52268
22.06197,49247
22.07008,52260
22.07822,51151
22.08633,52333
22.09447,51477
22.10258,50616
22.11070,46374
22.11883,53835
22.12695,52360
22.13508,45212
22.14320,52068
22.15132,52429
22.15945,51017
22.16757,50965
22.17568,47398
22.18382,51427
22.19193,50094
22.20007,44470
22.20818,50360
22.21630,48270
22.22443,52450
22.23255,52555
22.24068,55313
22.24880,58622
22.25692,60762
22.26505,63702
22.27317,54360
22.28130,57279
22.28942,53083
22.29753,59661
22.30567,60890
22.31378,78964
22.32190,96027
22.33003,133998
22.33815,159462
22.34628,179040
22.35440,185197
22.36252,169912
22.37065,140300
22.37877,112901
22.38690,113301
22.39502,104169
22.40313,120169
22.41127,134299
22.41938,148191
22.42750,163501
22.43563,175992
22.44375,162453
22.45188,153791
22.46000,136504
22.46812,125352
22.47625,119844
22.48437,119444
22.49250,112436
22.50062,112853
22.50873,120049
22.51687,123674
22.52498,114014
22.53312,121811
22.54123,122328
22.54935,114839
22.55748,109009
22.56560,114080
22.57372,104853
22.58185,101415
22.58997,96037
22.59810,95382
22.60622,91583
22.61433,92741
22.62247,90469
22.63058,91924
22.63872,88287
22.64683,90290
22.65495,88959
22.66308,100451
22.67120,92540
22.67933,97795
22.68745,103368
22.69557,104536
22.70370,104558
22.71182,117018
22.71993,107549
22.72807,108576
22.73618,116848
22.74432,103771
22.75243,98283
22.76055,94159
22.76868,87843
22.77680,86934
22.78493,90154
22.79305,89575
22.80117,94917
22.80930,106660
22.81742,107766
22.82553,109858
22.83367,110954
22.84178,99295
22.84992,86088
22.85803,83350
22.86615,80615
22.87428,78783
22.88240,78229
22.89053,88360
22.89865,92805
22.90677,96691
22.91490,109877
22.92302,115928
22.93115,136465
22.93927,155372
22.94738,167687
22.95552,169074
22.96363,164468
22.97175,139451
22.97988,120765
22.98800,112770
22.99613,109540
23.00425,94149
23.01237,95778
23.02050,84943
23.02862,79259
23.03675,70164
23.04487,63170
23.05298,61451
23.06112,63942
23.06923,65146
23.07737,58392
23.08548,64617
23.09360,62307
23.10173,57838
23.10985,59630
23.11797,69271
23.12610,81644
23.13422,91749
23.14235,95581
23.15047,105239
23.15858,112572
23.16672,111101
23.17483,114811
23.18297,118741
23.19108,121245
23.19920,123091
23.20733,122319
23.21545,118489
23.22357,121129
23.23170,128657
23.23982,129572
23.24795,142196
23.25607,150513
23.26418,155450
23.27232,162613
23.28043,169903
23.28857,161161
23.29668,156958
23.30480,139186
23.31293,138668
23.32105,132671
23.32918,132596
23.33730,130769
23.34542,140455
23.35355,150195
23.36167,164455
23.36978,186869
23.37792,191151
23.38603,203454
23.39417,200945
23.40228,202773
23.41040,202613
23.41853,198500
23.42665,190115
23.43478,197843
23.44290,191246
23.45102,181560
23.45915,186098
23.46727,178441
23.47538,171350
23.48352,162593
23.49163,164807
23.49977,157443
23.50788,153190
23.51600,147241
23.52413,135888
23.53225,132682
23.54038,131400
23.54850,132476
23.55662,135523
23.56475,138722
23.57287,141890
23.58100,137907
23.58912,157552
23.59723,167421
23.60537,188561
23.61348,202255
23.62160,201161
23.62973,199655
23.63785,209534
23.64598,254362
23.65410,346020
23.66222,468524
23.67035,616472
23.67847,697422
23.68660,669183
23.69472,592581
23.70283,473064
23.71097,360688
23.71908,284311
23.72722,218806
23.73533,187206
23.74345,162375
23.75158,166084
23.75970,199731
23.76782,330180
23.77595,642661
23.78407,1220023
23.79220,1962345
23.80032,2784815
23.80843,3206045
23.81657,2971022
23.82468,2501062
23.83282,2004244
23.84093,1495510
23.84905,1084956
23.85718,849850
23.86530,664993
23.87342,549473
23.88155,473417
23.88967,420483
23.89780,390660
23.90592,352167
23.91403,330523
23.92217,299462
23.93028,293898
23.93842,282318
23.94653,255501
23.95465,238122
23.96278,220100
23.97090,214139
23.97903,209158
23.98715,206296
23.99527,185687
24.00340,194922
24.01152,194431
24.01963,216231
24.02777,254745
24.03588,328256
24.04402,376386
24.05213,381609
24.06025,365749
24.06838,301794
24.07650,250283
24.08463,208161
24.09275,178692
24.10087,157554
24.10900,147957
24.11712,137130
24.12525,141827
24.13337,143803
24.14148,141026
24.14962,143962
24.15773,147424
24.16585,149133
24.17398,145802
24.18210,144168
24.19023,141104
24.19835,135577
24.20647,136284
24.21460,130742
24.22272,135258
24.23085,134639
24.23897,134791
24.24708,125514
24.25522,124555
24.26333,121401
24.27145,113834
24.27958,113925
24.28770,103074
24.29583,104368
24.30395,101429
24.31207,102147
24.32020,99614
24.32832,100792
24.33645,95758
24.34457,88845
24.35268,86907
24.36082,84885
24.36893,85792
24.37707,84460
24.38518,82706
24.39330,97646
24.40143,98082
24.40955,109318
24.41767,113890
24.42580,124820
24.43392,119978
24.44205,103541
24.45017,92922
24.45828,82059
24.46642,77843
24.47453,72355
24.48267,76614
24.49078,71672
24.49890,74744
24.50703,85098
24.51515,86453
24.52328,93545
24.53140,106124
24.53952,101125
24.54765,109694
24.55577,110150
24.56388,108385
24.57202,105780
24.58013,103305
24.58827,99031
24.59638,90873
24.60450,89543
24.61263,83888
24.62075,81321
24.62888,81951
24.63700,82883
24.64512,81642
24.65325,77014
24.66137,79246
24.66948,79339
24.67762,76174
24.68573,69817
24.69387,73453
24.70198,66996
24.71010,69614
24.71823,68270
24.72635,63681
24.73448,69191
24.74260,68451
24.75072,69744
24.75885,64197
24.76697,64214
24.77510,66097
24.78322,66461
24.79133,70542
24.79947,76452
24.80758,69977
24.81570,72196
24.82383,69323
24.83195,77586
24.84008,99114
24.84820,130887
24.85632,175153
24.86445,205787
24.87257,273714
24.88070,344932
24.88882,439002
24.89693,537549
24.90507,573600
24.91318,570088
24.92130,519105
24.92943,444899
24.93755,369939
24.94568,291747
24.95380,268401
24.96192,238605
24.97005,237731
24.97817,219518
24.98630,216303
24.99442,220040
25.00253,219494
25.01067,214887
25.01878,208290
25.02692,215614
25.03503,207134
25.04315,205287
25.05128,206660
25.05940,195915
25.06752,204127
25.07565,206895
25.08377,202678
25.09190,203183
25.10002,213129
25.10813,246985
25.11627,333524
25.12438,520083
25.13252,865983
25.14063,1394067
25.14875,2000648
25.15688,2449391
25.16500,2440535
25.17313,2109340
25.18125,1624606
25.18937,1143761
25.19750,737579
25.20562,506699
25.21373,363211
25.22187,282558
25.22998,254924
25.23812,251898
25.24623,238063
25.25435,241663
25.26248,255442
25.27060,284453
25.27873,304846
25.28685,312511
25.29497,283223
25.30310,267575
25.31122,233898
25.31933,230544
25.32747,209262
25.33558,193933
25.34372,178265
25.35183,149232
25.35995,137157
25.36808,103378
25.37620,105361
25.38433,92252
25.39245,85204
25.40057,86580
25.40870,89447
25.41682,81133
25.42495,79621
25.43307,74819
25.44118,72604
25.44932,71790
25.45743,75067
25.46555,73138
25.47368,74021
25.48180,72512
25.48993,79749
25.49805,81676
25.50617,83042
25.51430,79842
25.52242,74388
25.53055,69097
25.53867,66025
25.54678,69775
25.55492,66865
25.56303,68935
25.57117,64495
25.57928,63090
25.58740,67480
25.59553,66070
25.60365,61566
25.61177,66549
25.61990,62373
25.62802,63386
25.63615,64167
25.64427,68929
25.65238,78748
25.66052,77749
25.66863,91231
25.67677,76601
25.68488,74123
25.69300,70298
25.70113,68352
25.70925,67063
25.71737,64934
25.72550,62079
25.73362,66250
25.74175,80498
25.74987,102702
25.75798,155144
25.76612,209073
25.77423,246014
25.78237,269309
25.79048,284171
25.79860,291365
25.80673,310821
25.81485,300050
25.82298,307942
25.83110,320212
25.83922,314177
25.84735,311098
25.85547,315388
25.86358,303136
25.87172,301823
25.87983,301193
25.88797,300945
25.89608,280622
25.90420,291713
25.91233,287937
25.92045,285600
25.92858,287603
25.93670,275478
25.94482,281332
25.95295,277276
25.96107,268899
25.96918,273459
25.97732,276797
25.98543,276025
25.99357,263388
26.00168,264904
26.00980,255827
26.01793,253096
26.02605,263841
26.03418,258891
26.04230,255391
26.05042,254136
26.05855,249628
26.06667,246081
26.07480,253437
26.08292,244205
26.09103,249723
26.09917,245910
26.10728,250721
26.11540,245254
26.12353,240283
26.13165,240462
26.13978,240513
26.14790,241961
26.15602,241233
26.16415,236404
26.17227,244787
26.18040,229733
26.18852,228315
26.19663,222892
26.20477,231417
26.21288,214673
26.22102,212214
26.22913,206046
26.23725,212484
26.24538,208905
26.25350,209597
26.26162,204123
26.26975,193050
26.27787,198180
26.28600,195774
26.29412,200732
26.30223,192210
26.31037,189451
26.31848,188274
26.32662,188839
26.33473,184258
26.34285,189768
26.35098,182019
26.35910,185129
26.36723,188588
26.37535,199743
26.38347,218075
26.39160,247717
26.39972,275452
26.40783,271230
26.41597,270723
26.42408,260702
26.43222,242804
26.44033,221584
26.44845,200022
26.45658,194257
26.46470,179445
26.47283,170627
26.48095,175282
26.48907,172875
26.49720,166282
26.50532,171005
26.51343,157295
26.52157,154805
26.52968,159094
26.53782,149911
26.54593,150837
26.55405,147016
26.56218,141749
26.57030,152008
26.57843,139357
26.58655,142932
26.59467,141595
26.60280,141705
26.61092,139415
26.61905,139347
26.62717,145934
26.63528,137337
26.64342,135326
26.65153,136143
26.65965,140459
26.66778,141720
26.67590,150124
26.68403,141356
26.69215,145171
26.70027,139028
26.70840,146393
26.71652,128837
26.72465,129931
26.73277,115520
26.74088,120640
26.74902,116644
26.75713,122451
26.76525,119554
26.77338,117018
26.78150,112681
26.78963,117194
26.79775,115085
26.80587,117625
26.81400,112477
26.82212,120296
26.83025,113985
26.83837,113432
26.84648,112803
26.85462,112166
26.86273,107163
26.87087,101743
26.87898,115544
26.88710,110387
26.89523,104961
26.90335,98404
26.91147,100993
26.91960,98548
26.92772,96241
26.93585,95963
26.94397,96142
26.95208,93789
26.96022,93072
26.96833,99851
26.97647,107043
26.98458,136810
26.99270,213728
27.00083,334785
27.00895,527399
27.01708,805914
27.02520,1110790
27.03332,1349554
27.04145,1449346
27.04957,1334819
27.05768,1127540
27.06582,909681
27.07393,704149
27.08207,561451
27.09018,456482
27.09830,366759
27.10643,323818
27.11455,281830
27.12268,254552
27.13080,229457
27.13892,224114
27.14705,207639
27.15517,197773
27.16328,189886
27.17142,184338
27.17953,181181
27.18767,185164
27.19578,181184
27.20390,171249
27.21203,167279
27.22015,156932
27.22828,148148
27.23640,135877
27.24452,133465
27.25265,126096
27.26077,125599
27.26890,126746
27.27702,122580
27.28513,114290
27.29327,111248
27.30138,113309
27.30950,105565
27.31763,105605
27.32575,105476
27.33388,109587
27.34200,102978
27.35012,98891
27.35825,97085
27.36637,100461
27.37450,100190
27.38262,99978
27.39073,99120
27.39887,90658
27.40698,95160
27.41512,90478
27.42323,96439
27.43135,91654
27.43948,94428
27.44760,87700
27.45572,86221
27.46385,86584
27.47197,82342
27.48010,83330
27.48822,81716
27.49633,82862
27.50447,86926
27.51258,77387
27.52072,85922
27.52883,79739
27.53695,76325
27.54508,82070
27.55320,78692
27.56132,80251
27.56945,81861
27.57757,82921
27.58570,89390
27.59382,91412
27.60193,97480
27.61007,106306
27.61818,98482
27.62632,94889
27.63443,92008
27.64255,84052
27.65068,80080
27.65880,80028
27.66693,80017
27.67505,70099
27.68317,72047
27.69130,70907
27.69942,74365
27.70753,77741
27.71567,73779
27.72378,69762
27.73192,67120
27.74003,68485
27.74815,66295
27.75628,69394
27.76440,64225
27.77253,64202
27.78065,65412
27.78877,68952
27.79690,68174
27.80502,66744
27.81313,76263
27.82127,65605
27.82938,69194
27.83752,69576
27.84563,66399
27.85375,68145
27.86188,63648
27.87000,70386
27.87813,67900
27.88625,67864
27.89437,63221
27.90250,60303
27.91062,60435
27.91875,60279
27.92687,61909
27.93498,58784
27.94312,60809
27.95123,58807
27.95935,56706
27.96748,58951
27.97560,63839
27.98373,59121
27.99185,59294
27.99997,65968
28.00810,57752
28.01622,58843
28.02435,60753
28.03247,66241
28.04058,61961
28.04872,67869
28.05683,64366
28.06497,71836
28.07308,70520
28.08120,72037
28.08933,64640
28.09745,64700
28.10557,58342
28.11370,64143
28.12182,57881
28.12995,55623
28.13807,61602
28.14618,52622
28.15432,57127
28.16243,52793
28.17057,53217
28.17868,53050
28.18680,57857
28.19493,58869
28.20305,67491
28.21117,73823
28.21930,90566
28.22742,89912
28.23555,94478
28.24367,93395
28.25178,89585
28.25992,85504
28.26803,71319
28.27617,67155
28.28428,63556
28.29240,64678
28.30053,66835
28.30865,64446
28.31678,62428
28.32490,68353
28.33302,84808
28.34115,97998
28.34927,114070
28.35738,145642
28.36552,169216
28.37363,191315
28.38177,216626
28.38988,233514
28.39800,227113
28.40613,233856
28.41425,225461
28.42238,208792
28.43050,200082
28.43862,182436
28.44675,167168
28.45487,151121
28.46300,138780
28.47112,131463
28.47923,125035
28.48737,115819
28.49548,110324
28.50360,112675
28.51173,105763
28.51985,94107
28.52798,97972
28.53610,91674
28.54422,90704
28.55235,88557
28.56047,83065
28.56860,83165
28.57672,81870
28.58483,78910
28.59297,73124
28.60108,76324
28.60920,75606
28.61733,82323
28.62545,76762
28.63358,78077
28.64170,77707
28.64982,80618
28.65795,82500
28.66607,83282
28.67420,81903
28.68232,75399
28.69043,72476
28.69857,75105
28.70668,78418
28.71482,70442
28.72293,74805
28.73105,66705
28.73918,65862
28.74730,64680
28.75542,61002
28.76355,68049
28.77167,71713
28.77980,78543
28.78792,79550
28.79603,87138
28.80417,82197
28.81228,86841
28.82042,79595
28.82853,76207
28.83665,74377
28.84478,70148
28.85290,69880
28.86102,69319
28.86915,63943
28.87727,67334
28.88540,67765
28.89352,69009
28.90163,79655
28.90977,81825
28.91788,73700
28.92602,76372
28.93413,70810
28.94225,72089
28.95038,70094
28.95850,75950
28.96663,75329
28.97475,75321
28.98287,75435
28.99100,70556
28.99912,72368
29.00723,67414
29.01537,69471
29.02348,62992
29.03162,61363
29.03973,58566
29.04785,60905
29.05598,62235
29.06410,61549
29.07223,63477
29.08035,58463
29.08847,60418
29.09660,63449
29.10472,66427
29.11285,58714
29.12097,61785
29.12908,65157
29.13722,54627
29.14533,57282
29.15345,58404
29.16158,57959
29.16970,57108
29.17783,58989
29.18595,62355
29.19407,68305
29.20220,74496
29.21032,82160
29.21845,89033
29.22657,98692
29.23468,95073
29.24282,93522
29.25093,84890
29.25905,74608
29.26718,71741
29.27530,67497
29.28343,62534
29.29155,60285
29.29967,60407
29.30780,59770
29.31592,59109
29.32405,58062
29.33217,57611
29.34028,53709
29.34842,56403
29.35653,52844
29.36467,54977
29.37278,51994
29.38090,52812
29.38903,61243
29.39715,58859
29.40527,63487
29.41340,65952
29.42152,69602
29.42965,68998
29.43777,67971
29.44588,63343
29.45402,61156
29.46213,61664
29.47027,52144
29.47838,54139
29.48650,58339
29.49463,56369
29.50275,58876
29.51088,63755
29.51900,63600
29.52712,66513
29.53525,67744
29.54337,69292
29.55148,56880
29.55962,61028
29.56773,55418
29.57587,54705
29.58398,54757
29.59210,58715
29.60023,52224
29.60835,62311
29.61648,52625
29.62460,52986
29.63272,52993
29.64085,49625
29.64897,54310
29.65708,52911
29.66522,50834
29.67333,57347
29.68147,54222
29.68958,55455
29.69770,53868
29.70583,54944
29.71395,56731
29.72208,57079
29.73020,56727
29.73832,59644
29.74645,51083
29.75457,57121
29.76270,53160
29.77082,52012
29.77893,47966
29.78707,51781
29.79518,46485
29.80330,45550
29.81143,48997
29.81955,43695
29.82768,49157
29.83580,45942
29.84392,44532
29.85205,48859
29.86017,58123
29.86830,82420
29.87642,137455
29.88453,268561
29.89267,471757
29.90078,722443
29.90892,925019
29.91703,1029835
29.92515,889818
29.93328,700292
29.94140,433382
29.94952,253912
29.95765,159381
29.96577,107649
29.97390,92700
29.98202,89771
29.99013,94240
29.99827,99736
30.00638,100593
30.01452,109997
30.02263,120101
30.03075,116376
30.03888,124218
30.04700,132702
30.05512,135819
30.06325,132587
30.07137,129786
30.07950,125910
30.08762,120626
30.09573,117850
30.10387,114751
30.11198,110425
30.12012,106222
30.12823,100479
30.13635,98093
30.14448,87920
30.15260,93560
30.16073,90585
30.16885,88799
30.17697,88281
30.18510,82075
30.19322,79644
30.20133,81011
30.20947,75331
30.21758,78677
30.22572,74457
30.23383,75794
30.24195,71612
30.25008,67441
30.25820,68535
30.26633,64247
30.27445,64516
30.28257,67518
30.29070,63821
30.29882,58112
30.30693,62942
30.31507,59804
30.32318,63413
30.33132,65234
30.33943,68065
30.34755,60033
30.35568,60071
30.36380,58187
30.37193,57075
30.38005,58227
30.38817,60791
30.39630,58146
30.40442,56514
30.41255,61322
30.42067,53250
30.42878,54839
30.43692,52780
30.44503,58550
30.45315,57603
30.46128,55308
30.46940,52844
30.47753,51586
30.48565,53435
30.49377,55260
30.50190,53455
30.51002,53864
30.51815,57150
30.52627,54659
30.53438,58575
30.54252,56446
30.55063,58099
30.55877,55591
30.56688,58361
30.57500,65615
30.58313,60932
30.59125,61920
30.59937,55915
30.60750,61462
30.61562,55381
30.62375,59330
30.63187,57832
30.63998,54998
30.64812,55346
30.65623,55558
30.66437,58826
30.67248,57146
30.68060,58854
30.68873,53300
30.69685,52617
30.70497,62607
30.71310,57538
30.72122,56250
30.72935,60638
30.73747,55448
30.74558,58818
30.75372,54999
30.76183,58843
30.76997,57716
30.77808,61186
30.78620,63974
30.79433,83281
30.80245,105289
30.81058,126848
30.81870,147432
30.82682,151495
30.83495,142718
30.84307,123744
30.85118,96304
30.85932,83337
30.86743,71825
30.87557,67198
30.88368,59736
30.89180,57481
30.89993,58829
30.90805,56856
30.91618,57544
30.92430,56663
30.93242,51738
30.94055,58631
30.94867,56830
30.95680,59120
30.96492,57236
30.97303,58277
30.98117,52714
30.98928,53631
30.99740,52828
31.00553,49025
31.01365,53432
31.02178,57142
31.02990,60641
31.03802,59318
31.04615,68664
31.05427,66147
31.06240,66988
31.07052,62598
31.07863,66861
31.08677,77836
31.09488,99580
31.10300,132370
31.11113,162092
31.11925,186531
31.12738,188543
31.13550,173787
31.14362,142492
31.15175,100495
31.15987,91229
31.16800,71173
31.17612,65635
31.18423,63377
31.19237,62003
31.20048,71208
31.20862,79272
31.21673,90240
31.22485,101376
31.23298,106766
31.24110,101498
31.24922,98750
31.25735,86808
31.26547,73447
31.27360,64047
31.28172,61569
31.28983,52057
31.29797,53860
31.30608,51657
31.31422,51217
31.32233,51779
31.33045,51565
31.33858,60613
31.34670,54179
31.35482,48449
31.36295,57873
31.37107,59292
31.37920,63741
31.38732,72555
31.39543,75090
31.40357,75218
31.41168,75088
31.41982,66467
31.42793,68368
31.43605,61804
31.44418,68321
31.45230,71176
31.46043,68868
31.46855,68994
31.47667,65346
31.48480,71666
31.49292,64118
31.50103,71099
31.50917,71974
31.51728,77079
31.52542,73321
31.53353,74611
31.54165,76033
31.54978,80932
31.55790,70188
31.56603,72574
31.57415,71951
31.58227,73783
31.59040,71336
31.59852,74358
31.60665,71500
31.61477,74137
31.62288,76461
31.63102,81972
31.63913,74472
31.64725,74786
31.65538,75623
31.66350,75480
31.67163,73832
31.67975,77663
31.68787,79712
31.69600,76363
31.70412,72259
31.71225,75244
31.72037,77310
31.72848,67020
31.73662,67930
31.74473,69565
31.75287,69655
31.76098,73587
31.76910,64982
31.77723,64498
31.78535,66136
31.79347,65861
31.80160,67350
31.80972,70697
31.81785,68920
31.82597,68744
31.83408,66707
31.84222,69322
31.85033,65376
31.85847,74834
31.86658,75691
31.87470,75347
31.88283,76487
31.89095,72686
31.89907,79600
31.90720,79181
31.91532,91116
31.92345,85027
31.93157,89102
31.93968,89605
31.94782,90398
31.95593,90474
31.96407,96014
31.97218,101885
31.98030,103712
31.98843,100846
31.99655,105322
32.00468,102317
32.01280,101766
32.02092,108748
32.02905,98744
32.03717,94794
32.04528,95934
32.05342,91978
32.06153,86217
32.06967,85891
32.07778,81555
32.08590,83539
32.09403,78487
32.10215,84371
32.11028,77660
32.11840,70189
32.12652,71985
32.13465,67711
32.14277,62941
32.15088,63174
32.15902,65466
32.16713,61633
32.17527,58146
32.18338,62937
32.19150,59654
32.19963,66692
32.20775,61235
32.21588,59861
32.22400,60683
32.23212,58577
32.24025,55909
32.24837,65555
32.25650,61281
32.26462,65938
32.27273,61176
32.28087,58696
32.28898,58716
32.29710,61009
32.30523,63656
32.31335,55492
32.32148,56024
32.32960,59635
32.33772,60560
32.34585,63638
32.35397,55554
32.36210,62632
32.37022,59511
32.37833,62003
32.38647,60484
32.39458,59088
32.40272,55809
32.41083,55904
32.41895,55235
32.42708,54574
32.43520,52153
32.44332,51656
32.45145,52352
32.45957,56283
32.46770,50444
32.47582,48858
32.48393,50488
32.49207,47188
32.50018,53125
32.50832,49961
32.51643,48231
32.52455,48384
32.53268,48872
32.54080,49543
32.54892,47877
32.55705,47827
32.56517,47821
32.57330,47877
32.58142,49533
32.58953,55120
32.59767,52170
32.60578,54138
32.61392,49415
32.62203,46046
32.63015,46463
32.63828,45022
32.64640,48400
32.65453,49153
32.66265,52561
32.67077,54262
32.67890,59855
32.68702,67511
32.69513,66175
32.70327,61981
32.71138,60651
32.71952,58637
32.72763,60466
32.73575,57817
32.74388,54544
32.75200,52669
32.76013,48752
32.76825,50630
32.77637,46535
32.78450,47322
32.79262,49713
32.80075,48656
32.80887,48627
32.81698,50588
32.82512,48899
32.83323,47019
32.84135,49398
32.84948,46809
32.85760,47840
32.86573,54364
32.87385,49876
32.88197,52268
32.89010,56674
32.89822,55942
32.90635,52800
32.91447,52925
32.92258,49613
32.93072,53163
32.93883,54253
32.94695,47594
32.95508,49525
32.96320,48447
32.97133,49918
32.97945,46505
32.98757,59957
32.99570,58889
33.00382,63261
33.01195,68244
33.02007,70204
33.02818,68471
33.03632,61002
33.04443,62924
33.05257,59561
33.06068,56223
33.06880,57195
33.07693,61944
33.08505,65267
33.09317,75183
33.10130,78774
33.10942,87631
33.11755,95091
33.12567,100504
33.13378,106547
33.14192,102496
33.15003,90730
33.15817,79425
33.16628,66397
33.17440,59083
33.18253,55490
33.19065,52529
33.19877,55793
33.20690,54448
33.21502,55001
33.22315,53156
33.23127,55761
33.23938,58380
33.24752,49916
33.25563,50707
33.26377,49189
33.27188,53232
33.28000,52882
33.28813,48506
33.29625,45915
33.30438,46863
33.31250,46701
33.32062,51625
33.32875,49850
33.33687,49139
33.34498,49690
33.35312,50841
33.36123,50234
33.36937,55923
33.37748,53657
33.38560,52137
33.39373,51527
33.40185,47736
33.40998,48736
33.41810,54798
33.42622,44989
33.43435,48997
33.44247,49530
33.45060,46623
33.45872,50231
33.46683,42798
33.47497,52614
33.48308,46563
33.49120,48975
33.49933,48767
33.50745,52294
33.51558,48242
33.52370,48611
33.53182,46480
33.53995,51937
33.54807,51559
33.55620,51823
33.56432,53282
33.57243,54299
33.58057,56621
33.58868,51316
33.59680,49725
33.60493,50145
33.61305,47722
33.62118,49429
33.62930,48659
33.63742,47501
33.64555,48199
33.65367,52731
33.66180,54459
33.66992,52850
33.67803,55661
33.68617,51616
33.69428,47134
33.70242,49827
33.71053,48103
33.71865,46673
33.72678,46834
33.73490,48280
33.74302,48070
33.75115,45511
33.75927,44472
33.76740,51801
33.77552,47685
33.78363,48654
33.79177,48766
33.79988,47984
33.80802,46261
33.81613,48943
33.82425,46788
33.83238,48290
33.84050,49606
33.84863,47075
33.85675,51062
33.86487,51819
33.87300,56442
33.88112,53500
33.88923,58631
33.89737,53152
33.90548,49848
33.91362,50695
33.92173,47364
33.92985,48405
33.93798,46684
33.94610,49243
33.95423,50542
33.96235,52641
33.97047,59991
33.97860,47402
33.98672,46747
33.99483,49957
34.00297,50741
34.01108,50131
34.01922,43237
34.02733,46824
34.03545,47065
34.04358,46713
34.05170,48120
34.05983,52594
34.06795,47689
34.07607,48929
34.08420,51491
34.09232,50974
34.10045,51509
34.10857,51308
34.11668,47163
34.12482,48046
34.13293,51595
34.14105,48356
34.14918,46643
34.15730,48957
34.16543,45493
34.17355,48728
34.18167,51875
34.18980,48757
34.19792,50541
34.20605,47431
34.21417,43982
34.22228,47916
34.23042,47051
34.23853,47772
34.24665,47736
34.25478,44735
34.26290,44911
34.27103,44288
34.27915,46828
34.28727,45787
34.29540,45950
34.30352,43935
34.31165,43139
34.31977,43781
34.32788,49362
34.33602,45058
34.34413,46426
34.35227,48247
34.36038,42431
34.36850,49168
34.37663,46608
34.38475,43958
34.39287,45212
34.40100,43626
34.40912,50272
34.41725,47563
34.42537,46040
34.43348,49883
34.44162,48888
34.44973,44509
34.45787,47146
34.46598,46955
34.47410,42693
34.48223,45938
34.49035,48912
34.49848,47172
34.50660,46699
34.51472,49807
34.52285,43992
34.53097,51528
34.53908,52041
34.54722,57676
34.55533,65416
34.56347,70382
34.57158,66425
34.57970,73817
34.58783,79959
34.59595,70022
34.60408,68363
34.61220,65100
34.62032,65949
34.62845,61994
34.63657,62761
34.64468,61339
34.65282,62291
34.66093,64622
34.66907,62650
34.67718,57830
34.68530,55684
34.69343,62883
34.70155,54244
34.70968,57692
34.71780,58275
34.72592,51019
34.73405,54390
34.74217,50260
34.75030,54710
34.75842,52594
34.76653,53153
34.77467,57153
34.78278,52594
34.79090,51767
34.79903,52487
34.80715,53850
34.81528,50297
34.82340,47343
34.83152,51589
34.83965,51689
34.84777,53084
34.85590,54012
34.86402,51252
34.87213,51462
34.88027,50153
34.88838,50538
34.89652,49261
34.90463,49903
34.91275,49177
34.92088,45820
34.92900,49871
34.93712,54310
34.94525,64360
34.95337,86990
34.96150,118145
34.96962,175563
34.97773,252872
34.98587,333867
34.99398,338390
35.00212,312503
35.01023,239229
35.01835,161203
35.02648,119091
35.03460,84817
35.04272,73843
35.05085,63839
35.05897,60652
35.06710,61509
35.07522,64192
35.08333,64828
35.09147,58822
35.09958,58042
35.10772,58462
35.11583,55216
35.12395,54988
35.13208,50692
35.14020,58375
35.14833,57848
35.15645,53737
35.16457,55502
35.17270,57024
35.18082,54461
35.18893,53852
35.19707,62981
35.20518,52024
35.21332,54367
35.22143,50722
35.22955,52563
35.23768,48640
35.24580,52893
35.25393,56981
35.26205,57016
35.27017,62723
35.27830,54606
35.28642,61324
35.29455,63788
35.30267,60137
35.31078,57720
35.31892,53576
35.32703,52317
35.33515,54417
35.34328,49548
35.35140,49509
35.35953,49972
35.36765,52524
35.37577,58591
35.38390,52660
35.39202,47585
35.40015,57247
35.40827,52006
35.41638,49836
35.42452,51591
35.43263,53851
35.44075,54483
35.44888,55421
35.45700,57659
35.46513,54099
35.47325,55706
35.48137,60929
35.48950,57546
35.49762,58567
35.50575,54469
35.51387,62079
35.52198,50718
35.53012,54937
35.53823,52923
35.54637,54137
35.55448,54966
35.56260,49690
35.57073,54228
35.57885,50044
35.58697,56093
35.59510,54015
35.60322,55536
35.61135,54526
35.61947,54875
35.62758,51189
35.63572,51924
35.64383,48983
35.65197,51464
35.66008,51618
35.66820,50702
35.67633,51262
35.68445,50758
35.69257,54902
35.70070,57860
35.70882,63438
35.71695,54086
35.72507,57007
35.73318,52825
35.74132,54589
35.74943,56984
35.75757,59346
35.76568,58447
35.77380,60595
35.78193,59620
35.79005,61265
35.79818,54467
35.80630,54040
35.81442,54653
35.82255,53668
35.83067,53557
35.83878,52409
35.84692,53049
35.85503,51024
35.86317,52342
35.87128,53478
35.87940,51560
35.88753,57522
35.89565,47336
35.90378,51888
35.91190,53458
35.92002,51918
35.92815,58816
35.93627,48179
35.94440,54428
35.95252,50733
35.96063,51086
35.96877,48062
35.97688,53155
35.98500,56861
35.99313,50603
36.00125,51935
36.00938,55679
36.01750,53522
36.02562,53863
36.03375,63164
36.04187,64492
36.05000,55831
36.05812,52693
36.06623,53167
36.07437,55276
36.08248,54449
36.09060,53434
36.09873,51354
36.10685,53647
36.11498,52996
36.12310,59968
36.13122,55697
36.13935,58511
36.14747,53395
36.15560,54545
36.16372,56377
36.17183,59536
36.17997,58712
36.18808,51067
36.19622,50648
36.20433,56120
36.21245,55013
36.22058,48081
36.22870,56598
36.23682,52010
36.24495,46313
36.25307,56905
36.26120,48321
36.26932,50431
36.27743,55881
36.28557,55812
36.29368,59083
36.30182,55899
36.30993,56472
36.31805,57826
36.32618,61874
36.33430,64779
36.34243,60826
36.35055,62563
36.35867,62557
36.36680,57607
36.37492,54967
36.38303,54444
36.39117,55979
36.39928,55634
36.40742,56759
36.41553,53860
36.42365,57220
36.43178,53446
36.43990,59300
36.44803,55769
36.45615,55292
36.46427,58454
36.47240,54217
36.48052,54168
36.48863,55059
36.49677,51957
36.50488,53781
36.51302,52659
36.52113,57416
36.52925,57721
36.53738,50341
36.54550,53789
36.55363,60465
36.56175,55562
36.56987,53936
36.57800,52890
36.58612,55831
36.59425,50517
36.60237,50969
36.61048,53999
36.61862,51358
36.62673,51957
36.63485,57051
36.64298,54701
36.65110,51842
36.65923,58630
36.66735,57843
36.67547,51976
36.68360,57299
36.69172,52190
36.69985,57538
36.70797,50499
36.71608,57688
36.72422,56980
36.73233,56957
36.74045,59873
36.74858,52363
36.75670,56107
36.76483,54463
36.77295,53310
36.78107,56977
36.78920,54870
36.79732,55586
36.80545,55375
36.81357,54938
36.82168,52629
36.82982,55981
36.83793,51217
36.84607,55873
36.85418,55614
36.86230,59121
36.87043,57942
36.87855,60532
36.88667,65302
36.89480,64354
36.90292,63951
36.91105,63014
36.91917,64173
36.92728,72880
36.93542,70681
36.94353,71918
36.95167,76814
36.95978,73769
36.96790,80776
36.97603,83209
36.98415,86714
36.99228,79824
37.00040,79854
37.00852,81248
37.01665,73648
37.02477,73935
37.03288,69445
37.04102,68768
37.04913,69391
37.05727,69810
37.06538,70139
37.07350,71422
37.08163,70292
37.08975,70392
37.09788,66904
37.10600,73306
37.11412,68955
37.12225,71095
37.13037,76687
37.13848,71270
37.14662,71344
37.15473,75041
37.16287,67100
37.17098,66441
37.17910,74241
37.18723,68859
37.19535,72428
37.20348,70317
37.21160,72152
37.21972,71268
37.22785,69325
37.23597,68560
37.24410,69790
37.25222,74159
37.26033,62106
37.26847,66901
37.27658,68966
37.28470,73265
37.29283,65134
37.30095,63891
37.30908,67366
37.31720,70170
37.32532,71358
37.33345,71531
37.34157,71424
37.34970,72390
37.35782,77269
37.36593,74997
37.37407,75775
37.38218,81263
37.39032,80617
37.39843,77979
37.40655,84762
37.41468,71359
37.42280,70077
37.43092,73971
37.43905,74068
37.44717,76201
37.45530,70518
37.46342,69628
37.47153,72319
37.47967,68834
37.48778,71378
