C:\MassHunter\GCMS\1\data\JTB-E18\BURNOFFS\JTB-E18-023-013.D Tue Sep 10 11:25:46 2019
Start of data points
2.09515	149066
2.10327	174672
2.11140	200633
2.11952	238758
2.12765	282040
2.13577	309385
2.14388	323903
2.15202	336535
2.16013	338852
2.16827	319277
2.17638	305575
2.18450	297570
2.19263	279210
2.20075	270479
2.20887	246298
2.21700	241561
2.22512	230342
2.23325	215117
2.24137	203857
2.24948	196460
2.25762	180220
2.26573	194585
2.27387	1120795
2.28198	6907479
2.29010	8452877
2.29823	4784752
2.30635	2858975
2.31448	2194351
2.32260	1843358
2.33072	1550200
2.33885	1407278
2.34697	1409920
2.35508	1236836
2.36322	1075066
2.37133	971390
2.37947	904232
2.38758	877615
2.39570	857753
2.40383	799880
2.41195	802287
2.42008	833914
2.42820	1406803
2.43632	1747184
2.44445	1388706
2.45257	1194342
2.46070	1072317
2.46882	972913
2.47693	921810
2.48507	907285
2.49318	994971
2.50130	1402610
2.50943	1349168
2.51755	1143545
2.52568	1088389
2.53380	1031431
2.54192	940902
2.55005	926327
2.55817	962558
2.56630	912915
2.57442	808846
2.58253	752423
2.59067	717108
2.59878	668403
2.60690	654511
2.61503	756907
2.62315	824595
2.63128	756967
2.63940	686170
2.64752	642475
2.65565	614915
2.66377	583979
2.67190	583412
2.68002	560000
2.68813	545833
2.69627	536025
2.70438	498669
2.71252	475635
2.72063	471722
2.72875	458718
2.73688	440543
2.74500	427916
2.75312	434746
2.76125	418829
2.76937	414539
2.77750	407774
2.78562	415236
2.79373	395221
2.80187	401642
2.80998	440592
2.81812	458713
2.82623	444522
2.83435	432343
2.84248	419106
2.85060	404079
2.85873	397209
2.86685	409674
2.87497	417544
2.88310	396726
2.89122	385051
2.89933	390632
2.90747	387764
2.91558	364101
2.92372	346413
2.93183	345619
2.93995	331771
2.94808	329238
2.95620	320910
2.96433	330931
2.97245	329132
2.98057	322032
2.98870	308144
2.99682	311005
3.00493	329954
3.01307	344619
3.02118	345201
3.02932	330133
3.03743	325255
3.04555	313510
3.05368	309942
3.06180	305434
3.06993	308232
3.07805	307094
3.08617	292678
3.09430	298032
3.10242	311010
3.11055	383202
3.11867	462306
3.12678	439799
3.13492	408186
3.14303	405503
3.15115	373422
3.15928	363231
3.16740	349592
3.17553	335626
3.18365	325318
3.19177	323607
3.19990	317641
3.20802	313167
3.21615	306693
3.22427	291198
3.23238	294362
3.24052	285905
3.24863	282327
3.25675	279159
3.26488	283663
3.27300	410854
3.28113	3449909
3.28925	2.873703E+07
3.29737	7.671804E+07
3.30550	1.048187E+08
3.31362	1.102426E+08
3.32175	9.997241E+07
3.32987	8.151464E+07
3.33798	6.317538E+07
3.34612	4.88377E+07
3.35423	3.814997E+07
3.36237	3.102123E+07
3.37048	2.591559E+07
3.37860	2.179447E+07
3.38673	1.876628E+07
3.39485	1.640963E+07
3.40297	1.448255E+07
3.41110	1.283095E+07
3.41922	1.161066E+07
3.42735	1.051245E+07
3.43547	9609264
3.44358	8837504
3.45172	8180863
3.45983	7641768
3.46797	7154070
3.47608	6733148
3.48420	6288848
3.49233	5955357
3.50045	5637560
3.50858	5328138
3.51670	5075036
3.52482	4792910
3.53295	4591911
3.54107	4358647
3.54918	4196676
3.55732	3982452
3.56543	3831604
3.57357	3681061
3.58168	3634196
3.58980	3526329
3.59793	3382860
3.60605	3279799
3.61418	3241330
3.62230	3198626
3.63042	3125760
3.63855	3038971
3.64667	2917119
3.65480	2833135
3.66292	2745758
3.67103	2792788
3.67917	3176020
3.68728	3692403
3.69540	3768862
3.70353	3646714
3.71165	3454142
3.71978	3280542
3.72790	3160828
3.73602	3020699
3.74415	2949206
3.75227	2850697
3.76040	2749489
3.76852	2711856
3.77663	2609111
3.78477	2561449
3.79288	2528853
3.80100	2506075
3.80913	2468487
3.81725	2500931
3.82538	2510250
3.83350	2449573
3.84162	2362568
3.84975	2305533
3.85787	2231504
3.86600	2163733
3.87412	2130103
3.88223	2088176
3.89037	2068011
3.89848	2047270
3.90662	1974860
3.91473	1965285
3.92285	1904662
3.93098	1890981
3.93910	1852214
3.94722	1802399
3.95535	1798339
3.96347	1749019
3.97160	1741056
3.97972	1745412
3.98783	1715550
3.99597	1674590
4.00408	1672598
4.01222	1633800
4.02033	1617651
4.02845	1634128
4.03658	1598291
4.04470	1568078
4.05282	1562334
4.06095	1545921
4.06907	1522982
4.07720	1519781
4.08532	1470020
4.09343	1447217
4.10157	1465294
4.10968	1432522
4.11782	1419101
4.12593	1394167
4.13405	1390326
4.14218	1382937
4.15030	1428292
4.15843	1457908
4.16655	1477445
4.17467	1477677
4.18280	1424959
4.19092	1366907
4.19903	1356584
4.20717	1326195
4.21528	1317624
4.22342	1318425
4.23153	1339182
4.23965	1310107
4.24778	1323069
4.25590	1269369
4.26403	1257181
4.27215	1239576
4.28027	1220989
4.28840	1204083
4.29652	1181836
4.30465	1190796
4.31277	1197976
4.32088	1217970
4.32902	1306492
4.33713	1382040
4.34525	1515194
4.35338	1729476
4.36150	1887219
4.36963	1910518
4.37775	1799345
4.38587	1638942
4.39400	1497161
4.40212	1408604
4.41025	1322818
4.41837	1278866
4.42648	1242635
4.43462	1221927
4.44273	1202647
4.45085	1183063
4.45898	1173782
4.46710	1150560
4.47523	1151252
4.48335	1125962
4.49147	1119487
4.49960	1124556
4.50772	1145189
4.51585	1125273
4.52397	1093438
4.53208	1085094
4.54022	1066237
4.54833	1067872
4.55647	1080267
4.56458	1062493
4.57270	1058636
4.58083	1050633
4.58895	1048991
4.59707	1070052
4.60520	1067420
4.61332	1066981
4.62145	1036385
4.62957	1015693
4.63768	1006921
4.64582	987889
4.65393	975396
4.66207	976778
4.67018	978997
4.67830	983427
4.68643	964199
4.69455	950897
4.70268	948613
4.71080	949396
4.71892	937891
4.72705	919940
4.73517	917887
4.74328	892985
4.75142	904871
4.75953	914337
4.76767	884913
4.77578	879012
4.78390	883734
4.79203	870960
4.80015	882396
4.80828	871669
4.81640	883995
4.82452	889508
4.83265	862946
4.84077	884537
4.84888	899192
4.85702	921301
4.86513	985334
4.87327	1032912
4.88138	1041902
4.88950	1019559
4.89763	1195819
4.90575	3532626
4.91388	1.847667E+07
4.92200	5.917347E+07
4.93012	9.858958E+07
4.93825	1.188356E+08
4.94637	1.223369E+08
4.95450	1.162532E+08
4.96262	1.055919E+08
4.97073	9.149336E+07
4.97887	7.528441E+07
4.98698	5.784255E+07
4.99510	4.255788E+07
5.00323	3.171082E+07
5.01135	2.447786E+07
5.01948	1.955446E+07
5.02760	1.632253E+07
5.03572	1.388807E+07
5.04385	1.214548E+07
5.05197	1.070298E+07
5.06010	9544780
5.06822	8670351
5.07633	7871604
5.08447	7210813
5.09258	6564227
5.10070	6067117
5.10883	5743788
5.11695	5361567
5.12508	5086191
5.13320	4800772
5.14132	4564249
5.14945	4398768
5.15757	4179846
5.16570	4025512
5.17382	3904921
5.18193	3757855
5.19007	3652983
5.19818	3525132
5.20632	3422221
5.21443	3250833
5.22255	3120028
5.23068	3047467
5.23880	2989318
5.24692	2905822
5.25505	2813004
5.26317	2767741
5.27130	2671171
5.27942	2604568
5.28753	2540300
5.29567	2473680
5.30378	2397585
5.31192	2349576
5.32003	2328554
5.32815	2314444
5.33628	2256743
5.34440	2228387
5.35253	2186809
5.36065	2154455
5.36877	2130616
5.37690	2101890
5.38502	2040835
5.39313	2013828
5.40127	1983511
5.40938	1973261
5.41752	1917880
5.42563	1889831
5.43375	1860965
5.44188	1838500
5.45000	1846864
5.45813	1861154
5.46625	1840232
5.47437	1820562
5.48250	1750520
5.49062	1741738
5.49873	1708096
5.50687	1683002
5.51498	1703429
5.52312	1687227
5.53123	1649729
5.53935	1660764
5.54748	1637390
5.55560	1609196
5.56373	1587900
5.57185	1546617
5.57997	1530776
5.58810	1542228
5.59622	1557756
5.60435	1591336
5.61247	1696604
5.62058	1906212
5.62872	2172783
5.63683	2345907
5.64495	2302314
5.65308	2105016
5.66120	1855980
5.66933	1665119
5.67745	1549168
5.68557	1528521
5.69370	1536500
5.70182	1511024
5.70995	1461360
5.71807	1428098
5.72618	1402022
5.73432	1367507
5.74243	1357427
5.75057	1323494
5.75868	1308889
5.76680	1291452
5.77493	1270374
5.78305	1250421
5.79117	1260642
5.79930	1238572
5.80742	1207186
5.81555	1220818
5.82367	1234102
5.83178	1206564
5.83992	1219930
5.84803	1213592
5.85617	1202514
5.86428	1152926
5.87240	1169880
5.88053	1137740
5.88865	1149687
5.89677	1168092
5.90490	1223235
5.91302	1320295
5.92115	1461334
5.92927	1598969
5.93738	1616151
5.94552	1602496
5.95363	1508758
5.96177	1486362
5.96988	1586220
5.97800	1727760
5.98613	1863213
5.99425	1884553
6.00238	1831503
6.01050	1735234
6.01862	1603637
6.02675	1539858
6.03487	1472803
6.04298	1423870
6.05112	1380210
6.05923	1328566
6.06737	1329525
6.07548	1279561
6.08360	1247360
6.09173	1215769
6.09985	1211216
6.10798	1197876
6.11610	1197896
6.12422	1187196
6.13235	1182400
6.14047	1163634
6.14858	1131466
6.15672	1106490
6.16483	1108988
6.17297	1091553
6.18108	1076669
6.18920	1060580
6.19733	1061297
6.20545	1035172
6.21358	1008055
6.22170	986211
6.22982	983141
6.23795	1016170
6.24607	1095208
6.25420	1206634
6.26232	1320944
6.27043	1396958
6.27857	1331190
6.28668	1258891
6.29480	1174965
6.30293	1102319
6.31105	1079857
6.31918	1052107
6.32730	1021448
6.33542	1005063
6.34355	991323
6.35167	970340
6.35980	970319
6.36792	945318
6.37603	927784
6.38417	930501
6.39228	907880
6.40042	883991
6.40853	880512
6.41665	926450
6.42478	1055182
6.43290	1300117
6.44102	1565752
6.44915	1574956
6.45727	1328928
6.46540	1073811
6.47352	943781
6.48163	881796
6.48977	887721
6.49788	849349
6.50602	840221
6.51413	803351
6.52225	787752
6.53038	784282
6.53850	794697
6.54662	820510
6.55475	823879
6.56287	828635
6.57100	844051
6.57912	847947
6.58723	851378
6.59537	835265
6.60348	812160
6.61162	802001
6.61973	862939
6.62785	847136
6.63598	820320
6.64410	799311
6.65223	819147
6.66035	825016
6.66847	829880
6.67660	854743
6.68472	827986
6.69283	825913
6.70097	810421
6.70908	799458
6.71722	793248
6.72533	792905
6.73345	785539
6.74158	776856
6.74970	755352
6.75783	743691
6.76595	749947
6.77407	764185
6.78220	772581
6.79032	758869
6.79845	720865
6.80657	708830
6.81468	696910
6.82282	684294
6.83093	685360
6.83905	689319
6.84718	709545
6.85530	758858
6.86343	884689
6.87155	1059665
6.87967	1156974
6.88780	1120926
6.89592	976492
6.90405	847123
6.91217	743117
6.92028	684353
6.92842	639572
6.93653	611789
6.94465	581159
6.95278	569560
6.96090	557560
6.96903	543190
6.97715	530823
6.98527	515619
6.99340	501886
7.00152	489943
7.00965	482291
7.01777	467694
7.02588	461848
7.03402	453464
7.04213	467510
7.05027	461131
7.05838	475459
7.06650	477310
7.07463	474431
7.08275	464704
7.09087	465721
7.09900	447382
7.10712	453016
7.11525	447388
7.12337	442977
7.13148	437446
7.13962	433048
7.14773	438177
7.15587	465224
7.16398	486307
7.17210	502928
7.18023	517715
7.18835	499056
7.19648	470829
7.20460	464573
7.21272	443781
7.22085	424222
7.22897	411958
7.23708	413056
7.24522	406240
7.25333	399805
7.26147	402806
7.26958	417501
7.27770	417418
7.28583	415931
7.29395	415966
7.30208	425915
7.31020	425520
7.31832	413085
7.32645	404695
7.33457	382419
7.34268	388400
7.35082	368976
7.35893	366350
7.36707	373259
7.37518	386055
7.38330	395256
7.39143	429012
7.39955	505549
7.40768	621008
7.41580	743317
7.42392	840176
7.43205	852081
7.44017	759207
7.44830	641287
7.45642	541101
7.46453	462901
7.47267	409520
7.48078	391166
7.48890	383881
7.49703	373329
7.50515	375767
7.51328	369169
7.52140	374981
7.52952	357837
7.53765	363205
7.54577	357602
7.55390	351129
7.56202	346513
7.57013	357650
7.57827	347179
7.58638	345836
7.59450	348696
7.60263	335379
7.61075	332344
7.61888	351076
7.62700	343942
7.63512	344483
7.64325	341578
7.65137	332097
7.65950	331487
7.66762	335132
7.67573	338603
7.68387	337777
7.69198	324922
7.70012	334508
7.70823	319466
7.71635	337253
7.72448	320195
7.73260	309846
7.74072	292112
7.74885	279310
7.75697	284741
7.76510	289834
7.77322	322196
7.78133	347894
7.78947	372081
7.79758	355478
7.80572	335799
7.81383	315589
7.82195	276637
7.83008	271713
7.83820	253535
7.84633	259861
7.85445	280600
7.86257	305557
7.87070	354145
7.87882	448996
7.88693	560386
7.89507	657361
7.90318	729171
7.91132	715581
7.91943	637990
7.92755	561720
7.93568	489866
7.94380	440674
7.95193	436238
7.96005	458398
7.96817	479468
7.97630	495017
7.98442	496479
7.99253	491249
8.00067	466587
8.00878	449645
8.01692	427087
8.02503	410515
8.03315	392538
8.04128	381370
8.04940	377669
8.05753	371641
8.06565	387827
8.07377	386208
8.08190	380115
8.09002	378624
8.09815	367493
8.10627	366763
8.11438	356271
8.12252	352850
8.13063	357513
8.13875	374726
8.14688	418533
8.15500	465293
8.16313	501564
8.17125	507580
8.17937	484116
8.18750	446398
8.19562	402134
8.20375	367234
8.21187	355065
8.21998	324329
8.22812	326944
8.23623	314046
8.24437	312829
8.25248	318773
8.26060	322435
8.26873	326585
8.27685	320082
8.28497	319732
8.29310	315282
8.30122	323388
8.30935	352755
8.31747	385376
8.32558	465503
8.33372	544004
8.34183	590048
8.34997	571368
8.35808	526580
8.36620	447596
8.37433	404264
8.38245	362254
8.39057	336146
8.39870	324217
8.40682	310166
8.41495	312343
8.42307	316908
8.43118	329775
8.43932	337094
8.44743	334192
8.45557	340353
8.46368	330668
8.47180	325685
8.47993	331657
8.48805	326209
8.49618	328404
8.50430	368072
8.51242	462660
8.52055	647898
8.52867	766387
8.53678	814196
8.54492	716298
8.55303	573919
8.56117	471282
8.56928	414974
8.57740	386734
8.58553	365309
8.59365	351934
8.60178	349371
8.60990	346456
8.61802	336961
8.62615	332872
8.63427	332551
8.64238	334363
8.65052	332125
8.65863	326153
8.66677	314798
8.67488	416703
8.68300	1390793
8.69113	5546689
8.69925	2.599055E+07
8.70738	7.105184E+07
8.71550	9.440026E+07
8.72362	9.751072E+07
8.73175	9.375398E+07
8.73987	8.979048E+07
8.74800	8.44529E+07
8.75612	7.881952E+07
8.76423	7.179286E+07
8.77237	6.43514E+07
8.78048	5.480713E+07
8.78860	4.350648E+07
8.79673	3.223366E+07
8.80485	2.348206E+07
8.81298	1.749775E+07
8.82110	1.317046E+07
8.82922	1.04038E+07
8.83735	8326278
8.84547	6577799
8.85360	5410348
8.86172	4529301
8.86983	3878499
8.87797	3351735
8.88608	3073434
8.89422	2764143
8.90233	2519233
8.91045	2290906
8.91858	2096601
8.92670	1955441
8.93482	1856511
8.94295	1706038
8.95107	1618160
8.95920	1535309
8.96732	1483558
8.97543	1438861
8.98357	1452870
8.99168	1446193
8.99982	1413014
9.00793	1379450
9.01605	1312311
9.02418	1258304
9.03230	1220160
9.04043	1179755
9.04855	1146517
9.05667	1130906
9.06480	1808670
9.07292	2.15256E+07
9.08103	6.458406E+07
9.08917	6.474512E+07
9.09728	3.69994E+07
9.10542	2.0218E+07
9.11353	1.257356E+07
9.12165	8542942
9.12978	6348080
9.13790	5087150
9.14603	4284894
9.15415	3829170
9.16227	3374378
9.17040	2956468
9.17852	2620672
9.18663	2329403
9.19477	2093832
9.20288	1931219
9.21102	1821121
9.21913	1702470
9.22725	1621012
9.23538	1538029
9.24350	1461093
9.25163	1404056
9.25975	1348453
9.26787	1290372
9.27600	1243637
9.28412	1219133
9.29225	1156676
9.30037	1132069
9.30848	1101489
9.31662	1054571
9.32473	1026517
9.33285	984832
9.34098	974115
9.34910	958922
9.35723	942993
9.36535	929899
9.37347	930699
9.38160	913975
9.38972	911266
9.39785	879749
9.40597	872523
9.41408	855590
9.42222	827160
9.43033	823228
9.43845	790511
9.44658	792056
9.45470	785935
9.46283	774121
9.47095	808653
9.47907	803211
9.48720	785597
9.49532	789355
9.50345	804137
9.51157	826167
9.51968	837700
9.52782	859106
9.53593	883470
9.54407	1636001
9.55218	1.482138E+07
9.56030	5.680725E+07
9.56843	7.640645E+07
9.57655	6.093294E+07
9.58467	3.519337E+07
9.59280	2.037234E+07
9.60092	1.283784E+07
9.60905	8739238
9.61717	6278226
9.62528	4692790
9.63342	3671505
9.64153	3080613
9.64967	2663365
9.65778	2330741
9.66590	2122742
9.67403	1975467
9.68215	1811553
9.69028	1664317
9.69840	1530538
9.70652	1432539
9.71465	1334417
9.72277	1295053
9.73088	1243652
9.73902	1190849
9.74713	1130905
9.75527	1089623
9.76338	1044827
9.77150	1004351
9.77963	984706
9.78775	951654
9.79588	928988
9.80400	879321
9.81212	878724
9.82025	841626
9.82837	833029
9.83648	815862
9.84462	808309
9.85273	790535
9.86087	786656
9.86898	775262
9.87710	731952
9.88523	715853
9.89335	692201
9.90148	679020
9.90960	666851
9.91772	648691
9.92585	651280
9.93397	667289
9.94210	704610
9.95022	812442
9.95833	1046800
9.96647	1467245
9.97458	2165986
9.98270	3235069
9.99083	4166338
9.99895	4770853
10.00708	4606297
10.01520	3798144
10.02332	2758913
10.03145	1872721
10.03957	1359605
10.04770	1050272
10.05582	899013
10.06393	792430
10.07207	752622
10.08018	700834
10.08832	642466
10.09643	610357
10.10455	577028
10.11268	557403
10.12080	535407
10.12892	531828
10.13705	516217
10.14517	489194
10.15330	478641
10.16142	466240
10.16953	471733
10.17767	459110
10.18578	506239
10.19392	512974
10.20203	517660
10.21015	586194
10.21828	732854
10.22640	920938
10.23452	1013893
10.24265	963893
10.25077	835205
10.25890	705660
10.26702	620200
10.27513	565752
10.28327	562997
10.29138	553479
10.29952	554373
10.30763	560573
10.31575	549124
10.32388	515610
10.33200	496343
10.34013	469326
10.34825	453428
10.35637	431566
10.36450	429494
10.37262	438883
10.38073	424554
10.38887	426919
10.39698	411584
10.40512	411377
10.41323	403515
10.42135	395198
10.42948	394838
10.43760	382231
10.44573	383927
10.45385	375774
10.46197	363221
10.47010	365500
10.47822	360687
10.48633	358975
10.49447	373736
10.50258	366918
10.51072	391167
10.51883	404263
10.52695	446656
10.53508	476346
10.54320	469361
10.55133	464168
10.55945	436228
10.56757	406118
10.57570	375735
10.58382	362467
10.59195	356151
10.60007	348076
10.60818	338493
10.61632	334916
10.62443	329454
10.63255	316745
10.64068	313243
10.64880	316740
10.65693	318639
10.66505	313802
10.67317	333469
10.68130	336989
10.68942	354334
10.69755	340950
10.70567	344305
10.71378	322048
10.72192	320891
10.73003	334396
10.73817	356259
10.74628	364188
10.75440	400663
10.76253	409556
10.77065	409627
10.77877	382402
10.78690	351018
10.79502	347134
10.80315	330196
10.81127	333845
10.81938	318477
10.82752	319091
10.83563	314198
10.84377	303067
10.85188	293714
10.86000	289252
10.86813	286682
10.87625	295419
10.88437	296168
10.89250	335129
10.90062	399418
10.90875	487743
10.91687	585520
10.92498	662244
10.93312	651495
10.94123	566658
10.94937	475805
10.95748	388431
10.96560	356521
10.97373	335040
10.98185	327917
10.98998	311770
10.99810	299255
11.00622	300873
11.01435	302814
11.02247	313575
11.03058	332343
11.03872	367028
11.04683	464638
11.05497	682862
11.06308	1020441
11.07120	1388831
11.07933	1686574
11.08745	1951589
11.09558	3173894
11.10370	8909261
11.11182	2.125118E+07
11.11995	3.112543E+07
11.12807	3.028194E+07
11.13620	2.247626E+07
11.14432	1.461354E+07
11.15243	9656832
11.16057	7374910
11.16868	6298602
11.17680	5555390
11.18493	4687952
11.19305	3739658
11.20118	2987799
11.20930	2472870
11.21742	2082950
11.22555	1786136
11.23367	1613221
11.24180	1478306
11.24992	1354390
11.25803	1301630
11.26617	1236592
11.27428	1205270
11.28240	1175257
11.29053	1169816
11.29865	1167279
11.30678	1168887
11.31490	1190703
11.32302	1150824
11.33115	1119193
11.33927	1069199
11.34740	1014007
11.35552	978923
11.36363	951544
11.37177	945246
11.37988	926674
11.38802	888030
11.39613	868510
11.40425	851385
11.41238	835619
11.42050	810810
11.42862	808226
11.43675	809897
11.44487	798283
11.45300	771172
11.46112	767403
11.46923	753519
11.47737	733927
11.48548	737442
11.49362	733620
11.50173	730574
11.50985	709288
11.51798	726179
11.52610	714801
11.53423	703735
11.54235	689630
11.55047	682923
11.55860	660665
11.56672	662449
11.57483	656601
11.58297	658459
11.59108	651596
11.59922	645458
11.60733	658274
11.61545	661006
11.62358	645280
11.63170	645426
11.63983	638187
11.64795	629746
11.65607	624301
11.66420	621072
11.67232	627766
11.68043	655075
11.68857	712046
11.69668	791833
11.70482	878960
11.71293	988351
11.72105	1173043
11.72918	1408014
11.73730	1656693
11.74543	1844132
11.75355	1753417
11.76167	1514687
11.76980	1238302
11.77792	1044810
11.78605	930498
11.79417	855810
11.80228	815831
11.81042	793236
11.81853	758107
11.82665	723410
11.83478	678497
11.84290	631358
11.85103	600366
11.85915	574989
11.86727	548420
11.87540	531318
11.88352	500751
11.89165	497379
11.89977	478926
11.90788	475188
11.91602	462797
11.92413	454745
11.93225	459382
11.94038	446487
11.94850	458329
11.95663	445623
11.96475	439204
11.97287	431737
11.98100	423560
11.98912	425404
11.99725	419792
12.00537	447275
12.01348	497982
12.02162	553772
12.02973	604074
12.03787	613451
12.04598	571446
12.05410	537442
12.06223	508031
12.07035	481322
12.07847	467358
12.08660	463313
12.09472	442542
12.10285	445637
12.11097	465036
12.11908	476710
12.12722	491348
12.13533	506292
12.14347	504501
12.15158	489195
12.15970	467291
12.16783	447846
12.17595	441933
12.18408	426638
12.19220	419596
12.20032	406147
12.20845	402526
12.21657	397405
12.22468	416759
12.23282	429933
12.24093	466365
12.24907	530987
12.25718	597723
12.26530	656003
12.27343	692603
12.28155	700167
12.28968	736020
12.29780	723078
12.30592	736414
12.31405	736094
12.32217	714555
12.33028	708853
12.33842	671359
12.34653	626213
12.35467	613090
12.36278	601327
12.37090	600392
12.37903	569708
12.38715	563082
12.39528	552728
12.40340	539890
12.41152	536943
12.41965	549102
12.42777	587549
12.43590	629106
12.44402	669311
12.45213	707192
12.46027	688717
12.46838	647462
12.47650	596062
12.48463	575493
12.49275	533264
12.50088	502986
12.50900	491903
12.51712	460659
12.52525	462256
12.53337	449686
12.54150	451745
12.54962	450097
12.55773	437294
12.56587	427777
12.57398	435077
12.58212	428515
12.59023	413654
12.59835	411656
12.60648	415698
12.61460	420537
12.62272	406458
12.63085	396275
12.63897	397227
12.64710	401079
12.65522	411683
12.66333	409260
12.67147	405437
12.67958	394196
12.68772	387756
12.69583	418884
12.70395	482000
12.71208	630096
12.72020	855926
12.72832	1078268
12.73645	1269818
12.74457	1310256
12.75270	1195555
12.76082	1059001
12.76893	915633
12.77707	817238
12.78518	786380
12.79332	764786
12.80143	798805
12.80955	826596
12.81768	833845
12.82580	788818
12.83393	670737
12.84205	587325
12.85017	525076
12.85830	455904
12.86642	421415
12.87453	399083
12.88267	382766
12.89078	364654
12.89892	358776
12.90703	347777
12.91515	342505
12.92328	335846
12.93140	339078
12.93953	332150
12.94765	346037
12.95577	358480
12.96390	362764
12.97202	377589
12.98013	404169
12.98827	418748
12.99638	400953
13.00452	388050
13.01263	375892
13.02075	359816
13.02888	359337
13.03700	368906
13.04513	396457
13.05325	440774
13.06137	484592
13.06950	487340
13.07762	475033
13.08575	450891
13.09387	432047
13.10198	422936
13.11012	405889
13.11823	415938
13.12635	467155
13.13448	624330
13.14260	998700
13.15073	1628551
13.15885	2407912
13.16697	2916623
13.17510	2887228
13.18322	2391287
13.19135	1692675
13.19947	1080436
13.20758	683880
13.21572	484544
13.22383	390461
13.23197	353929
13.24008	330205
13.24820	328206
13.25633	316856
13.26445	312953
13.27257	310655
13.28070	303556
13.28882	294686
13.29695	284842
13.30507	283107
13.31318	282323
13.32132	269185
13.32943	283909
13.33757	282610
13.34568	276541
13.35380	285436
13.36193	282470
13.37005	284940
13.37817	285396
13.38630	271626
13.39442	274309
13.40255	263004
13.41067	259067
13.41878	253559
13.42692	251285
13.43503	247392
13.44317	238799
13.45128	256415
13.45940	252393
13.46753	254421
13.47565	269625
13.48378	278813
13.49190	278420
13.50002	257178
13.50815	269601
13.51627	275387
13.52438	281529
13.53252	284203
13.54063	278262
13.54877	286275
13.55688	275968
13.56500	272108
13.57313	268031
13.58125	256296
13.58938	261866
13.59750	252989
13.60562	257074
13.61375	258037
13.62187	269820
13.63000	280994
13.63812	299492
13.64623	317485
13.65437	321188
13.66248	333428
13.67060	316324
13.67873	320273
13.68685	304531
13.69498	299033
13.70310	297355
13.71122	305280
13.71935	289803
13.72747	284918
13.73560	292439
13.74372	285793
13.75183	287887
13.75997	280901
13.76808	292286
13.77620	285459
13.78433	303022
13.79245	299582
13.80058	293064
13.80870	286508
13.81682	289040
13.82495	299504
13.83307	313868
13.84120	336759
13.84932	384249
13.85743	456525
13.86557	583687
13.87368	773468
13.88182	1009038
13.88993	1136078
13.89805	1136511
13.90618	974628
13.91430	756036
13.92242	602901
13.93055	484350
13.93867	413482
13.94680	362293
13.95492	339053
13.96303	313614
13.97117	320820
13.97928	382644
13.98742	549640
13.99553	928078
14.00365	1500529
14.01178	2105534
14.01990	2375684
14.02802	2188149
14.03615	1671268
14.04427	1179266
14.05240	808923
14.06052	598653
14.06863	475371
14.07677	429836
14.08488	676067
14.09302	3511085
14.10113	1.976825E+07
14.10925	4.964364E+07
14.11738	6.017121E+07
14.12550	5.942119E+07
14.13363	5.690358E+07
14.14175	5.29488E+07
14.14987	4.873885E+07
14.15800	4.43065E+07
14.16612	3.911121E+07
14.17423	3.371394E+07
14.18237	2.799168E+07
14.19048	2.162828E+07
14.19862	1.608472E+07
14.20673	1.134906E+07
14.21485	7546270
14.22298	5002010
14.23110	3398931
14.23923	2478713
14.24735	1953007
14.25547	1646093
14.26360	1419355
14.27172	1240767
14.27985	1119499
14.28797	1030137
14.29608	952940
14.30422	862190
14.31233	787876
14.32045	711961
14.32858	622671
14.33670	516133
14.34483	446545
14.35295	394575
14.36107	362965
14.36920	347252
14.37732	337940
14.38545	340954
14.39357	340798
14.40168	336256
14.40982	337247
14.41793	343387
14.42607	341401
14.43418	347578
14.44230	346386
14.45043	346638
14.45855	354178
14.46667	374711
14.47480	424845
14.48292	469977
14.49105	528007
14.49917	551280
14.50728	557708
14.51542	542137
14.52353	513910
14.53167	498007
14.53978	468751
14.54790	451869
14.55603	434695
14.56415	426715
14.57227	418432
14.58040	391388
14.58852	363325
14.59665	362718
14.60477	363022
14.61288	351604
14.62102	334836
14.62913	329063
14.63727	335126
14.64538	340546
14.65350	359614
14.66163	348566
14.66975	340753
14.67788	337968
14.68600	344087
14.69412	345816
14.70225	348102
14.71037	383502
14.71848	404431
14.72662	381470
14.73473	374956
14.74287	355597
14.75098	356229
14.75910	460782
14.76723	895834
14.77535	2253795
14.78348	4940832
14.79160	8056884
14.79972	9328273
14.80785	8272706
14.81597	5938863
14.82408	3717958
14.83222	2222785
14.84033	1419341
14.84847	977702
14.85658	768084
14.86470	655898
14.87283	573591
14.88095	532658
14.88908	474686
14.89720	452932
14.90532	439819
14.91345	418685
14.92157	404563
14.92970	395980
14.93782	379860
14.94593	390882
14.95407	435444
14.96218	563725
14.97030	828221
14.97843	1201886
14.98655	1549437
14.99468	1774483
15.00280	1689172
15.01092	1418967
15.01905	1054858
15.02717	779150
15.03530	577391
15.04342	478296
15.05153	441908
15.05967	421466
15.06778	396890
15.07592	367545
15.08403	364226
15.09215	336032
15.10028	314326
15.10840	309864
15.11652	303541
15.12465	299589
15.13277	286636
15.14090	298586
15.14902	293400
15.15713	311558
15.16527	327259
15.17338	331501
15.18152	341574
15.18963	329902
15.19775	310975
15.20588	307879
15.21400	284612
15.22212	286537
15.23025	282821
15.23837	338777
15.24650	960406
15.25462	1438073
15.26273	847451
15.27087	553822
15.27898	480909
15.28712	430320
15.29523	426885
15.30335	431056
15.31148	395847
15.31960	440521
15.32773	461080
15.33585	429144
15.34397	406659
15.35210	396719
15.36022	365999
15.36833	343583
15.37647	333192
15.38458	323910
15.39272	324492
15.40083	320469
15.40895	329333
15.41708	7466448
15.42520	6.710452E+07
15.43333	6.452418E+07
15.44145	3.306688E+07
15.44957	2.030254E+07
15.45770	1.364822E+07
15.46582	9859057
15.47395	7606494
15.48207	6141047
15.49018	4999295
15.49832	4205050
15.50643	3577003
15.51455	3105958
15.52268	2744772
15.53080	2466580
15.53893	2243123
15.54705	2065152
15.55517	3280615
15.56330	4.340546E+07
15.57142	8.479502E+07
15.57955	5.777409E+07
15.58767	3.179278E+07
15.59578	2.073542E+07
15.60392	1.430173E+07
15.61203	1.054238E+07
15.62015	8130240
15.62828	6544532
15.63640	5388261
15.64453	4564188
15.65265	3996313
15.66077	3536124
15.66890	3188881
15.67702	2932486
15.68515	2679005
15.69327	2499183
15.70138	2335671
15.70952	2188058
15.71763	2059734
15.72577	1937647
15.73388	1828133
15.74200	1742641
15.75013	1669420
15.75825	1614161
15.76637	1531395
15.77450	1494572
15.78262	1489182
15.79075	1427381
15.79887	1362077
15.80698	1292987
15.81512	1237472
15.82323	1216997
15.83137	1177313
15.83948	1139853
15.84760	1078541
15.85573	1037027
15.86385	1025449
15.87197	1009775
15.88010	1003268
15.88822	1002284
15.89635	1010333
15.90447	979414
15.91258	863568
15.92072	854314
15.92883	934339
15.93697	889795
15.94508	855895
15.95320	851363
15.96133	847349
15.96945	932322
15.97758	1112149
15.98570	1567332
15.99382	2410821
16.00195	3805459
16.01007	7578838
16.01818	2.30217E+07
16.02632	4.190903E+07
16.03443	3.68466E+07
16.04257	2.484471E+07
16.05068	1.660658E+07
16.05880	1.151785E+07
16.06693	8417641
16.07505	6361072
16.08318	5014533
16.09130	4106228
16.09942	3457620
16.10755	3008142
16.11567	2612809
16.12380	2374246
16.13192	2161133
16.14003	2007382
16.14817	1860138
16.15628	1715802
16.16440	1636279
16.17253	1572660
16.18065	1511671
16.18878	1452483
16.19690	1379119
16.20502	1395620
16.21315	1376667
16.22127	1370438
16.22940	1368300
16.23752	1369416
16.24563	1350268
16.25377	1287168
16.26188	1238195
16.27000	1220218
16.27813	1176983
16.28625	1116838
16.29438	1061654
16.30250	960054
16.31062	919172
16.31875	883559
16.32687	854119
16.33500	839682
16.34312	818061
16.35123	794253
16.35937	784652
16.36748	737289
16.37562	725237
16.38373	703050
16.39185	670165
16.39998	665125
16.40810	643867
16.41622	638131
16.42435	613599
16.43247	620135
16.44060	633306
16.44872	665574
16.45683	729363
16.46497	797161
16.47308	836554
16.48122	764242
16.48933	695703
16.49745	638182
16.50558	601236
16.51370	597218
16.52183	587820
16.52995	571983
16.53807	569569
16.54620	537830
16.55432	534214
16.56243	533452
16.57057	527546
16.57868	523433
16.58682	527995
16.59493	508859
16.60305	485846
16.61118	493234
16.61930	501292
16.62743	502385
16.63555	498504
16.64367	490400
16.65180	472907
16.65992	484867
16.66803	527822
16.67617	553319
16.68428	540624
16.69242	504727
16.70053	474710
16.70865	475353
16.71678	484700
16.72490	476411
16.73303	488644
16.74115	470206
16.74927	451810
16.75740	460205
16.76552	465554
16.77365	474118
16.78177	479009
16.78988	495195
16.79802	489508
16.80613	509063
16.81425	573854
16.82238	628462
16.83050	603152
16.83863	526065
16.84675	483535
16.85487	470388
16.86300	448187
16.87112	429599
16.87925	441336
16.88737	442670
16.89548	449052
16.90362	460285
16.91173	464648
16.91987	475099
16.92798	478758
16.93610	477482
16.94423	475894
16.95235	477301
16.96047	474894
16.96860	495358
16.97672	527279
16.98485	551323
16.99297	560985
17.00108	545003
17.00922	492875
17.01733	460934
17.02547	438901
17.03358	424550
17.04170	414598
17.04983	433803
17.05795	443068
17.06607	455070
17.07420	493079
17.08232	514810
17.09045	543175
17.09857	572608
17.10668	604161
17.11482	623433
17.12293	656766
17.13107	656642
17.13918	643804
17.14730	611500
17.15543	558174
17.16355	508504
17.17168	495148
17.17980	486812
17.18792	507640
17.19605	524482
17.20417	507336
17.21228	476539
17.22042	456120
17.22853	434351
17.23667	428577
17.24478	433793
17.25290	431107
17.26103	434087
17.26915	462538
17.27728	454529
17.28540	445367
17.29352	438199
17.30165	446525
17.30977	509506
17.31788	687635
17.32602	972214
17.33413	1291157
17.34227	1445510
17.35038	1360563
17.35850	1147137
17.36663	922009
17.37475	752874
17.38288	647179
17.39100	584327
17.39912	542900
17.40725	505746
17.41537	493713
17.42350	476452
17.43162	468412
17.43973	484248
17.44787	600826
17.45598	1475758
17.46410	4328620
17.47223	7999921
17.48035	8560956
17.48848	6297558
17.49660	4087644
17.50472	2805633
17.51285	2140188
17.52097	1720593
17.52910	1431149
17.53722	1247045
17.54533	1088890
17.55347	959268
17.56158	873269
17.56972	814053
17.57783	740208
17.58595	701627
17.59408	656767
17.60220	612101
17.61032	583651
17.61845	548240
17.62657	546899
17.63470	558468
17.64282	569242
17.65093	657500
17.65907	859879
17.66718	1254420
17.67532	1776411
17.68343	2138433
17.69155	2187291
17.69968	1964212
17.70780	2353817
17.71592	4582072
17.72405	7368510
17.73217	8365388
17.74030	7998593
17.74842	7604650
17.75653	7007419
17.76467	6411255
17.77278	5826920
17.78092	5379880
17.78903	4875907
17.79715	4538174
17.80528	4222726
17.81340	3858692
17.82153	3605864
17.82965	3444471
17.83777	3205784
17.84590	3028423
17.85402	2835723
17.86213	2677203
17.87027	2602308
17.87838	2462395
17.88652	2321819
17.89463	2227212
17.90275	2099772
17.91088	1993301
17.91900	1854154
17.92713	1764678
17.93525	1694067
17.94337	1634168
17.95150	1589786
17.95962	1497199
17.96775	1470181
17.97587	1412936
17.98398	1361717
17.99212	1335231
18.00023	1294791
18.00835	1280766
18.01648	1342914
18.02460	1453597
18.03273	1579426
18.04085	1759727
18.04897	1836158
18.05710	1797810
18.06522	1681335
18.07335	1526907
18.08147	1423627
18.08958	1375909
18.09772	1378220
18.10583	1397152
18.11395	1416201
18.12208	1382052
18.13020	1303227
18.13833	1208061
18.14645	1079432
18.15457	1005208
18.16270	939932
18.17082	902343
18.17895	878412
18.18707	824869
18.19518	820157
18.20332	797659
18.21143	771900
18.21957	752623
18.22768	755626
18.23580	733522
18.24393	748047
18.25205	749992
18.26017	766436
18.26830	730203
18.27642	723763
18.28455	716550
18.29267	702938
18.30078	699478
18.30892	685112
18.31703	663151
18.32517	650829
18.33328	616926
18.34140	592839
18.34953	565509
18.35765	541508
18.36577	537607
18.37390	526609
18.38202	510989
18.39015	500229
18.39827	513510
18.40638	509948
18.41452	497273
18.42263	480810
18.43077	485861
18.43888	469820
18.44700	475190
18.45513	477836
18.46325	461020
18.47138	464471
18.47950	463284
18.48762	457285
18.49575	456777
18.50387	456681
18.51198	452917
18.52012	436360
18.52823	438050
18.53637	440667
18.54448	437035
18.55260	434018
18.56073	434401
18.56885	432275
18.57698	445426
18.58510	455686
18.59322	480258
18.60135	533543
18.60947	588691
18.61760	629739
18.62572	654424
18.63383	631536
18.64197	585943
18.65008	542697
18.65820	502944
18.66633	511523
18.67445	526446
18.68258	556235
18.69070	556435
18.69882	576649
18.70695	559427
18.71507	576171
18.72320	544023
18.73132	537518
18.73943	540263
18.74757	516629
18.75568	512084
18.76382	505319
18.77193	480933
18.78005	478225
18.78818	461657
18.79630	478636
18.80442	468478
18.81255	462808
18.82067	451586
18.82880	450228
18.83692	427039
18.84503	426044
18.85317	430078
18.86128	431924
18.86942	439148
18.87753	438789
18.88565	433061
18.89378	436588
18.90190	424394
18.91002	415930
18.91815	421244
18.92627	430983
18.93440	457699
18.94252	479986
18.95063	495408
18.95877	505356
18.96688	479397
18.97502	448198
18.98313	408067
18.99125	387392
18.99938	378671
19.00750	365980
19.01563	352162
19.02375	363101
19.03187	370630
19.04000	388803
19.04812	485903
19.05623	771877
19.06437	1445368
19.07248	2803675
19.08062	4823363
19.08873	7108762
19.09685	8709661
19.10498	8945906
19.11310	7872559
19.12123	6090687
19.12935	4158870
19.13747	2732997
19.14560	1880739
19.15372	1427966
19.16183	1166742
19.16997	982032
19.17808	882839
19.18622	788733
19.19433	708821
19.20245	656029
19.21058	598399
19.21870	536050
19.22683	502996
19.23495	498402
19.24307	540984
19.25120	671286
19.25932	963523
19.26745	1440697
19.27557	2075277
19.28368	2740105
19.29182	3263832
19.29993	3279299
19.30805	2911628
19.31618	2362696
19.32430	1823854
19.33243	1501562
19.34055	1226740
19.34867	1075094
19.35680	950557
19.36492	852042
19.37305	766125
19.38117	798439
19.38928	1638771
19.39742	6797065
19.40553	2.28543E+07
19.41367	4.033131E+07
19.42178	4.447791E+07
19.42990	4.234349E+07
19.43803	3.771075E+07
19.44615	3.344873E+07
19.45427	2.795552E+07
19.46240	2.249094E+07
19.47052	1.784768E+07
19.47865	1.333215E+07
19.48677	9718544
19.49488	7003724
19.50302	4722113
19.51113	3104679
19.51927	2020744
19.52738	1358721
19.53550	956361
19.54363	759566
19.55175	726008
19.55987	932006
19.56800	1507478
19.57612	2514554
19.58425	3691991
19.59237	4257977
19.60048	3978711
19.60862	3195691
19.61673	2594076
19.62487	2634483
19.63298	3917314
19.64110	6462352
19.64923	9382251
19.65735	1.110244E+07
19.66548	1.114275E+07
19.67360	9372649
19.68172	7160115
19.68985	4945626
19.69797	3244309
19.70608	2215287
19.71422	1624047
19.72233	1221417
19.73047	1030389
19.73858	888850
19.74670	810246
19.75483	751515
19.76295	709680
19.77108	658155
19.77920	611104
19.78732	545927
19.79545	527077
19.80357	503132
19.81170	495065
19.81982	473177
19.82793	463397
19.83607	444291
19.84418	448550
19.85230	452656
19.86043	462132
19.86855	525882
19.87668	651319
19.88480	825046
19.89292	1045608
19.90105	1213892
19.90917	1338393
19.91730	1437079
19.92542	1543849
19.93353	1647647
19.94167	1644610
19.94978	1567277
19.95790	1371037
19.96603	1140519
19.97415	972524
19.98228	834632
19.99040	772068
19.99852	703709
20.00665	669097
20.01477	625074
20.02290	603037
20.03102	565923
20.03913	529387
20.04727	491661
20.05538	458701
20.06352	442455
20.07163	409697
20.07975	415055
20.08788	407196
20.09600	390387
20.10412	401190
20.11225	388774
20.12037	385692
20.12850	384520
20.13662	375719
20.14473	371880
20.15287	362052
20.16098	360637
20.16912	370772
20.17723	379414
20.18535	448472
20.19348	701389
20.20160	1715083
20.20972	5127210
20.21785	1.431349E+07
20.22597	2.809706E+07
20.23410	3.972583E+07
20.24222	4.573922E+07
20.25033	4.383807E+07
20.25847	3.703388E+07
20.26658	2.766273E+07
20.27472	1.925681E+07
20.28283	1.264161E+07
20.29095	7981432
20.29908	5306220
20.30720	3573244
20.31533	2632963
20.32345	2032424
20.33157	1651387
20.33970	1406156
20.34782	1279271
20.35593	1251965
20.36407	1276540
20.37218	1484910
20.38032	1945748
20.38843	2841007
20.39655	4033344
20.40468	5249588
20.41280	6116475
20.42093	6404834
20.42905	6194778
20.43717	5995852
20.44530	5515393
20.45342	4819066
20.46155	3912870
20.46967	3092204
20.47778	2734023
20.48592	3035026
20.49403	3662706
20.50215	3967081
20.51028	3578031
20.51840	2802588
20.52653	2046901
20.53465	1556677
20.54277	1241186
20.55090	1028556
20.55902	916074
20.56715	849308
20.57527	845667
20.58338	895935
20.59152	998043
20.59963	1078580
20.60775	1090790
20.61588	1059716
20.62400	1023962
20.63213	942132
20.64025	881011
20.64837	823431
20.65650	785827
20.66462	748724
20.67275	722940
20.68087	724397
20.68898	756042
20.69712	841014
20.70523	897497
20.71337	920284
20.72148	923100
20.72960	885527
20.73773	896485
20.74585	864192
20.75397	841899
20.76210	825470
20.77022	814555
20.77835	827432
20.78647	795285
20.79458	764616
20.80272	719026
20.81083	691932
20.81897	652981
20.82708	632472
20.83520	614266
20.84333	589960
20.85145	583940
20.85958	573276
20.86770	547632
20.87582	554403
20.88395	525308
20.89207	502153
20.90018	496344
20.90832	479662
20.91643	488215
20.92457	482847
20.93268	470328
20.94080	460606
20.94893	449232
20.95705	436307
20.96518	439914
20.97330	421812
20.98142	409966
20.98955	414220
20.99767	420713
21.00578	421445
21.01392	416829
21.02203	401880
21.03017	418193
21.03828	407566
21.04640	406578
21.05453	406305
21.06265	411173
21.07078	417568
21.07890	423119
21.08702	417132
21.09515	401048
21.10327	399528
21.11140	404536
21.11952	413596
21.12763	432556
21.13577	465161
21.14388	525381
21.15200	567136
21.16013	571942
21.16825	575342
21.17638	600597
21.18450	706610
21.19262	947145
21.20075	1238416
21.20887	1413025
21.21700	1426125
21.22512	1295541
21.23323	1123526
21.24137	1003008
21.24948	923272
21.25762	798406
21.26573	706165
21.27385	627091
21.28198	558074
21.29010	526014
21.29822	488684
21.30635	479984
21.31447	468194
21.32260	473491
21.33072	518117
21.33883	539733
21.34697	632884
21.35508	694626
21.36322	705571
21.37133	673358
21.37945	610029
21.38758	551967
21.39570	505590
21.40382	475989
21.41195	483735
21.42007	503497
21.42820	555844
21.43632	684609
21.44443	971632
21.45257	1351739
21.46068	1823516
21.46882	1956159
21.47693	1915842
21.48505	1755258
21.49318	1684414
21.50130	1780847
21.50943	1843362
21.51755	1719147
21.52567	1452615
21.53380	1098657
21.54192	914992
21.55003	1166302
21.55817	2555450
21.56628	6754075
21.57442	1.436621E+07
21.58253	2.167917E+07
21.59065	2.576132E+07
21.59878	2.536974E+07
21.60690	2.194306E+07
21.61503	1.811118E+07
21.62315	1.367134E+07
21.63127	1.002114E+07
21.63940	7267414
21.64752	5004634
21.65563	3489787
21.66377	2569323
21.67188	2080570
21.68002	1886842
21.68813	1829924
21.69625	1957489
21.70438	2025822
21.71250	2024023
21.72063	1877757
21.72875	1619482
21.73687	1433670
21.74500	1465053
21.75312	1916538
21.76125	3039962
21.76937	4950771
21.77748	7256429
21.78562	9143643
21.79373	9448574
21.80185	8830406
21.80998	7269570
21.81810	5533867
21.82623	4076189
21.83435	2923244
21.84247	2120698
21.85060	1503725
21.85872	1212890
21.86685	1051592
21.87497	1029223
21.88308	1153816
21.89122	1343897
21.89933	1540330
21.90747	1632175
21.91558	1541550
21.92370	1297806
21.93183	1078550
21.93995	885873
21.94807	777393
21.95620	769725
21.96432	733164
21.97245	734110
21.98057	711823
21.98868	704092
21.99682	693673
22.00493	665166
22.01307	661632
22.02118	660986
22.02930	688985
22.03743	710107
22.04555	739209
22.05367	750800
22.06180	753199
22.06992	772885
22.07805	794547
22.08617	879065
22.09428	1022521
22.10242	1131290
22.11053	1234888
22.11867	1246212
22.12678	1149680
22.13490	1029323
22.14303	932019
22.15115	900103
22.15928	989470
22.16740	1213329
22.17552	1609188
22.18365	1995586
22.19177	2345749
22.19988	2357106
22.20802	2155098
22.21613	1841915
22.22427	1474911
22.23238	1130943
22.24050	880850
22.24863	760641
22.25675	657404
22.26488	619630
22.27300	600673
22.28112	618788
22.28925	647100
22.29737	656913
22.30550	659555
22.31362	678027
22.32173	708075
22.32987	752296
22.33798	798426
22.34610	827348
22.35423	865115
22.36235	966052
22.37048	1064408
22.37860	1133189
22.38672	1168708
22.39485	1075556
22.40297	996374
22.41110	976181
22.41922	1117197
22.42733	1406867
22.43547	1839294
22.44358	2299293
22.45170	2549818
22.45983	2515273
22.46795	2298967
22.47608	1915633
22.48420	1451073
22.49232	1133178
22.50045	910331
22.50857	782487
22.51670	710362
22.52482	687482
22.53293	691218
22.54107	745436
22.54918	802328
22.55732	853093
22.56543	860209
22.57355	818412
22.58168	761765
22.58980	702193
22.59792	701543
22.60605	689615
22.61417	671626
22.62230	617805
22.63042	542039
22.63853	494562
22.64667	456832
22.65478	443626
22.66292	447561
22.67103	453164
22.67915	478514
22.68728	490147
22.69540	482232
22.70352	474417
22.71165	469162
22.71977	434424
22.72790	417176
22.73602	403049
22.74413	385092
22.75227	379901
22.76038	364208
22.76852	372124
22.77663	409456
22.78475	485744
22.79288	653299
22.80100	842921
22.80913	959291
22.81725	938375
22.82537	801903
22.83350	686978
22.84162	571208
22.84973	540079
22.85787	529011
22.86598	525712
22.87412	534694
22.88223	541986
22.89035	570342
22.89848	624748
22.90660	702702
22.91473	809814
22.92285	901644
22.93097	947430
22.93910	918632
22.94722	896685
22.95535	838183
22.96347	821799
22.97158	841645
22.97972	900194
22.98783	892471
22.99595	864014
23.00408	794295
23.01220	743885
23.02033	740192
23.02845	799059
23.03657	877872
23.04470	935261
23.05282	872952
23.06095	762429
23.06907	623336
23.07718	522769
23.08532	451303
23.09343	422335
23.10155	392996
23.10968	402056
23.11780	405725
23.12593	422322
23.13405	433264
23.14217	459381
23.15030	465049
23.15842	490762
23.16655	516343
23.17467	546087
23.18278	564006
23.19092	557152
23.19903	530771
23.20717	500108
23.21528	476441
23.22340	475016
23.23153	439703
23.23965	433107
23.24777	420589
23.25590	433390
23.26402	434484
23.27215	437444
23.28027	464908
23.28838	481238
23.29652	529523
23.30463	568985
23.31277	593672
23.32088	604031
23.32900	581138
23.33713	547719
23.34525	489871
23.35338	477730
23.36150	456893
23.36962	459356
23.37775	470479
23.38587	491476
23.39398	522129
23.40212	560651
23.41023	627710
23.41837	698271
23.42648	734342
23.43460	774844
23.44273	827330
23.45085	848779
23.45898	864187
23.46710	865158
23.47522	854014
23.48335	840491
23.49147	821128
23.49958	809436
23.50772	765964
23.51583	767266
23.52397	756453
23.53208	738304
23.54020	736054
23.54833	741104
23.55645	748868
23.56458	716590
23.57270	688817
23.58082	653264
23.58895	615706
23.59707	604220
23.60520	594572
23.61332	570192
23.62143	568411
23.62957	566026
23.63768	601354
23.64580	645653
23.65393	688458
23.66205	723008
23.67018	747615
23.67830	745660
23.68642	712127
23.69455	688750
23.70267	660261
23.71080	631845
23.71892	634226
23.72703	663543
23.73517	860032
23.74328	1445499
23.75140	2591413
23.75953	4306605
23.76765	6194683
23.77578	7471015
23.78390	7490168
23.79202	6966595
23.80015	5603938
23.80827	4285709
23.81640	3188708
23.82452	2362660
23.83263	1806558
23.84077	1453193
23.84888	1255656
23.85702	1185889
23.86513	1252083
23.87325	1481700
23.88138	1770440
23.88950	2002659
23.89762	2139766
23.90575	2037583
23.91387	1823855
23.92200	1507817
23.93012	1270974
23.93823	1104033
23.94637	970623
23.95448	883258
23.96262	817051
23.97073	786939
23.97885	740392
23.98698	700150
23.99510	682846
24.00323	644066
24.01135	614546
24.01947	581252
24.02760	574018
24.03572	589422
24.04383	727314
24.05197	1072734
24.06008	1877274
24.06822	3247201
24.07633	4374187
24.08445	4863634
24.09258	4565544
24.10070	3896513
24.10883	3087013
24.11695	2478261
24.12507	2060272
24.13320	1869614
24.14132	2003631
24.14945	2542372
24.15757	3315886
24.16568	3874523
24.17382	3968322
24.18193	3499143
24.19005	2762641
24.19818	2074450
24.20630	1606982
24.21443	1296594
24.22255	1118804
24.23067	941938
24.23880	856836
24.24692	760376
24.25505	733847
24.26317	842672
24.27128	1814297
24.27942	7169703
24.28753	2.056118E+07
24.29565	3.220639E+07
24.30378	3.446252E+07
24.31190	3.274642E+07
24.32003	2.899723E+07
24.32815	2.555934E+07
24.33627	2.150046E+07
24.34440	1.801847E+07
24.35252	1.425857E+07
24.36065	1.10693E+07
24.36877	8812109
24.37688	7099144
24.38502	5725122
24.39313	4612054
24.40127	3890019
24.40938	4914566
24.41750	8765998
24.42563	1.36278E+07
24.43375	1.55817E+07
24.44187	1.532015E+07
24.45000	1.36508E+07
24.45812	1.129563E+07
24.46625	9117845
24.47437	7270763
24.48248	5902542
24.49062	4946382
24.49873	4290225
24.50687	3671717
24.51498	3035023
24.52310	2451004
24.53123	2008565
24.53935	1698356
24.54747	1442487
24.55560	1311330
24.56372	1207279
24.57185	1158380
24.57997	1305780
24.58808	1655180
24.59622	2285958
24.60433	2870979
24.61247	3124528
24.62058	2931580
24.62870	2446143
24.63683	1862702
24.64495	1488430
24.65308	1211245
24.66120	1023857
24.66932	947604
24.67745	865805
24.68557	792121
24.69368	737262
24.70182	720289
24.70993	680981
24.71807	662391
24.72618	645739
24.73430	664109
24.74243	654513
24.75055	667481
24.75868	687141
24.76680	732579
24.77492	811012
24.78305	881581
24.79117	929699
24.79930	971690
24.80742	929502
24.81553	884130
24.82367	802364
24.83178	738775
24.83990	688530
24.84803	659997
24.85615	642555
24.86428	643161
24.87240	662691
24.88052	695162
24.88865	727081
24.89677	702880
24.90490	680019
24.91302	644269
24.92113	590107
24.92927	543125
24.93738	525136
24.94550	497461
24.95363	482312
24.96175	476035
24.96988	473776
24.97800	463514
24.98612	452987
24.99425	448989
25.00237	448655
25.01050	438342
25.01862	442489
25.02673	440702
25.03487	462339
25.04298	449362
25.05112	466713
25.05923	466866
25.06735	479544
25.07548	479164
25.08360	491623
25.09172	475774
25.09985	454748
25.10797	485134
25.11610	489880
25.12422	499256
25.13233	536232
25.14047	584556
25.14858	593790
25.15672	595749
25.16483	600479
25.17295	611646
25.18108	616467
25.18920	629140
25.19733	674777
25.20545	713438
25.21357	765604
25.22170	761495
25.22982	721310
25.23793	667785
25.24607	595001
25.25418	547058
25.26232	509706
25.27043	521463
25.27855	539534
25.28668	600163
25.29480	683277
25.30293	749866
25.31105	809697
25.31917	822305
25.32730	806142
25.33542	757713
25.34353	702623
25.35167	641518
25.35978	573616
25.36792	510798
25.37603	469951
25.38415	438133
25.39228	436203
25.40040	459466
25.40853	512454
25.41665	637383
25.42477	804519
25.43290	1049799
25.44102	1376277
25.44915	1904699
25.45727	2583623
25.46538	3392655
25.47352	4318548
25.48163	4905072
25.48975	5158038
25.49788	4628706
25.50600	3803425
25.51413	2844123
25.52225	2093598
25.53037	1538525
25.53850	1219914
25.54662	1001759
25.55475	900947
25.56287	808828
25.57098	783735
25.57912	743754
25.58723	723616
25.59535	681236
25.60348	647676
25.61160	629101
25.61973	594245
25.62785	571427
25.63597	535571
25.64410	521854
25.65222	508579
25.66035	512256
25.66847	520024
25.67658	542949
25.68472	537950
25.69283	539518
25.70097	556317
25.70908	545704
25.71720	545955
25.72533	561436
25.73345	574953
25.74157	631070
25.74970	694991
25.75782	725393
25.76595	716957
25.77407	696758
25.78218	659306
25.79032	688546
25.79843	768050
25.80657	847325
25.81468	878063
25.82280	815234
25.83093	704509
25.83905	598775
25.84718	519489
25.85530	477400
25.86342	461916
25.87155	480572
25.87967	497678
25.88778	534063
25.89592	545487
25.90403	572481
25.91217	581038
25.92028	562507
25.92840	573667
25.93653	547418
25.94465	533692
25.95278	524591
25.96090	512262
25.96902	482172
25.97715	469280
25.98527	476166
25.99338	491829
26.00152	502120
26.00963	503327
26.01777	485704
26.02588	456382
26.03400	442716
26.04213	446380
26.05025	455909
26.05838	469425
26.06650	477923
26.07462	475032
26.08275	480714
26.09087	495717
26.09900	516022
26.10712	544550
26.11523	610390
26.12337	680497
26.13148	737319
26.13960	780410
26.14773	763008
26.15585	767094
26.16398	703174
26.17210	658871
26.18022	638041
26.18835	622773
26.19647	655235
26.20460	726552
26.21272	805686
26.22083	829162
26.22897	818126
26.23708	787087
26.24522	737400
26.25333	723507
26.26145	786918
26.26958	821635
26.27770	816174
26.28582	759416
26.29395	659893
26.30207	601297
26.31020	545302
26.31832	527974
26.32643	488745
26.33457	486344
26.34268	500658
26.35082	512915
26.35893	566066
26.36705	620720
26.37518	673144
26.38330	701312
26.39142	675145
26.39955	612549
26.40767	553122
26.41580	508320
26.42392	483870
26.43203	487211
26.44017	464846
26.44828	459850
26.45642	439177
26.46453	448837
26.47265	439889
26.48078	443562
26.48890	433585
26.49703	435319
26.50515	424073
26.51327	402622
26.52140	405999
26.52952	411515
26.53763	413861
26.54577	423154
26.55388	434946
26.56202	422342
26.57013	415174
26.57825	418021
26.58638	425152
26.59450	425360
26.60263	449844
26.61075	465756
26.61887	505943
26.62700	577981
26.63512	684780
26.64323	793954
26.65137	904921
26.65948	1045106
26.66762	1185256
26.67573	1363661
26.68385	1512461
26.69198	1597648
26.70010	1460476
26.70823	1207253
26.71635	943669
26.72447	770233
26.73260	684893
26.74072	643908
26.74885	619871
26.75697	609986
26.76508	576289
26.77322	585921
26.78133	651508
26.78945	771627
26.79758	1016615
26.80570	1293601
26.81383	1534757
26.82195	1549204
26.83007	1423945
26.83820	1201449
26.84632	964088
26.85445	822430
26.86257	732116
26.87068	717510
26.87882	705628
26.88693	736462
26.89507	810727
26.90318	995955
26.91130	1306094
26.91943	2074441
26.92755	4326752
26.93567	1.08183E+07
26.94380	2.617603E+07
26.95192	4.666771E+07
26.96005	6.657135E+07
26.96817	8.309643E+07
26.97628	9.372712E+07
26.98442	9.551397E+07
26.99253	9.04169E+07
27.00067	8.126311E+07
27.00878	7.024447E+07
27.01690	5.985756E+07
27.02503	5.037889E+07
27.03315	4.219828E+07
27.04127	3.507858E+07
27.04940	2.779919E+07
27.05752	2.147318E+07
27.06565	1.614497E+07
27.07377	1.23416E+07
27.08188	9273895
27.09002	7222777
27.09813	5830332
27.10627	5047111
27.11438	4402709
27.12250	3957019
27.13063	3615156
27.13875	3265499
27.14688	3159431
27.15500	2970460
27.16312	2912842
27.17125	2775864
27.17937	2661595
27.18748	2550753
27.19562	2416995
27.20373	2352054
27.21187	2334209
27.21998	2497722
27.22810	3272202
27.23623	5314587
27.24435	9452693
27.25248	1.589251E+07
27.26060	2.223107E+07
27.26872	2.636572E+07
27.27685	2.757679E+07
27.28497	2.629006E+07
27.29310	2.385266E+07
27.30122	1.999055E+07
27.30933	1.627572E+07
27.31747	1.261541E+07
27.32558	9767515
27.33370	7398931
27.34183	5887582
27.34995	4940593
27.35808	4207267
27.36620	3719712
27.37432	3323329
27.38245	2976123
27.39057	2745841
27.39870	2558087
27.40682	2381048
27.41493	2263725
27.42307	2278871
27.43118	2561895
27.43930	3215534
27.44743	4027545
27.45555	4525056
27.46368	4446215
27.47180	3960776
27.47992	3419498
27.48805	2963592
27.49617	2528710
27.50430	2204162
27.51242	2045288
27.52053	2093299
27.52867	2326926
27.53678	2586003
27.54492	2768601
27.55303	2761611
27.56115	2627110
27.56928	2364692
27.57740	2095075
27.58552	1846004
27.59365	1657972
27.60177	1546880
27.60990	1459312
27.61802	1385506
27.62613	1327191
27.63427	1291012
27.64238	1261588
27.65052	1232796
27.65863	1222718
27.66675	1195299
27.67488	1184068
27.68300	1184774
27.69113	1158517
27.69925	1131169
27.70737	1125153
27.71550	1122462
27.72362	1099245
27.73173	1114602
27.73987	1130202
27.74798	1118358
27.75612	1100709
27.76423	1045875
27.77235	1029283
27.78048	1033663
27.78860	1028460
27.79673	999329
27.80485	1022611
27.81297	1029892
27.82110	1030155
27.82922	1045860
27.83733	1022554
27.84547	1034644
27.85358	1041007
27.86172	1034526
27.86983	1041759
27.87795	1031055
27.88608	1006263
27.89420	1010723
27.90233	1005304
27.91045	1030431
27.91857	1047390
27.92670	1080832
27.93482	1197121
27.94295	1385403
27.95107	1576417
27.95918	1825322
27.96732	2030186
27.97543	2036294
27.98355	1964279
27.99168	1794288
27.99980	1538191
28.00793	1318784
28.01605	1153823
28.02417	1020890
28.03230	944037
28.04042	905128
28.04855	881577
28.05667	865779
28.06478	841814
28.07292	845296
28.08103	892421
28.08915	1193982
28.09728	2272872
28.10540	4719881
28.11353	6929934
28.12165	7737003
28.12977	7326701
28.13790	6553013
28.14602	5749520
28.15415	4913054
28.16227	4080553
28.17038	3307599
28.17852	2623301
28.18663	2114866
28.19477	1755473
28.20288	1588184
28.21100	1736498
28.21913	2603568
28.22725	5504851
28.23537	1.272289E+07
28.24350	2.643383E+07
28.25162	4.35963E+07
28.25975	6.001088E+07
28.26787	7.353236E+07
28.27598	8.086981E+07
28.28412	8.412939E+07
28.29223	8.225541E+07
28.30037	7.744708E+07
28.30848	7.130466E+07
28.31660	6.526495E+07
28.32473	5.651908E+07
28.33285	4.808002E+07
28.34098	4.241977E+07
28.34910	3.746812E+07
28.35722	3.316953E+07
28.36535	3.002305E+07
28.37347	2.744186E+07
28.38158	2.468994E+07
28.38972	2.1869E+07
28.39783	1.797088E+07
28.40597	1.50032E+07
28.41408	1.220082E+07
28.42220	1.030722E+07
28.43033	9129643
28.43845	9156008
28.44658	1.039672E+07
28.45470	1.228164E+07
28.46282	1.480986E+07
28.47095	1.733725E+07
28.47907	1.977815E+07
28.48718	2.056928E+07
28.49532	2.079087E+07
28.50343	2.008923E+07
28.51157	1.894006E+07
28.51968	1.784947E+07
28.52780	1.630997E+07
28.53593	1.467646E+07
28.54405	1.275181E+07
28.55218	1.149698E+07
28.56030	1.006877E+07
28.56842	8832883
28.57655	8037136
28.58467	7052492
28.59280	6275377
28.60092	5579691
28.60903	5059212
28.61717	4601857
28.62528	4294067
28.63340	4099286
28.64153	4140051
28.64965	5314455
28.65778	1.20154E+07
28.66590	2.379522E+07
28.67402	2.847485E+07
28.68215	2.754216E+07
28.69027	2.526289E+07
28.69840	2.276154E+07
28.70652	1.985495E+07
28.71463	1.697872E+07
28.72277	1.395325E+07
28.73088	1.122211E+07
28.73902	8663121
28.74713	6489378
28.75525	4954577
28.76338	4125586
28.77150	3894254
28.77962	3832144
28.78775	3605128
28.79587	3252832
28.80400	2861336
28.81212	2549719
28.82023	2283862
28.82837	2092431
28.83648	2000640
28.84462	1874153
28.85273	1836870
28.86085	1790712
28.86898	1753466
28.87710	1727991
28.88522	1727936
28.89335	1741314
28.90147	1692524
28.90960	1669243
28.91772	1668454
28.92583	1646118
28.93397	1653744
28.94208	1608697
28.95022	1586768
28.95833	1605827
28.96645	1576423
28.97458	1539188
28.98270	1491226
28.99083	1455928
28.99895	1441114
29.00707	1446552
29.01520	1453949
29.02332	1426549
29.03143	1435333
29.03957	1437430
29.04768	1441488
29.05582	1428272
29.06393	1464369
29.07205	1468910
29.08018	1465862
29.08830	1429891
29.09643	1417186
29.10455	1388176
29.11267	1375831
29.12080	1352103
29.12892	1365043
29.13703	1314183
29.14517	1288552
29.15328	1271727
29.16142	1247580
29.16953	1232432
29.17765	1187414
29.18578	1187992
29.19390	1195958
29.20203	1195085
29.21015	1181727
29.21827	1192307
29.22640	1199268
29.23452	1235119
29.24265	1231178
29.25077	1233347
29.25888	1243595
29.26702	1275063
29.27513	1290571
29.28325	1303758
29.29138	1351338
29.29950	1345633
29.30763	1355329
29.31575	1316324
29.32387	1309856
29.33200	1262821
29.34012	1237743
29.34825	1191584
29.35637	1177269
29.36448	1173448
29.37262	1212597
29.38073	1198713
29.38887	1279317
29.39698	1323463
29.40510	1400204
29.41323	1467109
29.42135	1547104
29.42947	1651563
29.43760	1732693
29.44572	1716338
29.45385	1656638
29.46197	1530569
29.47008	1446763
29.47822	1372211
29.48633	1338919
29.49447	1334544
29.50258	1306014
29.51070	1304940
29.51883	1257457
29.52695	1267127
29.53508	1347216
29.54320	1446203
29.55132	1538460
29.55945	1584894
29.56757	1596569
29.57568	1606315
29.58382	1573890
29.59193	1584992
29.60007	1559141
29.60818	1573271
29.61630	1552717
29.62443	1568856
29.63255	1552273
29.64068	1525818
29.64880	1478847
29.65692	1462368
29.66505	1433049
29.67317	1414166
29.68128	1438540
29.68942	1490711
29.69753	1529937
29.70567	1539063
29.71378	1587545
29.72190	1601035
29.73003	1627432
29.73815	1613495
29.74628	1581111
29.75440	1504459
29.76252	1407654
29.77065	1317759
29.77877	1235866
29.78690	1210059
29.79502	1193033
29.80313	1116529
29.81127	1118499
29.81938	1090764
29.82750	1084791
29.83563	1121034
29.84375	1192720
29.85188	1429774
29.86000	2011251
29.86812	3358904
29.87625	5879960
29.88437	1.039736E+07
29.89250	1.672442E+07
29.90062	2.368423E+07
29.90873	3.06005E+07
29.91687	3.623861E+07
29.92498	3.985464E+07
29.93310	4.251851E+07
29.94123	4.283246E+07
29.94935	4.156506E+07
29.95748	3.911565E+07
29.96560	3.634727E+07
29.97372	3.37529E+07
29.98185	3.089448E+07
29.98997	2.809273E+07
29.99810	2.598618E+07
30.00622	2.377851E+07
30.01433	2.223164E+07
30.02247	2.075833E+07
30.03058	1.946777E+07
30.03872	1.799186E+07
30.04683	1.650214E+07
30.05495	1.527646E+07
30.06308	1.418801E+07
30.07120	1.302633E+07
30.07932	1.185313E+07
30.08745	1.082744E+07
30.09557	1.016836E+07
30.10370	9471729
30.11182	8600653
30.11993	7652095
30.12807	6863314
30.13618	6060552
30.14432	5546606
30.15243	5343807
30.16055	5086266
30.16868	4746320
30.17680	4323999
30.18493	3817692
30.19305	3446448
30.20117	3192949
30.20930	2935345
30.21742	2772641
30.22553	2583933
30.23367	2465288
30.24178	2367787
30.24992	2216973
30.25803	2147541
30.26615	2101122
30.27428	2092756
30.28240	2046647
30.29053	2024880
30.29865	1944266
30.30677	1922609
30.31490	1884199
30.32302	1838967
30.33113	1816844
30.33927	1776781
30.34738	1754472
30.35552	1683492
30.36363	1672233
30.37175	1629065
30.37988	1637748
30.38800	1621197
30.39613	1664982
30.40425	1688886
30.41237	1694552
30.42050	1680784
30.42862	1677765
30.43675	1628561
30.44487	1625768
30.45298	1569508
30.46112	1491983
30.46923	1518801
30.47735	1509003
30.48548	1515119
30.49360	1515932
30.50173	1447026
30.50985	1372766
30.51797	1313724
30.52610	1251215
30.53422	1237502
30.54235	1225159
30.55047	1287047
30.55858	1416516
30.56672	1581563
30.57483	1849694
30.58297	2192655
30.59108	2445989
30.59920	2561881
30.60733	2531300
30.61545	2301811
30.62357	2014105
30.63170	1747449
30.63982	1569562
30.64795	1472502
30.65607	1418000
30.66418	1364638
30.67232	1318579
30.68043	1225003
30.68857	1171777
30.69668	1150904
30.70480	1166308
30.71293	1199310
30.72105	1218120
30.72917	1293647
30.73730	1345842
30.74542	1450024
30.75355	1565461
30.76167	1616046
30.76978	1603665
30.77792	1570451
30.78603	1503583
30.79417	1463720
30.80228	1429274
30.81040	1404385
30.81853	1326865
30.82665	1271029
30.83478	1208881
30.84290	1165348
30.85102	1147912
30.85915	1123068
30.86727	1107648
30.87538	1098257
30.88352	1067259
30.89163	1038876
30.89977	1030823
30.90788	1018731
30.91600	1001862
30.92413	1026782
30.93225	1021096
30.94038	1045928
30.94850	1075557
30.95662	1103889
30.96475	1147569
30.97287	1178143
30.98098	1189784
30.98912	1204239
30.99723	1203685
31.00537	1215405
31.01348	1224571
31.02160	1213551
31.02973	1211655
31.03785	1185287
31.04598	1147854
31.05410	1127435
31.06222	1124109
31.07035	1160993
31.07847	1293041
31.08660	1480081
31.09472	1795053
31.10283	2313538
31.11097	3096915
31.11908	4047189
31.12720	5059684
31.13533	5945313
31.14345	6546868
31.15158	6482168
31.15970	6095310
31.16782	5872672
31.17595	5817588
31.18407	6131482
31.19220	6765290
31.20032	7572279
31.20843	7790618
31.21657	7245482
31.22468	6160929
31.23282	4761837
31.24093	3509240
31.24905	2548914
31.25718	1918830
31.26530	1553989
31.27342	1353170
31.28155	1247695
31.28967	1185871
31.29780	1189363
31.30592	1253435
31.31403	1499316
31.32217	2001073
31.33028	2769373
31.33842	3481682
31.34653	3871869
31.35465	4023683
31.36278	3966783
31.37090	3675182
31.37902	3343424
31.38715	2938618
31.39527	2524482
31.40340	2226291
31.41152	2001997
31.41963	1886894
31.42777	1843647
31.43588	1945338
31.44402	2037582
31.45213	2085173
31.46025	2053766
31.46838	1981151
31.47650	1785036
31.48463	1631599
31.49275	1449943
31.50087	1314874
31.50900	1250027
31.51712	1215887
31.52523	1210590
31.53337	1198068
31.54148	1214785
31.54962	1198914
31.55773	1209783
31.56585	1206881
31.57398	1270468
31.58210	1254767
31.59023	1304055
31.59835	1288539
31.60647	1297010
31.61460	1329232
31.62272	1395841
31.63085	1443587
31.63897	1580539
31.64708	1680802
31.65522	1811232
31.66333	1961734
31.67145	2014871
31.67958	2031669
31.68770	2055682
31.69583	1969906
31.70395	1863235
31.71207	1745116
31.72020	1585442
31.72832	1436026
31.73645	1298903
31.74457	1224802
31.75268	1176469
31.76082	1168321
31.76893	1159746
31.77705	1161564
31.78518	1181959
31.79330	1212604
31.80143	1285299
31.80955	1514698
31.81767	1993586
31.82580	3181323
31.83392	5558470
31.84205	9666724
31.85017	1.545064E+07
31.85828	2.092483E+07
31.86642	2.659807E+07
31.87453	3.112654E+07
31.88267	3.405181E+07
31.89078	3.545449E+07
31.89890	3.555484E+07
31.90703	3.54984E+07
31.91515	3.400774E+07
31.92327	3.169142E+07
31.93140	2.847576E+07
31.93952	2.634512E+07
31.94765	2.440061E+07
31.95577	2.312966E+07
31.96388	2.269789E+07
31.97202	2.324644E+07
31.98013	2.278389E+07
31.98827	2.139038E+07
31.99638	1.966038E+07
32.00450	1.768179E+07
32.01263	1.576436E+07
32.02075	1.377333E+07
32.02888	1.170752E+07
32.03700	9969447
32.04512	8677633
32.05325	7489613
32.06137	6458148
32.06948	5545170
32.07762	4856544
32.08573	4382451
32.09387	3996504
32.10198	3639959
32.11010	3255371
32.11823	2967867
32.12635	2724864
32.13448	2542898
32.14260	2398997
32.15072	2268352
32.15885	2173077
32.16697	2089540
32.17508	2043474
32.18322	1969373
32.19133	1964499
32.19947	1959093
32.20758	2027017
32.21570	2158573
32.22383	2331190
32.23195	2502741
32.24008	2725930
32.24820	2868057
32.25632	2947702
32.26445	3073230
32.27257	3224076
32.28070	3306339
32.28882	3385661
32.29693	3272502
32.30507	3100341
32.31318	2905311
32.32130	2728884
32.32943	2627076
32.33755	2529973
32.34568	2400145
32.35380	2202669
32.36192	2020951
32.37005	1849672
32.37817	1721810
32.38630	1621502
32.39442	1592565
32.40253	1586052
32.41067	1577701
32.41878	1616750
32.42690	1596072
32.43503	1608719
32.44315	1585703
32.45128	1559833
32.45940	1544635
32.46752	1532506
32.47565	1514729
32.48377	1513842
32.49190	1517831
32.50002	1533742
32.50813	1506676
32.51627	1493524
32.52438	1593106
32.53252	2298773
32.54063	6577541
32.54875	1.571754E+07
32.55688	2.212739E+07
32.56500	2.266382E+07
32.57312	2.162137E+07
32.58125	1.975665E+07
32.58937	1.784246E+07
32.59750	1.591706E+07
32.60562	1.406398E+07
32.61373	1.21277E+07
32.62187	1.020276E+07
32.62998	8338509
32.63812	6648435
32.64623	5123776
32.65435	3849909
32.66248	2877224
32.67060	2232756
32.67873	1868602
32.68685	1671635
32.69497	1583968
32.70310	1560306
32.71122	1594048
32.71933	1587587
32.72747	1632007
32.73558	1659059
32.74372	1663007
32.75183	1630665
32.75995	1586918
32.76808	1474322
32.77620	1415338
32.78433	1352666
32.79245	1319865
32.80057	1314759
32.80870	1292088
32.81682	1287831
32.82493	1275815
32.83307	1254732
32.84118	1255850
32.84932	1274396
32.85743	1296276
32.86555	1372418
32.87368	1512198
32.88180	1649872
32.88993	1848226
32.89805	2035283
32.90617	2233712
32.91430	2305734
32.92242	2259626
32.93055	2036805
32.93867	1829298
32.94678	1599844
32.95492	1443723
32.96303	1332980
32.97115	1286088
32.97928	1262267
32.98740	1230694
32.99553	1213680
33.00365	1205101
33.01177	1210922
33.01990	1216892
33.02802	1229258
33.03615	1282125
33.04427	1352835
33.05238	1522842
33.06052	1777043
33.06863	2094804
33.07677	2648535
33.08488	3256025
33.09300	3954735
33.10113	4684479
33.10925	5068668
33.11737	5206602
33.12550	4792092
33.13362	4142715
33.14175	3565489
33.14987	3050068
33.15798	2648774
33.16612	2299191
33.17423	2012984
33.18237	1776844
33.19048	1652993
33.19860	1590427
33.20673	1532450
33.21485	1482540
33.22297	1417610
33.23110	1385757
33.23922	1337776
33.24735	1278382
33.25547	1255548
33.26358	1255834
33.27172	1258694
33.27983	1273842
33.28797	1302747
33.29608	1305739
33.30420	1297663
33.31233	1276834
33.32045	1258988
33.32858	1244346
33.33670	1240918
33.34482	1213964
33.35295	1212220
33.36107	1202183
33.36918	1184960
33.37732	1174698
33.38543	1177167
33.39357	1181340
33.40168	1167210
33.40980	1186551
33.41793	1201404
33.42605	1234862
33.43418	1191324
33.44230	1205393
33.45042	1207615
33.45855	1198346
33.46667	1164312
33.47478	1171487
33.48292	1166113
33.49103	1173565
33.49917	1211506
33.50728	1246099
33.51540	1328280
33.52353	1407605
33.53165	1497800
33.53978	1568579
33.54790	1621727
33.55602	1643509
33.56415	1665613
33.57227	1685128
33.58040	1701738
33.58852	1765015
33.59663	1777524
33.60477	1823288
33.61288	1799204
33.62100	1770704
33.62913	1738844
33.63725	1738847
33.64538	1714207
33.65350	1700700
33.66162	1636620
33.66975	1574644
33.67787	1526712
33.68600	1465927
33.69412	1422262
33.70223	1392202
33.71037	1395764
33.71848	1393797
33.72662	1508540
33.73473	1713166
33.74285	2139642
33.75098	2884119
33.75910	4006750
33.76722	5156539
33.77535	6287229
33.78347	6907610
33.79160	6946434
33.79972	6216158
33.80783	5277315
33.81597	4390936
33.82408	3614821
33.83222	3145317
33.84033	2915112
33.84845	2747163
33.85658	2579953
33.86470	2463270
33.87282	2330600
33.88095	2238889
33.88907	2202385
33.89720	2164169
33.90532	2206684
33.91343	2198101
33.92157	2138443
33.92968	1990801
33.93782	1825016
33.94593	1747854
33.95405	1666119
33.96218	1596305
33.97030	1559717
33.97843	1527572
33.98655	1493624
33.99467	1492852
34.00280	1483424
34.01092	1482171
34.01903	1521607
34.02717	1576796
34.03528	1651677
34.04342	1717007
34.05153	1769129
34.05965	1721302
34.06778	1613399
34.07590	1560299
34.08403	1463316
34.09215	1415569
34.10027	1394629
34.10840	1398308
34.11652	1455142
34.12465	1492559
34.13277	1548147
34.14088	1592953
34.14902	1634815
34.15713	1630048
34.16525	1644596
34.17338	1599986
34.18150	1531672
34.18963	1528351
34.19775	1471016
34.20587	1435106
34.21400	1435071
34.22212	1463020
34.23025	1472423
34.23837	1462384
34.24648	1485704
34.25462	1480080
34.26273	1481348
34.27085	1492257
34.27898	1507247
34.28710	1510453
34.29523	1495155
34.30335	1507728
34.31147	1511588
34.31960	1528036
34.32772	1546900
34.33585	1605679
34.34397	1602229
34.35208	1585844
34.36022	1557097
34.36833	1572399
34.37647	1598165
34.38458	1649409
34.39270	1745302
34.40083	1851198
34.40895	2008823
34.41707	2247683
34.42520	2992253
34.43332	5501482
34.44145	1.231133E+07
34.44957	2.358493E+07
34.45768	3.481423E+07
34.46582	4.108567E+07
34.47393	4.334299E+07
34.48207	4.31831E+07
34.49018	4.148056E+07
34.49830	3.81436E+07
34.50643	3.566846E+07
34.51455	3.294727E+07
34.52267	2.997121E+07
34.53080	2.648303E+07
34.53892	2.27474E+07
34.54705	1.942012E+07
34.55517	1.642963E+07
34.56328	1.387523E+07
34.57142	1.160908E+07
34.57953	9732845
34.58767	8292586
34.59578	7150089
34.60390	6073197
34.61203	5269942
34.62015	4715120
34.62828	4386017
34.63640	4319166
34.64452	4321330
34.65265	4227025
34.66077	4128777
34.66888	3989927
34.67702	3741901
34.68513	3521226
34.69327	3172292
34.70138	2910093
34.70950	2753308
34.71763	2662322
34.72575	2580574
34.73388	2517689
34.74200	2452710
34.75012	2420496
34.75825	2359041
34.76637	2325302
34.77450	2277297
34.78262	2232430
34.79073	2229836
34.79887	2201199
34.80698	2223467
34.81510	2263495
34.82323	2328603
34.83135	2401548
34.83948	2432789
34.84760	2416125
34.85572	2363810
34.86385	2360028
34.87197	2338750
34.88010	2464404
34.88822	2600830
34.89633	2665180
34.90447	2669657
34.91258	2531062
34.92072	2417633
34.92883	2265881
34.93695	2150597
34.94508	2134353
34.95320	2098893
34.96132	2055235
34.96945	1986509
34.97757	1938897
34.98570	1897526
34.99382	1884111
35.00193	1876119
35.01007	1897552
35.01818	1874711
35.02632	1916651
35.03443	1977169
35.04255	1981538
35.05068	2083458
35.05880	2225630
35.06692	2543131
35.07505	3093890
35.08317	3713923
35.09130	4093922
35.09942	4140752
35.10753	4144619
35.11567	4216838
35.12378	4352721
35.13192	4450889
35.14003	4467690
35.14815	4391812
35.15628	3975501
35.16440	3492262
35.17253	3006579
35.18065	2577642
35.18877	2258248
35.19690	2100453
35.20502	2026193
35.21313	1948569
35.22127	1979851
35.22938	2008356
35.23752	2066896
35.24563	2214651
35.25375	2378378
35.26188	2496107
35.27000	2552705
35.27813	2564010
35.28625	2460544
35.29437	2338639
35.30250	2150252
35.31062	2022890
35.31873	1891356
35.32687	1820999
35.33498	1790816
35.34312	1793987
35.35123	1770915
35.35935	1794350
35.36748	1788495
35.37560	1774500
35.38373	1777302
35.39185	1740734
35.39997	1732437
35.40810	1734433
35.41622	1765596
35.42435	1884704
35.43247	2001274
35.44058	2181035
35.44872	2330184
35.45683	2342466
35.46495	2338603
35.47308	2367960
35.48120	2344358
35.48933	2332448
35.49745	2503986
35.50557	2647572
35.51370	2831995
35.52182	2903110
35.52995	2908946
35.53807	2826011
35.54618	2754708
35.55432	2823523
35.56243	3276331
35.57057	4542937
35.57868	5924519
35.58680	6567009
35.59493	6604038
35.60305	6202465
35.61117	5729643
35.61930	5057680
35.62742	4334023
35.63555	3725407
35.64367	3096440
35.65178	2654323
35.65992	2327008
35.66803	2082225
35.67617	2005160
35.68428	1945236
35.69240	1892040
35.70053	1908226
35.70865	1897184
35.71677	1880303
35.72490	1872151
35.73302	1833685
35.74115	1778872
35.74927	1760115
35.75738	1715174
35.76552	1725799
35.77363	1758904
35.78177	1783573
35.78988	1850684
35.79800	1952817
35.80613	2002797
35.81425	2022513
35.82238	1998748
35.83050	1927430
35.83862	1864805
35.84675	1775635
35.85487	1674096
35.86298	1632198
35.87112	1600490
35.87923	1599770
35.88737	1601598
35.89548	1578900
35.90360	1612094
35.91173	1596897
35.91985	1563509
35.92798	1569952
35.93610	1541383
35.94422	1524893
35.95235	1511098
35.96047	1524786
35.96860	1518064
35.97672	1548819
35.98483	1550358
35.99297	1609540
36.00108	1679282
36.00920	1774046
36.01733	1919843
36.02545	2250853
36.03358	2760473
36.04170	3401927
36.04982	4079780
36.05795	4571375
36.06607	4671741
36.07420	4418051
36.08232	3907616
36.09043	3428027
36.09857	3187644
36.10668	3063650
36.11480	3070665
36.12293	3078685
36.13105	3048406
36.13918	2925292
36.14730	2830239
36.15542	2666734
36.16355	2661883
36.17167	3013490
36.17980	5907254
36.18792	1.650776E+07
36.19603	2.797172E+07
36.20417	3.053788E+07
36.21228	2.95916E+07
36.22042	2.687751E+07
36.22853	2.428736E+07
36.23665	2.113333E+07
36.24478	1.847185E+07
36.25290	1.651912E+07
36.26102	1.432255E+07
36.26915	1.264942E+07
36.27727	1.132158E+07
36.28540	1.085266E+07
36.29352	1.087208E+07
36.30163	1.076679E+07
36.30977	1.069625E+07
36.31788	1.012487E+07
36.32602	9168458
36.33413	8025518
36.34225	6839536
36.35038	6135814
36.35850	5712616
36.36662	5471067
36.37475	5407619
36.38287	5037090
36.39100	4579701
36.39912	3904914
36.40723	3361446
36.41537	2936280
36.42348	2630647
36.43162	2400426
36.43973	2236036
36.44785	2153523
36.45598	2101729
36.46410	2071038
36.47223	2070321
36.48035	2065717
36.48847	2059363
36.49660	2061789
36.50472	2100113
36.51283	2111743
36.52097	2080096
36.52908	2046339
36.53722	2002806
36.54533	1945272
36.55345	1980486
36.56158	2085633
36.56970	2273096
36.57783	2486290
36.58595	2547957
36.59407	2509758
36.60220	2369771
36.61032	2223046
36.61845	2099552
36.62657	2000734
36.63468	1935152
36.64282	1852527
36.65093	1820438
36.65905	1826578
36.66718	1829589
36.67530	1879178
36.68343	1879299
36.69155	1865428
36.69967	1849731
36.70780	1830402
36.71592	1813340
36.72405	1777657
36.73217	1745630
36.74028	1753796
36.74842	1714801
36.75653	1699234
36.76465	1707352
36.77278	1700727
36.78090	1713635
36.78903	1759472
36.79715	1811824
36.80527	1884719
36.81340	1897200
36.82152	1885792
36.82965	1879327
36.83777	1925489
36.84588	1928535
36.85402	1973759
36.86213	2041710
36.87027	2069706
36.87838	2082546
36.88650	2025647
36.89463	1929815
36.90275	1837191
36.91087	1783776
36.91900	1699645
36.92712	1668116
36.93525	1683309
36.94337	1664996
36.95148	1662491
36.95962	1652627
36.96773	1660892
36.97587	1655879
36.98398	1661753
36.99210	1679601
37.00023	1704734
37.00835	1730037
37.01648	1756236
37.02460	1774100
37.03272	1810255
37.04085	1864865
37.04897	1924567
37.05708	2008458
37.06522	2033390
37.07333	2016098
37.08147	1985354
37.08958	1907595
37.09770	1837888
37.10583	1782403
37.11395	1765216
37.12208	1742218
37.13020	1750626
37.13832	1769913
37.14645	1797719
37.15457	1821330
37.16268	1875051
37.17082	1906506
37.17893	2010159
37.18707	2103270
37.19518	2278883
37.20330	3034093
37.21143	6918149
37.21955	1.945549E+07
37.22768	3.419955E+07
37.23580	4.173784E+07
37.24392	4.393326E+07
37.25205	4.273496E+07
37.26017	4.113033E+07
37.26830	3.892206E+07
37.27642	3.6621E+07
37.28453	3.409306E+07
37.29267	3.149881E+07
37.30078	2.945212E+07
37.30890	2.782392E+07
37.31703	2.544566E+07
37.32515	2.262411E+07
37.33328	1.998277E+07
37.34140	1.724679E+07
37.34952	1.444249E+07
37.35765	1.217617E+07
37.36577	1.034359E+07
37.37390	9008866
37.38202	8190288
37.39013	7350084
37.39827	6757019
37.40638	6123398
37.41452	5411190
37.42263	5038175
37.43075	4653535
37.43888	4343850
37.44700	4092941
37.45512	4056011
37.46325	4144809
37.47137	4244485
37.47950	4334352
37.48762	4357555
