Z:\data\JTB-E02\BACandBLUE\JTB-E18-006-12.D Thu Apr 11 14:55:34 2019
Start of data points
2.09520	137103
2.10332	137454
2.11143	138836
2.11957	139718
2.12768	137240
2.13582	138129
2.14393	135436
2.15205	135935
2.16018	139058
2.16830	138990
2.17643	136994
2.18455	139482
2.19267	127378
2.20080	127262
2.20892	132641
2.21705	129846
2.22517	128521
2.23328	127144
2.24142	127376
2.24953	125580
2.25765	127030
2.26578	240060
2.27390	1973366
2.28203	4689740
2.29015	3333300
2.29827	1748947
2.30640	1277065
2.31452	1059264
2.32265	906774
2.33077	776511
2.33888	693582
2.34702	633823
2.35513	581494
2.36327	521251
2.37138	493453
2.37950	473000
2.38763	445146
2.39575	418312
2.40387	412954
2.41200	408620
2.42012	388460
2.42825	378729
2.43637	364591
2.44448	349328
2.45262	353559
2.46073	349804
2.46887	344720
2.47698	338266
2.48510	335871
2.49323	341969
2.50135	351846
2.50948	336307
2.51760	328539
2.52572	331636
2.53385	318968
2.54197	317645
2.55008	339684
2.55822	620176
2.56633	1097067
2.57447	993687
2.58258	729028
2.59070	598511
2.59883	533332
2.60695	502187
2.61508	508572
2.62320	497046
2.63132	452846
2.63945	443536
2.64757	409977
2.65568	387199
2.66382	384297
2.67193	376427
2.68007	376587
2.68818	353472
2.69630	352794
2.70443	353683
2.71255	337489
2.72068	332724
2.72880	336061
2.73692	327458
2.74505	327332
2.75317	321246
2.76130	315932
2.76942	323773
2.77753	345793
2.78567	576682
2.79378	846613
2.80190	702847
2.81003	541144
2.81815	477157
2.82628	436993
2.83440	416449
2.84252	383446
2.85065	366733
2.85877	349676
2.86690	336484
2.87502	327416
2.88313	313708
2.89127	306280
2.89938	305545
2.90750	298968
2.91563	306106
2.92375	303513
2.93188	285528
2.94000	293780
2.94812	293176
2.95625	290869
2.96437	284335
2.97250	289150
2.98062	283925
2.98873	274553
2.99687	308174
3.00498	313937
3.01312	324402
3.02123	312238
3.02935	294165
3.03748	290545
3.04560	290558
3.05372	293467
3.06185	317283
3.06997	348702
3.07810	338817
3.08622	312915
3.09433	324935
3.10247	344110
3.11058	395548
3.11872	410440
3.12683	382292
3.13495	337288
3.14308	311001
3.15120	303898
3.15933	290006
3.16745	298762
3.17557	328429
3.18370	411957
3.19182	807026
3.19993	1314818
3.20807	1240143
3.21618	915677
3.22432	727950
3.23243	623388
3.24055	554372
3.24868	495534
3.25680	442923
3.26493	406781
3.27305	408453
3.28117	377103
3.28930	447392
3.29742	922794
3.30553	2362954
3.31367	4305332
3.32178	5199989
3.32992	4717062
3.33803	3812421
3.34615	3131416
3.35428	2692914
3.36240	2339329
3.37053	2090257
3.37865	1855483
3.38677	1695436
3.39490	1561151
3.40302	1437137
3.41115	1338177
3.41927	1274375
3.42738	1219059
3.43552	1140570
3.44363	1064680
3.45175	1013820
3.45988	955940
3.46800	909722
3.47613	837899
3.48425	810893
3.49237	778408
3.50050	734835
3.50862	716266
3.51675	691005
3.52487	708121
3.53298	754650
3.54112	760598
3.54923	719064
3.55737	667889
3.56548	612500
3.57360	599516
3.58173	581785
3.58985	554307
3.59797	544775
3.60610	523056
3.61422	519346
3.62235	514757
3.63047	520094
3.63858	513417
3.64672	508405
3.65483	522270
3.66297	754943
3.67108	2597313
3.67920	7501865
3.68733	1.138174E+07
3.69545	1.009629E+07
3.70357	6689821
3.71170	4630044
3.71982	3692490
3.72795	3085288
3.73607	2685904
3.74418	2354456
3.75232	2128804
3.76043	1932546
3.76857	1781912
3.77668	1653146
3.78480	1539734
3.79293	1449294
3.80105	1371850
3.80918	1313092
3.81730	1227597
3.82542	1167290
3.83355	1112010
3.84167	1060843
3.84978	1028199
3.85792	966047
3.86603	934221
3.87417	891550
3.88228	857751
3.89040	834164
3.89853	806814
3.90665	785398
3.91478	774875
3.92290	820956
3.93102	894060
3.93915	925111
3.94727	881245
3.95538	809535
3.96352	778308
3.97163	787523
3.97977	764866
3.98788	727901
3.99600	667498
4.00413	691818
4.01225	773183
4.02038	843718
4.02850	852716
4.03662	781902
4.04475	700224
4.05287	605604
4.06100	588312
4.06912	563443
4.07723	551860
4.08537	534080
4.09348	521204
4.10160	524620
4.10973	501085
4.11785	502751
4.12598	545019
4.13410	908013
4.14222	2186094
4.15035	4296315
4.15847	5607609
4.16660	5038061
4.17472	3524630
4.18283	2300818
4.19097	1596766
4.19908	1245747
4.20722	1298410
4.21533	3060151
4.22345	8804232
4.23158	1.73436E+07
4.23970	2.447145E+07
4.24782	2.894733E+07
4.25595	3.023908E+07
4.26407	2.584379E+07
4.27220	1.648528E+07
4.28032	1.059251E+07
4.28843	7691668
4.29657	5894705
4.30468	4624813
4.31282	3707003
4.32093	3018848
4.32905	2553908
4.33718	2190029
4.34530	1920932
4.35342	1727671
4.36155	1595795
4.36967	1486079
4.37780	1417951
4.38592	1312000
4.39403	1195633
4.40217	1068140
4.41028	1008596
4.41842	945768
4.42653	890304
4.43465	819656
4.44278	802998
4.45090	755390
4.45903	738712
4.46715	813465
4.47527	1248839
4.48340	2571729
4.49152	4322992
4.49963	4938521
4.50777	4036071
4.51588	2853573
4.52402	2170661
4.53213	1797702
4.54025	1589948
4.54838	1457030
4.55650	1353171
4.56463	1264536
4.57275	1200760
4.58087	1123312
4.58900	1078728
4.59712	1020125
4.60525	1004129
4.61337	971750
4.62148	942124
4.62962	943340
4.63773	1029024
4.64585	1146934
4.65398	1163401
4.66210	1097066
4.67023	995039
4.67835	917704
4.68647	877240
4.69460	844060
4.70272	805131
4.71085	786946
4.71897	748702
4.72708	715569
4.73522	705009
4.74333	684975
4.75145	682662
4.75958	660483
4.76770	640464
4.77583	638243
4.78395	631897
4.79207	621697
4.80020	625357
4.80832	627483
4.81645	610040
4.82457	603337
4.83268	607265
4.84082	586416
4.84893	578383
4.85707	558135
4.86518	554495
4.87330	545169
4.88143	542767
4.88955	528467
4.89767	527249
4.90580	513656
4.91392	509977
4.92205	525050
4.93017	519089
4.93828	607111
4.94642	906938
4.95453	1665988
4.96267	2808755
4.97078	3745993
4.97890	3871391
4.98703	3373918
4.99515	2677529
5.00328	2156530
5.01140	1767830
5.01952	1565197
5.02765	1404911
5.03577	1324216
5.04388	1305026
5.05202	1246019
5.06013	1165014
5.06827	1072758
5.07638	1010326
5.08450	952707
5.09263	900591
5.10075	864454
5.10888	817807
5.11700	796220
5.12512	777381
5.13325	762499
5.14137	719000
5.14948	719719
5.15762	713047
5.16573	736753
5.17387	761230
5.18198	772314
5.19010	731140
5.19823	719682
5.20635	731304
5.21448	744001
5.22260	731398
5.23072	721943
5.23885	665247
5.24697	645677
5.25510	609583
5.26322	576024
5.27133	541758
5.27947	525641
5.28758	514270
5.29570	504458
5.30383	489120
5.31195	492182
5.32008	469622
5.32820	467257
5.33632	467577
5.34445	463738
5.35257	452389
5.36070	431900
5.36882	438689
5.37693	437892
5.38507	437273
5.39318	446559
5.40130	464740
5.40943	478876
5.41755	462711
5.42568	456811
5.43380	461978
5.44192	553711
5.45005	807197
5.45817	1179026
5.46630	1485062
5.47442	1478607
5.48253	1222216
5.49067	918869
5.49878	703456
5.50692	585562
5.51503	532421
5.52315	482345
5.53128	460127
5.53940	451510
5.54752	440304
5.55565	443828
5.56377	493169
5.57190	564267
5.58002	627138
5.58813	636490
5.59627	583709
5.60438	520287
5.61252	468109
5.62063	427699
5.62875	421636
5.63688	413144
5.64500	407117
5.65313	387166
5.66125	397308
5.66937	395929
5.67750	489557
5.68562	695584
5.69373	1013072
5.70187	1204424
5.70998	1174485
5.71812	982680
5.72623	761370
5.73435	625605
5.74248	555449
5.75060	507223
5.75873	470594
5.76685	459680
5.77497	429074
5.78310	406766
5.79122	405721
5.79933	441050
5.80747	519749
5.81558	593421
5.82372	639793
5.83183	624014
5.83995	565390
5.84808	535956
5.85620	505407
5.86433	475918
5.87245	447010
5.88057	430177
5.88870	405574
5.89682	388212
5.90495	374856
5.91307	351170
5.92118	344034
5.92932	345476
5.93743	353315
5.94555	351497
5.95368	342919
5.96180	357426
5.96993	348347
5.97805	352059
5.98617	371586
5.99430	396214
6.00242	400783
6.01055	383737
6.01867	343334
6.02678	325970
6.03492	314777
6.04303	303478
6.05117	284691
6.05928	276797
6.06740	266482
6.07553	267514
6.08365	257274
6.09177	248579
6.09990	240465
6.10802	247096
6.11615	239095
6.12427	250170
6.13238	280275
6.14052	365169
6.14863	467894
6.15677	571538
6.16488	597415
6.17300	574408
6.18113	495943
6.18925	431310
6.19737	386100
6.20550	367167
6.21362	321244
6.22175	317751
6.22987	302517
6.23798	305809
6.24612	290597
6.25423	308585
6.26237	306843
6.27048	307709
6.27860	300142
6.28673	285940
6.29485	303223
6.30298	348568
6.31110	436150
6.31922	493292
6.32735	505656
6.33547	427103
6.34358	352176
6.35172	316968
6.35983	288817
6.36797	286294
6.37608	277691
6.38420	278393
6.39233	266419
6.40045	265440
6.40858	259140
6.41670	264693
6.42482	255399
6.43295	242924
6.44107	253984
6.44918	250829
6.45732	257871
6.46543	256625
6.47357	252785
6.48168	254402
6.48980	246663
6.49793	248988
6.50605	246904
6.51418	245931
6.52230	246806
6.53042	241813
6.53855	247732
6.54667	242351
6.55480	247277
6.56292	252114
6.57103	269933
6.57917	326092
6.58728	373065
6.59540	374188
6.60353	361730
6.61165	309600
6.61978	282013
6.62790	268716
6.63602	264949
6.64415	314506
6.65227	542201
6.66040	1115886
6.66852	1949960
6.67663	2542095
6.68477	2446658
6.69288	1882634
6.70102	1259839
6.70913	911047
6.71725	714210
6.72538	599034
6.73350	532320
6.74162	478679
6.74975	421793
6.75787	452074
6.76600	419762
6.77412	404175
6.78223	392973
6.79037	372018
6.79848	388371
6.80662	406288
6.81473	436293
6.82285	437053
6.83098	425805
6.83910	382070
6.84722	364674
6.85535	336142
6.86347	306009
6.87160	279395
6.87972	259938
6.88783	248196
6.89597	232511
6.90408	216962
6.91222	217704
6.92033	200611
6.92845	196765
6.93658	201284
6.94470	204374
6.95283	208151
6.96095	208033
6.96907	212914
6.97720	212745
6.98532	212905
6.99343	221338
7.00157	210230
7.00968	198242
7.01782	193171
7.02593	189223
7.03405	185519
7.04218	198086
7.05030	213599
7.05843	220775
7.06655	225820
7.07467	233476
7.08280	223645
7.09092	208538
7.09905	208799
7.10717	194437
7.11528	192700
7.12342	190604
7.13153	183297
7.13965	182397
7.14778	194388
7.15590	206269
7.16403	230010
7.17215	253456
7.18027	259294
7.18840	244331
7.19652	230780
7.20465	238684
7.21277	317873
7.22088	651123
7.22902	1542099
7.23713	2972989
7.24525	4274837
7.25338	4448799
7.26150	3480377
7.26963	2169476
7.27775	1264058
7.28587	847326
7.29400	559038
7.30212	385397
7.31025	278854
7.31837	235389
7.32648	228152
7.33462	228091
7.34273	219659
7.35087	209982
7.35898	197279
7.36710	204248
7.37523	187109
7.38335	185100
7.39147	188645
7.39960	191733
7.40772	189436
7.41585	181819
7.42397	177716
7.43208	180573
7.44022	170733
7.44833	178251
7.45647	182770
7.46458	179509
7.47270	169897
7.48083	170287
7.48895	164823
7.49707	169446
7.50520	166241
7.51332	176178
7.52145	210241
7.52957	305281
7.53768	469190
7.54582	722310
7.55393	979173
7.56207	1184743
7.57018	1216519
7.57830	1080660
7.58643	850613
7.59455	655030
7.60268	488683
7.61080	401110
7.61892	348159
7.62705	281745
7.63517	256137
7.64328	232305
7.65142	202556
7.65953	201415
7.66767	177907
7.67578	171235
7.68390	162196
7.69203	158580
7.70015	157875
7.70828	158985
7.71640	166345
7.72452	170242
7.73265	163533
7.74077	152082
7.74890	151397
7.75702	147569
7.76513	153114
7.77327	157650
7.78138	167221
7.78950	167857
7.79763	162696
7.80575	178921
7.81388	190684
7.82200	238570
7.83012	380989
7.83825	741707
7.84637	1391299
7.85450	2414098
7.86262	3788829
7.87073	5730189
7.87887	8390234
7.88698	1.147351E+07
7.89512	1.325543E+07
7.90323	1.294486E+07
7.91135	1.0436E+07
7.91948	7201956
7.92760	4674580
7.93572	3261578
7.94385	2470014
7.95197	1927818
7.96010	1512219
7.96822	1176708
7.97633	932852
7.98447	740567
7.99258	610886
8.00072	511351
8.00883	457982
8.01695	503555
8.02508	600664
8.03320	721360
8.04132	840875
8.04945	927554
8.05757	938814
8.06570	900551
8.07382	845521
8.08193	795547
8.09007	770017
8.09818	712992
8.10632	678424
8.11443	654388
8.12255	624577
8.13068	602945
8.13880	601336
8.14693	562788
8.15505	554071
8.16317	535604
8.17130	517886
8.17942	489749
8.18753	479137
8.19567	471691
8.20378	444040
8.21192	442904
8.22003	420232
8.22815	411675
8.23628	405650
8.24440	396927
8.25253	384622
8.26065	373515
8.26877	363167
8.27690	365579
8.28502	342199
8.29313	335133
8.30127	336290
8.30938	323639
8.31752	336393
8.32563	320483
8.33375	308662
8.34188	295568
8.35000	297832
8.35813	288621
8.36625	289545
8.37437	287216
8.38250	272043
8.39062	267114
8.39875	263095
8.40687	264327
8.41498	255453
8.42312	256543
8.43123	249194
8.43935	251259
8.44748	244797
8.45560	244920
8.46373	234741
8.47185	230272
8.47997	228648
8.48810	231339
8.49622	224189
8.50435	226157
8.51247	234902
8.52058	323352
8.52872	650627
8.53683	1516017
8.54497	3362280
8.55308	5737859
8.56120	7430642
8.56933	7338517
8.57745	5640092
8.58557	3399819
8.59370	1730874
8.60182	966501
8.60995	658152
8.61807	559418
8.62618	516607
8.63432	478753
8.64243	446028
8.65057	412520
8.65868	388651
8.66680	374950
8.67493	364960
8.68305	349803
8.69117	332879
8.69930	316003
8.70742	306768
8.71555	297754
8.72367	289090
8.73178	286857
8.73992	271788
8.74803	263980
8.75617	276707
8.76428	338778
8.77240	474931
8.78053	742894
8.78865	1006047
8.79678	1182906
8.80490	1142524
8.81302	949031
8.82115	733571
8.82927	580489
8.83738	479566
8.84552	442475
8.85363	431868
8.86177	432954
8.86988	429095
8.87800	422893
8.88613	403061
8.89425	378432
8.90238	363279
8.91050	348890
8.91862	336081
8.92675	329032
8.93487	323259
8.94300	342487
8.95112	349270
8.95923	362921
8.96737	341426
8.97548	329882
8.98360	310786
8.99173	297288
8.99985	285446
9.00798	274147
9.01610	258211
9.02422	262188
9.03235	249525
9.04047	238311
9.04860	234646
9.05672	228378
9.06483	226996
9.07297	226367
9.08108	219781
9.08920	225176
9.09733	223705
9.10545	224138
9.11358	244542
9.12170	244883
9.12982	259428
9.13795	253886
9.14607	245944
9.15420	256542
9.16232	261630
9.17043	265536
9.17857	252849
9.18668	232244
9.19482	223997
9.20293	209275
9.21105	201706
9.21918	205021
9.22730	196625
9.23542	197386
9.24355	182401
9.25167	179330
9.25980	173397
9.26792	170205
9.27603	176809
9.28417	173847
9.29228	175663
9.30042	169669
9.30853	171589
9.31665	162737
9.32478	164523
9.33290	156555
9.34102	142339
9.34915	146491
9.35727	140943
9.36540	143562
9.37352	140453
9.38163	140952
9.38977	143291
9.39788	147500
9.40602	151335
9.41413	158519
9.42225	173234
9.43038	192283
9.43850	230194
9.44663	249877
9.45475	284769
9.46287	283194
9.47100	265104
9.47912	242186
9.48723	207782
9.49537	181523
9.50348	155921
9.51162	149708
9.51973	144636
9.52785	142378
9.53598	151452
9.54410	148986
9.55223	138479
9.56035	136091
9.56847	122419
9.57660	114692
9.58472	110186
9.59285	106272
9.60097	106617
9.60908	110203
9.61722	101718
9.62533	106244
9.63345	100046
9.64158	98281
9.64970	96925
9.65783	89895
9.66595	91018
9.67407	92286
9.68220	91235
9.69032	88377
9.69845	90922
9.70657	89141
9.71468	82676
9.72282	85183
9.73093	88559
9.73905	90113
9.74718	90340
9.75530	87167
9.76343	90644
9.77155	87588
9.77967	87484
9.78780	85565
9.79592	81712
9.80405	81376
9.81217	79435
9.82028	84020
9.82842	79285
9.83653	78839
9.84467	78003
9.85278	82356
9.86090	85333
9.86903	96692
9.87715	103454
9.88527	106054
9.89340	100824
9.90152	97720
9.90965	94755
9.91777	96485
9.92588	97273
9.93402	104710
9.94213	110041
9.95027	112904
9.95838	124922
9.96650	121747
9.97463	125235
9.98275	115273
9.99088	112859
9.99900	120232
10.00712	127428
10.01525	126513
10.02337	136032
10.03148	125023
10.03962	118745
10.04773	112009
10.05587	111744
10.06398	109364
10.07210	109010
10.08023	107233
10.08835	106256
10.09648	108573
10.10460	105392
10.11272	101820
10.12085	100370
10.12897	99284
10.13708	96131
10.14522	94593
10.15333	95174
10.16147	96338
10.16958	88036
10.17770	90696
10.18583	87781
10.19395	90000
10.20208	88537
10.21020	86285
10.21832	91033
10.22645	83540
10.23457	89401
10.24270	87438
10.25082	106844
10.25893	151740
10.26707	327320
10.27518	896960
10.28330	2352090
10.29143	4904759
10.29955	8158562
10.30768	1.171998E+07
10.31580	1.504061E+07
10.32392	1.863219E+07
10.33205	2.328315E+07
10.34017	2.938967E+07
10.34830	3.567578E+07
10.35642	4.04702E+07
10.36453	4.040942E+07
10.37267	3.254543E+07
10.38078	1.943029E+07
10.38890	9597257
10.39703	5180713
10.40515	3544118
10.41328	2799051
10.42140	2291394
10.42952	1876097
10.43765	1555730
10.44577	1372989
10.45390	1278366
10.46202	1198613
10.47013	1122332
10.47827	1054836
10.48638	968892
10.49452	894404
10.50263	816456
10.51075	768453
10.51888	702894
10.52700	664503
10.53512	643197
10.54325	614454
10.55137	575089
10.55950	557985
10.56762	525691
10.57573	503682
10.58387	492821
10.59198	472906
10.60012	436718
10.60823	439377
10.61635	430500
10.62448	411515
10.63260	391137
10.64073	369740
10.64885	362931
10.65697	344498
10.66510	335186
10.67322	322190
10.68133	319852
10.68947	307182
10.69758	311015
10.70572	299017
10.71383	289703
10.72195	293385
10.73008	282327
10.73820	279099
10.74633	279437
10.75445	263970
10.76257	257409
10.77070	255721
10.77882	246309
10.78693	230587
10.79507	234090
10.80318	223369
10.81132	229123
10.81943	223470
10.82755	215921
10.83568	215257
10.84380	206741
10.85193	200638
10.86005	191363
10.86817	194199
10.87630	192425
10.88442	189007
10.89255	188058
10.90067	178731
10.90878	178079
10.91692	174607
10.92503	173673
10.93315	172409
10.94128	169250
10.94940	178178
10.95753	175386
10.96565	183583
10.97377	180377
10.98190	181530
10.99002	176016
10.99815	179660
11.00627	163039
11.01438	163316
11.02252	159030
11.03063	153678
11.03877	149991
11.04688	148490
11.05500	145935
11.06313	141056
11.07125	144419
11.07937	146013
11.08750	151703
11.09562	154568
11.10375	146126
11.11187	144308
11.11998	136081
11.12812	128618
11.13623	121341
11.14437	115202
11.15248	114350
11.16060	111363
11.16873	112919
11.17685	114330
11.18497	109886
11.19310	114515
11.20122	110799
11.20935	117124
11.21747	117024
11.22558	111719
11.23372	100706
11.24183	99564
11.24997	98514
11.25808	94982
11.26620	92694
11.27433	89058
11.28245	86186
11.29058	91608
11.29870	97178
11.30682	118681
11.31495	171643
11.32307	268922
11.33118	407388
11.33932	544147
11.34743	666152
11.35557	680527
11.36368	599986
11.37180	472646
11.37993	340584
11.38805	276254
11.39618	246411
11.40430	239161
11.41242	249784
11.42055	248062
11.42867	236792
11.43680	217698
11.44492	201995
11.45303	181714
11.46117	167999
11.46928	164911
11.47740	159519
11.48553	163654
11.49365	172690
11.50178	178958
11.50990	195348
11.51802	198230
11.52615	206187
11.53427	222028
11.54240	260776
11.55052	279510
11.55863	295400
11.56677	266910
11.57488	229926
11.58300	199282
11.59113	179096
11.59925	175212
11.60738	192305
11.61550	222734
11.62362	248935
11.63175	263213
11.63987	254449
11.64800	226726
11.65612	203071
11.66423	190084
11.67237	171513
11.68048	162086
11.68862	149694
11.69673	138270
11.70485	133569
11.71298	131999
11.72110	120023
11.72922	113115
11.73735	111608
11.74547	105001
11.75360	105598
11.76172	100864
11.76983	104496
11.77797	100396
11.78608	99503
11.79422	90856
11.80233	93574
11.81045	94108
11.81858	93030
11.82670	90828
11.83482	86426
11.84295	92205
11.85107	93359
11.85920	96065
11.86732	94433
11.87543	102462
11.88357	93080
11.89168	93904
11.89982	90791
11.90793	103463
11.91605	115582
11.92418	151010
11.93230	180607
11.94043	197160
11.94855	191585
11.95667	181891
11.96480	157607
11.97292	164843
11.98103	215648
11.98917	412778
11.99728	835455
12.00542	1498979
12.01353	2223554
12.02165	2788531
12.02978	3272411
12.03790	3596175
12.04603	3525703
12.05415	3329670
12.06227	2856911
12.07040	2347083
12.07852	1814849
12.08665	1355004
12.09477	1180386
12.10288	1130883
12.11102	1006226
12.11913	1008035
12.12725	966440
12.13538	977878
12.14350	920727
12.15163	873119
12.15975	823707
12.16787	767116
12.17600	724617
12.18412	678360
12.19225	650585
12.20037	644040
12.20848	623330
12.21662	615504
12.22473	596204
12.23285	617541
12.24098	620567
12.24910	616521
12.25723	665337
12.26535	696041
12.27347	751560
12.28160	693469
12.28972	647212
12.29785	587742
12.30597	559168
12.31408	496956
12.32222	499522
12.33033	476605
12.33847	452882
12.34658	441514
12.35470	429543
12.36283	408546
12.37095	405493
12.37907	404755
12.38720	390951
12.39532	384516
12.40345	372046
12.41157	376128
12.41968	366873
12.42782	377448
12.43593	377996
12.44407	388154
12.45218	358086
12.46030	365306
12.46843	341655
12.47655	336501
12.48468	321698
12.49280	328270
12.50092	316811
12.50905	325429
12.51717	321286
12.52528	324914
12.53342	320822
12.54153	309928
12.54967	309789
12.55778	305068
12.56590	284869
12.57403	282378
12.58215	293218
12.59028	282125
12.59840	264815
12.60652	256857
12.61465	253237
12.62277	257285
12.63088	240668
12.63902	247480
12.64713	249946
12.65527	237709
12.66338	222991
12.67150	224320
12.67963	191622
12.68775	173329
12.69588	153533
12.70400	133511
12.71212	124157
12.72025	133736
12.72837	120767
12.73650	120547
12.74462	117725
12.75273	120059
12.76087	115466
12.76898	117005
12.77710	117423
12.78523	105489
12.79335	104401
12.80148	101674
12.80960	104183
12.81772	105182
12.82585	103486
12.83397	101658
12.84210	92670
12.85022	97584
12.85833	89471
12.86647	88001
12.87458	88397
12.88270	86205
12.89083	84125
12.89895	87024
12.90708	88527
12.91520	84452
12.92332	82217
12.93145	84006
12.93957	86785
12.94770	85937
12.95582	87051
12.96393	88209
12.97207	93601
12.98018	99871
12.98832	102143
12.99643	101707
13.00455	101106
13.01268	95182
13.02080	94600
13.02892	95426
13.03705	88894
13.04517	85700
13.05330	89907
13.06142	84948
13.06953	82832
13.07767	85854
13.08578	86665
13.09392	86528
13.10203	95438
13.11015	90068
13.11828	97638
13.12640	88558
13.13453	89977
13.14265	83177
13.15077	85941
13.15890	84269
13.16702	81394
13.17513	88222
13.18327	84456
13.19138	86428
13.19952	92182
13.20763	89884
13.21575	94984
13.22388	96659
13.23200	95328
13.24013	90570
13.24825	85488
13.25637	79100
13.26450	81488
13.27262	82049
13.28075	85286
13.28887	82231
13.29698	82974
13.30512	77209
13.31323	76998
13.32135	71449
13.32948	78297
13.33760	74593
13.34573	78263
13.35385	72000
13.36197	71579
13.37010	72948
13.37822	75505
13.38635	69642
13.39447	73464
13.40258	73280
13.41072	68286
13.41883	68423
13.42695	73560
13.43508	68372
13.44320	71444
13.45133	69116
13.45945	70779
13.46757	70185
13.47570	72319
13.48382	68099
13.49195	70052
13.50007	71141
13.50818	68911
13.51632	68557
13.52443	68122
13.53257	71033
13.54068	72220
13.54880	74815
13.55693	75562
13.56505	74143
13.57317	71043
13.58130	79623
13.58942	85645
13.59755	95137
13.60567	110243
13.61378	144212
13.62192	165126
13.63003	191998
13.63817	199938
13.64628	193051
13.65440	174296
13.66253	157188
13.67065	139207
13.67877	118159
13.68690	107451
13.69502	103364
13.70315	101545
13.71127	92720
13.71938	86759
13.72752	91140
13.73563	91817
13.74377	113277
13.75188	161390
13.76000	264318
13.76813	475531
13.77625	798829
13.78438	1199308
13.79250	1734872
13.80062	2198454
13.80875	2649389
13.81687	2863378
13.82498	2720350
13.83312	2399440
13.84123	1906210
13.84937	1491444
13.85748	1195607
13.86560	1013597
13.87373	912081
13.88185	807968
13.88998	744425
13.89810	688982
13.90622	652704
13.91435	609894
13.92247	577405
13.93060	551682
13.93872	541546
13.94683	518760
13.95497	531613
13.96308	592931
13.97120	662439
13.97933	791263
13.98745	960432
13.99558	1096877
14.00370	1299683
14.01182	1576070
14.01995	1561213
14.02807	1484709
14.03620	1346365
14.04432	1087951
14.05243	869738
14.06057	754091
14.06868	686384
14.07680	661640
14.08493	609310
14.09305	611265
14.10118	562866
14.10930	545289
14.11742	522356
14.12555	515746
14.13367	530006
14.14180	567134
14.14992	627887
14.15803	667575
14.16617	737474
14.17428	809713
14.18242	850568
14.19053	909335
14.19865	936783
14.20678	894986
14.21490	809282
14.22302	730327
14.23115	683512
14.23927	615253
14.24740	580038
14.25552	545866
14.26363	506102
14.27177	459824
14.27988	431890
14.28802	399817
14.29613	357714
14.30425	362738
14.31238	321024
14.32050	318624
14.32863	311327
14.33675	301990
14.34487	280600
14.35300	278837
14.36112	253834
14.36923	238095
14.37737	222784
14.38548	231371
14.39362	211033
14.40173	217095
14.40985	201058
14.41798	205849
14.42610	209829
14.43423	205723
14.44235	201385
14.45047	181584
14.45860	184691
14.46672	160514
14.47483	152704
14.48297	141027
14.49108	137391
14.49922	139452
14.50733	143762
14.51545	143075
14.52358	153039
14.53170	147931
14.53983	166401
14.54795	189149
14.55607	204453
14.56420	230665
14.57232	215084
14.58045	194865
14.58857	176142
14.59668	164608
14.60482	148233
14.61293	133697
14.62105	133784
14.62918	118739
14.63730	110772
14.64543	113052
14.65355	115702
14.66167	111966
14.66980	111439
14.67792	116154
14.68605	107178
14.69417	108405
14.70228	100774
14.71042	104840
14.71853	97140
14.72665	100849
14.73478	105267
14.74290	113716
14.75103	108587
14.75915	118845
14.76727	115430
14.77540	118064
14.78352	119327
14.79165	116230
14.79977	119992
14.80788	132663
14.81602	199649
14.82413	410673
14.83227	903092
14.84038	1880801
14.84850	3164752
14.85663	4244277
14.86475	4638895
14.87287	4214555
14.88100	3185596
14.88912	2187467
14.89725	1431004
14.90537	988872
14.91348	775464
14.92162	645107
14.92973	579866
14.93787	524546
14.94598	465415
14.95410	423746
14.96223	395205
14.97035	374195
14.97848	354404
14.98660	325825
14.99472	311080
15.00285	298941
15.01097	275762
15.01908	263334
15.02722	251582
15.03533	242883
15.04347	229780
15.05158	227138
15.05970	216469
15.06783	209447
15.07595	207725
15.08408	202396
15.09220	193951
15.10032	189125
15.10845	185209
15.11657	182720
15.12468	177491
15.13282	171563
15.14093	167992
15.14907	172298
15.15718	193073
15.16530	208439
15.17343	214729
15.18155	207053
15.18968	186357
15.19780	169114
15.20592	146843
15.21405	135000
15.22217	116096
15.23030	113075
15.23842	112666
15.24653	107730
15.25467	96230
15.26278	99021
15.27090	92312
15.27903	100120
15.28715	89137
15.29528	93685
15.30340	90310
15.31152	83264
15.31965	86470
15.32777	84028
15.33590	81089
15.34402	83533
15.35213	90999
15.36027	87871
15.36838	89176
15.37652	91387
15.38463	83845
15.39275	85214
15.40088	87776
15.40900	87435
15.41712	89116
15.42525	82235
15.43337	86706
15.44150	85519
15.44962	90505
15.45773	91214
15.46587	89148
15.47398	87013
15.48212	100547
15.49023	114366
15.49835	127360
15.50648	134664
15.51460	143677
15.52272	142537
15.53085	143275
15.53897	146345
15.54710	149479
15.55522	143712
15.56333	133996
15.57147	124520
15.57958	117168
15.58772	103284
15.59583	101409
15.60395	96184
15.61208	91084
15.62020	83889
15.62833	86164
15.63645	80858
15.64457	85625
15.65270	83050
15.66082	80628
15.66893	78105
15.67707	76939
15.68518	83705
15.69332	76810
15.70143	75360
15.70955	72725
15.71768	71506
15.72580	74568
15.73393	76183
15.74205	71219
15.75017	75067
15.75830	77369
15.76642	78049
15.77455	105889
15.78267	166672
15.79078	283349
15.79892	507888
15.80703	837016
15.81515	1121175
15.82328	1222688
15.83140	1127288
15.83953	880644
15.84765	634816
15.85577	469805
15.86390	370978
15.87202	303349
15.88015	264887
15.88827	233354
15.89638	215623
15.90452	195467
15.91263	183397
15.92075	173343
15.92888	169851
15.93700	163003
15.94513	163621
15.95325	157738
15.96137	154721
15.96950	149320
15.97762	148608
15.98575	147679
15.99387	171255
16.00198	212596
16.01012	249444
16.01823	277646
16.02637	289203
16.03448	295269
16.04260	266089
16.05073	245466
16.05885	205827
16.06697	187741
16.07510	166356
16.08322	158646
16.09135	146909
16.09947	139634
16.10758	132889
16.11572	136331
16.12383	159814
16.13197	192745
16.14008	233396
16.14820	289125
16.15633	321301
16.16445	303624
16.17257	267622
16.18070	214058
16.18882	174310
16.19695	161314
16.20507	135260
16.21318	122146
16.22132	122966
16.22943	121137
16.23757	120338
16.24568	117205
16.25380	117462
16.26193	113439
16.27005	105993
16.27818	111006
16.28630	105079
16.29442	111837
16.30255	105381
16.31067	103470
16.31878	110165
16.32692	99091
16.33503	94716
16.34317	92986
16.35128	92606
16.35940	89012
16.36753	84423
16.37565	88202
16.38378	94390
16.39190	102910
16.40002	116262
16.40815	155963
16.41627	199350
16.42440	265830
16.43252	319584
16.44063	343833
16.44877	340005
16.45688	318826
16.46500	265003
16.47313	215507
16.48125	227739
16.48938	301880
16.49750	454516
16.50562	698216
16.51375	888339
16.52187	973581
16.53000	871587
16.53812	669396
16.54623	499445
16.55437	350753
16.56248	283651
16.57060	252091
16.57873	208943
16.58685	193604
16.59498	180742
16.60310	167541
16.61122	163474
16.61935	157744
16.62747	153628
16.63560	141121
16.64372	137389
16.65183	136946
16.65997	135895
16.66808	138010
16.67622	132281
16.68433	131730
16.69245	122648
16.70058	120547
16.70870	112997
16.71682	112184
16.72495	102816
16.73307	104243
16.74120	95299
16.74932	95561
16.75743	88881
16.76557	90487
16.77368	91462
16.78182	89426
16.78993	90891
16.79805	92279
16.80618	95162
16.81430	98193
16.82243	90765
16.83055	88419
16.83867	83406
16.84680	85575
16.85492	84748
16.86303	83478
16.87117	90492
16.87928	82725
16.88742	88508
16.89553	87663
16.90365	94414
16.91178	94901
16.91990	93610
16.92803	78999
16.93615	73290
16.94427	77167
16.95240	85141
16.96052	82131
16.96863	79832
16.97677	80035
16.98488	81952
16.99302	76926
17.00113	78236
17.00925	77326
17.01738	79185
17.02550	75359
17.03363	74769
17.04175	77029
17.04987	76875
17.05800	78413
17.06612	81981
17.07425	83260
17.08237	86398
17.09048	95774
17.09862	94600
17.10673	91734
17.11485	98279
17.12298	102739
17.13110	106194
17.13923	108637
17.14735	115230
17.15547	108565
17.16360	117560
17.17172	108805
17.17985	99814
17.18797	96921
17.19608	91062
17.20422	93037
17.21233	86571
17.22045	82836
17.22858	79253
17.23670	78901
17.24483	80224
17.25295	77566
17.26107	76258
17.26920	79845
17.27732	78515
17.28545	77967
17.29357	84619
17.30168	79084
17.30982	77657
17.31793	80650
17.32607	79627
17.33418	76711
17.34230	85811
17.35043	95048
17.35855	110913
17.36667	129861
17.37480	145143
17.38292	157732
17.39105	163276
17.39917	158658
17.40728	150229
17.41542	136783
17.42353	147553
17.43167	1.134215E+07
17.43978	5.179976E+07
17.44790	5.101262E+07
17.45603	5.024461E+07
17.46415	4.962605E+07
17.47228	4.891017E+07
17.48040	4.826979E+07
17.48852	4.789632E+07
17.49665	4.75417E+07
17.50477	4.723298E+07
17.51288	4.654258E+07
17.52102	4.565421E+07
17.52913	4.465078E+07
17.53727	4.39554E+07
17.54538	4.369354E+07
17.55350	4.317199E+07
17.56163	4.264745E+07
17.56975	4.167087E+07
17.57788	4.065793E+07
17.58600	3.95506E+07
17.59412	3.903001E+07
17.60225	3.818248E+07
17.61037	3.73795E+07
17.61848	3.626437E+07
17.62662	3.565809E+07
17.63473	3.548066E+07
17.64287	3.490479E+07
17.65098	3.426628E+07
17.65910	3.266185E+07
17.66723	3.085056E+07
17.67535	2.884724E+07
17.68348	2.794948E+07
17.69160	2.628102E+07
17.69972	2.461572E+07
17.70785	2.3693E+07
17.71597	2.212376E+07
17.72410	2.10628E+07
17.73222	1.999162E+07
17.74033	1.880258E+07
17.74847	1.771211E+07
17.75658	1.641174E+07
17.76470	1.533982E+07
17.77283	1.429511E+07
17.78095	1.337695E+07
17.78908	1.285563E+07
17.79720	1.190784E+07
17.80532	1.12321E+07
17.81345	1.050677E+07
17.82157	9879286
17.82970	9443054
17.83782	8798365
17.84593	8352810
17.85407	7928746
17.86218	7448581
17.87032	7184591
17.87843	6906786
17.88655	6579290
17.89468	6292364
17.90280	5878889
17.91092	5612883
17.91905	5403896
17.92717	5165096
17.93530	5006810
17.94342	4798430
17.95153	4564173
17.95967	4439058
17.96778	4231384
17.97592	4094647
17.98403	3977539
17.99215	3835476
18.00028	3686020
18.00840	3560851
18.01652	3438060
18.02465	3393739
18.03277	3273889
18.04090	3246354
18.04902	3160544
18.05713	3143007
18.06527	2968392
18.07338	2847483
18.08152	2732628
18.08963	2739766
18.09775	2633508
18.10588	2561991
18.11400	2507794
18.12213	2496457
18.13025	2399368
18.13837	2290808
18.14650	2210876
18.15462	2196429
18.16273	2142217
18.17087	2086908
18.17898	1984252
18.18712	1911985
18.19523	1869587
18.20335	1830296
18.21148	1800042
18.21960	1725403
18.22773	1676770
18.23585	1622628
18.24397	1574606
18.25210	1536013
18.26022	1473501
18.26833	1463821
18.27647	1450962
18.28458	1401477
18.29272	1360654
18.30083	1315733
18.30895	1285790
18.31708	1220300
18.32520	1199064
18.33333	1158816
18.34145	1142500
18.34957	1102570
18.35770	1089975
18.36582	1062397
18.37395	1041583
18.38207	1004729
18.39018	984798
18.39832	958970
18.40643	949514
18.41455	955125
18.42268	912440
18.43080	910045
18.43893	895452
18.44705	911256
18.45517	934558
18.46330	990013
18.47142	1130690
18.47955	1340954
18.48767	1566023
18.49578	1720416
18.50392	1719549
18.51203	1587286
18.52017	1377205
18.52828	1185726
18.53640	1029363
18.54453	937697
18.55265	858376
18.56077	822151
18.56890	782313
18.57702	750313
18.58515	732695
18.59327	714054
18.60138	708303
18.60952	683518
18.61763	680375
18.62577	661155
18.63388	669046
18.64200	664769
18.65013	642298
18.65825	634424
18.66638	616068
18.67450	590124
18.68262	578991
18.69075	583166
18.69887	583601
18.70698	568639
18.71512	552588
18.72323	538506
18.73137	536018
18.73948	529267
18.74760	526427
18.75573	502199
18.76385	510008
18.77198	506273
18.78010	503317
18.78822	494258
18.79635	495990
18.80447	480891
18.81258	482297
18.82072	469900
18.82883	468440
18.83697	469222
18.84508	460159
18.85320	461365
18.86133	454185
18.86945	445951
18.87758	449963
18.88570	438828
18.89382	437125
18.90195	439807
18.91007	432925
18.91820	420673
18.92632	427623
18.93443	437424
18.94257	452731
18.95068	461884
18.95880	472324
18.96693	502977
18.97505	524593
18.98318	526720
18.99130	498401
18.99942	485197
19.00755	454596
19.01567	441370
19.02380	423395
19.03192	417061
19.04003	405020
19.04817	397067
19.05628	396588
19.06440	397956
19.07253	398242
19.08065	407440
19.08878	427080
19.09690	463020
19.10502	514965
19.11315	548192
19.12127	571963
19.12940	557107
19.13752	526587
19.14563	483953
19.15377	440822
19.16188	425597
19.17002	417800
19.17813	403896
19.18625	402409
19.19438	380834
19.20250	373571
19.21062	373512
19.21875	365969
19.22687	356761
19.23500	352052
19.24312	346181
19.25123	340289
19.25937	339024
19.26748	331401
19.27562	329106
19.28373	322949
19.29185	324083
19.29998	324114
19.30810	324133
19.31623	329275
19.32435	328531
19.33247	324104
19.34060	319699
19.34872	310953
19.35683	310034
19.36497	309864
19.37308	317224
19.38122	309302
19.38933	318187
19.39745	310145
19.40558	318859
19.41370	302132
19.42183	304807
19.42995	301158
19.43807	294853
19.44620	298068
19.45432	307290
19.46243	308511
19.47057	328653
19.47868	347231
19.48682	379339
19.49493	416244
19.50305	459069
19.51118	519543
19.51930	561285
19.52743	575792
19.53555	532404
19.54367	478451
19.55180	415651
19.55992	365128
19.56805	321465
19.57617	305354
19.58428	292875
19.59242	282286
19.60053	286497
19.60865	275291
19.61678	280110
19.62490	282732
19.63303	286807
19.64115	306446
19.64927	351042
19.65740	435854
19.66552	541333
19.67365	671891
19.68177	742734
19.68988	771790
19.69802	730045
19.70613	691264
19.71427	622880
19.72238	556110
19.73050	489353
19.73863	458488
19.74675	406024
19.75487	374145
19.76300	354482
19.77112	326926
19.77925	312767
19.78737	313855
19.79548	311734
19.80362	310007
19.81173	311556
19.81987	297618
19.82798	299903
19.83610	293884
19.84423	287383
19.85235	280011
19.86047	264543
19.86860	268413
19.87672	264716
19.88485	276426
19.89297	296547
19.90108	335631
19.90922	357320
19.91733	389338
19.92547	411530
19.93358	424728
19.94170	419283
19.94983	432090
19.95795	414096
19.96608	401064
19.97420	385334
19.98232	381888
19.99045	385168
19.99857	392418
20.00668	399834
20.01482	391332
20.02293	384628
20.03107	390517
20.03918	390135
20.04730	372069
20.05543	353700
20.06355	329200
20.07168	317965
20.07980	294147
20.08792	295009
20.09605	288357
20.10417	291245
20.11228	291794
20.12042	277083
20.12853	263659
20.13667	266922
20.14478	261136
20.15290	249756
20.16103	267650
20.16915	291350
20.17728	308005
20.18540	340413
20.19352	373617
20.20165	402954
20.20977	435286
20.21790	426666
20.22602	413194
20.23413	407547
20.24227	393191
20.25038	375913
20.25850	411219
20.26663	474865
20.27475	546910
20.28288	628487
20.29100	679492
20.29912	661457
20.30725	647822
20.31537	584604
20.32350	495017
20.33162	443200
20.33973	386338
20.34787	347722
20.35598	313469
20.36412	292441
20.37223	267607
20.38035	270039
20.38848	275089
20.39660	276499
20.40472	294299
20.41285	319859
20.42097	326630
20.42910	331081
20.43722	336717
20.44533	329467
20.45347	327745
20.46158	322844
20.46972	323434
20.47783	298361
20.48595	287425
20.49408	266312
20.50220	267160
20.51032	247908
20.51845	232361
20.52657	229533
20.53470	226472
20.54282	221857
20.55093	215981
20.55907	216706
20.56718	220045
20.57532	205762
20.58343	206288
20.59155	203930
20.59968	202879
20.60780	205826
20.61593	204418
20.62405	203778
20.63217	194254
20.64030	201765
20.64842	199125
20.65653	202051
20.66467	200279
20.67278	199013
20.68092	200666
20.68903	199379
20.69715	205650
20.70528	202078
20.71340	192567
20.72153	201632
20.72965	201235
20.73777	187262
20.74590	192384
20.75402	203608
20.76215	199120
20.77027	207704
20.77838	199049
20.78652	204882
20.79463	219507
20.80275	259831
20.81088	306442
20.81900	361229
20.82713	402835
20.83525	407634
20.84337	384933
20.85150	325152
20.85962	291883
20.86775	258831
20.87587	225266
20.88398	230592
20.89212	206099
20.90023	208692
20.90835	207352
20.91648	202256
20.92460	200805
20.93273	203404
20.94085	194288
20.94897	198365
20.95710	195962
20.96522	198720
20.97335	206392
20.98147	193613
20.98958	197650
20.99772	196685
21.00583	188838
21.01397	192077
21.02208	190419
21.03020	187026
21.03833	190639
21.04645	185994
21.05457	184361
21.06270	189346
21.07082	182578
21.07895	188170
21.08707	189579
21.09518	188758
21.10332	186790
21.11143	184176
21.11957	185889
21.12768	188030
21.13580	198256
21.14393	210414
21.15205	230601
21.16018	268190
21.16830	307577
21.17642	322859
21.18455	307602
21.19267	295887
21.20078	270021
21.20892	244621
21.21703	228581
21.22517	222620
21.23328	213581
21.24140	205802
21.24953	209021
21.25765	196147
21.26578	196452
21.27390	184882
21.28202	180706
21.29015	181638
21.29827	180288
21.30638	190548
21.31452	174812
21.32263	181588
21.33077	177722
21.33888	180708
21.34700	176552
21.35513	168268
21.36325	173230
21.37138	177300
21.37950	169825
21.38762	169324
21.39575	171133
21.40387	166678
21.41200	181127
21.42012	178864
21.42823	180247
21.43637	179641
21.44448	185131
21.45260	178059
21.46073	171670
21.46885	169718
21.47698	163112
21.48510	153274
21.49322	159744
21.50135	152081
21.50947	150854
21.51760	148180
21.52572	148591
21.53383	151020
21.54197	156922
21.55008	163349
21.55820	151063
21.56633	149306
21.57445	146600
21.58258	149204
21.59070	150559
21.59882	147766
21.60695	156365
21.61507	165675
21.62320	174697
21.63132	185320
21.63943	203580
21.64757	213536
21.65568	229517
21.66382	225207
21.67193	223807
21.68005	208870
21.68818	201981
21.69630	186137
21.70442	183143
21.71255	177459
21.72067	169850
21.72880	162688
21.73692	157941
21.74503	154987
21.75317	157648
21.76128	151097
21.76942	152249
21.77753	153871
21.78565	158234
21.79378	166252
21.80190	173501
21.81003	168814
21.81815	185347
21.82627	203574
21.83440	197416
21.84252	211347
21.85063	219470
21.85877	208818
21.86688	205092
21.87502	183252
21.88313	176063
21.89125	161157
21.89938	153909
21.90750	145420
21.91563	142961
21.92375	133529
21.93187	135978
21.94000	129299
21.94812	132401
21.95623	128547
21.96437	122996
21.97248	124441
21.98062	125018
21.98873	121230
21.99685	123389
22.00498	114989
22.01310	112435
22.02123	112560
22.02935	113444
22.03747	110097
22.04560	124476
22.05372	123214
22.06185	134290
22.06997	142519
22.07808	146662
22.08622	155445
22.09433	168561
22.10245	174896
22.11058	174810
22.11870	177221
22.12683	171876
22.13495	168591
22.14307	175426
22.15120	172053
22.15932	185087
22.16745	192787
22.17557	202095
22.18368	216798
22.19182	206912
22.19993	217587
22.20807	217508
22.21618	217096
22.22430	200691
22.23243	205784
22.24055	194716
22.24867	199439
22.25680	192623
22.26492	186330
22.27305	186264
22.28117	173757
22.28928	178105
22.29742	175782
22.30553	180007
22.31367	180965
22.32178	178897
22.32990	178660
22.33803	191949
22.34615	181073
22.35427	171918
22.36240	171839
22.37052	173851
22.37865	180264
22.38677	175517
22.39488	177296
22.40302	184577
22.41113	193843
22.41927	205584
22.42738	228766
22.43550	223521
22.44363	238132
22.45175	215006
22.45988	204644
22.46800	184032
22.47612	166704
22.48425	158242
22.49237	144232
22.50048	147055
22.50862	149950
22.51673	142335
22.52487	131256
22.53298	129886
22.54110	123763
22.54923	130064
22.55735	124079
22.56548	125601
22.57360	123330
22.58172	117286
22.58985	119021
22.59797	113095
22.60608	110548
22.61422	112751
22.62233	105966
22.63047	113319
22.63858	109647
22.64670	107761
22.65483	107011
22.66295	110379
22.67108	115658
22.67920	112459
22.68732	119381
22.69545	117368
22.70357	118993
22.71170	122709
22.71982	122208
22.72793	122434
22.73607	130127
22.74418	128223
22.75230	134792
22.76043	138539
22.76855	148614
22.77668	158932
22.78480	167738
22.79292	172881
22.80105	177193
22.80917	189931
22.81730	197375
22.82542	192788
22.83353	201938
22.84167	201187
22.84978	196615
22.85792	206939
22.86603	214311
22.87415	217772
22.88228	214776
22.89040	224749
22.89852	235540
22.90665	247010
22.91477	276573
22.92290	281877
22.93102	314957
22.93913	312292
22.94727	301194
22.95538	287412
22.96352	267232
22.97163	256426
22.97975	236611
22.98788	222225
22.99600	214625
23.00412	221184
23.01225	209834
23.02037	208252
23.02850	204802
23.03662	204256
23.04473	195833
23.05287	195365
23.06098	187903
23.06912	181961
23.07723	183089
23.08535	177774
23.09348	180093
23.10160	179789
23.10973	180134
23.11785	170727
23.12597	170938
23.13410	171028
23.14222	172206
23.15033	180417
23.15847	175562
23.16658	177004
23.17472	166665
23.18283	164276
23.19095	170139
23.19908	166832
23.20720	169389
23.21533	171092
23.22345	174463
23.23157	162396
23.23970	157577
23.24782	162602
23.25595	164417
23.26407	154543
23.27218	169110
23.28032	166280
23.28843	172287
23.29655	160608
23.30468	160673
23.31280	159356
23.32093	150067
23.32905	153649
23.33717	154744
23.34530	165449
23.35342	174697
23.36155	186691
23.36967	198969
23.37778	207970
23.38592	209249
23.39403	199944
23.40215	194013
23.41028	180189
23.41840	170010
23.42653	164011
23.43465	160683
23.44277	152677
23.45090	151756
23.45902	150550
23.46715	145689
23.47527	146996
23.48338	144504
23.49152	143217
23.49963	147742
23.50777	151313
23.51588	145721
23.52400	148997
23.53213	148114
23.54025	145768
23.54837	145457
23.55650	148135
23.56462	150995
23.57275	160319
23.58087	163032
23.58898	173178
23.59712	180385
23.60523	206065
23.61337	200635
23.62148	195884
23.62960	187516
23.63773	177744
23.64585	169960
23.65397	156921
23.66210	155026
23.67022	149556
23.67835	151765
23.68647	154391
23.69458	158661
23.70272	147610
23.71083	139131
23.71897	147429
23.72708	142141
23.73520	145279
23.74333	156870
23.75145	210506
23.75958	363092
23.76770	719892
23.77582	1472216
23.78395	2571502
23.79207	3753788
23.80018	4440123
23.80832	4533001
23.81643	3826005
23.82457	3005461
23.83268	2247407
23.84080	1670771
23.84893	1254113
23.85705	972047
23.86518	796742
23.87330	668642
23.88142	570181
23.88955	522566
23.89767	472624
23.90580	422224
23.91392	393837
23.92203	374953
23.93017	368205
23.93828	352709
23.94640	338634
23.95453	318843
23.96265	300793
23.97078	287283
23.97890	270353
23.98702	263953
23.99515	267510
24.00327	331437
24.01140	496366
24.01952	907689
24.02763	1535516
24.03577	2233614
24.04388	2749810
24.05202	2636286
24.06013	2122772
24.06825	1468387
24.07638	929754
24.08450	584895
24.09262	390153
24.10075	296580
24.10887	242397
24.11700	221521
24.12512	213673
24.13323	214734
24.14137	223838
24.14948	244309
24.15762	243520
24.16573	255862
24.17385	238957
24.18198	233109
24.19010	217238
24.19822	202960
24.20635	201446
24.21447	195407
24.22260	193846
24.23072	187340
24.23883	191627
24.24697	172598
24.25508	165628
24.26322	166481
24.27133	153019
24.27945	153641
24.28758	143608
24.29570	150536
24.30383	151053
24.31195	146254
24.32007	141904
24.32820	142046
24.33632	138845
24.34443	136606
24.35257	135424
24.36068	129190
24.36882	135937
24.37693	161715
24.38505	199205
24.39318	259239
24.40130	321039
24.40943	365141
24.41755	406192
24.42567	409542
24.43380	389657
24.44192	351137
24.45003	309999
24.45817	299335
24.46628	298214
24.47442	286174
24.48253	292467
24.49065	293811
24.49878	307929
24.50690	310625
24.51503	328152
24.52315	333309
24.53127	341934
24.53940	340143
24.54752	334213
24.55565	336539
24.56377	322303
24.57188	322623
24.58002	323093
24.58813	316624
24.59625	311218
24.60438	317381
24.61250	321167
24.62063	314101
24.62875	306850
24.63687	307544
24.64500	306382
24.65312	291414
24.66125	298265
24.66937	297853
24.67748	303710
24.68562	300696
24.69373	289447
24.70187	293183
24.70998	292869
24.71810	287080
24.72623	271237
24.73435	283036
24.74247	274287
24.75060	291289
24.75872	277045
24.76685	281424
24.77497	293748
24.78308	294219
24.79122	284473
24.79933	300814
24.80747	294915
24.81558	293243
24.82370	296160
24.83183	291953
24.83995	308679
24.84807	319301
24.85620	344067
24.86432	396948
24.87245	465372
24.88057	540605
24.88868	616431
24.89682	699548
24.90493	731743
24.91307	701598
24.92118	634625
24.92930	516645
24.93743	436706
24.94555	360983
24.95368	327791
24.96180	294651
24.96992	289381
24.97805	269706
24.98617	271069
24.99428	269391
25.00242	260608
25.01053	260445
25.01867	253585
25.02678	252040
25.03490	255116
25.04303	250182
25.05115	249338
25.05928	243693
25.06740	252783
25.07552	252416
25.08365	255263
25.09177	254923
25.09990	258448
25.10802	300765
25.11613	402298
25.12427	650420
25.13238	1066559
25.14050	1612902
25.14863	2142686
25.15675	2517538
25.16488	2449822
25.17300	2134804
25.18112	1632270
25.18925	1197970
25.19737	864832
25.20550	640118
25.21362	465862
25.22173	383171
25.22987	343233
25.23798	343606
25.24610	401967
25.25423	542843
25.26235	777123
25.27048	1023125
25.27860	1304205
25.28672	1351287
25.29485	1292383
25.30297	1008058
25.31110	751892
25.31922	520736
25.32733	373089
25.33547	269261
25.34358	218461
25.35172	192349
25.35983	175955
25.36795	167252
25.37608	156046
25.38420	148742
25.39232	146433
25.40045	139306
25.40857	139740
25.41670	135990
25.42482	128235
25.43293	134190
25.44107	130608
25.44918	129626
25.45732	128154
25.46543	131841
25.47355	129250
25.48168	133158
25.48980	139869
25.49792	137229
25.50605	129350
25.51417	124594
25.52230	126117
25.53042	118238
25.53853	120603
25.54667	116771
25.55478	117279
25.56292	108889
25.57103	108427
25.57915	115603
25.58728	114604
25.59540	114000
25.60353	116921
25.61165	115401
25.61977	126904
25.62790	134678
25.63602	163208
25.64413	179181
25.65227	206663
25.66038	208047
25.66852	206825
25.67663	172818
25.68475	163465
25.69288	138647
25.70100	124837
25.70913	113865
25.71725	109057
25.72537	119545
25.73350	132029
25.74162	158791
25.74975	182891
25.75787	206741
25.76598	223076
25.77412	262160
25.78223	314934
25.79035	361081
25.79848	379938
25.80660	369216
25.81473	337128
25.82285	307398
25.83097	285673
25.83910	276699
25.84722	277641
25.85535	273486
25.86347	271381
25.87158	266778
25.87972	264791
25.88783	252588
25.89595	251637
25.90408	254244
25.91220	252671
25.92033	243970
25.92845	247982
25.93657	256185
25.94470	262097
25.95282	261343
25.96095	263194
25.96907	259393
25.97718	251511
25.98532	245162
25.99343	238507
26.00157	225755
26.00968	229021
26.01780	220923
26.02593	226158
26.03405	223003
26.04217	228211
26.05030	218230
26.05842	221461
26.06655	223889
26.07467	229406
26.08278	217385
26.09092	220191
26.09903	219199
26.10717	232825
26.11528	221643
26.12340	218756
26.13153	211203
26.13965	216407
26.14778	227948
26.15590	221253
26.16402	223593
26.17215	210750
26.18027	205588
26.18838	207234
26.19652	216415
26.20463	195441
26.21277	199679
26.22088	191395
26.22900	200831
26.23713	191300
26.24525	196457
26.25338	193555
26.26150	191612
26.26962	200530
26.27775	214274
26.28587	231663
26.29398	232918
26.30212	246036
26.31023	248178
26.31837	239642
26.32648	227033
26.33460	215619
26.34273	201528
26.35085	199571
26.35898	184540
26.36710	184504
26.37522	191036
26.38335	195637
26.39147	203083
26.39960	219840
26.40772	234151
26.41583	235657
26.42397	230052
26.43208	216787
26.44020	217434
26.44833	205030
26.45645	195179
26.46458	192450
26.47270	185560
26.48082	184207
26.48895	179887
26.49707	171685
26.50520	170340
26.51332	171132
26.52143	164095
26.52957	156264
26.53768	151862
26.54582	157862
26.55393	158402
26.56205	152988
26.57018	152470
26.57830	158841
26.58642	148123
26.59455	158782
26.60267	157164
26.61080	148016
26.61892	149989
26.62703	145652
26.63517	148083
26.64328	148665
26.65142	148766
26.65953	154316
26.66765	148421
26.67578	147951
26.68390	139955
26.69202	144927
26.70015	138253
26.70827	139515
26.71640	138831
26.72452	136501
26.73263	145217
26.74077	136620
26.74888	135730
26.75702	133806
26.76513	136181
26.77325	132886
26.78138	137224
26.78950	138486
26.79763	135059
26.80575	138549
26.81387	142744
26.82200	140665
26.83012	145180
26.83823	135917
26.84637	139948
26.85448	131161
26.86262	130306
26.87073	128135
26.87885	127857
26.88698	131563
26.89510	128894
26.90323	131176
26.91135	125377
26.91947	126652
26.92760	125776
26.93572	131356
26.94383	130859
26.95197	132514
26.96008	132341
26.96822	158226
26.97633	181899
26.98445	231784
26.99258	334973
27.00070	499958
27.00883	708387
27.01695	977375
27.02507	1209892
27.03320	1354684
27.04132	1386443
27.04945	1237283
27.05757	1058082
27.06568	845337
27.07382	686059
27.08193	548738
27.09005	459610
27.09818	401055
27.10630	360265
27.11443	313481
27.12255	284038
27.13067	280742
27.13880	255562
27.14692	261821
27.15505	256426
27.16317	261838
27.17128	274066
27.17942	319309
27.18753	330306
27.19567	357170
27.20378	352152
27.21190	325771
27.22003	310412
27.22815	284776
27.23627	248274
27.24440	225749
27.25252	211135
27.26065	203116
27.26877	182976
27.27688	177440
27.28502	168435
27.29313	170114
27.30127	163573
27.30938	158897
27.31750	149534
27.32563	155663
27.33375	149663
27.34187	142131
27.35000	148313
27.35812	154718
27.36625	149836
27.37437	148400
27.38248	148172
27.39062	148702
27.39873	146876
27.40687	139908
27.41498	131886
27.42310	135561
27.43123	129837
27.43935	126957
27.44748	126274
27.45560	123331
27.46372	125449
27.47185	117764
27.47997	119009
27.48808	118985
27.49622	121923
27.50433	116663
27.51247	117010
27.52058	116447
27.52870	123451
27.53683	116856
27.54495	124700
27.55308	122055
27.56120	119167
27.56932	118778
27.57745	120650
27.58557	130407
27.59370	138032
27.60182	135198
27.60993	144354
27.61807	141783
27.62618	130223
27.63430	126310
27.64243	126025
27.65055	120986
27.65868	109395
27.66680	110354
27.67492	108138
27.68305	104525
27.69117	105939
27.69930	114478
27.70742	105277
27.71553	103845
27.72367	101331
27.73178	99235
27.73990	102902
27.74803	106128
27.75615	108289
27.76428	122610
27.77240	132084
27.78052	158591
27.78865	191949
27.79677	201009
27.80490	202760
27.81302	178541
27.82113	164434
27.82927	139822
27.83738	122686
27.84552	114964
27.85363	103181
27.86175	99847
27.86988	106618
27.87800	101498
27.88612	97599
27.89425	94948
27.90237	94869
27.91050	93659
27.91862	95941
27.92673	98707
27.93487	93681
27.94298	91481
27.95112	93540
27.95923	88684
27.96735	89225
27.97548	93515
27.98360	100121
27.99172	95273
27.99985	95829
28.00797	97658
28.01610	99281
28.02422	98341
28.03233	95200
28.04047	95288
28.04858	102440
28.05672	107308
28.06483	102851
28.07295	91476
28.08108	90059
28.08920	97650
28.09733	98286
28.10545	90312
28.11357	92614
28.12170	89276
28.12982	87483
28.13793	87991
28.14607	86387
28.15418	85136
28.16232	82477
28.17043	86621
28.17855	90068
28.18668	97393
28.19480	98755
28.20293	107979
28.21105	117522
28.21917	127029
28.22730	130234
28.23542	134300
28.24355	127871
28.25167	126178
28.25978	122549
28.26792	119770
28.27603	107892
28.28415	103158
28.29228	105784
28.30040	100589
28.30853	106048
28.31665	113258
28.32477	113183
28.33290	130481
28.34102	131654
28.34915	152852
28.35727	167350
28.36538	180854
28.37352	193802
28.38163	199229
28.38977	215795
28.39788	220502
28.40600	221284
28.41413	216079
28.42225	209210
28.43037	201634
28.43850	184129
28.44662	178196
28.45475	175743
28.46287	163406
28.47098	164141
28.47912	152645
28.48723	151169
28.49537	153203
28.50348	154806
28.51160	154477
28.51973	155552
28.52785	150424
28.53597	143373
28.54410	141481
28.55222	125708
28.56035	130927
28.56847	121021
28.57658	120267
28.58472	119401
28.59283	120038
28.60097	119464
28.60908	120763
28.61720	122103
28.62533	123022
28.63345	124831
28.64158	127081
28.64970	131323
28.65782	125043
28.66595	129731
28.67407	129932
28.68218	117766
28.69032	120170
28.69843	117224
28.70657	113260
28.71468	106871
28.72280	106257
28.73093	110848
28.73905	106932
28.74718	105796
28.75530	107677
28.76342	120960
28.77155	125544
28.77967	146267
28.78778	158654
28.79592	156367
28.80403	151810
28.81217	143171
28.82028	131062
28.82840	122101
28.83653	117539
28.84465	112450
28.85278	110374
28.86090	105402
28.86902	111762
28.87715	103126
28.88527	109627
28.89340	106550
28.90152	107620
28.90963	110868
28.91777	108935
28.92588	109161
28.93400	111350
28.94213	108807
28.95025	117541
28.95838	110550
28.96650	118776
28.97462	105968
28.98275	107221
28.99087	105527
28.99900	102943
29.00712	98127
29.01523	91959
29.02337	91216
29.03148	96007
29.03962	95443
29.04773	106194
29.05585	102129
29.06398	107336
29.07210	110711
29.08022	121825
29.08835	122293
29.09647	124504
29.10460	119211
29.11272	115279
29.12083	110254
29.12897	99875
29.13708	99593
29.14522	90805
29.15333	89369
29.16145	91842
29.16958	92694
29.17770	92437
29.18582	89170
29.19395	102120
29.20207	104988
29.21020	110951
29.21832	112667
29.22643	126270
29.23457	134659
29.24268	143982
29.25082	153673
29.25893	176372
29.26705	179928
29.27518	190110
29.28330	182160
29.29143	174942
29.29955	153122
29.30767	142331
29.31580	124103
29.32392	111784
29.33203	104980
29.34017	103112
29.34828	97333
29.35642	89770
29.36453	95788
29.37265	93213
29.38078	96889
29.38890	93014
29.39703	90185
29.40515	93231
29.41327	88306
29.42140	93988
29.42952	93269
29.43765	94723
29.44577	89430
29.45388	95474
29.46202	99694
29.47013	95893
29.47825	98113
29.48638	103004
29.49450	104549
29.50263	107175
29.51075	103088
29.51887	110739
29.52700	107608
29.53512	103613
29.54325	106073
29.55137	102673
29.55948	103155
29.56762	101082
29.57573	101493
29.58385	94642
29.59198	93579
29.60010	96737
29.60823	90826
29.61635	87468
29.62447	90225
29.63260	87774
29.64072	88152
29.64885	88191
29.65697	82035
29.66508	85836
29.67322	81249
29.68133	83101
29.68947	78323
29.69758	87626
29.70570	84828
29.71383	83261
29.72195	87254
29.73007	81660
29.73820	80593
29.74632	81757
29.75445	78704
29.76257	77211
29.77068	78358
29.77882	78098
29.78693	79191
29.79507	79300
29.80318	77931
29.81130	77976
29.81943	75639
29.82755	77200
29.83567	81218
29.84380	81770
29.85192	80570
29.86005	87419
29.86817	97481
29.87628	123880
29.88442	164114
29.89253	239253
29.90067	308528
29.90878	343311
29.91690	348524
29.92503	301310
29.93315	239574
29.94128	182481
29.94940	134069
29.95752	116280
29.96565	107451
29.97377	103992
29.98188	100435
29.99002	107408
29.99813	104645
30.00627	113655
30.01438	119857
30.02250	123094
30.03063	128904
30.03875	131977
30.04688	136957
30.05500	131064
30.06312	132467
30.07125	135110
30.07937	134744
30.08750	131075
30.09562	131511
30.10373	129273
30.11187	122099
30.11998	122808
30.12810	118007
30.13623	118883
30.14435	117795
30.15248	107311
30.16060	110926
30.16872	108887
30.17685	106985
30.18497	105044
30.19310	102972
30.20122	105396
30.20933	105264
30.21747	111090
30.22558	101819
30.23370	100112
30.24183	96540
30.24995	90982
30.25808	93817
30.26620	94768
30.27432	96378
30.28245	90032
30.29057	87052
30.29870	86780
30.30682	85236
30.31493	86797
30.32307	83719
30.33118	80944
30.33932	89961
30.34743	84259
30.35555	83476
30.36368	82189
30.37180	80638
30.37992	84763
30.38805	81591
30.39617	80447
30.40430	81501
30.41242	79017
30.42053	85937
30.42867	78596
30.43678	80377
30.44492	80719
30.45303	82525
30.46115	79612
30.46928	82062
30.47740	90558
30.48553	85677
30.49365	88518
30.50177	88020
30.50990	94137
30.51802	92594
30.52613	93891
30.53427	91147
30.54238	84556
30.55052	86310
30.55863	89900
30.56675	83340
30.57488	82683
30.58300	82700
30.59113	83859
30.59925	87744
30.60737	82703
30.61550	77114
30.62362	80999
30.63173	82605
30.63987	88034
30.64798	82562
30.65612	85320
30.66423	76141
30.67235	78355
30.68048	76180
30.68860	78145
30.69673	74031
30.70485	75890
30.71297	80340
30.72110	79331
30.72922	77507
30.73735	78891
30.74547	75326
30.75358	80587
30.76172	82147
30.76983	89212
30.77795	105205
30.78608	132584
30.79420	187379
30.80233	261874
30.81045	350009
30.81857	405089
30.82670	379367
30.83482	343293
30.84295	247692
30.85107	190895
30.85918	144960
30.86732	118402
30.87543	107237
30.88357	100212
30.89168	92949
30.89980	92415
30.90793	90383
30.91605	89595
30.92417	91309
30.93230	87625
30.94042	87701
30.94855	79937
30.95667	82261
30.96478	81919
30.97292	83929
30.98103	80286
30.98917	81431
30.99728	78489
31.00540	74995
31.01353	77064
31.02165	80940
31.02977	79088
31.03790	83351
31.04602	80965
31.05415	87538
31.06227	77377
31.07038	80907
31.07852	85133
31.08663	93514
31.09477	99115
31.10288	106494
31.11100	112817
31.11913	106867
31.12725	104221
31.13538	97789
31.14350	95511
31.15162	90726
31.15975	88123
31.16787	85846
31.17598	83872
31.18412	89171
31.19223	100288
31.20037	116312
31.20848	123249
31.21660	142604
31.22473	162376
31.23285	173038
31.24098	167226
31.24910	152060
31.25722	128537
31.26535	122200
31.27347	106126
31.28158	100741
31.28972	92784
31.29783	91609
31.30597	95533
31.31408	91700
31.32220	96008
31.33033	95288
31.33845	93912
31.34658	100667
31.35470	95303
31.36282	99980
31.37095	91343
31.37907	99587
31.38720	97038
31.39532	95722
31.40343	97072
31.41157	97075
31.41968	100971
31.42780	96844
31.43593	98889
31.44405	101279
31.45218	99799
31.46030	98850
31.46842	105054
31.47655	111868
31.48467	113113
31.49280	116797
31.50092	122041
31.50903	122663
31.51717	123976
31.52528	118513
31.53342	114436
31.54153	110523
31.54965	108184
31.55778	119203
31.56590	118502
31.57402	126371
31.58215	127850
31.59027	123376
31.59840	119748
31.60652	116058
31.61463	101775
31.62277	100126
31.63088	101654
31.63902	97873
31.64713	103906
31.65525	103609
31.66338	101356
31.67150	99785
31.67962	100206
31.68775	94976
31.69587	101531
31.70400	97105
31.71212	91926
31.72023	93301
31.72837	91610
31.73648	89813
31.74462	99280
31.75273	99587
31.76085	87829
31.76898	93690
31.77710	95440
31.78523	94642
31.79335	97299
31.80147	96758
31.80960	96672
31.81772	98226
31.82583	102766
31.83397	91770
31.84208	91106
31.85022	93235
31.85833	92223
31.86645	91850
31.87458	89924
31.88270	97011
31.89083	93093
31.89895	94554
31.90707	91556
31.91520	90751
31.92332	93355
31.93145	92844
31.93957	107052
31.94768	107683
31.95582	110777
31.96393	115293
31.97205	123364
31.98018	120445
31.98830	119482
31.99643	126361
32.00455	125141
32.01267	125167
32.02080	130907
32.02892	120468
32.03705	121577
32.04517	120528
32.05328	118689
32.06142	110177
32.06953	118485
32.07765	114984
32.08578	116784
32.09390	114646
32.10203	112320
32.11015	109051
32.11827	105912
32.12640	101210
32.13452	94871
32.14265	96756
32.15077	97879
32.15888	102364
32.16702	91846
32.17513	92521
32.18327	90791
32.19138	88533
32.19950	93927
32.20763	89793
32.21575	90411
32.22387	88476
32.23200	85924
32.24012	90114
32.24825	93627
32.25637	96827
32.26448	98962
32.27262	109593
32.28073	115295
32.28887	112079
32.29698	101301
32.30510	103038
32.31323	94493
32.32135	93931
32.32947	92270
32.33760	87146
32.34572	87448
32.35385	88198
32.36197	85759
32.37008	91799
32.37822	86376
32.38633	87110
32.39447	84625
32.40258	86477
32.41070	81711
32.41883	80648
32.42695	83855
32.43508	77421
32.44320	82222
32.45132	79296
32.45945	81202
32.46757	85178
32.47568	77603
32.48382	79404
32.49193	77911
32.50007	79757
32.50818	74412
32.51630	78686
32.52443	77279
32.53255	76604
32.54068	78980
32.54880	77198
32.55692	78151
32.56505	83590
32.57317	81745
32.58130	82887
32.58942	77468
32.59753	76758
32.60567	73973
32.61378	76925
32.62190	77441
32.63003	77930
32.63815	75029
32.64628	76114
32.65440	79130
32.66252	90204
32.67065	101047
32.67877	102969
32.68690	120533
32.69502	114069
32.70313	105221
32.71127	106669
32.71938	100572
32.72752	95566
32.73563	89369
32.74375	89570
32.75188	85686
32.76000	84211
32.76812	77072
32.77625	79112
32.78437	83903
32.79250	76210
32.80062	78850
32.80873	75218
32.81687	77207
32.82498	78137
32.83312	75135
32.84123	79713
32.84935	79999
32.85748	79249
32.86560	78669
32.87372	77715
32.88185	73731
32.88997	71094
32.89810	75460
32.90622	70185
32.91433	75197
32.92247	74872
32.93058	76337
32.93872	79606
32.94683	76780
32.95495	81260
32.96308	80680
32.97120	80476
32.97933	84527
32.98745	97676
32.99557	111495
33.00370	130141
33.01182	132689
33.01993	137111
33.02807	128727
33.03618	119027
33.04432	103519
33.05243	101150
33.06055	93672
33.06868	87505
33.07680	90199
33.08493	90665
33.09305	96117
33.10117	102293
33.10930	114418
33.11742	116569
33.12553	119524
33.13367	125278
33.14178	119120
33.14992	111209
33.15803	99933
33.16615	88406
33.17428	83668
33.18240	82205
33.19053	81867
33.19865	80012
33.20677	85677
33.21490	83506
33.22302	79723
33.23115	86414
33.23927	84888
33.24738	80886
33.25552	76766
33.26363	80569
33.27175	80277
33.27988	75985
33.28800	76280
33.29613	81334
33.30425	78929
33.31237	81075
33.32050	81071
33.32862	72199
33.33675	82184
33.34487	79626
33.35298	84828
33.36112	78848
33.36923	75346
33.37737	77946
33.38548	75219
33.39360	77721
33.40173	79704
33.40985	78663
33.41797	86979
33.42610	88001
33.43422	93719
33.44235	88963
33.45047	88799
33.45858	91820
33.46672	83384
33.47483	85334
33.48297	82072
33.49108	82799
33.49920	90028
33.50733	83989
33.51545	86561
33.52357	90272
33.53170	86239
33.53982	83013
33.54795	80872
33.55607	77837
33.56418	75195
33.57232	75506
33.58043	73636
33.58857	76358
33.59668	75742
33.60480	71969
33.61293	69168
33.62105	74279
33.62918	75151
33.63730	76185
33.64542	83828
33.65355	76749
33.66167	78758
33.66978	82144
33.67792	81340
33.68603	87159
33.69417	81013
33.70228	81030
33.71040	83644
33.71853	81301
33.72665	89559
33.73478	89022
33.74290	88069
33.75102	94537
33.75915	101496
33.76727	94863
33.77540	92525
33.78352	93417
33.79163	84765
33.79977	79508
33.80788	75475
33.81600	83689
33.82413	80287
33.83225	81544
33.84038	79824
33.84850	89853
33.85662	89464
33.86475	93762
33.87287	92801
33.88100	95879
33.88912	98736
33.89723	102127
33.90537	104388
33.91348	100335
33.92160	105441
33.92973	100349
33.93785	95979
33.94598	90796
33.95410	95113
33.96222	88245
33.97035	84523
33.97847	84728
33.98660	81249
33.99472	75737
34.00283	80044
34.01097	77526
34.01908	79702
34.02722	77122
34.03533	75810
34.04345	78472
34.05158	80325
34.05970	80471
34.06782	78722
34.07595	74963
34.08407	78801
34.09220	80826
34.10032	81905
34.10843	78426
34.11657	73133
34.12468	72683
34.13282	72410
34.14093	69212
34.14905	71919
34.15718	74193
34.16530	81777
34.17342	79670
34.18155	80557
34.18967	81537
34.19780	90815
34.20592	83966
34.21403	91716
34.22217	89295
34.23028	87293
34.23842	86021
34.24653	82489
34.25465	81730
34.26278	79766
34.27090	78427
34.27903	82063
34.28715	76924
34.29527	75439
34.30340	70721
34.31152	71866
34.31963	74857
34.32777	83093
34.33588	79230
34.34402	77829
34.35213	75317
34.36025	76876
34.36838	76461
34.37650	71254
34.38463	74798
34.39275	72668
34.40087	78407
34.40900	75699
34.41712	78158
34.42525	75792
34.43337	73433
34.44148	73373
34.44962	75325
34.45773	78295
34.46585	76955
34.47398	80175
34.48210	76147
34.49023	71845
34.49835	75665
34.50647	76324
34.51460	76362
34.52272	74428
34.53085	82992
34.53897	88048
34.54708	94044
34.55522	96679
34.56333	101880
34.57145	104420
34.57958	102048
34.58770	102839
34.59583	104122
34.60395	105213
34.61207	98283
34.62020	101916
34.62832	105339
34.63645	106227
34.64457	106093
34.65268	102072
34.66082	100887
34.66893	95092
34.67707	94077
34.68518	94237
34.69330	95221
34.70143	92211
34.70955	90179
34.71767	92754
34.72580	87899
34.73392	83719
34.74205	82090
34.75017	87197
34.75828	83979
34.76642	84118
34.77453	86087
34.78267	83552
34.79078	83963
34.79890	83550
34.80703	77568
34.81515	77795
34.82328	80301
34.83140	82433
34.83952	81701
34.84765	81155
34.85577	83861
34.86388	78384
34.87202	80622
34.88013	81492
34.88827	81996
34.89638	76619
34.90450	83495
34.91263	83007
34.92075	76373
34.92888	85827
34.93700	84751
34.94512	85142
34.95325	89634
34.96137	97959
34.96948	102042
34.97762	109067
34.98573	111046
34.99387	111589
35.00198	104996
35.01010	106531
35.01823	104952
35.02635	103494
35.03448	106654
35.04260	108440
35.05072	105401
35.05885	101191
35.06697	96279
35.07510	95877
35.08322	95291
35.09133	92594
35.09947	92333
35.10758	88747
35.11570	86630
35.12383	80303
35.13195	84960
35.14008	88637
35.14820	79071
35.15632	88263
35.16445	83495
35.17257	84619
35.18070	84912
35.18882	83282
35.19693	81014
35.20507	74647
35.21318	88945
35.22130	82806
35.22943	83937
35.23755	87287
35.24568	86271
35.25380	91096
35.26192	90570
35.27005	97445
35.27817	88618
35.28630	92179
35.29442	88122
35.30253	92942
35.31067	86507
35.31878	82643
35.32692	87835
35.33503	82652
35.34315	80270
35.35128	85056
35.35940	87666
35.36752	86984
35.37565	91240
35.38377	90434
35.39190	101052
35.40002	105689
35.40813	120921
35.41627	123858
35.42438	128633
35.43252	127747
35.44063	124343
35.44875	117116
35.45688	113112
35.46500	105779
35.47313	100075
35.48125	96188
35.48937	93378
35.49750	88669
35.50562	89615
35.51373	84514
35.52187	83409
35.52998	85909
35.53812	86694
35.54623	84243
35.55435	88557
35.56248	87319
35.57060	85089
35.57873	84548
35.58685	82765
35.59497	80390
35.60310	82454
35.61122	80171
35.61933	78647
35.62747	85859
35.63558	81598
35.64372	82282
35.65183	79918
35.65995	87470
35.66808	81315
35.67620	82919
35.68433	93404
35.69245	92885
35.70057	98768
35.70870	96324
35.71682	91866
35.72495	93196
35.73307	98087
35.74118	93428
35.74932	92709
35.75743	91348
35.76555	91572
35.77368	88034
35.78180	93803
35.78993	87792
35.79805	95334
35.80617	93618
35.81430	93700
35.82242	83696
35.83055	87057
35.83867	88689
35.84678	85695
35.85492	87813
35.86303	86183
35.87117	89728
35.87928	94549
35.88740	88001
35.89553	90649
35.90365	88081
35.91177	91465
35.91990	82436
35.92802	83582
35.93615	85871
35.94427	79661
35.95238	83441
35.96052	86041
35.96863	86035
35.97677	77506
35.98488	79123
35.99300	81260
36.00113	80386
36.00925	79448
36.01737	83770
36.02550	82749
36.03362	87142
36.04175	89801
36.04987	82085
36.05798	86102
36.06612	83743
36.07423	90108
36.08237	84607
36.09048	82602
36.09860	87932
36.10673	83810
36.11485	83888
36.12298	78750
36.13110	76925
36.13922	80768
36.14735	82080
36.15547	82266
36.16358	81690
36.17172	79632
36.17983	85114
36.18797	80952
36.19608	78838
36.20420	80868
36.21233	74684
36.22045	86509
36.22858	80544
36.23670	82133
36.24482	81735
36.25295	91473
36.26107	87842
36.26920	86213
36.27732	83203
36.28543	87322
36.29357	87294
36.30168	96568
36.30980	95405
36.31793	103408
36.32605	97895
36.33418	99375
36.34230	103032
36.35042	99838
36.35855	92953
36.36667	85966
36.37480	91096
36.38292	90099
36.39103	77526
36.39917	83147
36.40728	85868
36.41540	91405
36.42353	92399
36.43165	95591
36.43978	95286
36.44790	95954
36.45602	94726
36.46415	106970
36.47227	102413
36.48040	97936
36.48852	96059
36.49663	101564
36.50477	99754
36.51288	102780
36.52102	105132
36.52913	103152
36.53725	100796
36.54538	99952
36.55350	90501
36.56162	88687
36.56975	92066
36.57787	88565
36.58600	87470
36.59412	80187
36.60223	85177
36.61037	84643
36.61848	88811
36.62662	88816
36.63473	96593
36.64285	103121
36.65098	99550
36.65910	106470
36.66722	107673
36.67535	105034
36.68347	108162
36.69160	96847
36.69972	93355
36.70783	94905
36.71597	88514
36.72408	90527
36.73222	93888
36.74033	94382
36.74845	93676
36.75658	87440
36.76470	93300
36.77283	92093
36.78095	93982
36.78907	93396
36.79720	94566
36.80532	97362
36.81343	90776
36.82157	92534
36.82968	91152
36.83782	93777
36.84593	92776
36.85405	93809
36.86218	95639
36.87030	98526
36.87843	100457
36.88655	103756
36.89467	103929
36.90280	97112
36.91092	101092
36.91905	95801
36.92717	96356
36.93528	98986
36.94342	100734
36.95153	108850
36.95965	122226
36.96778	124233
36.97590	131562
36.98403	130114
36.99215	124181
37.00027	118699
37.00840	112874
37.01652	109611
37.02465	101495
37.03277	104995
37.04088	105251
37.04902	99305
37.05713	98725
37.06527	97322
37.07338	99606
37.08150	102329
37.08963	101701
37.09775	108500
37.10587	110319
37.11400	111720
37.12212	119163
37.13025	114674
37.13837	119949
37.14648	118423
37.15462	117906
37.16273	115400
37.17087	113610
37.17898	105474
37.18710	108166
37.19523	101070
37.20335	102780
37.21147	91424
37.21960	101354
37.22772	102173
37.23585	100783
37.24397	93279
37.25208	96130
37.26022	94415
37.26833	93145
37.27647	97064
37.28458	95653
37.29270	98214
37.30083	99874
37.30895	103213
37.31708	101152
37.32520	102124
37.33332	103676
37.34145	99137
37.34957	105690
37.35768	113862
37.36582	112838
37.37393	118034
37.38207	115410
37.39018	117409
37.39830	115663
37.40643	115194
37.41455	113049
37.42268	104987
37.43080	102745
37.43892	105531
37.44705	105549
37.45517	100160
37.46328	107864
37.47142	105157
37.47953	101120
37.48767	99677
