C:\MassHunter\GCMS\1\data\JTB-E18\JTB-E18-028-08.D Thu Sep 19 12:14:49 2019
Start of data points
2.09527	92235
2.10338	93635
2.11150	91240
2.11963	92383
2.12775	91104
2.13588	88971
2.14400	91759
2.15212	88367
2.16025	86331
2.16837	83449
2.17650	86088
2.18462	80273
2.19273	77499
2.20087	77940
2.20898	71608
2.21710	75688
2.22523	76742
2.23335	70783
2.24148	78040
2.24960	233982
2.25772	1033577
2.26585	1463074
2.27397	919095
2.28210	473786
2.29022	325314
2.29833	259703
2.30647	228536
2.31458	205060
2.32272	203939
2.33083	175167
2.33895	156611
2.34708	151578
2.35520	144920
2.36332	173778
2.37145	200201
2.37957	165615
2.38770	147694
2.39582	135137
2.40393	135847
2.41207	138262
2.42018	131257
2.42832	141379
2.43643	139217
2.44455	127740
2.45268	117215
2.46080	112120
2.46893	111572
2.47705	123354
2.48517	123321
2.49330	109803
2.50142	114855
2.50953	111645
2.51767	104279
2.52578	107138
2.53392	111580
2.54203	111109
2.55015	108015
2.55828	100980
2.56640	101039
2.57453	104543
2.58265	101419
2.59077	102950
2.59890	112586
2.60702	119208
2.61513	114452
2.62327	107766
2.63138	100064
2.63952	98052
2.64763	102624
2.65575	113877
2.66388	137258
2.67200	124716
2.68013	107187
2.68825	100679
2.69637	94140
2.70450	96637
2.71262	88059
2.72075	100287
2.72887	90483
2.73698	96641
2.74512	91390
2.75323	92249
2.76135	88435
2.76948	91666
2.77760	89932
2.78573	98157
2.79385	95595
2.80197	115816
2.81010	254562
2.81822	497391
2.82635	465914
2.83447	270274
2.84258	193956
2.85072	190321
2.85883	160005
2.86695	132371
2.87508	120240
2.88320	109581
2.89133	110930
2.89945	111963
2.90757	101672
2.91570	97901
2.92382	98742
2.93195	94766
2.94007	92909
2.94818	91621
2.95632	90646
2.96443	88345
2.97257	94189
2.98068	97801
2.98880	115852
2.99693	133628
3.00505	149772
3.01317	305235
3.02130	566793
3.02942	817260
3.03755	2230326
3.04567	5592440
3.05378	6594630
3.06192	4087333
3.07003	2027106
3.07817	1177057
3.08628	817320
3.09440	635479
3.10253	522833
3.11065	439378
3.11878	385854
3.12690	335137
3.13502	305384
3.14315	275635
3.15127	258601
3.15938	250749
3.16752	241365
3.17563	212148
3.18377	197198
3.19188	185942
3.20000	183289
3.20813	187584
3.21625	190988
3.22438	178388
3.23250	166944
3.24062	162592
3.24875	157649
3.25687	154780
3.26500	190113
3.27312	468833
3.28123	1316509
3.28937	2780464
3.29748	3712462
3.30560	3323702
3.31373	2380287
3.32185	1692308
3.32998	1261393
3.33810	1039360
3.34622	881163
3.35435	849870
3.36247	958582
3.37060	1068391
3.37872	981124
3.38683	966824
3.39497	1675209
3.40308	2944589
3.41120	3096947
3.41933	2090001
3.42745	1194070
3.43558	798937
3.44370	633624
3.45182	573350
3.45995	508781
3.46807	460898
3.47620	414186
3.48432	382154
3.49243	352844
3.50057	330804
3.50868	325203
3.51682	302576
3.52493	293539
3.53305	282565
3.54118	268822
3.54930	254012
3.55742	256803
3.56555	253583
3.57367	239226
3.58180	238368
3.58992	223476
3.59803	250898
3.60617	410808
3.61428	926079
3.62242	1656895
3.63053	1786916
3.63865	1287059
3.64678	769962
3.65490	507729
3.66302	394324
3.67115	340597
3.67927	312079
3.68740	282039
3.69552	261273
3.70363	255105
3.71177	243693
3.71988	241965
3.72802	238560
3.73613	239177
3.74425	242108
3.75238	231009
3.76050	223080
3.76863	208688
3.77675	203337
3.78487	204967
3.79300	199246
3.80112	200095
3.80923	192692
3.81737	191297
3.82548	198928
3.83362	195166
3.84173	184213
3.84985	163608
3.85798	171787
3.86610	168553
3.87423	173366
3.88235	177375
3.89047	174108
3.89860	168291
3.90672	157720
3.91485	159926
3.92297	162287
3.93108	152300
3.93922	155664
3.94733	154187
3.95545	149437
3.96358	152263
3.97170	147479
3.97983	143424
3.98795	146491
3.99607	145373
4.00420	151143
4.01232	149007
4.02045	150432
4.02857	145380
4.03668	144305
4.04482	149775
4.05293	155637
4.06105	152231
4.06918	148775
4.07730	139868
4.08543	140403
4.09355	134341
4.10167	138032
4.10980	142430
4.11792	145799
4.12605	140591
4.13417	148507
4.14228	152921
4.15042	157952
4.15853	151252
4.16667	141793
4.17478	136803
4.18290	131068
4.19103	131490
4.19915	132736
4.20727	140588
4.21540	147879
4.22352	164570
4.23165	167084
4.23977	164323
4.24788	147563
4.25602	144361
4.26413	135067
4.27227	132729
4.28038	126361
4.28850	128390
4.29663	131512
4.30475	131271
4.31288	133452
4.32100	132535
4.32912	133256
4.33725	125135
4.34537	121992
4.35348	124616
4.36162	124485
4.36973	128499
4.37787	123223
4.38598	120103
4.39410	121753
4.40223	123100
4.41035	121081
4.41848	127607
4.42660	121064
4.43472	128945
4.44285	139255
4.45097	145548
4.45908	143975
4.46722	137078
4.47533	129800
4.48347	126104
4.49158	121821
4.49970	122621
4.50783	117508
4.51595	119991
4.52408	119541
4.53220	125596
4.54032	123575
4.54845	115759
4.55657	118702
4.56470	123809
4.57282	119553
4.58093	117260
4.58907	114025
4.59718	119469
4.60530	114695
4.61343	112560
4.62155	116620
4.62968	109568
4.63780	117014
4.64592	112373
4.65405	110983
4.66217	112581
4.67030	113333
4.67842	115636
4.68653	112930
4.69467	109348
4.70278	115769
4.71090	108336
4.71903	107345
4.72715	112160
4.73528	109527
4.74340	109294
4.75152	110358
4.75965	112440
4.76777	109283
4.77590	107950
4.78402	108631
4.79213	110247
4.80027	114377
4.80838	116282
4.81652	114052
4.82463	116025
4.83275	110469
4.84088	117409
4.84900	114115
4.85712	122998
4.86525	124081
4.87337	118065
4.88150	115650
4.88962	111238
4.89773	114359
4.90587	121958
4.91398	162031
4.92212	284460
4.93023	622935
4.93835	1122255
4.94648	1551817
4.95460	1654069
4.96273	1406584
4.97085	1043571
4.97897	773276
4.98710	609150
4.99522	501122
5.00333	437444
5.01147	381608
5.01958	329808
5.02772	298046
5.03583	280941
5.04395	272102
5.05208	262660
5.06020	241106
5.06833	230241
5.07645	228277
5.08457	221511
5.09270	243143
5.10082	273297
5.10893	308252
5.11707	319601
5.12518	296689
5.13332	252118
5.14143	223105
5.14955	209852
5.15768	216984
5.16580	234671
5.17393	271219
5.18205	305889
5.19017	297926
5.19830	268326
5.20642	234064
5.21455	219148
5.22267	231554
5.23078	284011
5.23892	315987
5.24703	309008
5.25515	272628
5.26328	230279
5.27140	204838
5.27953	194235
5.28765	183056
5.29577	176201
5.30390	168147
5.31202	166264
5.32015	162016
5.32827	161141
5.33638	158451
5.34452	159456
5.35263	161138
5.36077	149401
5.36888	146491
5.37700	137699
5.38513	142663
5.39325	139612
5.40137	134376
5.40950	140286
5.41762	132001
5.42575	132791
5.43387	133858
5.44198	133112
5.45012	140810
5.45823	131741
5.46637	130829
5.47448	133333
5.48260	128506
5.49073	126601
5.49885	130709
5.50697	134490
5.51510	128160
5.52322	126871
5.53135	126512
5.53947	128099
5.54758	125274
5.55572	129387
5.56383	123950
5.57197	132743
5.58008	132855
5.58820	138486
5.59633	139262
5.60445	141823
5.61258	140917
5.62070	157227
5.62882	161152
5.63695	160896
5.64507	158751
5.65318	157740
5.66132	144922
5.66943	143810
5.67757	142112
5.68568	148987
5.69380	152085
5.70193	159989
5.71005	164938
5.71818	179054
5.72630	186204
5.73442	185103
5.74255	179883
5.75067	183004
5.75878	188918
5.76692	200203
5.77503	193098
5.78317	180799
5.79128	186300
5.79940	220764
5.80753	352793
5.81565	593728
5.82378	902690
5.83190	1085144
5.84002	1036835
5.84815	794505
5.85627	544452
5.86440	371834
5.87252	283618
5.88063	231024
5.88877	213841
5.89688	206704
5.90500	238168
5.91313	321514
5.92125	416650
5.92938	504731
5.93750	507232
5.94562	414738
5.95375	315704
5.96187	241138
5.97000	196084
5.97812	176626
5.98623	165179
5.99437	153883
6.00248	143329
6.01062	136137
6.01873	125823
6.02685	128041
6.03498	123838
6.04310	119072
6.05122	117692
6.05935	110393
6.06747	108122
6.07560	105875
6.08372	106003
6.09183	107459
6.09997	103309
6.10808	99055
6.11622	106350
6.12433	103942
6.13245	99925
6.14058	106306
6.14870	105930
6.15682	105718
6.16495	111809
6.17307	123857
6.18120	129732
6.18932	141838
6.19743	153740
6.20557	164384
6.21368	154656
6.22182	145275
6.22993	136041
6.23805	132355
6.24618	131734
6.25430	127543
6.26243	129045
6.27055	137108
6.27867	133296
6.28680	140687
6.29492	138908
6.30303	141329
6.31117	143035
6.31928	148002
6.32742	152880
6.33553	160896
6.34365	158221
6.35178	162742
6.35990	166593
6.36803	167213
6.37615	170486
6.38427	172305
6.39240	168198
6.40052	174177
6.40865	173252
6.41677	173228
6.42488	170461
6.43302	173168
6.44113	181661
6.44925	179457
6.45738	184884
6.46550	182369
6.47363	191771
6.48175	189108
6.48987	190111
6.49800	199480
6.50612	180070
6.51425	141837
6.52237	130084
6.53048	121792
6.53862	119932
6.54673	123509
6.55485	123582
6.56298	117156
6.57110	104213
6.57923	107159
6.58735	105509
6.59547	105939
6.60360	103599
6.61172	106171
6.61985	100700
6.62797	101842
6.63608	93693
6.64422	99438
6.65233	91663
6.66047	99603
6.66858	92097
6.67670	94882
6.68483	91343
6.69295	93109
6.70107	87924
6.70920	92493
6.71732	100780
6.72545	120413
6.73357	139816
6.74168	160186
6.74982	172483
6.75793	171283
6.76607	157284
6.77418	133577
6.78230	114697
6.79043	99131
6.79855	94983
6.80668	89726
6.81480	88840
6.82292	91293
6.83105	89548
6.83917	84960
6.84728	93163
6.85542	119577
6.86353	186720
6.87167	298273
6.87978	457862
6.88790	602717
6.89603	667535
6.90415	616112
6.91228	471047
6.92040	320518
6.92852	216593
6.93665	145413
6.94477	116091
6.95288	103494
6.96102	83184
6.96913	84275
6.97727	78060
6.98538	77410
6.99350	68642
7.00163	73629
7.00975	75094
7.01788	93829
7.02600	122517
7.03412	169158
7.04225	224353
7.05037	260416
7.05850	279909
7.06662	254161
7.07473	210841
7.08287	162302
7.09098	134467
7.09910	113390
7.10723	107519
7.11535	97760
7.12348	93373
7.13160	90777
7.13972	92247
7.14785	86939
7.15597	87445
7.16410	85865
7.17222	80797
7.18033	76341
7.18847	78081
7.19658	79882
7.20470	81600
7.21283	85244
7.22095	87757
7.22908	80576
7.23720	85829
7.24532	84379
7.25345	84769
7.26157	93301
7.26970	104773
7.27782	110482
7.28593	117013
7.29407	128132
7.30218	132689
7.31032	116536
7.31843	107543
7.32655	93887
7.33468	94852
7.34280	101039
7.35092	103538
7.35905	97328
7.36717	96342
7.37530	89406
7.38342	99567
7.39153	114008
7.39967	146561
7.40778	183865
7.41592	224426
7.42403	220769
7.43215	200625
7.44028	165862
7.44840	135392
7.45653	117362
7.46465	101891
7.47277	91617
7.48090	87565
7.48902	90191
7.49713	100062
7.50527	112640
7.51338	142139
7.52152	162569
7.52963	171812
7.53775	149117
7.54588	128469
7.55400	107195
7.56213	94438
7.57025	86588
7.57837	82488
7.58650	75350
7.59462	75151
7.60273	74597
7.61087	74788
7.61898	69399
7.62712	71752
7.63523	74057
7.64335	70244
7.65148	77309
7.65960	70279
7.66773	71106
7.67585	71233
7.68397	68406
7.69210	68720
7.70022	65583
7.70835	63495
7.71647	63914
7.72458	64580
7.73272	63547
7.74083	65080
7.74895	64321
7.75708	61242
7.76520	62441
7.77333	64529
7.78145	61388
7.78957	63248
7.79770	62388
7.80582	61157
7.81395	60597
7.82207	61858
7.83018	63945
7.83832	59103
7.84643	61540
7.85457	57787
7.86268	60067
7.87080	58883
7.87893	61294
7.88705	62596
7.89517	63400
7.90330	58282
7.91142	60173
7.91955	60258
7.92767	58287
7.93578	55442
7.94392	59882
7.95203	56386
7.96017	58310
7.96828	63161
7.97640	61935
7.98453	61973
7.99265	62717
8.00077	59059
8.00890	54808
8.01702	54042
8.02515	57516
8.03327	58464
8.04138	57247
8.04952	57560
8.05763	55292
8.06577	55959
8.07388	55896
8.08200	54987
8.09013	50750
8.09825	53416
8.10638	55606
8.11450	57350
8.12262	56647
8.13075	51703
8.13887	58242
8.14698	53156
8.15512	54529
8.16323	54667
8.17137	55713
8.17948	62524
8.18760	59791
8.19573	59300
8.20385	56848
8.21198	52974
8.22010	57533
8.22822	51696
8.23635	49262
8.24447	52021
8.25258	56509
8.26072	53957
8.26883	50928
8.27697	54462
8.28508	49858
8.29320	49947
8.30133	51255
8.30945	51174
8.31758	52615
8.32570	52084
8.33382	54794
8.34195	59590
8.35007	63036
8.35820	64471
8.36632	61913
8.37443	54882
8.38257	52653
8.39068	52383
8.39880	52964
8.40693	56755
8.41505	54240
8.42318	53965
8.43130	52491
8.43942	54184
8.44755	48160
8.45567	45539
8.46380	50990
8.47192	51109
8.48003	48412
8.48817	47901
8.49628	52138
8.50442	56994
8.51253	60058
8.52065	62471
8.52878	64921
8.53690	62712
8.54502	55646
8.55315	55404
8.56127	50371
8.56940	55477
8.57752	56033
8.58563	53564
8.59377	55233
8.60188	48779
8.61002	50406
8.61813	48425
8.62625	48291
8.63438	52422
8.64250	49310
8.65063	46865
8.65875	48095
8.66687	48151
8.67500	46371
8.68312	49539
8.69123	48836
8.69937	49301
8.70748	50265
8.71562	54369
8.72373	55517
8.73185	61004
8.73998	75057
8.74810	125961
8.75623	230413
8.76435	372162
8.77247	468047
8.78060	511018
8.78872	437453
8.79683	319957
8.80497	242512
8.81308	197898
8.82122	162104
8.82933	138583
8.83745	127055
8.84558	105361
8.85370	100937
8.86183	91976
8.86995	91681
8.87807	89801
8.88620	85932
8.89432	80790
8.90245	76463
8.91057	77336
8.91868	71352
8.92682	76785
8.93493	72438
8.94305	73576
8.95118	67347
8.95930	68556
8.96743	63440
8.97555	65627
8.98367	67098
8.99180	67889
8.99992	64918
9.00805	63224
9.01617	66578
9.02428	65332
9.03242	60238
9.04053	59066
9.04865	60532
9.05678	60149
9.06490	59474
9.07303	65158
9.08115	58769
9.08927	55324
9.09740	59070
9.10552	60099
9.11365	59947
9.12177	61448
9.12988	58899
9.13802	59717
9.14613	59806
9.15427	58665
9.16238	59388
9.17050	57523
9.17863	55790
9.18675	58140
9.19487	57187
9.20300	56231
9.21112	60029
9.21925	56990
9.22737	54549
9.23548	48788
9.24362	51394
9.25173	56008
9.25987	57163
9.26798	55057
9.27610	59353
9.28423	63279
9.29235	68339
9.30048	76182
9.30860	76064
9.31672	75648
9.32485	62722
9.33297	65268
9.34108	61644
9.34922	65200
9.35733	70154
9.36547	66600
9.37358	56664
9.38170	62355
9.38983	58658
9.39795	53911
9.40608	57651
9.41420	53192
9.42232	53639
9.43045	58460
9.43857	59192
9.44668	50102
9.45482	53115
9.46293	53866
9.47107	52780
9.47918	52100
9.48730	52097
9.49543	53288
9.50355	52985
9.51168	55877
9.51980	53127
9.52792	49337
9.53605	53210
9.54417	54393
9.55230	55554
9.56042	51062
9.56853	49386
9.57667	48728
9.58478	47035
9.59290	53288
9.60103	54969
9.60915	56360
9.61728	57660
9.62540	54786
9.63352	51370
9.64165	54156
9.64977	52376
9.65790	56568
9.66602	55120
9.67413	55713
9.68227	48457
9.69038	50124
9.69852	43552
9.70663	47107
9.71475	43407
9.72288	40748
9.73100	41092
9.73912	39610
9.74725	40346
9.75537	44177
9.76350	40848
9.77162	40185
9.77973	38400
9.78787	38834
9.79598	39291
9.80412	37799
9.81223	38937
9.82035	38563
9.82848	39367
9.83660	39100
9.84472	38804
9.85285	39195
9.86097	37426
9.86910	38344
9.87722	35567
9.88533	38336
9.89347	32959
9.90158	38438
9.90972	41029
9.91783	36249
9.92595	34768
9.93408	39396
9.94220	38349
9.95033	39955
9.95845	44431
9.96657	48549
9.97470	57467
9.98282	66464
9.99093	74343
9.99907	71887
10.00718	65674
10.01532	58374
10.02343	57113
10.03155	53202
10.03968	46487
10.04780	49009
10.05593	51055
10.06405	44395
10.07217	43215
10.08030	41888
10.08842	38799
10.09653	41991
10.10467	37310
10.11278	41907
10.12092	40005
10.12903	40054
10.13715	42427
10.14528	40544
10.15340	42541
10.16153	41477
10.16965	39646
10.17777	38286
10.18590	36512
10.19402	34971
10.20215	36334
10.21027	36512
10.21838	39360
10.22652	43013
10.23463	43295
10.24275	42147
10.25088	42280
10.25900	40503
10.26713	40043
10.27525	38450
10.28337	42447
10.29150	43937
10.29962	41771
10.30775	42764
10.31587	42644
10.32398	43396
10.33212	45536
10.34023	40908
10.34837	38988
10.35648	40076
10.36460	38217
10.37273	41408
10.38085	38101
10.38897	36013
10.39710	44008
10.40522	44920
10.41335	46465
10.42147	45931
10.42958	42568
10.43772	44871
10.44583	39699
10.45397	36485
10.46208	36528
10.47020	36533
10.47833	36526
10.48645	36598
10.49457	38568
10.50270	39370
10.51082	36925
10.51895	43054
10.52707	38708
10.53518	39051
10.54332	39212
10.55143	40060
10.55957	41587
10.56768	41345
10.57580	36541
10.58393	37811
10.59205	40376
10.60018	39772
10.60830	37212
10.61642	35586
10.62455	36741
10.63267	35014
10.64078	34637
10.64892	39146
10.65703	35275
10.66517	34684
10.67328	34222
10.68140	38387
10.68953	36963
10.69765	39347
10.70578	37423
10.71390	38399
10.72202	43486
10.73015	41205
10.73827	41708
10.74640	44563
10.75452	42662
10.76263	42341
10.77077	39485
10.77888	42657
10.78700	41437
10.79513	40580
10.80325	38847
10.81138	32005
10.81950	35922
10.82762	36550
10.83575	35052
10.84387	34629
10.85200	35068
10.86012	36221
10.86823	32243
10.87637	31887
10.88448	33712
10.89260	32362
10.90073	35061
10.90885	31478
10.91698	33247
10.92510	34305
10.93322	31271
10.94135	32392
10.94947	31723
10.95760	30234
10.96572	33049
10.97383	35300
10.98197	38740
10.99008	35923
10.99822	38230
11.00633	39196
11.01445	38622
11.02258	34290
11.03070	38948
11.03882	34182
11.04695	31559
11.05507	34395
11.06320	33578
11.07132	29194
11.07943	32363
11.08757	33334
11.09568	34880
11.10382	28269
11.11193	32464
11.12005	34227
11.12818	33103
11.13630	33296
11.14443	39358
11.15255	38129
11.16067	33162
11.16880	37545
11.17692	38626
11.18503	34683
11.19317	38083
11.20128	35816
11.20942	33280
11.21753	33324
11.22565	35195
11.23378	34984
11.24190	32258
11.25003	35119
11.25815	35331
11.26627	35677
11.27440	34626
11.28252	34654
11.29063	41180
11.29877	49920
11.30688	58074
11.31502	65985
11.32313	71234
11.33125	79783
11.33938	75188
11.34750	74945
11.35563	72666
11.36375	67520
11.37187	67171
11.38000	55537
11.38812	53782
11.39625	48776
11.40437	44947
11.41248	40618
11.42062	41179
11.42873	37849
11.43685	38083
11.44498	39035
11.45310	34250
11.46123	33439
11.46935	34376
11.47747	38928
11.48560	37298
11.49372	33805
11.50185	31111
11.50997	38128
11.51808	35481
11.52622	36594
11.53433	39062
11.54245	37602
11.55058	43356
11.55870	45408
11.56683	45134
11.57495	46807
11.58307	45918
11.59120	45193
11.59932	44295
11.60745	46781
11.61557	41006
11.62368	41054
11.63182	40038
11.63993	34436
11.64807	34087
11.65618	31769
11.66430	34347
11.67243	35079
11.68055	34661
11.68867	40130
11.69680	40166
11.70492	50095
11.71305	48191
11.72117	53126
11.72928	56324
11.73742	55651
11.74553	54901
11.75367	51239
11.76178	47436
11.76990	47375
11.77803	46757
11.78615	44824
11.79428	44879
11.80240	44099
11.81052	44194
11.81865	40647
11.82677	36648
11.83488	39924
11.84302	39555
11.85113	41853
11.85927	38991
11.86738	43374
11.87550	40033
11.88363	35450
11.89175	35604
11.89988	32138
11.90800	35890
11.91612	32326
11.92425	34279
11.93237	31934
11.94048	33965
11.94862	41810
11.95673	40915
11.96487	48384
11.97298	46939
11.98110	52789
11.98923	47757
11.99735	45835
12.00548	45081
12.01360	41385
12.02172	36741
12.02985	37805
12.03797	33113
12.04610	37498
12.05422	33009
12.06233	33505
12.07047	33602
12.07858	33482
12.08670	32659
12.09483	34756
12.10295	33089
12.11108	32130
12.11920	33105
12.12732	33230
12.13545	32271
12.14357	33186
12.15170	31907
12.15982	36078
12.16793	32412
12.17607	31505
12.18418	33418
12.19232	31509
12.20043	30763
12.20855	29163
12.21668	31886
12.22480	33228
12.23292	35253
12.24105	32461
12.24917	30030
12.25730	31432
12.26542	31421
12.27353	29938
12.28167	28392
12.28978	31755
12.29792	30343
12.30603	32235
12.31415	33426
12.32228	32716
12.33040	32275
12.33852	33307
12.34665	29024
12.35477	32836
12.36290	33751
12.37102	29262
12.37913	29858
12.38727	29744
12.39538	29567
12.40352	31220
12.41163	28994
12.41975	29140
12.42788	30393
12.43600	31984
12.44413	32750
12.45225	37598
12.46037	33830
12.46850	35498
12.47662	33762
12.48473	32093
12.49287	29980
12.50098	29812
12.50912	31702
12.51723	29197
12.52535	32036
12.53348	30095
12.54160	27375
12.54973	28944
12.55785	31787
12.56597	30508
12.57410	30153
12.58222	29035
12.59033	28581
12.59847	29444
12.60658	28750
12.61472	27934
12.62283	31076
12.63095	27868
12.63908	25644
12.64720	30991
12.65533	28127
12.66345	29366
12.67157	27509
12.67970	27278
12.68782	26514
12.69595	27695
12.70407	30504
12.71218	29917
12.72032	31938
12.72843	34564
12.73655	38724
12.74468	41194
12.75280	46446
12.76093	42330
12.76905	38575
12.77717	37365
12.78530	34079
12.79342	32885
12.80155	32903
12.80967	35277
12.81778	34073
12.82592	35727
12.83403	33567
12.84217	39189
12.85028	36726
12.85840	37529
12.86653	34640
12.87465	33984
12.88277	31194
12.89090	30559
12.89902	30302
12.90715	30933
12.91527	28325
12.92338	26271
12.93152	27967
12.93963	27701
12.94777	30427
12.95588	35108
12.96400	37198
12.97213	44795
12.98025	51860
12.98837	56365
12.99650	64752
13.00462	68923
13.01275	70025
13.02087	66192
13.02898	68319
13.03712	53560
13.04523	57578
13.05337	48316
13.06148	41820
13.06960	39488
13.07773	36569
13.08585	37624
13.09398	33549
13.10210	33926
13.11022	35189
13.11835	33160
13.12647	36020
13.13458	32261
13.14272	33652
13.15083	32991
13.15897	33446
13.16708	29673
13.17520	30205
13.18333	33078
13.19145	35452
13.19958	32287
13.20770	34900
13.21582	33274
13.22395	36975
13.23207	33196
13.24020	32934
13.24832	34450
13.25643	32207
13.26457	32733
13.27268	34993
13.28080	35039
13.28893	38058
13.29705	40196
13.30518	39962
13.31330	40059
13.32142	45342
13.32955	40628
13.33767	41480
13.34580	42147
13.35392	43168
13.36203	42124
13.37017	39247
13.37828	38001
13.38640	40364
13.39453	38274
13.40265	35381
13.41078	34048
13.41890	36253
13.42702	37639
13.43515	33922
13.44327	31485
13.45140	30897
13.45952	31624
13.46763	30196
13.47577	30333
13.48388	31342
13.49202	31623
13.50013	28542
13.50825	29779
13.51638	28617
13.52450	28948
13.53262	28968
13.54075	31882
13.54887	29052
13.55700	30296
13.56512	31483
13.57323	34275
13.58137	34515
13.58948	39002
13.59762	41758
13.60573	37625
13.61385	38747
13.62198	39118
13.63010	40457
13.63822	39833
13.64635	44269
13.65447	45748
13.66260	49397
13.67072	45508
13.67883	45651
13.68697	45832
13.69508	42417
13.70322	40569
13.71133	35318
13.71945	37916
13.72758	36806
13.73570	34850
13.74383	34710
13.75195	31582
13.76007	32639
13.76820	33359
13.77632	34149
13.78443	35793
13.79257	35758
13.80068	37094
13.80882	33633
13.81693	36324
13.82505	31140
13.83318	33057
13.84130	30854
13.84943	32556
13.85755	32026
13.86567	33157
13.87380	32482
13.88192	30219
13.89005	34262
13.89817	35014
13.90628	33819
13.91442	34119
13.92253	38900
13.93065	38887
13.93878	40821
13.94690	39235
13.95503	44664
13.96315	43257
13.97127	35769
13.97940	35087
13.98752	39767
13.99565	31734
14.00377	38596
14.01188	36050
14.02002	41478
14.02813	36346
14.03627	36161
14.04438	33220
14.05250	33856
14.06063	35957
14.06875	37443
14.07687	35424
14.08500	33305
14.09312	30968
14.10125	32999
14.10937	29240
14.11748	32150
14.12562	31350
14.13373	30788
14.14187	37412
14.14998	53265
14.15810	83096
14.16623	122082
14.17435	153940
14.18247	158119
14.19060	147942
14.19872	125097
14.20685	101324
14.21497	80464
14.22308	67690
14.23122	64712
14.23933	66063
14.24747	53784
14.25558	56526
14.26370	56045
14.27183	49866
14.27995	50507
14.28808	51750
14.29620	47862
14.30432	40700
14.31245	40031
14.32057	40121
14.32868	37733
14.33682	35228
14.34493	32836
14.35307	34159
14.36118	34097
14.36930	28939
14.37743	27408
14.38555	28928
14.39368	28780
14.40180	29919
14.40992	34861
14.41805	33024
14.42617	32860
14.43428	31294
14.44242	32740
14.45053	31568
14.45867	30968
14.46678	29415
14.47490	29558
14.48303	28049
14.49115	26205
14.49928	28788
14.50740	26796
14.51552	29345
14.52365	30131
14.53177	29991
14.53990	28270
14.54802	30710
14.55613	31073
14.56427	28594
14.57238	26493
14.58050	30142
14.58863	26759
14.59675	29784
14.60488	29128
14.61300	28666
14.62112	30264
14.62925	27659
14.63737	31216
14.64550	28787
14.65362	29446
14.66173	25650
14.66987	27407
14.67798	27066
14.68612	25263
14.69423	29986
14.70235	28646
14.71048	28497
14.71860	28550
14.72672	29519
14.73485	30239
14.74297	27110
14.75110	31542
14.75922	28570
14.76733	28483
14.77547	28551
14.78358	27601
14.79172	28195
14.79983	28209
14.80795	30178
14.81608	31116
14.82420	28650
14.83232	28450
14.84045	27780
14.84857	30781
14.85670	31090
14.86482	29849
14.87293	25820
14.88107	29719
14.88918	28840
14.89732	27095
14.90543	29638
14.91355	31843
14.92168	30327
14.92980	30938
14.93793	28669
14.94605	29449
14.95417	29943
14.96230	26961
14.97042	33127
14.97853	29207
14.98667	30985
14.99478	29420
15.00292	28803
15.01103	29256
15.01915	27019
15.02728	26533
15.03540	26323
15.04353	27363
15.05165	29286
15.05977	27308
15.06790	32481
15.07602	27375
15.08415	26362
15.09227	27922
15.10038	30072
15.10852	23124
15.11663	24559
15.12475	31320
15.13288	31991
15.14100	26746
15.14913	24279
15.15725	28808
15.16537	26705
15.17350	29621
15.18162	29026
15.18975	26971
15.19787	26295
15.20598	27113
15.21412	30165
15.22223	23298
15.23035	26713
15.23848	27454
15.24660	24351
15.25473	27701
15.26285	29940
15.27097	26191
15.27910	24468
15.28722	25649
15.29535	28383
15.30347	25520
15.31158	25076
15.31972	24002
15.32783	22537
15.33597	24507
15.34408	24949
15.35220	26687
15.36033	26353
15.36845	24659
15.37657	24869
15.38470	26833
15.39282	27883
15.40095	25770
15.40907	24960
15.41718	26635
15.42532	24804
15.43343	25565
15.44157	24475
15.44968	24149
15.45780	27148
15.46593	28154
15.47405	27815
15.48217	26621
15.49030	23431
15.49842	24291
15.50655	27013
15.51467	26775
15.52278	26616
15.53092	27823
15.53903	24529
15.54717	26544
15.55528	24143
15.56340	26137
15.57153	26460
15.57965	27148
15.58778	26395
15.59590	25088
15.60402	28157
15.61215	24742
15.62027	27551
15.62838	30158
15.63652	24785
15.64463	24101
15.65277	23855
15.66088	27183
15.66900	25855
15.67713	26469
15.68525	26499
15.69338	25454
15.70150	25687
15.70962	24185
15.71775	24557
15.72587	27092
15.73400	25800
15.74212	25411
15.75023	30609
15.75837	31705
15.76648	34414
15.77460	36040
15.78273	35014
15.79085	34223
15.79898	34876
15.80710	33460
15.81522	34841
15.82335	29071
15.83147	28659
15.83960	30987
15.84772	26446
15.85583	25163
15.86397	24513
15.87208	28134
15.88020	28993
15.88833	27982
15.89645	27076
15.90458	28101
15.91270	26874
15.92082	28756
15.92895	29735
15.93707	30011
15.94520	28305
15.95332	32005
15.96143	25397
15.96957	29914
15.97768	28719
15.98582	26996
15.99393	32839
16.00205	29476
16.01018	35639
16.01830	37283
16.02642	45093
16.03455	49745
16.04267	49491
16.05080	47456
16.05892	39493
16.06703	40456
16.07517	37570
16.08328	34343
16.09142	32911
16.09953	30761
16.10765	33715
16.11578	29523
16.12390	31676
16.13203	31222
16.14015	27928
16.14827	30087
16.15640	26038
16.16452	28313
16.17263	29696
16.18077	28535
16.18888	29836
16.19702	30734
16.20513	24961
16.21325	27273
16.22138	28823
16.22950	30259
16.23763	28331
16.24575	27525
16.25387	30449
16.26200	29047
16.27012	25976
16.27823	28414
16.28637	28351
16.29448	30455
16.30262	29578
16.31073	25912
16.31885	30282
16.32698	29226
16.33510	28859
16.34323	28852
16.35135	29920
16.35947	30366
16.36760	29330
16.37572	32272
16.38385	29246
16.39197	28769
16.40008	30904
16.40822	27282
16.41633	31094
16.42445	29784
16.43258	30020
16.44070	28320
16.44883	28321
16.45695	26586
16.46507	29008
16.47320	32644
16.48132	27032
16.48945	30197
16.49757	26577
16.50568	28603
16.51382	27642
16.52193	27108
16.53005	25537
16.53818	30999
16.54630	30374
16.55443	29739
16.56255	26706
16.57067	27104
16.57880	29792
16.58692	28886
16.59505	31537
16.60317	27609
16.61128	31336
16.61942	31387
16.62753	28568
16.63567	29193
16.64378	27775
16.65190	25347
16.66003	28163
16.66815	29048
16.67627	26998
16.68440	26981
16.69252	26675
16.70065	25079
16.70877	27831
16.71688	27358
16.72502	31461
16.73313	26796
16.74127	26948
16.74938	27700
16.75750	26642
16.76563	25124
16.77375	26669
16.78188	28196
16.79000	24796
16.79812	27626
16.80625	26801
16.81437	27986
16.82248	26698
16.83062	25812
16.83873	27164
16.84687	28977
16.85498	28950
16.86310	29352
16.87123	28805
16.87935	28160
16.88748	29838
16.89560	27578
16.90372	27066
16.91185	29729
16.91997	29377
16.92808	26245
16.93622	28364
16.94433	26310
16.95247	25691
16.96058	29746
16.96870	28652
16.97683	27417
16.98495	27740
16.99308	29155
17.00120	29224
17.00932	28178
17.01745	26970
17.02557	27664
17.03370	26329
17.04182	30795
17.04993	26877
17.05807	29596
17.06618	27181
17.07430	27914
17.08243	29433
17.09055	31036
17.09868	28602
17.10680	30761
17.11492	29304
17.12305	26668
17.13117	30785
17.13930	28465
17.14742	27852
17.15553	27869
17.16367	28108
17.17178	28881
17.17992	26425
17.18803	29101
17.19615	29190
17.20428	27475
17.21240	27262
17.22052	27615
17.22865	27684
17.23677	26488
17.24490	26910
17.25302	26598
17.26113	28904
17.26927	25561
17.27738	29848
17.28552	27180
17.29363	29710
17.30175	28922
17.30988	28166
17.31800	28792
17.32612	26201
17.33425	25843
17.34237	27869
17.35050	28756
17.35862	29425
17.36673	31208
17.37487	31484
17.38298	32364
17.39112	29852
17.39923	33319
17.40735	31327
17.41548	31355
17.42360	33971
17.43173	30326
17.43985	30391
17.44797	27218
17.45610	32610
17.46422	31223
17.47233	29737
17.48047	31359
17.48858	30288
17.49672	29066
17.50483	30456
17.51295	28973
17.52108	31624
17.52920	34211
17.53733	37301
17.54545	40064
17.55357	45124
17.56170	45818
17.56982	46593
17.57795	42843
17.58607	41091
17.59418	38934
17.60232	38011
17.61043	36316
17.61855	31903
17.62668	29729
17.63480	30473
17.64293	29527
17.65105	31152
17.65917	29046
17.66730	31814
17.67542	35016
17.68355	29432
17.69167	28565
17.69978	32663
17.70792	30845
17.71603	29655
17.72415	29017
17.73228	28103
17.74040	28451
17.74853	27569
17.75665	29104
17.76477	31289
17.77290	30145
17.78102	29393
17.78915	26022
17.79727	30215
17.80538	30572
17.81352	31322
17.82163	30634
17.82977	28586
17.83788	32514
17.84600	31195
17.85413	35285
17.86225	36180
17.87037	31153
17.87850	31717
17.88662	31646
17.89475	29825
17.90287	29251
17.91098	28618
17.91912	28533
17.92723	29640
17.93537	30030
17.94348	30155
17.95160	27136
17.95973	27862
17.96785	27602
17.97597	26620
17.98410	28263
17.99222	27152
18.00035	30902
18.00847	29267
18.01658	29017
18.02472	29011
18.03283	30904
18.04097	31266
18.04908	30843
18.05720	30187
18.06533	28834
18.07345	31923
18.08158	31826
18.08970	33403
18.09782	31096
18.10595	30838
18.11407	34367
18.12218	31167
18.13032	33786
18.13843	31147
18.14657	28957
18.15468	31617
18.16280	29137
18.17093	30776
18.17905	28273
18.18718	31175
18.19530	33042
18.20342	30374
18.21155	29340
18.21967	29741
18.22780	30781
18.23592	29437
18.24403	28933
18.25217	30819
18.26028	29408
18.26840	29418
18.27653	28441
18.28465	28591
18.29278	29902
18.30090	28874
18.30902	29130
18.31715	31475
18.32527	27388
18.33340	27391
18.34152	30380
18.34963	29663
18.35777	29257
18.36588	33008
18.37400	28927
18.38213	28433
18.39025	28691
18.39838	28270
18.40650	30304
18.41462	28320
18.42275	29874
18.43087	29445
18.43900	26285
18.44712	28472
18.45523	29060
18.46337	31178
18.47148	25761
18.47962	29075
18.48773	26601
18.49585	31279
18.50398	31139
18.51210	27198
18.52022	27517
18.52835	28316
18.53647	29193
18.54460	28416
18.55272	24971
18.56083	25378
18.56897	25832
18.57708	28073
18.58522	27964
18.59333	28735
18.60145	29235
18.60958	32336
18.61770	32339
18.62583	32434
18.63395	33862
18.64207	31830
18.65020	31171
18.65832	36182
18.66643	33646
18.67457	34323
18.68268	29102
18.69082	36366
18.69893	30721
18.70705	31475
18.71518	31854
18.72330	31388
18.73143	32448
18.73955	30113
18.74767	28928
18.75580	31393
18.76392	31198
18.77203	32533
18.78017	32298
18.78828	30857
18.79642	30365
18.80453	31825
18.81265	30304
18.82078	32428
18.82890	32314
18.83703	30169
18.84515	32165
18.85327	29230
18.86140	33132
18.86952	33813
18.87765	29775
18.88577	30309
18.89388	31455
18.90202	31869
18.91013	32044
18.91825	32819
18.92638	36577
18.93450	34100
18.94263	31967
18.95075	30330
18.95887	30864
18.96700	29657
18.97512	32448
18.98325	32789
18.99137	30668
18.99948	30092
19.00762	35227
19.01573	34244
19.02385	31185
19.03198	35243
19.04010	33657
19.04823	33276
19.05635	32512
19.06447	34538
19.07260	36815
19.08072	39712
19.08885	44193
19.09697	49160
19.10508	51164
19.11322	54819
19.12133	54190
19.12947	48199
19.13758	44990
19.14570	45075
19.15383	47850
19.16195	44670
19.17007	46719
19.17820	45062
19.18632	44509
19.19445	42863
19.20257	40675
19.21068	40320
19.21882	37288
19.22693	33678
19.23507	31984
19.24318	31782
19.25130	33510
19.25943	32539
19.26755	35064
19.27568	36443
19.28380	33951
19.29192	39326
19.30005	40531
19.30817	42633
19.31628	42745
19.32442	35933
19.33253	35294
19.34067	33424
19.34878	33885
19.35690	33714
19.36503	30186
19.37315	31063
19.38128	30398
19.38940	29380
19.39752	29665
19.40565	30942
19.41377	31598
19.42190	31562
19.43002	34354
19.43813	39238
19.44627	44247
19.45438	65194
19.46250	82527
19.47063	96587
19.47875	102159
19.48688	92917
19.49500	74948
19.50312	52581
19.51125	51565
19.51937	37823
19.52750	37091
19.53562	33402
19.54373	35110
19.55187	36634
19.55998	34101
19.56810	32629
19.57623	31907
19.58435	32615
19.59248	33321
19.60060	31459
19.60872	31823
19.61685	31054
19.62497	30693
19.63310	35714
19.64122	41781
19.64933	46034
19.65747	52012
19.66558	56614
19.67372	56386
19.68183	52095
19.68995	52962
19.69808	44720
19.70620	43931
19.71432	37350
19.72245	37858
19.73057	38001
19.73870	37492
19.74682	41153
19.75493	30731
19.76307	30673
19.77118	34339
19.77932	33022
19.78743	32524
19.79555	33763
19.80368	28716
19.81180	29921
19.81992	32375
19.82805	30665
19.83617	29549
19.84430	33219
19.85242	32878
19.86053	32978
19.86867	30803
19.87678	34439
19.88492	41538
19.89303	52077
19.90115	59519
19.90928	64191
19.91740	67437
19.92553	72443
19.93365	69231
19.94177	71496
19.94990	65942
19.95802	65766
19.96613	64612
19.97427	66511
19.98238	61465
19.99052	56487
19.99863	60094
20.00675	59741
20.01488	53594
20.02300	52803
20.03113	49638
20.03925	47002
20.04737	46654
20.05550	43404
20.06362	41788
20.07175	35200
20.07987	36779
20.08798	38105
20.09612	35218
20.10423	36917
20.11235	33313
20.12048	33604
20.12860	38635
20.13673	36252
20.14485	36568
20.15297	34294
20.16110	32628
20.16922	33898
20.17735	34827
20.18547	35567
20.19358	34741
20.20172	34907
20.20983	38344
20.21795	34268
20.22608	37582
20.23420	37363
20.24233	37219
20.25045	43922
20.25857	46503
20.26670	52103
20.27482	51509
20.28295	55540
20.29107	48378
20.29918	48229
20.30732	40799
20.31543	39966
20.32357	41179
20.33168	33402
20.33980	33701
20.34793	34420
20.35605	35808
20.36417	36174
20.37230	31344
20.38042	29889
20.38855	31658
20.39667	36332
20.40478	35159
20.41292	34206
20.42103	33315
20.42917	40014
20.43728	35276
20.44540	37410
20.45353	35457
20.46165	33783
20.46978	33891
20.47790	35374
20.48602	33357
20.49415	33091
20.50227	32042
20.51038	33369
20.51852	32428
20.52663	30693
20.53477	31209
20.54288	31117
20.55100	31172
20.55913	28719
20.56725	29029
20.57538	30658
20.58350	33991
20.59162	33273
20.59975	28215
20.60787	26957
20.61598	29661
20.62412	27980
20.63223	28072
20.64037	30105
20.64848	28037
20.65660	25520
20.66473	26184
20.67285	27294
20.68098	27265
20.68910	27874
20.69722	32738
20.70535	31616
20.71347	29215
20.72160	29804
20.72972	30091
20.73783	28844
20.74597	29787
20.75408	32048
20.76220	28366
20.77033	27563
20.77845	29443
20.78658	34170
20.79470	32920
20.80282	31388
20.81095	30397
20.81907	30293
20.82720	29728
20.83532	28071
20.84343	30050
20.85157	29214
20.85968	29968
20.86780	29798
20.87593	27970
20.88405	29886
20.89218	27918
20.90030	27143
20.90842	28780
20.91655	28722
20.92467	28465
20.93280	26529
20.94092	29821
20.94903	27090
20.95717	29604
20.96528	29015
20.97342	32491
20.98153	29863
20.98965	27266
20.99778	31665
21.00590	27222
21.01402	28041
21.02215	28152
21.03027	24983
21.03840	30570
21.04652	28761
21.05463	29785
21.06277	27679
21.07088	27353
21.07902	27355
21.08713	30598
21.09525	29965
21.10338	28269
21.11150	27451
21.11963	27717
21.12775	34053
21.13587	29672
21.14400	31783
21.15212	29992
21.16023	30138
21.16837	28952
21.17648	28501
21.18462	25706
21.19273	29182
21.20085	29222
21.20898	34310
21.21710	29516
21.22523	29160
21.23335	27753
21.24147	30055
21.24960	28775
21.25772	27549
21.26583	28229
21.27397	32866
21.28208	29058
21.29022	31262
21.29833	27207
21.30645	31579
21.31458	28861
21.32270	30871
21.33083	29704
21.33895	29639
21.34707	30364
21.35520	30131
21.36332	28267
21.37145	31858
21.37957	27676
21.38768	27475
21.39582	26759
21.40393	31500
21.41205	32724
21.42018	28914
21.42830	27305
21.43643	30218
21.44455	29549
21.45267	31825
21.46080	30912
21.46892	29477
21.47705	28039
21.48517	28024
21.49328	29421
21.50142	29994
21.50953	32039
21.51767	30407
21.52578	31865
21.53390	29370
21.54203	30301
21.55015	27576
21.55827	29161
21.56640	30848
21.57452	30501
21.58265	29194
21.59077	32852
21.59888	35051
21.60702	34503
21.61513	39173
21.62327	34653
21.63138	38282
21.63950	36605
21.64763	33110
21.65575	28986
21.66387	30265
21.67200	33577
21.68012	33360
21.68825	30448
21.69637	31721
21.70448	29311
21.71262	30754
21.72073	28602
21.72887	28204
21.73698	30163
21.74510	30522
21.75323	29535
21.76135	29130
21.76948	32956
21.77760	31718
21.78572	31197
21.79385	38061
21.80197	38513
21.81008	36531
21.81822	35138
21.82633	35079
21.83447	34081
21.84258	32620
21.85070	31555
21.85883	31183
21.86695	26688
21.87508	30729
21.88320	27851
21.89132	30162
21.89945	29460
21.90757	29678
21.91570	29458
21.92382	30020
21.93193	30906
21.94007	26989
21.94818	27542
21.95630	26930
21.96443	26836
21.97255	26130
21.98068	27497
21.98880	27848
21.99692	30733
22.00505	27747
22.01317	30606
22.02130	29094
22.02942	25990
22.03753	28297
22.04567	27958
22.05378	31458
22.06190	27677
22.07003	31483
22.07815	31092
22.08628	31499
22.09440	28774
22.10252	29746
22.11065	28216
22.11877	28659
22.12690	30933
22.13502	34285
22.14313	32511
22.15127	29211
22.15938	26533
22.16752	30245
22.17563	27020
22.18375	28197
22.19188	29444
22.20000	31746
22.20812	30666
22.21625	29136
22.22437	29626
22.23250	30753
22.24062	26889
22.24873	29471
22.25687	27979
22.26498	27231
22.27312	28149
22.28123	27510
22.28935	27896
22.29748	28521
22.30560	29623
22.31372	27134
22.32185	28312
22.32997	25679
22.33810	29108
22.34622	26188
22.35433	31835
22.36247	28040
22.37058	27146
22.37872	26635
22.38683	29256
22.39495	29541
22.40308	26538
22.41120	28036
22.41933	27304
22.42745	27615
22.43557	26802
22.44370	28926
22.45182	24477
22.45993	26653
22.46807	29191
22.47618	30561
22.48432	30754
22.49243	26645
22.50055	28765
22.50868	26480
22.51680	23718
22.52493	28338
22.53305	27582
22.54117	25417
22.54930	30916
22.55742	26701
22.56555	26600
22.57367	27802
22.58178	26403
22.58992	28713
22.59803	25417
22.60615	25028
22.61428	25725
22.62240	27324
22.63053	24509
22.63865	25947
22.64677	25682
22.65490	23268
22.66302	27456
22.67115	27623
22.67927	25190
22.68738	26651
22.69552	28924
22.70363	29816
22.71175	28822
22.71988	27288
22.72800	25366
22.73613	24930
22.74425	27988
22.75237	25995
22.76050	29928
22.76862	29836
22.77675	27260
22.78487	27742
22.79298	26208
22.80112	28326
22.80923	23756
22.81737	31067
22.82548	24493
22.83360	24789
22.84173	27515
22.84985	26558
22.85797	30138
22.86610	26016
22.87422	27925
22.88235	28475
22.89047	32000
22.89858	28160
22.90672	33209
22.91483	33129
22.92297	37086
22.93108	38383
22.93920	38417
22.94733	37571
22.95545	38708
22.96358	37964
22.97170	38214
22.97982	35850
22.98795	37276
22.99607	34152
23.00418	35073
23.01232	31935
23.02043	31280
23.02857	29245
23.03668	33914
23.04480	33148
23.05293	30739
23.06105	29230
23.06918	32726
23.07730	30207
23.08542	29450
23.09355	27189
23.10167	30754
23.10978	31304
23.11792	34935
23.12603	30504
23.13417	28666
23.14228	28773
23.15040	29639
23.15853	28644
23.16665	26869
23.17478	25982
23.18290	25544
23.19102	29876
23.19915	27884
23.20727	28581
23.21540	29832
23.22352	31111
23.23163	27628
23.23977	27364
23.24788	28902
23.25600	28077
23.26413	26583
23.27225	29114
23.28038	25792
23.28850	26924
23.29662	28154
23.30475	28757
23.31287	28708
23.32100	30380
23.32912	27017
23.33723	26838
23.34537	27002
23.35348	26490
23.36160	30050
23.36973	29480
23.37785	26611
23.38598	34397
23.39410	29053
23.40222	25803
23.41035	31805
23.41847	30741
23.42660	27562
23.43472	30548
23.44283	25462
23.45097	32516
23.45908	28268
23.46722	28341
23.47533	29262
23.48345	26831
23.49158	27238
23.49970	28985
23.50782	25876
23.51595	27649
23.52407	27071
23.53220	27912
23.54032	28777
23.54843	28377
23.55657	25708
23.56468	29114
23.57282	30434
23.58093	28912
23.58905	26678
23.59718	31107
23.60530	27547
23.61343	32100
23.62155	27679
23.62967	32135
23.63780	30538
23.64592	30364
23.65403	31246
23.66217	33346
23.67028	31044
23.67842	35559
23.68653	35235
23.69465	33922
23.70278	32170
23.71090	30502
23.71903	31477
23.72715	34794
23.73527	36790
23.74340	61012
23.75152	110061
23.75963	204630
23.76777	391025
23.77588	668835
23.78402	998612
23.79213	1184886
23.80025	1156090
23.80838	1015915
23.81650	834101
23.82463	624750
23.83275	476256
23.84087	380812
23.84900	302849
23.85712	249815
23.86525	211726
23.87337	188076
23.88148	166325
23.88962	146543
23.89773	138845
23.90585	120583
23.91398	116663
23.92210	107707
23.93023	101329
23.93835	99626
23.94647	89776
23.95460	82920
23.96272	85309
23.97085	74386
23.97897	76636
23.98708	72873
23.99522	73468
24.00333	68253
24.01147	70047
24.01958	65135
24.02770	63961
24.03583	60430
24.04395	58607
24.05207	59112
24.06020	55900
24.06832	60010
24.07645	55160
24.08457	57449
24.09268	56952
24.10082	54464
24.10893	56921
24.11707	57505
24.12518	51176
24.13330	50751
24.14143	51310
24.14955	45747
24.15767	46922
24.16580	50104
24.17392	50548
24.18205	56397
24.19017	51704
24.19828	56453
24.20642	54148
24.21453	50265
24.22267	51429
24.23078	46760
24.23890	43575
24.24703	41369
24.25515	42100
24.26328	46388
24.27140	44684
24.27952	39171
24.28765	45644
24.29577	45898
24.30388	43374
24.31202	43212
24.32013	41580
24.32827	43688
24.33638	51487
24.34450	69685
24.35263	73387
24.36075	81327
24.36888	78570
24.37700	72976
24.38512	60147
24.39325	49608
24.40137	41240
24.40950	36937
24.41762	40724
24.42573	42015
24.43387	41138
24.44198	35625
24.45010	40223
24.45823	43419
24.46635	37540
24.47448	40974
24.48260	38202
24.49072	40066
24.49885	38825
24.50697	39648
24.51510	38771
24.52322	33074
24.53133	35710
24.53947	37346
24.54758	33183
24.55570	34139
24.56383	35274
24.57195	37044
24.58008	38773
24.58820	34140
24.59632	33303
24.60445	34501
24.61257	35415
24.62070	33348
24.62882	36240
24.63693	36736
24.64507	36874
24.65318	35038
24.66132	34621
24.66943	34912
24.67755	33516
24.68568	35755
24.69380	38518
24.70192	32320
24.71005	35188
24.71817	31074
24.72630	32492
24.73442	35559
24.74253	31030
24.75067	32987
24.75878	31209
24.76692	33429
24.77503	29067
24.78315	33131
24.79128	32506
24.79940	31786
24.80753	33679
24.81565	31503
24.82377	30523
24.83190	32633
24.84002	30540
24.84813	29630
24.85627	31422
24.86438	32780
24.87252	32401
24.88063	32225
24.88875	31485
24.89688	30235
24.90500	34679
24.91313	32086
24.92125	30040
24.92937	30982
24.93750	30426
24.94562	27163
24.95373	28856
24.96187	27583
24.96998	26970
24.97812	31642
24.98623	27909
24.99435	27791
25.00248	29954
25.01060	27632
25.01873	29165
25.02685	26996
25.03497	30210
25.04310	31556
25.05122	31423
25.05935	31915
25.06747	30743
25.07558	29326
25.08372	28276
25.09183	29580
25.09995	27289
25.10808	29824
25.11620	30161
25.12433	32650
25.13245	33883
25.14057	33695
25.14870	32678
25.15682	30478
25.16495	31552
25.17307	31234
25.18118	34313
25.18932	32398
25.19743	28155
25.20555	29597
25.21368	31091
25.22180	28347
25.22993	27817
25.23805	30275
25.24617	30129
25.25430	32455
25.26242	30227
25.27055	31921
25.27867	27574
25.28678	32083
25.29492	34397
25.30303	34165
25.31117	33435
25.31928	34959
25.32740	38115
25.33553	33830
25.34365	34699
25.35177	32303
25.35990	32949
25.36802	29187
25.37615	27889
25.38427	28854
25.39238	29285
25.40052	29227
25.40863	27134
25.41677	30021
25.42488	29242
25.43300	30378
25.44113	27332
25.44925	29292
25.45738	27384
25.46550	30544
25.47362	29322
25.48175	28872
25.48987	26745
25.49798	27100
25.50612	27706
25.51423	28215
25.52237	26693
25.53048	26693
25.53860	28185
25.54673	27880
25.55485	28641
25.56298	25059
25.57110	27116
25.57922	28318
25.58735	28364
25.59547	29429
25.60358	29891
25.61172	26655
25.61983	25592
25.62797	25114
25.63608	27081
25.64420	25240
25.65233	27588
25.66045	27406
25.66858	27066
25.67670	26613
25.68482	24947
25.69295	23828
25.70107	29032
25.70920	27526
25.71732	25678
25.72543	25824
25.73357	26378
25.74168	28566
25.74980	24999
25.75793	29630
25.76605	27295
25.77418	23407
25.78230	23989
25.79042	27501
25.79855	23524
25.80667	26420
25.81480	26823
25.82292	27695
25.83103	25409
25.83917	30395
25.84728	26231
25.85542	28798
25.86353	25362
25.87165	25199
25.87978	27140
25.88790	25766
25.89602	24515
25.90415	25261
25.91227	26925
25.92040	24764
25.92852	24972
25.93663	25663
25.94477	27833
25.95288	24910
25.96102	26443
25.96913	28262
25.97725	25325
25.98538	29092
25.99350	23992
26.00162	25421
26.00975	22452
26.01787	25103
26.02600	23712
26.03412	26354
26.04223	25994
26.05037	24451
26.05848	23272
26.06662	26511
26.07473	27457
26.08285	23416
26.09098	23627
26.09910	27036
26.10723	25466
26.11535	23785
26.12347	30089
26.13160	32625
26.13972	32843
26.14783	34140
26.15597	30127
26.16408	32870
26.17222	30947
26.18033	30936
26.18845	29689
26.19658	31055
26.20470	26920
26.21283	27938
26.22095	26825
26.22907	26007
26.23720	24467
26.24532	27446
26.25343	27303
26.26157	26170
26.26968	25399
26.27782	24056
26.28593	24819
26.29405	25918
26.30218	26571
26.31030	26916
26.31843	27038
26.32655	27115
26.33467	28096
26.34280	26775
26.35092	27226
26.35905	26004
26.36717	25349
26.37528	24794
26.38342	23639
26.39153	26149
26.39965	27230
26.40778	26549
26.41590	27301
26.42403	26440
26.43215	25836
26.44027	26617
26.44840	23231
26.45652	26438
26.46465	28030
26.47277	25363
26.48088	23182
26.48902	22546
26.49713	24128
26.50527	24754
26.51338	26477
26.52150	27539
26.52963	24905
26.53775	25219
26.54587	27009
26.55400	24059
26.56212	27269
26.57025	23710
26.57837	27069
26.58648	24189
26.59462	24690
26.60273	23029
26.61087	27973
26.61898	23903
26.62710	24513
26.63523	23188
26.64335	22481
26.65147	23979
26.65960	26601
26.66772	22825
26.67585	24463
26.68397	27680
26.69208	26734
26.70022	26868
26.70833	24906
26.71647	27846
26.72458	29641
26.73270	26026
26.74083	25408
26.74895	21687
26.75708	23972
26.76520	29221
26.77332	23522
26.78145	28038
26.78957	28530
26.79768	26629
26.80582	27183
26.81393	30162
26.82207	24853
26.83018	25570
26.83830	26027
26.84643	24658
26.85455	23649
26.86268	25818
26.87080	23616
26.87892	24239
26.88705	23590
26.89517	29380
26.90330	26639
26.91142	24815
26.91953	26630
26.92767	26548
26.93578	28067
26.94390	29182
26.95203	33977
26.96015	43036
26.96828	61594
26.97640	86349
26.98452	123683
26.99265	155330
27.00077	182562
27.00890	190312
27.01702	183331
27.02513	169006
27.03327	130188
27.04138	112089
27.04950	92294
27.05763	78548
27.06575	74908
27.07388	65710
27.08200	58260
27.09012	51920
27.09825	51495
27.10637	43613
27.11450	46321
27.12262	43274
27.13073	44707
27.13887	42035
27.14698	39859
27.15512	38203
27.16323	40173
27.17135	37550
27.17948	37659
27.18760	34542
27.19572	33956
27.20385	35251
27.21197	33586
27.22010	31113
27.22822	33919
27.23633	33540
27.24447	33659
27.25258	35674
27.26072	33380
27.26883	31446
27.27695	29142
27.28508	30740
27.29320	32381
27.30133	30380
27.30945	30542
27.31757	33482
27.32570	30466
27.33382	32264
27.34193	28967
27.35007	29004
27.35818	28156
27.36632	27031
27.37443	29510
27.38255	28883
27.39068	28478
27.39880	29844
27.40693	31325
27.41505	28647
27.42317	29308
27.43130	28621
27.43942	30382
27.44753	29222
27.45567	30678
27.46378	27057
27.47192	28873
27.48003	32007
27.48815	28983
27.49628	27935
27.50440	27136
27.51253	27656
27.52065	26388
27.52877	25830
27.53690	27991
27.54502	27546
27.55315	28043
27.56127	27397
27.56938	28433
27.57752	25902
27.58563	27440
27.59375	26670
27.60188	26687
27.61000	26997
27.61813	29787
27.62625	27006
27.63437	27191
27.64250	26680
27.65062	23603
27.65875	27805
27.66687	24974
27.67498	25071
27.68312	27669
27.69123	26757
27.69935	27014
27.70748	26295
27.71560	29333
27.72373	27447
27.73185	30360
27.73997	30456
27.74810	33835
27.75622	30498
27.76435	30814
27.77247	30495
27.78058	27801
27.78872	26531
27.79683	27633
27.80497	25165
27.81308	27034
27.82120	27693
27.82933	28344
27.83745	28685
27.84557	30459
27.85370	26908
27.86182	30372
27.86995	23474
27.87807	30204
27.88618	28451
27.89432	29014
27.90243	26413
27.91057	25979
27.91868	25961
27.92680	26585
27.93493	24725
27.94305	26754
27.95118	24888
27.95930	26378
27.96742	23617
27.97555	27008
27.98367	30705
27.99178	28286
27.99992	26567
28.00803	27820
28.01617	27852
28.02428	27982
28.03240	26068
28.04053	26306
28.04865	25557
28.05678	28339
28.06490	25057
28.07302	29100
28.08115	32986
28.08927	39064
28.09738	42095
28.10552	47379
28.11363	45258
28.12177	46182
28.12988	44749
28.13800	40020
28.14613	35224
28.15425	35159
28.16238	30441
28.17050	28758
28.17862	29520
28.18675	28455
28.19487	27599
28.20300	26179
28.21112	26252
28.21923	28350
28.22737	30351
28.23548	24094
28.24360	28292
28.25173	25154
28.25985	31830
28.26798	37952
28.27610	45184
28.28422	57914
28.29235	65437
28.30047	82381
28.30860	91410
28.31672	101857
28.32483	108929
28.33297	110263
28.34108	102679
28.34922	94788
28.35733	93529
28.36545	89337
28.37358	79679
28.38170	75985
28.38982	69283
28.39795	61437
28.40607	59346
28.41420	57111
28.42232	51595
28.43043	50402
28.43857	46089
28.44668	47484
28.45482	42810
28.46293	40644
28.47105	37756
28.47918	40660
28.48730	37984
28.49542	36555
28.50355	36567
28.51167	37068
28.51980	34626
28.52792	34481
28.53603	37304
28.54417	36654
28.55228	31797
28.56042	38284
28.56853	33173
28.57665	33437
28.58478	33984
28.59290	33405
28.60103	32083
28.60915	33255
28.61727	31861
28.62540	35702
28.63352	31784
28.64163	35219
28.64977	36907
28.65788	36775
28.66602	36025
28.67413	35721
28.68225	38585
28.69038	36932
28.69850	38438
28.70663	39801
28.71475	44439
28.72287	51873
28.73100	52106
28.73912	46094
28.74723	42510
28.75537	38445
28.76348	33492
28.77162	32943
28.77973	28712
28.78785	28849
28.79598	31101
28.80410	29814
28.81223	29371
28.82035	34293
28.82847	29593
28.83660	28168
28.84472	31588
28.85285	30611
28.86097	30096
28.86908	28630
28.87722	28783
28.88533	30790
28.89345	33033
28.90158	28359
28.90970	31632
28.91783	29781
28.92595	31303
28.93407	32304
28.94220	27521
28.95032	27812
28.95845	30310
28.96657	33166
28.97468	29595
28.98282	31207
28.99093	30186
28.99907	27354
29.00718	28925
29.01530	28527
29.02343	27753
29.03155	30594
29.03967	28936
29.04780	30317
29.05592	28529
29.06405	28055
29.07217	25208
29.08028	27291
29.08842	28121
29.09653	25775
29.10467	27922
29.11278	25689
29.12090	28107
29.12903	32471
29.13715	30150
29.14528	30290
29.15340	32340
29.16152	29841
29.16965	33396
29.17777	31990
29.18588	28073
29.19402	30316
29.20213	28611
29.21027	27375
29.21838	28132
29.22650	30171
29.23463	29404
29.24275	27127
29.25088	30097
29.25900	30273
29.26712	34790
29.27525	28614
29.28337	31257
29.29148	35342
29.29962	25683
29.30773	31592
29.31587	30035
29.32398	29218
29.33210	28524
29.34023	27892
29.34835	24338
29.35648	28733
29.36460	29803
29.37272	27659
29.38085	25642
29.38897	25840
29.39710	28137
29.40522	25189
29.41333	29159
29.42147	29792
29.42958	27181
29.43770	27785
29.44583	27889
29.45395	27917
29.46208	26687
29.47020	28598
29.47832	29891
29.48645	30083
29.49457	29799
29.50270	29643
29.51082	32194
29.51893	30123
29.52707	29330
29.53518	28842
29.54330	30794
29.55143	28186
29.55955	33893
29.56768	29858
29.57580	29972
29.58392	31797
29.59205	32794
29.60017	37640
29.60830	33995
29.61642	38928
29.62453	33268
29.63267	30472
29.64078	29096
29.64892	31486
29.65703	26400
29.66515	27440
29.67328	25124
29.68140	25001
29.68952	27297
29.69765	27303
29.70577	26542
29.71390	29480
29.72202	26777
29.73013	25914
29.73827	29906
29.74638	30412
29.75452	26249
29.76263	25856
29.77075	25098
29.77888	26384
29.78700	29336
29.79513	28597
29.80325	31018
29.81137	28504
29.81950	25957
29.82762	26561
29.83573	28968
29.84387	32068
29.85198	29596
29.86012	29550
29.86823	30917
29.87635	24865
29.88448	33341
29.89260	34328
29.90073	39077
29.90885	44065
29.91697	49216
29.92510	48875
29.93322	56118
29.94133	63656
29.94947	63639
29.95758	66873
29.96572	68072
29.97383	75713
29.98195	62087
29.99008	69087
29.99820	61025
30.00633	59828
30.01445	56675
30.02257	51420
30.03070	51175
30.03882	52572
30.04695	51855
30.05507	48334
30.06318	43527
30.07132	48534
30.07943	44140
30.08755	40823
30.09568	40960
30.10380	38542
30.11193	40826
30.12005	36797
30.12817	36407
30.13630	35658
30.14442	35795
30.15255	36932
30.16067	31930
30.16878	33488
30.17692	35254
30.18503	33532
30.19317	32425
30.20128	32496
30.20940	30323
30.21753	32420
30.22565	29720
30.23377	31707
30.24190	33777
30.25002	29661
30.25815	30799
30.26627	31526
30.27438	31533
30.28252	27768
30.29063	29301
30.29877	30830
30.30688	31528
30.31500	31479
30.32313	32631
30.33125	28619
30.33937	29437
30.34750	32409
30.35562	30863
30.36375	33035
30.37187	28861
30.37998	29696
30.38812	31100
30.39623	26187
30.40437	30972
30.41248	29358
30.42060	26664
30.42873	28246
30.43685	31896
30.44498	30344
30.45310	29730
30.46122	29186
30.46935	28779
30.47747	29738
30.48558	29752
30.49372	29903
30.50183	29515
30.50997	32684
30.51808	30901
30.52620	27419
30.53433	26529
30.54245	28485
30.55058	28436
30.55870	28096
30.56682	31253
30.57495	30346
30.58307	32373
30.59118	27470
30.59932	29897
30.60743	30404
30.61557	29572
30.62368	32277
30.63180	29557
30.63993	29120
30.64805	26788
30.65618	28410
30.66430	27686
30.67242	26640
30.68055	28438
30.68867	29970
30.69680	27956
30.70492	29025
30.71303	31103
30.72117	30235
30.72928	27013
30.73740	27663
30.74553	30817
30.75365	27682
30.76178	26443
30.76990	26821
30.77802	30185
30.78615	28347
30.79427	29570
30.80240	30530
30.81052	27599
30.81863	31555
30.82677	27294
30.83488	29415
30.84302	25779
30.85113	27535
30.85925	28584
30.86738	26991
30.87550	29850
30.88362	26437
30.89175	28155
30.89987	28653
30.90800	28271
30.91612	27149
30.92423	25591
30.93237	26603
30.94048	29593
30.94862	29673
30.95673	28027
30.96485	27920
30.97298	26366
30.98110	27936
30.98922	25326
30.99735	30653
31.00547	26576
31.01360	31809
31.02172	31542
31.02983	30093
31.03797	26287
31.04608	28391
31.05422	29229
31.06233	29337
31.07045	30763
31.07858	28429
31.08670	32186
31.09483	30010
31.10295	32746
31.11107	32108
31.11920	30538
31.12732	32094
31.13543	32071
31.14357	29615
31.15168	31396
31.15982	32697
31.16793	31515
31.17605	42576
31.18418	52483
31.19230	69296
31.20043	88689
31.20855	98227
31.21667	105384
31.22480	100169
31.23292	85202
31.24105	66993
31.24917	50884
31.25728	42845
31.26542	36462
31.27353	32523
31.28165	31003
31.28978	30362
31.29790	30245
31.30603	32000
31.31415	28827
31.32227	31690
31.33040	31511
31.33852	29553
31.34665	27086
31.35477	28225
31.36288	31288
31.37102	28279
31.37913	30306
31.38725	32537
31.39538	33097
31.40350	31336
31.41163	29746
31.41975	30942
31.42787	29925
31.43600	30838
31.44412	29141
31.45225	31095
31.46037	27287
31.46848	29478
31.47662	28894
31.48473	31339
31.49287	30732
31.50098	31642
31.50910	25868
31.51723	29071
31.52535	27537
31.53347	26157
31.54160	33287
31.54972	28363
31.55785	30003
31.56597	26655
31.57408	27320
31.58222	31658
31.59033	28436
31.59847	29580
31.60658	27097
31.61470	26708
31.62283	29336
31.63095	29162
31.63907	27956
31.64720	33447
31.65532	28718
31.66345	28996
31.67157	30663
31.67968	29923
31.68782	32439
31.69593	31048
31.70407	29336
31.71218	29798
31.72030	30443
31.72843	32566
31.73655	31935
31.74468	29818
31.75280	28690
31.76092	29747
31.76905	27562
31.77717	29510
31.78528	27654
31.79342	29912
31.80153	32021
31.80967	31826
31.81778	29485
31.82590	32295
31.83403	31822
31.84215	31554
31.85028	40334
31.85840	40144
31.86652	42773
31.87465	46212
31.88277	49015
31.89090	49548
31.89902	47426
31.90713	51510
31.91527	47856
31.92338	45888
31.93150	48921
31.93963	49859
31.94775	45417
31.95588	46325
31.96400	45444
31.97212	43131
31.98025	42212
31.98837	44094
31.99650	36905
32.00462	42512
32.01273	39493
32.02087	40903
32.02898	47156
32.03710	40895
32.04523	36720
32.05335	33913
32.06148	38273
32.06960	35484
32.07772	38215
32.08585	35356
32.09397	34695
32.10210	33602
32.11022	32683
32.11833	34173
32.12647	31651
32.13458	31580
32.14272	33333
32.15083	31835
32.15895	30035
32.16708	31154
32.17520	32033
32.18332	28625
32.19145	28075
32.19957	33812
32.20770	33973
32.21582	32146
32.22393	31688
32.23207	31960
32.24018	31815
32.24832	29833
32.25643	29936
32.26455	30302
32.27268	29506
32.28080	33281
32.28893	30982
32.29705	28828
32.30517	29174
32.31330	31315
32.32142	32776
32.32953	35252
32.33767	37332
32.34578	31022
32.35392	30197
32.36203	30459
32.37015	32247
32.37828	31220
32.38640	31657
32.39453	29114
32.40265	27441
32.41077	28112
32.41890	34500
32.42702	32477
32.43513	29717
32.44327	33102
32.45138	28548
32.45952	33581
32.46763	32154
32.47575	31602
32.48388	32158
32.49200	26900
32.50013	27894
32.50825	30239
32.51637	30298
32.52450	32305
32.53262	30383
32.54075	30064
32.54887	30178
32.55698	29538
32.56512	33958
32.57323	34109
32.58135	31342
32.58948	36527
32.59760	39229
32.60573	41915
32.61385	47465
32.62197	41325
32.63010	41762
32.63822	36802
32.64635	37153
32.65447	34341
32.66258	32327
32.67072	34827
32.67883	31931
32.68697	34407
32.69508	34765
32.70320	32952
32.71133	31943
32.71945	29821
32.72757	32486
32.73570	31062
32.74382	32923
32.75195	31303
32.76007	32849
32.76818	28895
32.77632	26553
32.78443	31805
32.79257	31905
32.80068	31089
32.80880	31314
32.81693	32725
32.82505	31676
32.83317	30633
32.84130	34030
32.84942	31218
32.85755	27646
32.86567	30018
32.87378	32099
32.88192	29792
32.89003	31401
32.89817	31511
32.90628	32805
32.91440	31546
32.92253	31253
32.93065	34029
32.93878	30507
32.94690	31481
32.95502	33466
32.96315	33402
32.97127	30441
32.97938	30550
32.98752	34514
32.99563	34236
33.00377	33483
33.01188	33945
33.02000	31853
33.02813	28671
33.03625	31486
33.04438	30699
33.05250	30417
33.06062	28533
33.06875	27734
33.07687	32333
33.08498	34356
33.09312	38439
33.10123	37908
33.10937	43244
33.11748	46176
33.12560	42822
33.13373	41528
33.14185	36732
33.14998	38169
33.15810	38009
33.16622	33518
33.17435	29058
33.18247	32849
33.19060	29572
33.19872	34901
33.20683	32039
33.21497	34579
33.22308	32571
33.23120	33010
33.23933	32937
33.24745	33298
33.25558	35725
33.26370	32425
33.27182	30336
33.27995	32808
33.28807	31828
33.29620	34481
33.30432	29778
33.31243	31852
33.32057	33855
33.32868	31546
33.33682	32870
33.34493	36264
33.35305	34946
33.36118	34413
33.36930	32821
33.37742	32867
33.38555	34608
33.39367	30147
33.40180	32286
33.40992	32386
33.41803	37301
33.42617	29896
33.43428	31499
33.44242	30059
33.45053	32715
33.45865	33379
33.46678	29935
33.47490	31540
33.48302	34004
33.49115	32549
33.49927	34435
33.50740	29954
33.51552	31845
33.52363	32074
33.53177	35702
33.53988	32136
33.54802	30121
33.55613	33125
33.56425	32988
33.57238	31534
33.58050	37209
33.58863	36275
33.59675	31674
33.60487	31966
33.61300	35495
33.62112	33175
33.62923	32953
33.63737	33328
33.64548	32312
33.65362	34332
33.66173	31157
33.66985	32289
33.67798	34590
33.68610	33487
33.69423	35328
33.70235	33605
33.71047	34242
33.71860	33805
33.72672	31607
33.73485	33704
33.74297	33497
33.75108	35547
33.75922	36280
33.76733	32991
33.77545	35092
33.78358	35738
33.79170	39805
33.79983	37036
33.80795	39015
33.81607	34229
33.82420	32175
33.83232	37105
33.84045	34084
33.84857	35444
33.85668	40587
33.86482	39270
33.87293	39001
33.88105	35029
33.88918	38146
33.89730	38843
33.90543	39671
33.91355	36422
33.92167	39176
33.92980	35798
33.93792	41104
33.94605	39798
33.95417	39818
33.96228	35837
33.97042	39600
33.97853	39204
33.98667	40522
33.99478	38347
34.00290	39387
34.01103	38990
34.01915	36413
34.02727	38112
34.03540	36908
34.04352	39540
34.05165	35077
34.05977	35386
34.06788	36157
34.07602	35593
34.08413	34846
34.09227	39215
34.10038	34810
34.10850	33059
34.11663	33908
34.12475	37438
34.13287	36546
34.14100	35660
34.14912	33817
34.15725	36056
34.16537	35586
34.17348	35214
34.18162	35821
34.18973	37032
34.19787	34611
34.20598	38994
34.21410	35952
34.22223	36438
34.23035	33280
34.23848	35809
34.24660	39445
34.25472	35347
34.26285	39866
34.27097	35505
34.27908	34874
34.28722	35283
34.29533	36476
34.30347	34962
34.31158	37280
34.31970	37092
34.32783	38602
34.33595	37994
34.34408	39836
34.35220	38830
34.36032	39218
34.36845	38195
34.37657	36778
34.38470	39729
34.39282	37936
34.40093	34426
34.40907	35051
34.41718	34265
34.42530	38615
34.43343	34998
34.44155	42178
34.44968	42155
34.45780	39334
34.46592	44158
34.47405	50904
34.48217	50190
34.49030	54933
34.49842	55907
34.50653	58005
34.51467	58264
34.52278	54969
34.53092	50287
34.53903	50447
34.54715	53599
34.55528	50097
34.56340	47726
34.57152	48047
34.57965	45069
34.58777	44810
34.59590	43787
34.60402	44104
34.61213	45450
34.62027	46131
34.62838	44309
34.63652	44580
34.64463	42870
34.65275	43123
34.66088	42454
34.66900	45405
34.67712	44060
34.68525	43778
34.69337	43853
34.70150	44093
34.70962	43343
34.71773	44477
34.72587	41511
34.73398	40437
34.74212	41997
34.75023	44549
34.75835	45427
34.76648	43066
34.77460	43277
34.78273	40927
34.79085	40998
34.79897	40399
34.80710	39379
34.81522	40969
34.82333	39960
34.83147	40728
34.83958	43151
34.84772	37017
34.85583	41114
34.86395	41467
34.87208	41870
34.88020	42124
34.88833	39210
34.89645	40027
34.90457	38843
34.91270	38672
34.92082	41236
34.92893	42211
34.93707	40045
34.94518	38617
34.95332	42183
34.96143	42046
34.96955	36368
34.97768	39751
34.98580	38735
34.99393	38297
35.00205	39363
35.01017	41582
35.01830	40760
35.02642	40015
35.03455	41942
35.04267	41598
35.05078	40693
35.05892	39435
35.06703	40894
35.07515	43422
35.08328	39284
35.09140	40690
35.09953	44597
35.10765	42584
35.11577	43330
35.12390	38067
35.13202	42462
35.14015	39489
35.14827	39786
35.15638	43255
35.16452	39356
35.17263	39695
35.18077	41952
35.18888	39409
35.19700	41302
35.20513	39220
35.21325	38228
35.22137	42513
35.22950	40792
35.23762	39509
35.24575	41365
35.25387	39418
35.26198	36910
35.27012	39631
35.27823	40758
35.28637	43540
35.29448	43302
35.30260	41912
35.31073	42388
35.31885	40357
35.32697	38045
35.33510	41414
35.34322	43288
35.35135	42322
35.35947	39974
35.36758	41258
35.37572	41510
35.38383	43349
35.39197	41387
35.40008	42500
35.40820	41424
35.41633	45242
35.42445	43860
35.43258	44164
35.44070	42564
35.44882	39473
35.45695	47357
35.46507	43246
35.47318	44797
35.48132	42276
35.48943	41329
35.49757	42179
35.50568	42942
35.51380	41101
35.52193	40826
35.53005	40307
35.53818	42365
35.54630	42392
35.55442	41952
35.56255	45411
35.57067	41276
35.57880	42407
35.58692	43609
35.59503	43564
35.60317	42180
35.61128	45538
35.61940	42290
35.62753	43134
35.63565	43922
35.64378	40328
35.65190	43500
35.66002	49713
35.66815	43217
35.67627	41443
35.68440	41189
35.69252	43160
35.70063	46229
35.70877	45029
35.71688	46654
35.72500	42181
35.73313	40075
35.74125	39924
35.74938	42679
35.75750	43400
35.76562	42784
35.77375	41923
35.78187	45725
35.79000	45574
35.79812	47427
35.80623	44664
35.81437	40507
35.82248	41906
35.83062	42491
35.83873	50886
35.84685	47688
35.85498	47469
35.86310	44862
35.87122	43123
35.87935	43587
35.88747	43978
35.89560	44285
35.90372	45463
35.91183	43728
35.91997	45855
35.92808	44509
35.93622	39987
35.94433	46213
35.95245	39923
35.96058	43804
35.96870	43236
35.97682	41883
35.98495	44170
35.99307	47391
36.00120	45353
36.00932	47496
36.01743	45317
36.02557	49006
36.03368	47481
36.04182	49001
36.04993	50257
36.05805	48352
36.06618	48268
36.07430	46866
36.08243	47799
36.09055	42860
36.09867	43665
36.10680	43355
36.11492	47962
36.12303	46035
36.13117	44854
36.13928	45239
36.14742	45435
36.15553	47338
36.16365	49179
36.17178	44689
36.17990	44495
36.18803	41347
36.19615	45376
36.20427	45493
36.21240	46116
36.22052	41644
36.22865	49953
36.23677	54283
36.24488	52567
36.25302	57529
36.26113	60316
36.26925	58976
36.27738	59840
36.28550	52325
36.29363	48616
36.30175	51081
36.30987	49582
36.31800	46435
36.32612	42734
36.33425	48219
36.34237	48485
36.35048	49206
36.35862	47404
36.36673	45646
36.37485	46364
36.38298	49444
36.39110	46180
36.39923	48105
36.40735	44896
36.41547	45759
36.42360	47262
36.43172	52039
36.43985	49532
36.44797	46143
36.45608	44422
36.46422	49139
36.47233	45273
36.48047	45567
36.48858	46691
36.49670	45914
36.50483	46055
36.51295	44280
36.52107	47076
36.52920	44955
36.53732	45551
36.54545	48166
36.55357	50561
36.56168	46904
36.56982	47900
36.57793	48532
36.58607	46475
36.59418	52191
36.60230	47868
36.61043	46348
36.61855	50428
36.62668	49665
36.63480	49448
36.64292	52209
36.65105	48908
36.65917	45786
36.66728	48330
36.67542	48605
36.68353	47995
36.69167	48699
36.69978	49679
36.70790	50588
36.71603	50656
36.72415	45679
36.73228	50865
36.74040	46979
36.74852	48153
36.75665	45768
36.76477	48439
36.77288	51800
36.78102	46590
36.78913	46744
36.79727	47785
36.80538	50752
36.81350	48729
36.82163	48222
36.82975	51393
36.83788	50719
36.84600	47102
36.85412	51622
36.86225	50709
36.87037	50417
36.87850	49023
36.88662	51202
36.89473	52202
36.90287	54942
36.91098	52944
36.91910	47659
36.92723	50759
36.93535	49918
36.94348	47671
36.95160	49525
36.95972	50691
36.96785	47643
36.97597	53233
36.98410	57125
36.99222	60960
37.00033	65053
37.00847	71976
37.01658	86022
37.02472	94926
37.03283	97515
37.04095	89510
37.04908	82737
37.05720	75965
37.06532	68421
37.07345	63310
37.08157	58442
37.08970	55992
37.09782	57865
37.10593	56295
37.11407	52207
37.12218	55038
37.13032	58593
37.13843	56354
37.14655	59559
37.15468	57586
37.16280	52318
37.17092	52038
37.17905	59156
37.18717	55137
37.19530	49675
37.20342	54767
37.21153	54686
37.21967	55336
37.22778	53524
37.23592	57040
37.24403	53628
37.25215	57421
37.26028	59868
37.26840	61334
37.27653	67685
37.28465	73835
37.29277	74147
37.30090	70786
37.30902	73136
37.31713	72036
37.32527	72676
37.33338	65209
37.34152	66388
37.34963	65135
37.35775	61276
37.36588	61078
37.37400	62961
37.38213	60021
37.39025	61647
37.39837	64340
37.40650	63170
37.41462	60208
37.42273	66133
37.43087	58727
37.43898	58371
37.44712	58834
37.45523	62460
37.46335	61207
37.47148	55385
37.47960	58046
37.48773	60922
