C:\MassHunter\GCMS\1\data\JTB-E18\JTB-E18-038-07.D Wed Nov 13 16:46:39 2019
Start of data points
2.09535,307644
2.10348,288156
2.11160,291320
2.11973,282406
2.12785,266845
2.13597,268970
2.14410,262543
2.15222,253046
2.16035,244230
2.16847,243267
2.17658,235673
2.18472,227896
2.19283,221074
2.20097,211986
2.20908,211607
2.21720,214163
2.22533,205252
2.23345,204114
2.24157,199670
2.24970,208838
2.25782,192250
2.26595,198382
2.27407,688802
2.28218,2747414
2.29032,2342768
2.29843,931556
2.30657,540892
2.31468,450679
2.32280,429089
2.33093,362024
2.33905,335547
2.34717,313051
2.35530,288849
2.36342,285901
2.37155,264083
2.37967,273349
2.38778,423210
2.39592,426074
2.40403,297793
2.41217,269932
2.42028,252847
2.42840,290959
2.43653,273357
2.44465,245735
2.45278,249161
2.46090,230985
2.46902,216198
2.47715,201747
2.48527,208527
2.49338,212620
2.50152,235094
2.50963,215224
2.51777,205976
2.52588,198496
2.53400,202687
2.54213,189644
2.55025,201737
2.55838,261431
2.56650,313192
2.57462,254007
2.58275,205175
2.59087,197427
2.59900,193144
2.60712,257968
2.61523,564325
2.62337,630693
2.63148,460971
2.63960,330948
2.64773,266905
2.65585,233126
2.66398,219318
2.67210,206731
2.68022,239225
2.68835,253332
2.69647,199722
2.70460,185244
2.71272,169756
2.72083,166657
2.72897,166887
2.73708,159271
2.74520,157135
2.75333,162050
2.76145,167580
2.76958,161235
2.77770,163911
2.78582,197701
2.79395,259118
2.80207,216888
2.81020,188411
2.81832,201078
2.82643,319103
2.83457,733731
2.84268,914430
2.85082,575066
2.85893,350832
2.86705,323793
2.87518,300953
2.88330,236009
2.89142,204439
2.89955,187180
2.90767,180710
2.91580,175068
2.92392,168060
2.93203,154422
2.94017,157039
2.94828,152918
2.95642,146564
2.96453,151282
2.97265,146565
2.98078,152026
2.98890,150501
2.99703,161530
3.00515,179808
3.01327,217627
3.02140,220633
3.02952,328116
3.03763,618237
3.04577,879878
3.05388,2082764
3.06202,5865113
3.07013,7999660
3.07825,5523264
3.08638,3042420
3.09450,2529404
3.10263,2838129
3.11075,3622396
3.11887,3635107
3.12700,2512422
3.13512,1703193
3.14323,1340520
3.15137,1085493
3.15948,920050
3.16762,803876
3.17573,755781
3.18385,757921
3.19198,1060721
3.20010,1413759
3.20823,1201701
3.21635,873135
3.22447,713445
3.23260,613308
3.24072,544144
3.24885,489872
3.25697,435196
3.26508,406209
3.27322,370775
3.28133,471631
3.28945,1076660
3.29758,2831751
3.30570,5182958
3.31383,6256047
3.32195,5311520
3.33007,3939558
3.33820,2947841
3.34632,2344753
3.35445,1917941
3.36257,1591418
3.37068,1439614
3.37882,1519318
3.38693,1596776
3.39505,1432297
3.40318,1376859
3.41130,2312695
3.41943,3896635
3.42755,3973412
3.43567,2619474
3.44380,1608440
3.45192,1153092
3.46005,932042
3.46817,832168
3.47628,742912
3.48442,683180
3.49253,627864
3.50067,595967
3.50878,547850
3.51690,535403
3.52503,491392
3.53315,475614
3.54127,476009
3.54940,454422
3.55752,434212
3.56565,407336
3.57377,388601
3.58188,395043
3.59002,389107
3.59813,366220
3.60627,370905
3.61438,402140
3.62250,622633
3.63063,1282942
3.63875,2091924
3.64688,2145612
3.65500,1514024
3.66312,1122518
3.67125,1757615
3.67937,3440640
3.68748,3977488
3.69562,2825407
3.70373,1746510
3.71187,1275123
3.71998,1036884
3.72810,917054
3.73623,822420
3.74435,727512
3.75248,685556
3.76060,687731
3.76872,647339
3.77685,620812
3.78497,589261
3.79308,585530
3.80122,649971
3.80933,1017169
3.81747,1546506
3.82558,1582799
3.83370,1212909
3.84183,884937
3.84995,757527
3.85808,644145
3.86620,598413
3.87432,545812
3.88245,508898
3.89057,481269
3.89870,479535
3.90682,447664
3.91493,480389
3.92307,569067
3.93118,667677
3.93930,656140
3.94743,606830
3.95555,745823
3.96368,1077313
3.97180,1244211
3.97992,1043023
3.98805,737838
3.99617,636266
4.00430,859696
4.01242,1298643
4.02053,1456699
4.02867,1164962
4.03678,790901
4.04492,578859
4.05303,478435
4.06115,431719
4.06928,412954
4.07740,385985
4.08552,358076
4.09365,341821
4.10177,322719
4.10990,315039
4.11802,308273
4.12613,333135
4.13427,479584
4.14238,858688
4.15052,1232078
4.15863,1186045
4.16675,869364
4.17488,614774
4.18300,497697
4.19112,420375
4.19925,408024
4.20737,884201
4.21550,3412697
4.22362,8579592
4.23173,1.320663E+07
4.23987,1.424799E+07
4.24798,1.140355E+07
4.25612,7453780
4.26423,4853190
4.27235,3410089
4.28048,2459511
4.28860,1900705
4.29673,1479476
4.30485,1219146
4.31297,1031480
4.32110,932393
4.32922,842072
4.33733,763329
4.34547,731601
4.35358,702961
4.36172,679104
4.36983,636247
4.37795,576248
4.38608,523371
4.39420,509925
4.40233,465228
4.41045,453482
4.41857,431499
4.42670,415257
4.43482,409939
4.44295,401615
4.45107,392613
4.45918,400361
4.46732,395202
4.47543,381928
4.48355,359214
4.49168,366084
4.49980,345626
4.50793,340138
4.51605,325397
4.52417,319339
4.53230,321157
4.54042,311282
4.54855,313791
4.55667,311926
4.56478,304702
4.57292,286938
4.58103,278478
4.58915,276935
4.59728,262976
4.60540,262684
4.61353,272475
4.62165,302379
4.62977,410760
4.63790,544042
4.64602,622090
4.65415,553589
4.66227,433472
4.67038,363431
4.67852,317173
4.68663,305091
4.69477,282454
4.70288,271037
4.71100,261091
4.71913,271441
4.72725,263905
4.73537,259674
4.74350,255681
4.75162,239491
4.75975,237931
4.76787,228868
4.77598,229442
4.78412,267309
4.79223,431819
4.80037,765944
4.80848,1056284
4.81660,1027919
4.82473,776236
4.83285,583033
4.84097,501287
4.84910,460614
4.85722,398156
4.86535,355504
4.87347,329003
4.88158,302268
4.88972,291391
4.89783,280956
4.90597,287495
4.91408,345426
4.92220,521106
4.93033,1001109
4.93845,1634386
4.94658,2095840
4.95470,2075609
4.96282,1785685
4.97095,1387820
4.97907,1081173
4.98718,872044
4.99532,733749
5.00343,634582
5.01157,588942
5.01968,579278
5.02780,735510
5.03593,1034089
5.04405,1183365
5.05218,1111229
5.06030,889949
5.06842,738142
5.07655,622740
5.08467,566097
5.09280,536886
5.10092,538235
5.10903,570012
5.11717,603251
5.12528,600743
5.13340,555662
5.14153,495029
5.14965,457549
5.15778,460359
5.16590,499746
5.17402,529049
5.18215,563113
5.19027,593105
5.19840,585352
5.20652,534248
5.21463,480578
5.22277,435266
5.23088,410917
5.23900,418264
5.24713,392352
5.25525,371827
5.26338,337631
5.27150,316856
5.27962,305220
5.28775,302549
5.29587,308937
5.30400,304549
5.31212,290011
5.32023,289740
5.32837,290630
5.33648,296835
5.34462,312917
5.35273,297911
5.36085,285038
5.36898,272407
5.37710,260707
5.38522,262576
5.39335,270623
5.40147,257245
5.40960,250635
5.41772,243881
5.42583,250596
5.43397,244164
5.44208,258555
5.45022,243380
5.45833,247777
5.46645,234932
5.47458,232121
5.48270,223641
5.49083,217145
5.49895,217333
5.50707,221891
5.51520,221252
5.52332,225674
5.53143,216553
5.53957,214031
5.54768,213099
5.55582,218196
5.56393,231060
5.57205,233296
5.58018,240122
5.58830,239751
5.59643,227183
5.60455,217633
5.61267,218408
5.62080,216682
5.62892,215706
5.63703,228180
5.64517,235305
5.65328,220406
5.66142,226308
5.66953,230869
5.67765,254039
5.68578,274100
5.69390,285852
5.70203,277165
5.71015,269461
5.71827,266843
5.72640,273850
5.73452,284960
5.74265,271159
5.75077,265181
5.75888,273080
5.76702,281078
5.77513,281336
5.78325,279616
5.79138,264361
5.79950,275225
5.80763,385191
5.81575,606421
5.82387,990154
5.83200,1353322
5.84012,1470629
5.84825,1235840
5.85637,904290
5.86448,626365
5.87262,469332
5.88073,367389
5.88885,311342
5.89698,295831
5.90510,311207
5.91323,376657
5.92135,498696
5.92947,673017
5.93760,731639
5.94572,673192
5.95385,555218
5.96197,469439
5.97008,430347
5.97822,440039
5.98633,445567
5.99447,412096
6.00258,343108
6.01070,291336
6.01883,249866
6.02695,233096
6.03507,216630
6.04320,207730
6.05132,194011
6.05945,185226
6.06757,180567
6.07568,170948
6.08382,179135
6.09193,191073
6.10007,235274
6.10818,281772
6.11630,323420
6.12443,351949
6.13255,395370
6.14068,475980
6.14880,463168
6.15692,403411
6.16505,328862
6.17317,272079
6.18128,254318
6.18942,250459
6.19753,275195
6.20567,297615
6.21378,281288
6.22190,247174
6.23003,222045
6.23815,206570
6.24628,197069
6.25440,199613
6.26252,186832
6.27065,192298
6.27877,187712
6.28690,187419
6.29502,191088
6.30313,201389
6.31127,194956
6.31938,199337
6.32750,215182
6.33563,218826
6.34375,229682
6.35188,221012
6.36000,212851
6.36812,215357
6.37625,212053
6.38437,205558
6.39250,200380
6.40062,204566
6.40873,201137
6.41687,195222
6.42498,201138
6.43310,206231
6.44123,216662
6.44935,208125
6.45748,206165
6.46560,220586
6.47372,216782
6.48185,213119
6.48997,215251
6.49810,224613
6.50622,220195
6.51433,226156
6.52247,220175
6.53058,231362
6.53872,236615
6.54683,236913
6.55495,234892
6.56308,236194
6.57120,240707
6.57932,246022
6.58745,245676
6.59557,240986
6.60370,246929
6.61182,255153
6.61993,227674
6.62807,212557
6.63618,202413
6.64432,195106
6.65243,210474
6.66055,255363
6.66868,294166
6.67680,301054
6.68492,273251
6.69305,261356
6.70117,280245
6.70930,290018
6.71742,305182
6.72553,277284
6.73367,249151
6.74178,202500
6.74992,191041
6.75803,161468
6.76615,154191
6.77428,149627
6.78240,144389
6.79053,144282
6.79865,150019
6.80677,166529
6.81490,223714
6.82302,345997
6.83113,562380
6.83927,810641
6.84738,1021453
6.85552,1033444
6.86363,865615
6.87175,632281
6.87988,412209
6.88800,282878
6.89613,211038
6.90425,169735
6.91237,144769
6.92050,135383
6.92862,130070
6.93675,119050
6.94487,120694
6.95298,118343
6.96112,137724
6.96923,167759
6.97735,227222
6.98548,302663
6.99360,392632
7.00173,446887
7.00985,455106
7.01797,406039
7.02610,330983
7.03422,232416
7.04235,181395
7.05047,153487
7.05858,137069
7.06672,131268
7.07483,129788
7.08295,123993
7.09108,126490
7.09920,124662
7.10733,123565
7.11545,121553
7.12357,122345
7.13170,117535
7.13982,123030
7.14795,132066
7.15607,152660
7.16418,227954
7.17232,430103
7.18043,923854
7.18857,1508231
7.19668,1873732
7.20480,1706059
7.21293,1151799
7.22105,682820
7.22917,410107
7.23730,293092
7.24542,256793
7.25355,242226
7.26167,214726
7.26978,188305
7.27792,177725
7.28603,177169
7.29417,176346
7.30228,183254
7.31040,180838
7.31853,164420
7.32665,150355
7.33478,154217
7.34290,161400
7.35102,204770
7.35915,251615
7.36727,294018
7.37538,318310
7.38352,306271
7.39163,269737
7.39977,208426
7.40788,171346
7.41600,150273
7.42413,135547
7.43225,133971
7.44038,130665
7.44850,134799
7.45662,158422
7.46475,184380
7.47287,207375
7.48098,218991
7.48912,213592
7.49723,192828
7.50537,170550
7.51348,151015
7.52160,127175
7.52973,118351
7.53785,119252
7.54598,118225
7.55410,129823
7.56222,141574
7.57035,155314
7.57847,157093
7.58660,160912
7.59472,149573
7.60283,133301
7.61097,125019
7.61908,114717
7.62720,107134
7.63533,101342
7.64345,94591
7.65158,103247
7.65970,104197
7.66782,108653
7.67595,99878
7.68407,95416
7.69220,101702
7.70032,95837
7.70843,93415
7.71657,95850
7.72468,95499
7.73280,91119
7.74093,90742
7.74905,91446
7.75718,90506
7.76530,82610
7.77342,86476
7.78155,85922
7.78967,89135
7.79780,91159
7.80592,89201
7.81403,91422
7.82217,84605
7.83028,87249
7.83842,90762
7.84653,80161
7.85465,81610
7.86278,82682
7.87090,90783
7.87902,105015
7.88715,122378
7.89527,123724
7.90340,122304
7.91152,120655
7.91963,110518
7.92777,115791
7.93588,129571
7.94402,138543
7.95213,143767
7.96025,140468
7.96838,132226
7.97650,114692
7.98463,101372
7.99275,88760
8.00087,79536
8.00900,76447
8.01712,73980
8.02523,76672
8.03337,71266
8.04148,72486
8.04962,69498
8.05773,74223
8.06585,70985
8.07398,71771
8.08210,74309
8.09023,69281
8.09835,67760
8.10647,69846
8.11460,73826
8.12272,70034
8.13083,81153
8.13897,87361
8.14708,89082
8.15522,96878
8.16333,94789
8.17145,85897
8.17958,81354
8.18770,75654
8.19583,69920
8.20395,69904
8.21207,65974
8.22020,66565
8.22832,78758
8.23645,64576
8.24457,68027
8.25268,68616
8.26082,64744
8.26893,67190
8.27705,69206
8.28518,64914
8.29330,65074
8.30143,64489
8.30955,69492
8.31767,78371
8.32580,81111
8.33392,85725
8.34205,90823
8.35017,82962
8.35828,76200
8.36642,66126
8.37453,65360
8.38267,64452
8.39078,63227
8.39890,65999
8.40703,61449
8.41515,53163
8.42327,55540
8.43140,56531
8.43952,56468
8.44765,57044
8.45577,58340
8.46388,58537
8.47202,57765
8.48013,61131
8.48827,74233
8.49638,123311
8.50450,229973
8.51263,418442
8.52075,651213
8.52887,737285
8.53700,615941
8.54512,400401
8.55325,240588
8.56137,154679
8.56948,119080
8.57762,106816
8.58573,97733
8.59387,97950
8.60198,91241
8.61010,92030
8.61823,83769
8.62635,81794
8.63448,80945
8.64260,81941
8.65072,79197
8.65885,76792
8.66697,70392
8.67508,72016
8.68322,66710
8.69133,75393
8.69947,79712
8.70758,92039
8.71570,117926
8.72383,170372
8.73195,269145
8.74008,371480
8.74820,396931
8.75632,368038
8.76445,294442
8.77257,227302
8.78070,174352
8.78882,151630
8.79693,153009
8.80507,141465
8.81318,135373
8.82130,125017
8.82943,119774
8.83755,120232
8.84568,114283
8.85380,104728
8.86192,107502
8.87005,101318
8.87817,99782
8.88630,94805
8.89442,95479
8.90253,95598
8.91067,95455
8.91878,101315
8.92690,101614
8.93503,100363
8.94315,91290
8.95128,87372
8.95940,84610
8.96752,82251
8.97565,76627
8.98377,86503
8.99190,82931
9.00002,82279
9.00813,80601
9.01627,79828
9.02438,80423
9.03252,75348
9.04063,74589
9.04875,71888
9.05688,66608
9.06500,70175
9.07312,70395
9.08125,72949
9.08937,71663
9.09750,76992
9.10562,76610
9.11373,87042
9.12187,89840
9.12998,80983
9.13812,79082
9.14623,79299
9.15435,75817
9.16248,71248
9.17060,71927
9.17872,66664
9.18685,66665
9.19497,72921
9.20310,70330
9.21122,67796
9.21933,64779
9.22747,63882
9.23558,67675
9.24372,67171
9.25183,69464
9.25995,78603
9.26808,106215
9.27620,118435
9.28433,134716
9.29245,130253
9.30057,117987
9.30870,100581
9.31682,95046
9.32493,76024
9.33307,73996
9.34118,70810
9.34932,72943
9.35743,77890
9.36555,69932
9.37368,66980
9.38180,67009
9.38993,66185
9.39805,65371
9.40617,66904
9.41430,68633
9.42242,68997
9.43055,77290
9.43867,81110
9.44678,84175
9.45492,79851
9.46303,78136
9.47115,77331
9.47928,74539
9.48740,69773
9.49553,75490
9.50365,82571
9.51177,95358
9.51990,109275
9.52802,105010
9.53615,102738
9.54427,93401
9.55238,81698
9.56052,71398
9.56863,60549
9.57675,60026
9.58488,60760
9.59300,54172
9.60113,52043
9.60925,53931
9.61737,52315
9.62550,52800
9.63362,53118
9.64175,56922
9.64987,58731
9.65798,57863
9.66612,50206
9.67423,46624
9.68237,44308
9.69048,46389
9.69860,47856
9.70673,45355
9.71485,43008
9.72297,43076
9.73110,39810
9.73922,44531
9.74735,40839
9.75547,40443
9.76358,39541
9.77172,40443
9.77983,41537
9.78797,38819
9.79608,43628
9.80420,40851
9.81233,40403
9.82045,37285
9.82858,49380
9.83670,44521
9.84482,45343
9.85295,44846
9.86107,43493
9.86918,42614
9.87732,43265
9.88543,40821
9.89357,42623
9.90168,40328
9.90980,41433
9.91793,43654
9.92605,44385
9.93418,43082
9.94230,52200
9.95042,59991
9.95855,67558
9.96667,72436
9.97478,73852
9.98292,73126
9.99103,65793
9.99917,55640
10.00728,49425
10.01540,44480
10.02353,42258
10.03165,40994
10.03978,43738
10.04790,45005
10.05602,41311
10.06415,43109
10.07227,43988
10.08040,44006
10.08852,37793
10.09663,40821
10.10477,40832
10.11288,39648
10.12100,40173
10.12913,40378
10.13725,38535
10.14538,36398
10.15350,41663
10.16162,36027
10.16975,39592
10.17787,36273
10.18600,34472
10.19412,38378
10.20223,36495
10.21037,37785
10.21848,43573
10.22660,45814
10.23473,56689
10.24285,89260
10.25098,200135
10.25910,483576
10.26722,1032393
10.27535,2036770
10.28347,3541768
10.29160,5743711
10.29972,9303552
10.30783,1.387526E+07
10.31597,1.791873E+07
10.32408,1.906739E+07
10.33222,1.663223E+07
10.34033,1.116792E+07
10.34845,6000573
10.35658,2979658
10.36470,1692874
10.37282,1194633
10.38095,930616
10.38907,728835
10.39720,590867
10.40532,503534
10.41343,432624
10.42157,376455
10.42968,337828
10.43782,300896
10.44593,283850
10.45405,258982
10.46218,239161
10.47030,223289
10.47843,207292
10.48655,196303
10.49467,189119
10.50280,180161
10.51092,177463
10.51903,175239
10.52717,173442
10.53528,168804
10.54342,158270
10.55153,147750
10.55965,147134
10.56778,146696
10.57590,136107
10.58403,135872
10.59215,129984
10.60027,127827
10.60840,116106
10.61652,114139
10.62463,111386
10.63277,110587
10.64088,107423
10.64902,104315
10.65713,101963
10.66525,99037
10.67338,96361
10.68150,97172
10.68963,103075
10.69775,104404
10.70587,103940
10.71400,101362
10.72212,103184
10.73025,98645
10.73837,90355
10.74648,89874
10.75462,86626
10.76273,87716
10.77085,86636
10.77898,83967
10.78710,82228
10.79523,84170
10.80335,80837
10.81147,72924
10.81960,74605
10.82772,72806
10.83585,72080
10.84397,67549
10.85208,69808
10.86022,64152
10.86833,64075
10.87647,68915
10.88458,64463
10.89270,63985
10.90083,61398
10.90895,62484
10.91707,58174
10.92520,61733
10.93332,63977
10.94145,60898
10.94957,60166
10.95768,64084
10.96582,58419
10.97393,61122
10.98207,61608
10.99018,62062
10.99830,58800
11.00643,58093
11.01455,55419
11.02267,53706
11.03080,51677
11.03892,55589
11.04705,61783
11.05517,59297
11.06328,53795
11.07142,52314
11.07953,52676
11.08767,52123
11.09578,58199
11.10390,58954
11.11203,54869
11.12015,54465
11.12828,55708
11.13640,50846
11.14452,50247
11.15265,48157
11.16077,49408
11.16888,49623
11.17702,49333
11.18513,52372
11.19327,52061
11.20138,51867
11.20950,52136
11.21763,49616
11.22575,43787
11.23388,41467
11.24200,43931
11.25012,46656
11.25825,52638
11.26637,59385
11.27448,73734
11.28262,100026
11.29073,115149
11.29887,131358
11.30698,130385
11.31510,143450
11.32323,157720
11.33135,172218
11.33948,196583
11.34760,202385
11.35572,194459
11.36385,156630
11.37197,138474
11.38010,113262
11.38822,102245
11.39633,88293
11.40447,88944
11.41258,74722
11.42070,68808
11.42883,64674
11.43695,63748
11.44508,60302
11.45320,55894
11.46132,66068
11.46945,77010
11.47757,94415
11.48570,111730
11.49382,122262
11.50193,117804
11.51007,107738
11.51818,101476
11.52632,97971
11.53443,95236
11.54255,95945
11.55068,83152
11.55880,80515
11.56692,75687
11.57505,71466
11.58317,79336
11.59130,89839
11.59942,99034
11.60753,111998
11.61567,101170
11.62378,88851
11.63192,77661
11.64003,67228
11.64815,59593
11.65628,62186
11.66440,70023
11.67253,75283
11.68065,97738
11.68877,133465
11.69690,162999
11.70502,176288
11.71313,178053
11.72127,152169
11.72938,121185
11.73752,106942
11.74563,89711
11.75375,80849
11.76188,79224
11.77000,69950
11.77813,69606
11.78625,67978
11.79437,66790
11.80250,63792
11.81062,61758
11.81873,57077
11.82687,58810
11.83498,54409
11.84312,53559
11.85123,58049
11.85935,54193
11.86748,50473
11.87560,51178
11.88373,50287
11.89185,48571
11.89997,52566
11.90810,57644
11.91622,64561
11.92435,70622
11.93247,70930
11.94058,74737
11.94872,70546
11.95683,64159
11.96495,58072
11.97308,60081
11.98120,65092
11.98933,70814
11.99745,75821
12.00557,73309
12.01370,71130
12.02182,61795
12.02995,56946
12.03807,53629
12.04618,54855
12.05432,49298
12.06243,47646
12.07055,45837
12.07868,44674
12.08680,48513
12.09493,44972
12.10305,47872
12.11117,44240
12.11930,45683
12.12742,47509
12.13555,41333
12.14367,45082
12.15178,47666
12.15992,43494
12.16803,42429
12.17617,41625
12.18428,39698
12.19240,37765
12.20053,43523
12.20865,43244
12.21677,39558
12.22490,42242
12.23302,39414
12.24115,41977
12.24927,36903
12.25738,38682
12.26552,39308
12.27363,40528
12.28177,41091
12.28988,40582
12.29800,39750
12.30613,44591
12.31425,32743
12.32238,38235
12.33050,39061
12.33862,36837
12.34675,34976
12.35487,31861
12.36298,34993
12.37112,38796
12.37923,41916
12.38737,52928
12.39548,77476
12.40360,89341
12.41173,95966
12.41985,93719
12.42798,80452
12.43610,70445
12.44422,58096
12.45235,54352
12.46047,49294
12.46858,51793
12.47672,52214
12.48483,45592
12.49297,40895
12.50108,40271
12.50920,46082
12.51733,54850
12.52545,79047
12.53358,134073
12.54170,174000
12.54982,210896
12.55795,222783
12.56607,181533
12.57420,135312
12.58232,103342
12.59043,76839
12.59857,67041
12.60668,63543
12.61480,58461
12.62293,58114
12.63105,52846
12.63918,51799
12.64730,47155
12.65542,48191
12.66355,42647
12.67167,43109
12.67980,46767
12.68792,40667
12.69603,41374
12.70417,42868
12.71228,51009
12.72042,45773
12.72853,51825
12.73665,52391
12.74478,45114
12.75290,45994
12.76102,46007
12.76915,42372
12.77727,45133
12.78540,46925
12.79352,47460
12.80163,49753
12.80977,47391
12.81788,44957
12.82602,44664
12.83413,41129
12.84225,44800
12.85038,38348
12.85850,43028
12.86662,40183
12.87475,38354
12.88287,41099
12.89100,39512
12.89912,36417
12.90723,33468
12.91537,34763
12.92348,37100
12.93162,42464
12.93973,50451
12.94785,65019
12.95598,90190
12.96410,105136
12.97223,108948
12.98035,106040
12.98847,95497
12.99660,90990
13.00472,80200
13.01283,74992
13.02097,69533
13.02908,64359
13.03722,62192
13.04533,58850
13.05345,54071
13.06158,53117
13.06970,48900
13.07783,48970
13.08595,44039
13.09407,45367
13.10220,43502
13.11032,43394
13.11843,41567
13.12657,41956
13.13468,43269
13.14282,40645
13.15093,46696
13.15905,40615
13.16718,39806
13.17530,42435
13.18343,37850
13.19155,39696
13.19967,43089
13.20780,37587
13.21592,42266
13.22405,40015
13.23217,41811
13.24028,39236
13.24842,43657
13.25653,46179
13.26465,52906
13.27278,52749
13.28090,52492
13.28903,48453
13.29715,47880
13.30527,46398
13.31340,57608
13.32152,52746
13.32965,51128
13.33777,49767
13.34588,46545
13.35402,45341
13.36213,47326
13.37027,41081
13.37838,41181
13.38650,39463
13.39463,39222
13.40275,38465
13.41087,39709
13.41900,35242
13.42712,36566
13.43525,34816
13.44337,36565
13.45148,36815
13.45962,34637
13.46773,35507
13.47587,35103
13.48398,32322
13.49210,36560
13.50023,32584
13.50835,34626
13.51647,35785
13.52460,35840
13.53272,37290
13.54085,41348
13.54897,44588
13.55708,46661
13.56522,47443
13.57333,50558
13.58147,55857
13.58958,70440
13.59770,93661
13.60583,107392
13.61395,118272
13.62208,109540
13.63020,104715
13.63832,84478
13.64645,77504
13.65457,68065
13.66268,58094
13.67082,57220
13.67893,52479
13.68707,47929
13.69518,45562
13.70330,44333
13.71143,48821
13.71955,45077
13.72768,44369
13.73580,52851
13.74392,65717
13.75205,84788
13.76017,110472
13.76830,132303
13.77642,143001
13.78453,142859
13.79267,139125
13.80078,132809
13.80890,127825
13.81703,146771
13.82515,151432
13.83328,153738
13.84140,146198
13.84952,121224
13.85765,108791
13.86577,92097
13.87390,77939
13.88202,74245
13.89013,68934
13.89827,63835
13.90638,66139
13.91450,62217
13.92263,62228
13.93075,57845
13.93888,59086
13.94700,55619
13.95512,55090
13.96325,50906
13.97137,57014
13.97950,59063
13.98762,59475
13.99573,55589
14.00387,54963
14.01198,52314
14.02012,53340
14.02823,47644
14.03635,48706
14.04448,50940
14.05260,52502
14.06072,46314
14.06885,44695
14.07697,45342
14.08510,45524
14.09322,38762
14.10133,42411
14.10947,47698
14.11758,66578
14.12572,78049
14.13383,101156
14.14195,121401
14.15008,135771
14.15820,127625
14.16633,112910
14.17445,107408
14.18257,89618
14.19070,89883
14.19882,80327
14.20693,78792
14.21507,76766
14.22318,70035
14.23132,67020
14.23943,70249
14.24755,67417
14.25568,63080
14.26380,65778
14.27193,57607
14.28005,55755
14.28817,51254
14.29630,47493
14.30442,47686
14.31253,39575
14.32067,41763
14.32878,40794
14.33692,43824
14.34503,42402
14.35315,39678
14.36128,40335
14.36940,38081
14.37753,51162
14.38565,69334
14.39377,91499
14.40190,130298
14.41002,150409
14.41815,152940
14.42627,131263
14.43438,107912
14.44252,80346
14.45063,64932
14.45875,55675
14.46688,50256
14.47500,48624
14.48313,48689
14.49125,47814
14.49937,45503
14.50750,44326
14.51562,47883
14.52375,43212
14.53187,40625
14.53998,41699
14.54812,41358
14.55623,39988
14.56435,37261
14.57248,39911
14.58060,38073
14.58873,39345
14.59685,36145
14.60497,38002
14.61310,33782
14.62122,33171
14.62935,34372
14.63747,36742
14.64558,34031
14.65372,34085
14.66183,34483
14.66997,31994
14.67808,35425
14.68620,33844
14.69433,34469
14.70245,35542
14.71057,35557
14.71870,33644
14.72682,32520
14.73495,35224
14.74307,35227
14.75118,34927
14.75932,40551
14.76743,38446
14.77557,52258
14.78368,84195
14.79180,159919
14.79993,310109
14.80805,566741
14.81618,834965
14.82430,975941
14.83242,896657
14.84055,678734
14.84867,473388
14.85678,317183
14.86492,215652
14.87303,168505
14.88117,140654
14.88928,123267
14.89740,106135
14.90553,101223
14.91365,98183
14.92178,89603
14.92990,84750
14.93802,79087
14.94615,72689
14.95427,74814
14.96238,67106
14.97052,68369
14.97863,62984
14.98677,62244
14.99488,62792
15.00300,59607
15.01113,58115
15.01925,55027
15.02738,52673
15.03550,57922
15.04362,51110
15.05175,51687
15.05987,49099
15.06800,46404
15.07612,50066
15.08423,50299
15.09237,46541
15.10048,47295
15.10860,46658
15.11673,51498
15.12485,50314
15.13298,53232
15.14110,52025
15.14922,49332
15.15735,46085
15.16547,46025
15.17360,45437
15.18172,44054
15.18983,39475
15.19797,41446
15.20608,42321
15.21422,40007
15.22233,38359
15.23045,36043
15.23858,40406
15.24670,38714
15.25482,35679
15.26295,40600
15.27107,36728
15.27920,38759
15.28732,35105
15.29543,34750
15.30357,32891
15.31168,36444
15.31982,32991
15.32793,33612
15.33605,34884
15.34418,34736
15.35230,34073
15.36042,37751
15.36855,32406
15.37667,33151
15.38480,35886
15.39292,36275
15.40103,33374
15.40917,35334
15.41728,34871
15.42542,34783
15.43353,33047
15.44165,33569
15.44978,34188
15.45790,36695
15.46603,41334
15.47415,48611
15.48227,53290
15.49040,59885
15.49852,64667
15.50663,67762
15.51477,61679
15.52288,54983
15.53102,50535
15.53913,48207
15.54725,41577
15.55538,40928
15.56350,37912
15.57163,39124
15.57975,41411
15.58787,36410
15.59600,35821
15.60412,33293
15.61223,33395
15.62037,33006
15.62848,33030
15.63662,34982
15.64473,31486
15.65285,31220
15.66098,30414
15.66910,34500
15.67723,33234
15.68535,29410
15.69347,28862
15.70160,32269
15.70972,34198
15.71785,35108
15.72597,33757
15.73408,35985
15.74222,47572
15.75033,53903
15.75845,68735
15.76658,90931
15.77470,106175
15.78283,100762
15.79095,91589
15.79907,80725
15.80720,64101
15.81532,53368
15.82345,49920
15.83157,43849
15.83968,40656
15.84782,38743
15.85593,39265
15.86407,39615
15.87218,37397
15.88030,38508
15.88843,38262
15.89655,39351
15.90467,35804
15.91280,40130
15.92092,41908
15.92905,36816
15.93717,37930
15.94528,38300
15.95342,38812
15.96153,40991
15.96967,40028
15.97778,43916
15.98590,39153
15.99403,47061
16.00215,47046
16.01027,52425
16.01840,51607
16.02652,48644
16.03465,49219
16.04277,46541
16.05088,45073
16.05902,41458
16.06713,38602
16.07527,34034
16.08338,35697
16.09150,32711
16.09963,35608
16.10775,33625
16.11588,34299
16.12400,34182
16.13212,34288
16.14025,34084
16.14837,37970
16.15648,34695
16.16462,32920
16.17273,33699
16.18087,33050
16.18898,32412
16.19710,34246
16.20523,36393
16.21335,35414
16.22148,33265
16.22960,34715
16.23772,32359
16.24585,31343
16.25397,31234
16.26210,39926
16.27022,33995
16.27833,33873
16.28647,37216
16.29458,36509
16.30270,36651
16.31083,32196
16.31895,35028
16.32708,34750
16.33520,34431
16.34332,35173
16.35145,35358
16.35957,39250
16.36770,40867
16.37582,37511
16.38393,39042
16.39207,39662
16.40018,36330
16.40830,34425
16.41643,34513
16.42455,34472
16.43268,41903
16.44080,51583
16.44892,65103
16.45705,83308
16.46517,101340
16.47330,110958
16.48142,105539
16.48953,86918
16.49767,73731
16.50578,59811
16.51392,50494
16.52203,47513
16.53015,40178
16.53828,40305
16.54640,43005
16.55452,42159
16.56265,40388
16.57077,41572
16.57890,37906
16.58702,37243
16.59513,38643
16.60327,38779
16.61138,36886
16.61952,38665
16.62763,40040
16.63575,33921
16.64388,38811
16.65200,36520
16.66012,34005
16.66825,35094
16.67637,38521
16.68450,40732
16.69262,37581
16.70073,35193
16.70887,33035
16.71698,33529
16.72512,33453
16.73323,36488
16.74135,32748
16.74948,34526
16.75760,35000
16.76573,37620
16.77385,34386
16.78197,34369
16.79010,31802
16.79822,34823
16.80633,32526
16.81447,31600
16.82258,32429
16.83072,31539
16.83883,29203
16.84695,32790
16.85508,31218
16.86320,32437
16.87133,31091
16.87945,31611
16.88757,31142
16.89570,31587
16.90382,30756
16.91195,33246
16.92007,30728
16.92818,31085
16.93632,32092
16.94443,32153
16.95255,30535
16.96068,30218
16.96880,30016
16.97693,30025
16.98505,30436
16.99317,29102
17.00130,30603
17.00942,30328
17.01755,31712
17.02567,32429
17.03378,31732
17.04192,30040
17.05003,38969
17.05817,36281
17.06628,31515
17.07440,35248
17.08253,32229
17.09065,33505
17.09877,33034
17.10690,33374
17.11502,32251
17.12315,32065
17.13127,34982
17.13938,30498
17.14752,33153
17.15563,32924
17.16377,33147
17.17188,34854
17.18000,28945
17.18813,30805
17.19625,28160
17.20437,28800
17.21250,30012
17.22062,29421
17.22875,31148
17.23687,28843
17.24498,30467
17.25312,33289
17.26123,31447
17.26937,28301
17.27748,32067
17.28560,30434
17.29373,33531
17.30185,31652
17.30998,30361
17.31810,31588
17.32622,34350
17.33435,36945
17.34247,39692
17.35058,38476
17.35872,40045
17.36683,42707
17.37497,40583
17.38308,43026
17.39120,40031
17.39933,43740
17.40745,39166
17.41558,39068
17.42370,38276
17.43182,39040
17.43995,35299
17.44807,36674
17.45618,37594
17.46432,34282
17.47243,35592
17.48057,36258
17.48868,35158
17.49680,35802
17.50493,40678
17.51305,40666
17.52118,42618
17.52930,48513
17.53742,52458
17.54555,53329
17.55367,60840
17.56180,71359
17.56992,93067
17.57803,117984
17.58617,135383
17.59428,149311
17.60240,138220
17.61053,126323
17.61865,100686
17.62678,86801
17.63490,72825
17.64302,63330
17.65115,59566
17.65927,62039
17.66740,52104
17.67552,55581
17.68363,58261
17.69177,56954
17.69988,51987
17.70802,49373
17.71613,47338
17.72425,52013
17.73238,46835
17.74050,47249
17.74862,46803
17.75675,44839
17.76487,42601
17.77300,43507
17.78112,39901
17.78923,40719
17.79737,41918
17.80548,42480
17.81362,42864
17.82173,46239
17.82985,44902
17.83798,47307
17.84610,45574
17.85422,47038
17.86235,49753
17.87047,46755
17.87860,43930
17.88672,40129
17.89483,39004
17.90297,38822
17.91108,35861
17.91922,35349
17.92733,34869
17.93545,38923
17.94358,34983
17.95170,33261
17.95983,35829
17.96795,35082
17.97607,35716
17.98420,37244
17.99232,36123
18.00043,36100
18.00857,41767
18.01668,47925
18.02482,47272
18.03293,50349
18.04105,59191
18.04918,73455
18.05730,121372
18.06543,198399
18.07355,255792
18.08167,318353
18.08980,363749
18.09792,384191
18.10605,392674
18.11417,407125
18.12228,413367
18.13042,412560
18.13853,427150
18.14665,424597
18.15478,426249
18.16290,414734
18.17103,404481
18.17915,405331
18.18727,399966
18.19540,397361
18.20352,393937
18.21165,402914
18.21977,384199
18.22788,376546
18.23602,366685
18.24413,367506
18.25225,366900
18.26038,341476
18.26850,338970
18.27663,329819
18.28475,327025
18.29287,313516
18.30100,310667
18.30912,315502
18.31725,304757
18.32537,289488
18.33348,286579
18.34162,276852
18.34973,284012
18.35787,273998
18.36598,277120
18.37410,262770
18.38223,266487
18.39035,250269
18.39847,247103
18.40660,241311
18.41472,247788
18.42285,241672
18.43097,234770
18.43908,238930
18.44722,258675
18.45533,266076
18.46347,263485
18.47158,260284
18.47970,256099
18.48783,252126
18.49595,237389
18.50407,214271
18.51220,204506
18.52032,197827
18.52845,187298
18.53657,186256
18.54468,179610
18.55282,180249
18.56093,179690
18.56907,175879
18.57718,171746
18.58530,179559
18.59343,168477
18.60155,175931
18.60968,169996
18.61780,165355
18.62592,160208
18.63405,160845
18.64217,154308
18.65028,155466
18.65842,148277
18.66653,150437
18.67467,145181
18.68278,138063
18.69090,134907
18.69903,132590
18.70715,129122
18.71528,128363
18.72340,126743
18.73152,118558
18.73965,120197
18.74777,125950
18.75590,119183
18.76402,117592
18.77213,110622
18.78027,114015
18.78838,111658
18.79650,108908
18.80463,110545
18.81275,108139
18.82088,102432
18.82900,107537
18.83712,101788
18.84525,98690
18.85337,102789
18.86150,102059
18.86962,99926
18.87773,100289
18.88587,102169
18.89398,97758
18.90210,98457
18.91023,97979
18.91835,99910
18.92648,99985
18.93460,109068
18.94272,108879
18.95085,107983
18.95897,103640
18.96710,98838
18.97522,92690
18.98333,87270
18.99147,89063
18.99958,87372
19.00772,83825
19.01583,83315
19.02395,83671
19.03208,80900
19.04020,79987
19.04832,79361
19.05645,85101
19.06457,92342
19.07270,106991
19.08082,121755
19.08893,134228
19.09707,140270
19.10518,135830
19.11332,126315
19.12143,114396
19.12955,108049
19.13768,105601
19.14580,103921
19.15393,95298
19.16205,91709
19.17017,89386
19.17830,81839
19.18642,77221
19.19453,79286
19.20267,77691
19.21078,73534
19.21892,70154
19.22703,68911
19.23515,66763
19.24328,72093
19.25140,70430
19.25953,68814
19.26765,73033
19.27577,69618
19.28390,72796
19.29202,74381
19.30013,68106
19.30827,68841
19.31638,64629
19.32452,67587
19.33263,66583
19.34075,71058
19.34888,77284
19.35700,77846
19.36513,85452
19.37325,80681
19.38137,77411
19.38950,72258
19.39762,74595
19.40575,67215
19.41387,80520
19.42198,94390
19.43012,118338
19.43823,132483
19.44635,131331
19.45448,119758
19.46260,103778
19.47073,87422
19.47885,78212
19.48697,64306
19.49510,65161
19.50322,60750
19.51135,58794
19.51947,61592
19.52758,57109
19.53572,61594
19.54383,59185
19.55197,53084
19.56008,56381
19.56820,56050
19.57633,55840
19.58445,50154
19.59257,55439
19.60070,55130
19.60882,58598
19.61695,66520
19.62507,81739
19.63318,105378
19.64132,125255
19.64943,156078
19.65757,152639
19.66568,145863
19.67380,139723
19.68193,121171
19.69005,101617
19.69817,91225
19.70630,81167
19.71442,78259
19.72255,73553
19.73067,67040
19.73878,64347
19.74692,65378
19.75503,62013
19.76317,62839
19.77128,64306
19.77940,60436
19.78753,67314
19.79565,63758
19.80378,63590
19.81190,60457
19.82002,56231
19.82815,53753
19.83627,56298
19.84438,58617
19.85252,57221
19.86063,54032
19.86877,58376
19.87688,61134
19.88500,70563
19.89313,71518
19.90125,78585
19.90938,77782
19.91750,76423
19.92562,77135
19.93375,75238
19.94187,72412
19.94998,68909
19.95812,67995
19.96623,69320
19.97437,64311
19.98248,66787
19.99060,65206
19.99873,66964
20.00685,62263
20.01498,66708
20.02310,61963
20.03122,62412
20.03935,58553
20.04747,58155
20.05560,61603
20.06372,60473
20.07183,60846
20.07997,61946
20.08808,59406
20.09620,59994
20.10433,56340
20.11245,52595
20.12058,53087
20.12870,49583
20.13682,50590
20.14495,49023
20.15307,52596
20.16120,55096
20.16932,59937
20.17743,64011
20.18557,60251
20.19368,58015
20.20182,63712
20.20993,65089
20.21805,69026
20.22618,84549
20.23430,97052
20.24242,116404
20.25055,123135
20.25867,124491
20.26680,120803
20.27492,100595
20.28303,89788
20.29117,73910
20.29928,70636
20.30742,59644
20.31553,58420
20.32365,53561
20.33178,53433
20.33990,45633
20.34802,47884
20.35615,48530
20.36427,48298
20.37240,47211
20.38052,48177
20.38863,47251
20.39677,54516
20.40488,53845
20.41302,54040
20.42113,55310
20.42925,55354
20.43738,51629
20.44550,49078
20.45363,45944
20.46175,48320
20.46987,43152
20.47800,43640
20.48612,39784
20.49423,42284
20.50237,40971
20.51048,41732
20.51862,42041
20.52673,44486
20.53485,38437
20.54298,41170
20.55110,40025
20.55923,41840
20.56735,32558
20.57547,37825
20.58360,37462
20.59172,34557
20.59985,37983
20.60797,36206
20.61608,38167
20.62422,41314
20.63233,35185
20.64045,36169
20.64858,41408
20.65670,37276
20.66483,36455
20.67295,39207
20.68107,35559
20.68920,38659
20.69732,38187
20.70545,36528
20.71357,38599
20.72168,38066
20.72982,37654
20.73793,39104
20.74605,39839
20.75418,43985
20.76230,41710
20.77043,44072
20.77855,54164
20.78667,67453
20.79480,81101
20.80292,95650
20.81105,95990
20.81917,87202
20.82728,77375
20.83542,66274
20.84353,56105
20.85167,52137
20.85978,49041
20.86790,40881
20.87603,42816
20.88415,40897
20.89227,41522
20.90040,41960
20.90852,43526
20.91665,42656
20.92477,44401
20.93288,40864
20.94102,36994
20.94913,35073
20.95727,38719
20.96538,35437
20.97350,38320
20.98163,34358
20.98975,35605
20.99787,37195
21.00600,38407
21.01412,37602
21.02225,41295
21.03037,38036
21.03848,36399
21.04662,41044
21.05473,38289
21.06287,37862
21.07098,40761
21.07910,36896
21.08723,37369
21.09535,37036
21.10348,36549
21.11160,36533
21.11972,38150
21.12785,41768
21.13597,44761
21.14408,50878
21.15222,53494
21.16033,48583
21.16847,44827
21.17658,45054
21.18470,42601
21.19283,40604
21.20095,40216
21.20908,36785
21.21720,37603
21.22532,40401
21.23345,36040
21.24157,37783
21.24970,42830
21.25782,40881
21.26593,46249
21.27407,47825
21.28218,48088
21.29030,47629
21.29843,49460
21.30655,53053
21.31468,54384
21.32280,50200
21.33092,52189
21.33905,52412
21.34717,52572
21.35530,54652
21.36342,53514
21.37153,51389
21.37967,59225
21.38778,52012
21.39592,53831
21.40403,56707
21.41215,59445
21.42028,57177
21.42840,53775
21.43652,52887
21.44465,51752
21.45277,58286
21.46090,52839
21.46902,53244
21.47713,56898
21.48527,53492
21.49338,55962
21.50152,58877
21.50963,59185
21.51775,59216
21.52588,61350
21.53400,58735
21.54212,58074
21.55025,60251
21.55837,69579
21.56650,77781
21.57462,86261
21.58273,92100
21.59087,99133
21.59898,94805
21.60712,86314
21.61523,77862
21.62335,68804
21.63148,63636
21.63960,59836
21.64773,59898
21.65585,57111
21.66397,55150
21.67210,59331
21.68022,54069
21.68833,51985
21.69647,52517
21.70458,50123
21.71272,51062
21.72083,46277
21.72895,47727
21.73708,43696
21.74520,49916
21.75333,49315
21.76145,53123
21.76957,61349
21.77770,62056
21.78582,69380
21.79393,68271
21.80207,62901
21.81018,54602
21.81832,49621
21.82643,46498
21.83455,44812
21.84268,43974
21.85080,41847
21.85893,43782
21.86705,42264
21.87517,41615
21.88330,42216
21.89142,41640
21.89955,41271
21.90767,36612
21.91578,37709
21.92392,36022
21.93203,39902
21.94015,43437
21.94828,59762
21.95640,76906
21.96453,97962
21.97265,111857
21.98077,117681
21.98890,125475
21.99702,132279
22.00515,133778
22.01327,133639
22.02138,137300
22.02952,136721
22.03763,142136
22.04577,136719
22.05388,145827
22.06200,147988
22.07013,147131
22.07825,140457
22.08637,141569
22.09450,139011
22.10262,148184
22.11075,129631
22.11887,137751
22.12698,126767
22.13512,125350
22.14323,135568
22.15137,126199
22.15948,125435
22.16760,126593
22.17573,122890
22.18385,119604
22.19197,117193
22.20010,115814
22.20822,112946
22.21635,104052
22.22447,103565
22.23258,100381
22.24072,93109
22.24883,97519
22.25697,100450
22.26508,91843
22.27320,94758
22.28133,95319
22.28945,98919
22.29758,101275
22.30570,90203
22.31382,95065
22.32195,90784
22.33007,89965
22.33818,90327
22.34632,93719
22.35443,82639
22.36257,78873
22.37068,81594
22.37880,81594
22.38693,89885
22.39505,90529
22.40318,93457
22.41130,92044
22.41942,91642
22.42755,89163
22.43567,80217
22.44380,74922
22.45192,71485
22.46003,69942
22.46817,71303
22.47628,71365
22.48440,69262
22.49253,71604
22.50065,71739
22.50878,71254
22.51690,64566
22.52502,67468
22.53315,63807
22.54127,63542
22.54940,62151
22.55752,60819
22.56563,59190
22.57377,58162
22.58188,50678
22.59000,52621
22.59813,51960
22.60625,50756
22.61438,47216
22.62250,53913
22.63062,50819
22.63875,47911
22.64687,49930
22.65500,48509
22.66312,46846
22.67123,51407
22.67937,49081
22.68748,49822
22.69562,50243
22.70373,48536
22.71185,49015
22.71998,48382
22.72810,47774
22.73622,43984
22.74435,47712
22.75247,45312
22.76060,49088
22.76872,45620
22.77683,46214
22.78497,47599
22.79308,47639
22.80122,50457
22.80933,48812
22.81745,45537
22.82558,46194
22.83370,41980
22.84182,42338
22.84995,46371
22.85807,46172
22.86620,48288
22.87432,56136
22.88243,64684
22.89057,81348
22.89868,102593
22.90682,135802
22.91493,159697
22.92305,179190
22.93118,171665
22.93930,157595
22.94743,143116
22.95555,131216
22.96367,110044
22.97180,101491
22.97992,91372
22.98803,89127
22.99617,77244
23.00428,72000
23.01242,62419
23.02053,57705
23.02865,57853
23.03678,56303
23.04490,53838
23.05303,51253
23.06115,51422
23.06927,49117
23.07740,51991
23.08552,45182
23.09365,45710
23.10177,48757
23.10988,42803
23.11802,46478
23.12613,46528
23.13425,44429
23.14238,43048
23.15050,41390
23.15863,41443
23.16675,40336
23.17487,42066
23.18300,42349
23.19112,41006
23.19925,44011
23.20737,40936
23.21548,35565
23.22362,35960
23.23173,35105
23.23985,33825
23.24798,44632
23.25610,40710
23.26423,43122
23.27235,41464
23.28047,38276
23.28860,38623
23.29672,38253
23.30485,37334
23.31297,38081
23.32108,40236
23.32922,44121
23.33733,46291
23.34547,49674
23.35358,55183
23.36170,54032
23.36983,51850
23.37795,49986
23.38607,48879
23.39420,46448
23.40232,44472
23.41045,44558
23.41857,40617
23.42668,38297
23.43482,36971
23.44293,38503
23.45107,35412
23.45918,36256
23.46730,36109
23.47543,36642
23.48355,38790
23.49168,33094
23.49980,31240
23.50792,35048
23.51605,38430
23.52417,37114
23.53228,34930
23.54042,36754
23.54853,37794
23.55667,42007
23.56478,47787
23.57290,57383
23.58103,68545
23.58915,75274
23.59728,82529
23.60540,80026
23.61352,72100
23.62165,66163
23.62977,56461
23.63788,55148
23.64602,58533
23.65413,61066
23.66227,59322
23.67038,59286
23.67850,54273
23.68663,46137
23.69475,46354
23.70288,43553
23.71100,45637
23.71912,70949
23.72725,118915
23.73537,241236
23.74350,507031
23.75162,1106489
23.75973,2176104
23.76787,3427488
23.77598,4157662
23.78410,4256868
23.79223,3864588
23.80035,3061203
23.80848,2304111
23.81660,1739555
23.82472,1326472
23.83285,1032231
23.84097,874429
23.84910,734891
23.85722,658136
23.86533,569433
23.87347,495364
23.88158,457780
23.88972,440270
23.89783,409267
23.90595,388296
23.91408,372964
23.92220,336895
23.93032,322966
23.93845,300902
23.94657,287796
23.95470,278040
23.96282,262358
23.97093,258142
23.97907,250556
23.98718,240499
23.99532,247401
24.00343,261668
24.01155,285132
24.01968,305502
24.02780,306070
24.03592,301771
24.04405,274806
24.05217,243473
24.06030,229544
24.06842,210765
24.07653,192424
24.08467,189419
24.09278,176600
24.10092,173683
24.10903,164107
24.11715,158254
24.12528,165908
24.13340,163509
24.14153,162907
24.14965,160303
24.15777,161218
24.16590,155789
24.17402,147027
24.18213,145256
24.19027,133535
24.19838,132136
24.20652,130250
24.21463,121022
24.22275,118756
24.23088,114474
24.23900,111925
24.24713,112876
24.25525,108208
24.26337,103683
24.27150,105764
24.27962,106843
24.28773,106480
24.29587,117655
24.30398,127652
24.31212,141114
24.32023,151091
24.32835,146941
24.33648,141253
24.34460,122774
24.35273,105743
24.36085,104199
24.36897,101229
24.37710,96823
24.38522,94013
24.39335,92952
24.40147,96056
24.40958,94157
24.41772,101195
24.42583,104866
24.43395,110290
24.44208,113152
24.45020,103956
24.45833,116350
24.46645,103556
24.47457,87320
24.48270,83575
24.49082,85366
24.49895,79322
24.50707,80217
24.51518,78488
24.52332,79386
24.53143,84131
24.53957,85278
24.54768,84599
24.55580,84539
24.56393,82459
24.57205,80001
24.58017,67971
24.58830,67029
24.59642,63436
24.60455,67354
24.61267,63420
24.62078,57884
24.62892,56276
24.63703,57185
24.64517,54460
24.65328,52268
24.66140,60055
24.66953,56425
24.67765,55104
24.68577,53809
24.69390,53861
24.70202,52016
24.71015,55358
24.71827,56205
24.72638,48820
24.73452,50167
24.74263,50102
24.75077,58384
24.75888,54058
24.76700,54766
24.77513,54782
24.78325,55593
24.79138,57376
24.79950,56227
24.80762,52501
24.81575,56567
24.82387,58472
24.83198,61271
24.84012,72200
24.84823,87644
24.85637,96167
24.86448,114645
24.87260,126206
24.88073,137573
24.88885,132316
24.89698,116896
24.90510,98658
24.91322,85131
24.92135,70782
24.92947,62446
24.93760,67678
24.94572,75437
24.95383,96354
24.96197,124935
24.97008,158220
24.97820,168641
24.98633,182708
24.99445,188572
25.00258,192829
25.01070,190704
25.01882,207925
25.02695,196281
25.03507,200211
25.04320,202155
25.05132,203836
25.05943,200254
25.06757,197598
25.07568,203311
25.08380,205539
25.09193,228794
25.10005,276446
25.10818,391748
25.11630,554066
25.12442,726915
25.13255,879056
25.14067,910175
25.14880,804357
25.15692,655455
25.16503,487880
25.17317,362246
25.18128,273362
25.18942,230779
25.19753,210196
25.20565,186394
25.21378,175615
25.22190,178009
25.23002,182035
25.23815,190425
25.24627,187874
25.25440,203300
25.26252,197965
25.27063,201392
25.27877,190002
25.28688,166771
25.29502,154401
25.30313,142999
25.31125,137788
25.31938,127080
25.32750,125740
25.33562,124000
25.34375,113932
25.35187,108413
25.36000,111497
25.36812,105518
25.37623,103125
25.38437,102947
25.39248,102274
25.40062,104753
25.40873,96131
25.41685,94334
25.42498,89798
25.43310,88401
25.44123,89482
25.44935,85796
25.45747,86150
25.46560,81478
25.47372,83839
25.48183,79662
25.48997,79289
25.49808,83236
25.50622,75605
25.51433,73572
25.52245,78716
25.53058,71750
25.53870,73727
25.54683,68325
25.55495,66130
25.56307,67014
25.57120,68152
25.57932,64641
25.58745,64435
25.59557,61309
25.60368,64221
25.61182,59881
25.61993,62184
25.62805,61003
25.63618,57612
25.64430,60824
25.65243,61107
25.66055,61203
25.66867,58909
25.67680,54541
25.68492,56882
25.69305,57385
25.70117,55045
25.70928,55349
25.71742,55939
25.72553,52780
25.73367,56104
25.74178,53203
25.74990,52203
25.75803,56491
25.76615,56282
25.77427,54165
25.78240,57374
25.79052,53222
25.79865,51518
25.80677,51157
25.81488,51248
25.82302,49166
25.83113,50954
25.83927,49642
25.84738,49292
25.85550,55700
25.86363,48065
25.87175,46678
25.87987,46555
25.88800,46350
25.89612,44501
25.90425,45210
25.91237,45117
25.92048,45259
25.92862,45655
25.93673,45977
25.94487,46641
25.95298,43202
25.96110,40441
25.96923,46413
25.97735,43800
25.98548,42307
25.99360,41469
26.00172,43371
26.00985,43036
26.01797,38404
26.02608,44077
26.03422,41335
26.04233,44302
26.05047,42901
26.05858,48540
26.06670,44034
26.07483,39472
26.08295,44511
26.09108,45018
26.09920,43545
26.10732,46852
26.11545,43349
26.12357,47018
26.13168,50570
26.13982,52664
26.14793,54463
26.15607,51786
26.16418,58178
26.17230,53702
26.18043,53542
26.18855,53075
26.19668,52647
26.20480,49260
26.21292,43491
26.22105,46785
26.22917,47490
26.23730,40845
26.24542,43589
26.25353,51339
26.26167,44141
26.26978,42696
26.27790,40455
26.28603,42278
26.29415,43974
26.30228,45366
26.31040,44965
26.31852,44150
26.32665,43519
26.33477,43520
26.34290,45397
26.35102,44128
26.35913,43847
26.36727,47324
26.37538,51325
26.38350,48628
26.39163,48981
26.39975,51480
26.40788,44603
26.41600,48136
26.42412,44980
26.43225,44408
26.44037,47100
26.44850,44763
26.45662,43652
26.46473,43186
26.47287,46004
26.48098,43423
26.48912,50164
26.49723,42044
26.50535,42802
26.51348,42242
26.52160,37373
26.52972,40680
26.53785,39884
26.54597,37256
26.55410,39206
26.56222,38867
26.57033,40577
26.57847,37020
26.58658,39086
26.59472,41888
26.60283,38957
26.61095,37038
26.61908,39930
26.62720,37464
26.63533,40369
26.64345,42203
26.65157,41652
26.65970,40893
26.66782,42556
26.67593,43354
26.68407,43815
26.69218,42217
26.70032,37229
26.70843,40753
26.71655,40325
26.72468,37615
26.73280,40091
26.74093,40730
26.74905,40032
26.75717,41304
26.76530,43323
26.77342,44017
26.78155,42101
26.78967,43638
26.79778,38669
26.80592,41668
26.81403,38441
26.82215,40312
26.83028,37325
26.83840,46202
26.84653,40233
26.85465,35828
26.86277,35812
26.87090,37143
26.87902,38787
26.88715,37681
26.89527,33146
26.90338,37008
26.91152,37884
26.91963,40404
26.92775,42877
26.93588,51620
26.94400,81399
26.95213,138962
26.96025,244758
26.96837,383187
26.97650,591025
26.98462,805999
26.99275,970255
27.00087,1044952
27.00898,1029746
27.01712,918605
27.02523,721283
27.03337,592966
27.04148,464847
27.04960,374328
27.05773,296753
27.06585,243440
27.07397,205355
27.08210,179288
27.09022,157798
27.09835,140173
27.10647,137942
27.11458,119744
27.12272,115788
27.13083,103454
27.13897,102351
27.14708,98491
27.15520,98946
27.16333,99273
27.17145,97164
27.17957,90476
27.18770,93105
27.19582,81526
27.20395,77728
27.21207,72599
27.22018,69806
27.22832,70075
27.23643,67547
27.24457,66999
27.25268,62083
27.26080,65231
27.26893,60463
27.27705,59063
27.28518,57859
27.29330,59851
27.30142,55614
27.30955,56039
27.31767,58425
27.32578,52937
27.33392,57107
27.34203,52911
27.35017,51279
27.35828,57129
27.36640,56385
27.37453,54396
27.38265,52371
27.39078,53067
27.39890,48458
27.40702,51649
27.41515,49324
27.42327,50436
27.43140,57770
27.43952,57210
27.44763,53707
27.45577,51885
27.46388,50084
27.47200,45588
27.48013,49997
27.48825,49352
27.49638,49622
27.50450,51371
27.51262,50363
27.52075,51935
27.52887,52609
27.53700,51927
27.54512,52673
27.55323,49542
27.56137,47927
27.56948,53298
27.57760,47672
27.58573,49708
27.59385,53936
27.60198,48403
27.61010,44252
27.61822,42185
27.62635,42965
27.63447,42407
27.64260,41659
27.65072,40301
27.65883,43580
27.66697,41803
27.67508,42358
27.68322,42310
27.69133,46020
27.69945,43396
27.70758,41520
27.71570,41763
27.72382,44768
27.73195,46331
27.74007,46150
27.74820,51560
27.75632,47114
27.76443,47241
27.77257,42982
27.78068,37706
27.78882,39618
27.79693,40078
27.80505,38495
27.81318,39287
27.82130,40444
27.82943,37969
27.83755,40416
27.84567,39674
27.85380,41053
27.86192,40067
27.87003,36825
27.87817,40376
27.88628,37403
27.89442,43549
27.90253,36911
27.91065,36050
27.91878,35856
27.92690,35663
27.93503,36735
27.94315,39795
27.95127,37063
27.95940,37892
27.96752,39410
27.97563,39537
27.98377,44066
27.99188,41234
28.00002,43022
28.00813,44048
28.01625,44349
28.02438,51472
28.03250,50407
28.04063,48377
28.04875,50266
28.05687,45597
28.06500,43625
28.07312,41531
28.08125,41771
28.08937,40406
28.09748,47465
28.10562,51236
28.11373,54886
28.12185,54519
28.12998,46858
28.13810,44943
28.14623,43699
28.15435,40814
28.16247,34414
28.17060,39489
28.17872,39720
28.18685,41092
28.19497,47182
28.20308,44938
28.21122,43125
28.21933,43548
28.22745,42334
28.23558,44208
28.24370,47181
28.25183,54000
28.25995,66615
28.26807,86988
28.27620,113114
28.28432,128367
28.29245,159421
28.30057,181084
28.30868,198291
28.31682,196270
28.32493,200518
28.33307,196946
28.34118,179697
28.34930,173729
28.35743,157530
28.36555,140540
28.37367,124392
28.38180,115351
28.38992,101955
28.39805,98200
28.40617,87743
28.41428,84474
28.42242,74754
28.43053,71623
28.43867,62568
28.44678,64445
28.45490,60153
28.46303,57957
28.47115,55390
28.47928,57867
28.48740,56720
28.49552,52616
28.50365,52030
28.51177,47731
28.51988,46581
28.52802,47892
28.53613,45813
28.54427,44954
28.55238,46031
28.56050,46599
28.56863,46136
28.57675,46278
28.58488,45437
28.59300,48264
28.60112,43062
28.60925,43662
28.61737,48770
28.62548,49741
28.63362,51763
28.64173,54255
28.64987,57517
28.65798,62547
28.66610,67235
28.67423,66527
28.68235,71086
28.69048,75709
28.69860,69644
28.70672,63432
28.71485,53062
28.72297,45973
28.73110,41463
28.73922,38551
28.74733,38467
28.75547,40315
28.76358,38294
28.77170,39631
28.77983,40013
28.78795,40712
28.79608,43828
28.80420,43099
28.81232,41445
28.82045,38815
28.82857,39043
28.83670,40922
28.84482,40200
28.85293,36816
28.86107,41511
28.86918,40817
28.87732,42684
28.88543,42052
28.89355,40466
28.90168,42306
28.90980,36021
28.91792,41850
28.92605,39168
28.93417,39706
28.94230,43127
28.95042,47796
28.95853,41948
28.96667,43059
28.97478,38388
28.98292,39911
28.99103,38562
28.99915,38282
29.00728,39775
29.01540,39849
29.02352,38703
29.03165,37099
29.03977,35775
29.04790,39209
29.05602,37048
29.06413,37610
29.07227,37464
29.08038,35452
29.08852,35074
29.09663,36474
29.10475,36547
29.11288,36422
29.12100,36483
29.12913,34962
29.13725,39036
29.14537,36774
29.15350,37529
29.16162,37929
29.16973,40923
29.17787,42415
29.18598,42222
29.19412,39958
29.20223,46533
29.21035,45725
29.21848,46645
29.22660,43019
29.23473,41784
29.24285,43491
29.25097,41138
29.25910,42469
29.26722,44380
29.27535,39964
29.28347,37729
29.29158,33351
29.29972,34629
29.30783,35255
29.31595,32610
29.32408,35210
29.33220,32681
29.34033,31247
29.34845,33710
29.35657,34285
29.36470,36096
29.37282,35566
29.38095,37911
29.38907,37266
29.39718,39119
29.40532,41926
29.41343,40412
29.42155,37481
29.42968,36431
29.43780,35189
29.44593,34059
29.45405,36354
29.46217,33174
29.47030,35431
29.47842,39010
29.48655,44461
29.49467,40614
29.50278,43754
29.51092,40560
29.51903,37366
29.52717,37188
29.53528,36619
29.54340,34954
29.55153,37705
29.55965,34048
29.56777,36836
29.57590,39992
29.58402,35727
29.59215,33356
29.60027,39175
29.60838,37569
29.61652,38320
29.62463,33267
29.63277,32337
29.64088,34483
29.64900,32869
29.65713,34666
29.66525,33066
29.67337,31052
29.68150,36626
29.68962,35510
29.69775,30535
29.70587,32802
29.71398,34545
29.72212,31845
29.73023,33736
29.73837,33307
29.74648,32368
29.75460,29760
29.76273,29204
29.77085,28331
29.77898,29797
29.78710,32244
29.79522,30626
29.80335,29992
29.81147,29723
29.81958,30407
29.82772,27150
29.83583,32063
29.84397,32747
29.85208,34477
29.86020,40932
29.86833,46095
29.87645,59600
29.88458,66036
29.89270,76683
29.90082,83983
29.90895,82587
29.91707,89760
29.92520,88820
29.93332,89878
29.94143,90888
29.94957,87908
29.95768,93154
29.96580,89117
29.97393,87547
29.98205,85318
29.99018,85553
29.99830,72860
30.00642,74032
30.01455,73384
30.02267,65230
30.03080,63963
30.03892,62473
30.04703,60177
30.05517,58359
30.06328,63062
30.07140,58618
30.07953,63808
30.08765,65265
30.09578,60578
30.10390,60195
30.11202,61187
30.12015,62183
30.12827,62429
30.13640,55046
30.14452,60051
30.15263,58463
30.16077,59451
30.16888,57803
30.17702,55081
30.18513,59037
30.19325,59830
30.20138,54743
30.20950,48194
30.21762,50556
30.22575,43961
30.23387,50453
30.24200,42774
30.25012,48485
30.25823,43947
30.26637,45860
30.27448,43259
30.28262,45642
30.29073,47364
30.29885,47428
30.30698,43011
30.31510,44800
30.32323,48999
30.33135,42958
30.33947,41303
30.34760,42714
30.35572,41985
30.36383,42653
30.37197,42655
30.38008,41380
30.38822,44891
30.39633,42482
30.40445,38221
30.41258,41283
30.42070,40573
30.42883,40247
30.43695,40252
30.44507,39157
30.45320,38563
30.46132,39187
30.46943,37681
30.47757,37429
30.48568,35486
30.49382,39283
30.50193,38895
30.51005,36184
30.51818,39681
30.52630,35078
30.53443,37358
30.54255,37339
30.55067,38530
30.55880,38020
30.56692,36876
30.57505,38197
30.58317,41637
30.59128,38942
30.59942,37678
30.60753,35827
30.61565,36464
30.62378,35588
30.63190,35315
30.64003,35912
30.64815,32103
30.65627,34801
30.66440,34723
30.67252,37431
30.68065,36961
30.68877,34438
30.69688,36301
30.70502,36401
30.71313,33480
30.72125,34326
30.72938,33945
30.73750,34096
30.74563,34285
30.75375,39057
30.76187,46360
30.77000,48224
30.77812,50133
30.78625,63683
30.79437,64694
30.80248,67409
30.81062,63004
30.81873,55862
30.82687,48815
30.83498,41054
30.84310,39751
30.85123,39270
30.85935,37352
30.86747,34578
30.87560,34801
30.88372,34665
30.89185,37725
30.89997,34886
30.90808,31148
30.91622,33720
30.92433,35645
30.93247,39422
30.94058,35717
30.94870,32562
30.95683,34222
30.96495,35987
30.97308,33438
30.98120,35724
30.98932,38947
30.99745,34470
31.00557,36429
31.01368,38844
31.02182,35360
31.02993,32638
31.03807,34546
31.04618,36131
31.05430,37091
31.06243,40604
31.07055,46139
31.07868,52960
31.08680,54843
31.09492,56167
31.10305,52905
31.11117,51150
31.11928,42433
31.12742,41143
31.13553,39556
31.14367,41003
31.15178,41342
31.15990,40377
31.16803,41589
31.17615,40598
31.18428,37166
31.19240,38336
31.20052,36472
31.20865,36155
31.21677,35955
31.22490,34485
31.23302,35675
31.24113,32433
31.24927,33173
31.25738,34509
31.26550,34233
31.27363,35111
31.28175,35225
31.28988,38257
31.29800,40376
31.30612,37307
31.31425,40471
31.32237,41117
31.33050,38553
31.33862,37201
31.34673,33736
31.35487,34580
31.36298,36429
31.37112,39051
31.37923,39538
31.38735,37173
31.39548,34074
31.40360,34548
31.41172,32966
31.41985,35637
31.42797,35068
31.43610,34344
31.44422,33293
31.45233,39414
31.46047,32086
31.46858,36795
31.47672,32503
31.48483,33859
31.49295,35753
31.50108,35679
31.50920,32639
31.51732,32964
31.52545,35362
31.53357,42508
31.54170,34014
31.54982,31201
31.55793,34749
31.56607,32192
31.57418,34003
31.58232,34677
31.59043,32248
31.59855,32424
31.60668,35611
31.61480,32122
31.62293,33673
31.63105,35621
31.63917,34922
31.64730,33608
31.65542,33774
31.66353,34584
31.67167,36686
31.67978,33677
31.68792,38096
31.69603,36819
31.70415,38439
31.71228,36031
31.72040,31925
31.72853,33787
31.73665,34141
31.74477,32523
31.75290,31866
31.76102,32242
31.76913,34262
31.77727,35063
31.78538,39632
31.79352,39749
31.80163,43462
31.80975,39549
31.81788,43724
31.82600,45082
31.83413,51376
31.84225,61776
31.85037,63370
31.85850,71683
31.86662,76548
31.87475,77477
31.88287,78574
31.89098,78818
31.89912,78118
31.90723,75342
31.91535,67313
31.92348,62659
31.93160,61899
31.93973,63621
31.94785,56188
31.95597,65087
31.96410,63912
31.97222,57765
31.98035,63013
31.98847,58206
31.99658,55444
32.00472,51834
32.01283,50157
32.02097,49127
32.02908,51068
32.03720,47196
32.04533,43763
32.05345,47421
32.06157,42705
32.06970,43692
32.07782,39530
32.08595,41306
32.09407,38355
32.10218,37265
32.11032,38378
32.11843,38520
32.12657,37918
32.13468,36413
32.14280,34362
32.15093,36776
32.15905,37285
32.16718,38499
32.17530,38351
32.18342,34887
32.19155,32945
32.19967,33923
32.20778,35953
32.21592,42145
32.22403,36028
32.23217,34367
32.24028,36476
32.24840,38770
32.25653,37043
32.26465,35655
32.27278,37730
32.28090,37233
32.28902,34869
32.29715,34196
32.30527,36857
32.31338,34069
32.32152,41207
32.32963,37096
32.33777,39285
32.34588,36829
32.35400,35349
32.36213,36366
32.37025,37225
32.37838,34551
32.38650,33942
32.39462,36580
32.40275,33443
32.41087,34629
32.41900,34433
32.42712,34819
32.43523,34261
32.44337,36078
32.45148,35168
32.45960,34492
32.46773,30691
32.47585,35631
32.48398,32546
32.49210,31546
32.50022,34196
32.50835,35512
32.51647,31181
32.52460,32850
32.53272,37793
32.54083,41175
32.54897,40478
32.55708,47702
32.56520,51610
32.57333,52334
32.58145,59112
32.58958,52382
32.59770,49748
32.60582,42116
32.61395,42086
32.62207,36737
32.63020,32618
32.63832,33899
32.64643,37870
32.65457,37643
32.66268,33538
32.67082,38136
32.67893,39568
32.68705,39930
32.69518,38515
32.70330,43061
32.71142,40600
32.71955,38810
32.72767,40131
32.73580,38468
32.74392,39006
32.75203,34655
32.76017,32222
32.76828,36528
32.77642,33691
32.78453,34472
32.79265,33354
32.80078,31732
32.80890,33112
32.81703,33028
32.82515,30146
32.83327,32425
32.84140,35251
32.84952,31703
32.85763,35548
32.86577,32852
32.87388,34840
32.88202,37358
32.89013,33819
32.89825,36340
32.90638,34899
32.91450,35651
32.92263,34932
32.93075,32452
32.93887,35263
32.94700,33314
32.95512,32880
32.96323,38714
32.97137,39412
32.97948,37220
32.98762,40319
32.99573,43944
33.00385,40779
33.01198,43203
33.02010,37366
33.02823,31552
33.03635,35114
33.04447,39583
33.05260,35994
33.06072,37789
33.06885,40931
33.07697,51335
33.08508,47316
33.09322,46499
33.10133,52881
33.10945,55601
33.11758,50560
33.12570,52157
33.13383,45579
33.14195,40279
33.15007,40104
33.15820,37492
33.16632,38274
33.17445,35202
33.18257,35007
33.19068,37533
33.19882,34472
33.20693,37072
33.21507,36998
33.22318,36135
33.23130,36163
33.23943,36141
33.24755,33450
33.25567,38885
33.26380,34480
33.27192,35931
33.28005,33700
33.28817,34883
33.29628,35794
33.30442,36715
33.31253,34485
33.32067,34850
33.32878,34152
33.33690,34506
33.34503,35111
33.35315,34477
33.36127,33385
33.36940,37300
33.37752,35815
33.38565,32686
33.39377,33015
33.40188,35176
33.41002,33340
33.41813,34220
33.42627,36279
33.43438,35109
33.44250,33577
33.45063,33584
33.45875,34688
33.46688,36654
33.47500,31658
33.48312,33996
33.49125,38424
33.49937,39330
33.50748,33410
33.51562,33970
33.52373,33307
33.53187,40800
33.53998,31484
33.54810,35560
33.55623,36738
33.56435,37793
33.57248,37942
33.58060,38907
33.58872,36655
33.59685,37058
33.60497,36655
33.61308,37882
33.62122,39318
33.62933,36981
33.63747,38749
33.64558,37808
33.65370,39212
33.66183,38172
33.66995,36833
33.67808,37198
33.68620,34887
33.69432,40392
33.70245,37732
33.71057,40276
33.71870,36218
33.72682,40151
33.73493,44105
33.74307,42387
33.75118,42524
33.75930,40335
33.76743,35851
33.77555,39804
33.78368,38296
33.79180,40259
33.79992,37401
33.80805,39812
33.81617,43883
33.82430,41189
33.83242,41484
33.84053,43718
33.84867,40674
33.85678,43674
33.86492,40502
33.87303,40927
33.88115,40039
33.88928,35953
33.89740,37796
33.90552,37052
33.91365,41184
33.92177,41342
33.92990,39271
33.93802,41633
33.94613,36363
33.95427,35954
33.96238,35721
33.97052,35910
33.97863,37013
33.98675,36946
33.99488,33883
34.00300,38121
34.01112,36985
34.01925,35974
34.02737,38249
34.03550,37872
34.04362,35303
34.05173,36551
34.05987,37387
34.06798,37451
34.07612,36443
34.08423,37579
34.09235,36260
34.10048,38552
34.10860,37933
34.11673,37645
34.12485,32329
34.13297,35912
34.14110,37791
34.14922,35684
34.15733,36473
34.16547,38364
34.17358,36710
34.18172,40954
34.18983,35318
34.19795,35534
34.20608,33679
34.21420,36139
34.22233,36097
34.23045,36449
34.23857,35949
34.24670,35617
34.25482,37727
34.26295,35757
34.27107,37278
34.27918,36370
34.28732,36043
34.29543,36121
34.30355,35180
34.31168,40967
34.31980,38188
34.32793,35971
34.33605,37470
34.34417,41592
34.35230,39194
34.36042,36357
34.36855,36296
34.37667,38349
34.38478,33508
34.39292,38808
34.40103,40621
34.40915,44464
34.41728,44245
34.42540,47678
34.43353,55475
34.44165,60643
34.44977,71905
34.45790,79004
34.46602,81151
34.47415,87963
34.48227,82166
34.49038,83912
34.49852,79540
34.50663,69255
34.51477,66886
34.52288,61184
34.53100,62158
34.53913,55698
34.54725,55404
34.55537,51923
34.56350,47880
34.57162,48203
34.57975,48926
34.58787,49810
34.59598,42971
34.60412,44981
34.61223,42359
34.62037,50734
34.62848,49602
34.63660,42547
34.64473,42013
34.65285,44117
34.66097,44346
34.66910,37465
34.67722,42885
34.68535,41429
34.69347,40453
34.70158,41513
34.70972,40861
34.71783,39660
34.72597,43618
34.73408,42326
34.74220,40804
34.75033,40473
34.75845,40660
34.76658,40580
34.77470,41601
34.78282,39464
34.79095,41784
34.79907,38158
34.80718,37523
34.81532,43425
34.82343,42423
34.83157,41454
34.83968,42799
34.84780,43564
34.85593,46112
34.86405,43888
34.87218,40215
34.88030,40980
34.88842,44300
34.89655,41267
34.90467,38107
34.91280,42234
34.92092,40737
34.92903,42642
34.93717,42702
34.94528,43001
34.95340,43525
34.96153,42399
34.96965,42198
34.97778,40120
34.98590,42206
34.99402,39776
35.00215,43159
35.01027,43851
35.01840,46118
35.02652,42737
35.03463,39842
35.04277,44761
35.05088,46814
35.05900,46681
35.06713,42962
35.07525,47186
35.08338,45666
35.09150,41298
35.09962,42235
35.10775,39137
35.11587,41151
35.12400,44119
35.13212,42769
35.14023,49083
35.14837,42882
35.15648,45808
35.16462,41302
35.17273,43005
35.18085,41978
35.18898,42027
35.19710,42895
35.20522,40772
35.21335,41791
35.22147,43305
35.22960,39206
35.23772,44562
35.24583,46039
35.25397,41118
35.26208,46240
35.27022,46339
35.27833,41724
35.28645,41669
35.29458,39510
35.30270,42429
35.31083,40477
35.31895,40867
35.32707,38414
35.33520,42703
35.34332,39998
35.35143,40670
35.35957,39555
35.36768,44876
35.37582,37765
35.38393,44401
35.39205,43862
35.40018,45045
35.40830,40407
35.41643,41309
35.42455,43969
35.43267,42227
35.44080,42545
35.44892,45980
35.45703,46269
35.46517,45520
35.47328,43060
35.48142,40144
35.48953,43827
35.49765,41782
35.50578,42524
35.51390,42807
35.52203,44371
35.53015,44105
35.53827,44870
35.54640,48656
35.55452,50870
35.56265,55913
35.57077,54262
35.57888,58082
35.58702,57065
35.59513,50885
35.60325,50741
35.61138,53160
35.61950,48786
35.62763,47839
35.63575,45338
35.64387,48915
35.65200,44945
35.66012,46018
35.66825,48835
35.67637,46071
35.68448,48487
35.69262,44405
35.70073,46073
35.70887,47499
35.71698,48821
35.72510,46696
35.73323,48473
35.74135,48586
35.74947,50247
35.75760,47054
35.76572,47758
35.77385,50527
35.78197,52204
35.79008,48670
35.79822,48274
35.80633,50405
35.81447,49582
35.82258,50474
35.83070,46137
35.83883,44739
35.84695,43936
35.85507,51993
35.86320,47010
35.87132,46085
35.87945,47489
35.88757,47169
35.89568,45360
35.90382,44173
35.91193,48429
35.92007,46051
35.92818,44728
35.93630,47170
35.94443,45070
35.95255,44250
35.96068,44396
35.96880,48006
35.97692,54725
35.98505,45244
35.99317,46720
36.00128,49934
36.00942,53096
36.01753,51077
36.02567,48101
36.03378,46454
36.04190,43899
36.05003,46414
36.05815,44539
36.06628,45695
36.07440,50569
36.08252,47171
36.09065,50898
36.09877,47782
36.10688,48179
36.11502,50119
36.12313,51655
36.13127,52772
36.13938,50575
36.14750,49822
36.15563,45343
36.16375,47414
36.17188,47758
36.18000,52778
36.18812,53444
36.19625,59719
36.20437,62911
36.21250,71365
36.22062,75817
36.22873,69597
36.23687,67168
36.24498,58536
36.25310,53606
36.26123,51902
36.26935,50870
36.27748,48904
36.28560,50136
36.29372,51573
36.30185,48810
36.30997,50574
36.31810,50758
36.32622,55565
36.33433,47522
36.34247,50245
36.35058,48383
36.35872,48102
36.36683,46082
36.37495,48914
36.38308,52981
36.39120,52231
36.39932,49735
36.40745,50976
36.41557,47329
36.42370,47262
36.43182,53006
36.43993,48657
36.44807,48619
36.45618,50036
36.46432,48525
36.47243,50340
36.48055,52183
36.48868,51965
36.49680,51304
36.50492,54308
36.51305,52376
36.52117,50842
36.52930,52502
36.53742,52942
36.54553,54553
36.55367,57686
36.56178,53534
36.56992,58056
36.57803,55645
36.58615,51340
36.59428,53062
36.60240,51503
36.61053,51705
36.61865,54563
36.62677,51664
36.63490,55224
36.64302,53305
36.65113,51691
36.65927,53310
36.66738,51590
36.67552,54251
36.68363,55322
36.69175,55005
36.69988,50661
36.70800,56471
36.71613,54947
36.72425,54482
36.73237,56665
36.74050,54683
36.74862,54661
36.75675,55194
36.76487,56038
36.77298,57765
36.78112,54600
36.78923,54043
36.79735,53007
36.80548,56404
36.81360,51700
36.82173,51359
36.82985,55518
36.83797,56447
36.84610,55808
36.85422,54263
36.86235,54388
36.87047,54530
36.87858,52799
36.88672,55057
36.89483,56532
36.90295,57294
36.91108,55977
36.91920,58922
36.92733,55875
36.93545,58476
36.94357,62171
36.95170,58735
36.95982,60430
36.96795,62625
36.97607,65206
36.98418,62518
36.99232,66951
37.00043,70638
37.00857,73035
37.01668,78219
37.02480,76872
37.03293,74697
37.04105,70017
37.04917,63523
37.05730,67308
37.06542,63326
37.07355,61959
37.08167,62915
37.08978,59946
37.09792,60117
37.10603,61495
37.11417,59669
37.12228,60842
37.13040,61928
37.13853,61847
37.14665,63255
37.15477,63706
37.16290,63953
37.17102,58227
37.17915,59936
37.18727,67136
37.19538,63562
37.20352,66360
37.21163,67698
37.21977,67769
37.22788,77036
37.23600,85608
37.24413,86578
37.25225,102725
37.26038,98034
37.26850,102152
37.27662,101811
37.28475,97996
37.29287,89895
37.30098,85458
37.30912,79007
37.31723,76704
37.32537,82769
37.33348,71572
37.34160,74979
37.34973,75730
37.35785,71682
37.36598,69592
37.37410,70667
37.38222,69929
37.39035,70385
37.39847,72565
37.40660,65837
37.41472,66969
37.42283,65944
37.43097,60052
37.43908,62972
37.44720,62742
37.45533,68042
37.46345,68634
37.47158,66935
37.47970,68150
37.48782,64581
