D:\MassHunter\GCMS\1\data\JTB-E02\BACandSTRAW\JTB-E02-208-24.D Thu Mar 14 13:20:40 2019
Start of data points
2.09528,121947
2.10342,128414
2.11153,127090
2.11967,127759
2.12778,120148
2.13590,130962
2.14403,123554
2.15215,112905
2.16027,121038
2.16840,115019
2.17652,105255
2.18465,107785
2.19277,104071
2.20088,106006
2.20902,110398
2.21713,94424
2.22527,90881
2.23338,95062
2.24150,87958
2.24963,83313
2.25775,90372
2.26587,86661
2.27400,81252
2.28212,82078
2.29025,88165
2.29837,85028
2.30648,86312
2.31462,80006
2.32273,83123
2.33087,80851
2.33898,83320
2.34710,78861
2.35523,84086
2.36335,78938
2.37148,79177
2.37960,79327
2.38772,102992
2.39585,2180114
2.40397,1.287232E+07
2.41208,1.445056E+07
2.42022,1.042488E+07
2.42833,5754557
2.43647,4466442
2.44458,3748030
2.45270,3167351
2.46083,2719891
2.46895,2350669
2.47708,2076461
2.48520,1846928
2.49332,1638996
2.50145,1480380
2.50957,1339123
2.51770,1235687
2.52582,1160574
2.53393,1080637
2.54207,1021189
2.55018,965979
2.55830,917280
2.56643,893359
2.57455,845928
2.58268,829761
2.59080,822069
2.59892,777644
2.60705,779530
2.61517,785870
2.62330,761363
2.63142,752563
2.63953,740338
2.64767,734375
2.65578,702359
2.66390,708175
2.67203,700962
2.68015,686863
2.68828,665541
2.69640,686806
2.70452,722800
2.71265,726988
2.72077,684863
2.72890,695274
2.73702,661011
2.74513,767722
2.75327,2943544
2.76138,9344450
2.76952,8605426
2.77763,4448873
2.78575,2690371
2.79388,2027847
2.80200,1618961
2.81012,1335975
2.81825,1133647
2.82637,1023425
2.83450,935128
2.84262,870204
2.85073,805205
2.85887,779314
2.86698,762420
2.87512,722166
2.88323,703434
2.89135,696857
2.89948,673165
2.90760,662575
2.91573,660215
2.92385,653319
2.93197,678466
2.94010,1015817
2.94822,1452843
2.95633,1136316
2.96447,835296
2.97258,733912
2.98072,707688
2.98883,672981
2.99695,652411
3.00508,640222
3.01320,613397
3.02133,615048
3.02945,603638
3.03757,607067
3.04570,594034
3.05382,578350
3.06193,570552
3.07007,578620
3.07818,555355
3.08632,564703
3.09443,557737
3.10255,550967
3.11068,547763
3.11880,534235
3.12693,552858
3.13505,551231
3.14317,544274
3.15130,530755
3.15942,529386
3.16755,541350
3.17567,570138
3.18378,567222
3.19192,540825
3.20003,529974
3.20815,530382
3.21628,509986
3.22440,513644
3.23253,545870
3.24065,596345
3.24877,711344
3.25690,813474
3.26502,1169738
3.27315,2304101
3.28127,8471693
3.28938,1.553435E+07
3.29752,1.308068E+07
3.30563,7736336
3.31377,5419021
3.32188,4364261
3.33000,3588126
3.33813,3052786
3.34625,2672483
3.35437,3500489
3.36250,1.649097E+07
3.37062,3.495224E+07
3.37875,3.907233E+07
3.38687,3.192531E+07
3.39498,2.460245E+07
3.40312,2.098504E+07
3.41123,1.81116E+07
3.41937,1.556936E+07
3.42748,1.353072E+07
3.43560,1.166596E+07
3.44373,1.023578E+07
3.45185,9068599
3.45998,8129136
3.46810,7645115
3.47622,7756726
3.48435,7706331
3.49247,7053653
3.50058,6276828
3.50872,5742442
3.51683,5218549
3.52497,4767230
3.53308,4414623
3.54120,4075436
3.54933,3838112
3.55745,3606981
3.56558,3343651
3.57370,3203154
3.58182,3000467
3.58995,2861694
3.59807,2725315
3.60618,2583516
3.61432,2451353
3.62243,2343824
3.63057,2233868
3.63868,2139268
3.64680,2057631
3.65493,1954513
3.66305,1874497
3.67118,1819660
3.67930,1746168
3.68742,1692612
3.69555,1634294
3.70367,1565029
3.71180,1517583
3.71992,1458240
3.72803,1424959
3.73617,1361049
3.74428,1321918
3.75240,1282207
3.76053,1259991
3.76865,1205419
3.77678,1205964
3.78490,1180450
3.79302,1136614
3.80115,1106535
3.80927,1088736
3.81740,1062928
3.82552,1032763
3.83363,999475
3.84177,962414
3.84988,1142563
3.85802,5807179
3.86613,3.437203E+07
3.87425,7.417038E+07
3.88238,9.805729E+07
3.89050,1.096447E+08
3.89862,1.131517E+08
3.90675,1.019416E+08
3.91487,7.729822E+07
3.92300,6.799948E+07
3.93112,6.134728E+07
3.93923,5.579722E+07
3.94737,5.12476E+07
3.95548,4.728647E+07
3.96362,4.403073E+07
3.97173,4.106247E+07
3.97985,3.874077E+07
3.98798,4.064922E+07
3.99610,5.086507E+07
4.00422,5.90074E+07
4.01235,5.288102E+07
4.02047,4.012878E+07
4.02860,3.29214E+07
4.03672,2.991568E+07
4.04483,2.785153E+07
4.05297,2.619753E+07
4.06108,2.495643E+07
4.06922,2.384414E+07
4.07733,2.271408E+07
4.08545,2.190237E+07
4.09358,2.149122E+07
4.10170,2.068296E+07
4.10983,1.978039E+07
4.11795,1.880736E+07
4.12607,1.808035E+07
4.13420,1.741078E+07
4.14232,1.684847E+07
4.15043,1.627758E+07
4.15857,1.562897E+07
4.16668,1.515169E+07
4.17482,1.476096E+07
4.18293,1.425745E+07
4.19105,1.377403E+07
4.19918,1.33224E+07
4.20730,1.291419E+07
4.21543,1.256697E+07
4.22355,1.218093E+07
4.23167,1.181418E+07
4.23980,1.142456E+07
4.24792,1.11628E+07
4.25605,1.086004E+07
4.26417,1.051532E+07
4.27228,1.019474E+07
4.28042,9907007
4.28853,9703388
4.29665,9489274
4.30478,9363688
4.31290,9117594
4.32103,8843137
4.32915,8557599
4.33727,8322249
4.34540,8152666
4.35352,7921520
4.36165,7819389
4.36977,7732761
4.37788,8133423
4.38602,9100488
4.39413,9789589
4.40225,8962196
4.41038,7832305
4.41850,7156397
4.42663,6811370
4.43475,6585972
4.44287,6414739
4.45100,6772725
4.45912,1.051663E+07
4.46725,2.072807E+07
4.47537,3.071508E+07
4.48348,3.68722E+07
4.49162,3.780814E+07
4.49973,3.123935E+07
4.50787,2.182595E+07
4.51598,1.662286E+07
4.52410,1.354037E+07
4.53223,1.140512E+07
4.54035,9846679
4.54847,8763310
4.55660,8050404
4.56472,7345281
4.57285,6856883
4.58097,6458530
4.58908,6128930
4.59722,5872842
4.60533,5597478
4.61347,5441629
4.62158,5246991
4.62970,5047803
4.63783,4892136
4.64595,4775641
4.65408,4665370
4.66220,4526105
4.67032,4405303
4.67845,4315755
4.68657,4231023
4.69468,4175750
4.70282,4075197
4.71093,4018161
4.71907,3961973
4.72718,3887360
4.73530,3791201
4.74343,3709603
4.75155,3675980
4.75968,3688268
4.76780,4332809
4.77592,6692500
4.78405,9473230
4.79217,9417387
4.80030,6946857
4.80842,5082595
4.81653,4309626
4.82467,4000698
4.83278,3861500
4.84090,3897345
4.84903,4023380
4.85715,3955178
4.86528,3670514
4.87340,3506516
4.88152,3408307
4.88965,3428005
4.89777,3881923
4.90590,5740635
4.91402,9103591
4.92213,1.098151E+07
4.93027,9212232
4.93838,6343898
4.94650,4595174
4.95463,3867362
4.96275,3543343
4.97088,3315337
4.97900,3180250
4.98712,3040874
4.99525,2972614
5.00337,2922498
5.01150,2802220
5.01962,2864923
5.02773,3628824
5.03587,6371193
5.04398,1.077901E+07
5.05212,1.244175E+07
5.06023,9833625
5.06835,6481754
5.07648,4786753
5.08460,4494191
5.09272,4770729
5.10085,4812771
5.10897,4165327
5.11710,3599459
5.12522,3246035
5.13333,3038777
5.14147,2952848
5.14958,3022557
5.15772,3193236
5.16583,3454329
5.17395,3578150
5.18208,3426799
5.19020,3188119
5.19833,3089764
5.20645,3636465
5.21457,6914183
5.22270,1.445438E+07
5.23082,2.118652E+07
5.23893,2.004392E+07
5.24707,1.395921E+07
5.25518,9424936
5.26332,7435236
5.27143,6094277
5.27955,5092817
5.28768,4438557
5.29580,4005948
5.30393,3736077
5.31205,3558808
5.32017,3404493
5.32830,3236980
5.33642,3160404
5.34453,3037700
5.35267,2920208
5.36078,2870480
5.36892,2792864
5.37703,2735586
5.38515,2691500
5.39328,2612617
5.40140,2474591
5.40953,2352446
5.41765,2322095
5.42577,2303529
5.43390,2233042
5.44202,2195472
5.45015,2161078
5.45827,2119950
5.46638,2069835
5.47452,2038355
5.48263,2007857
5.49075,1967905
5.49888,1945968
5.50700,1925295
5.51513,1891025
5.52325,1855420
5.53137,1854127
5.53950,1821467
5.54762,1780397
5.55575,1782581
5.56387,1789339
5.57198,1725522
5.58012,1714880
5.58823,1741269
5.59637,1797618
5.60448,1940737
5.61260,2076993
5.62073,2047434
5.62885,1896737
5.63697,1843069
5.64510,2442729
5.65322,3907010
5.66135,5838343
5.66947,6497139
5.67758,5375280
5.68572,3767900
5.69383,2931958
5.70197,3741443
5.71008,7085774
5.71820,1.182135E+07
5.72633,1.414713E+07
5.73445,1.182369E+07
5.74257,7550901
5.75070,4623490
5.75882,3253450
5.76695,2687413
5.77507,2339218
5.78318,2170558
5.79132,2049378
5.79943,1974823
5.80757,1903057
5.81568,1955873
5.82380,2361560
5.83193,3308029
5.84005,4212065
5.84818,4217196
5.85630,3326044
5.86442,2478263
5.87255,1991610
5.88067,1805897
5.88878,1682356
5.89692,1611414
5.90503,1540790
5.91317,1502447
5.92128,1461474
5.92940,1422190
5.93753,1384106
5.94565,1377478
5.95378,1334279
5.96190,1314306
5.97002,1364779
5.97815,1347264
5.98627,1409218
5.99440,1407974
6.00252,1372745
6.01063,1338023
6.01877,1274317
6.02688,1246445
6.03500,1217922
6.04313,1212816
6.05125,1174966
6.05938,1151665
6.06750,1131483
6.07562,1101235
6.08375,1093507
6.09187,1089809
6.10000,1081023
6.10812,1071882
6.11623,1049897
6.12437,1026605
6.13248,1042351
6.14062,1019423
6.14873,1019766
6.15685,1108433
6.16498,1948360
6.17310,6722992
6.18122,2.288712E+07
6.18935,5.129173E+07
6.19747,7.833308E+07
6.20560,9.832461E+07
6.21372,1.078352E+08
6.22183,9.889674E+07
6.22997,6.487828E+07
6.23808,3.315061E+07
6.24622,2.09896E+07
6.25433,1.689692E+07
6.26245,1.477488E+07
6.27058,1.469744E+07
6.27870,1.731117E+07
6.28682,2.124351E+07
6.29495,2.248819E+07
6.30307,1.928226E+07
6.31120,1.41171E+07
6.31932,1.062147E+07
6.32743,8878329
6.33557,7984143
6.34368,7390942
6.35182,7033642
6.35993,6645022
6.36805,6405444
6.37618,6113320
6.38430,5769070
6.39243,5351651
6.40055,5021030
6.40867,4835059
6.41680,4653651
6.42492,4517077
6.43303,4379854
6.44117,4317198
6.44928,4178784
6.45742,4043114
6.46553,3888247
6.47365,3793106
6.48178,3616392
6.48990,3476635
6.49803,3353086
6.50615,3277864
6.51427,3273124
6.52240,3868764
6.53052,7293820
6.53865,1.868774E+07
6.54677,3.951957E+07
6.55488,5.862512E+07
6.56302,6.49079E+07
6.57113,5.436252E+07
6.57925,3.16465E+07
6.58738,1.478372E+07
6.59550,8634676
6.60363,6489815
6.61175,5481951
6.61987,4789211
6.62800,4289713
6.63612,3937890
6.64425,3664495
6.65237,3465173
6.66048,3280334
6.66862,3133105
6.67673,2937147
6.68485,2850154
6.69298,2690342
6.70110,2637732
6.70923,2585692
6.71735,2500037
6.72547,2385571
6.73360,2328226
6.74172,2253630
6.74985,2167284
6.75797,2130729
6.76608,2068045
6.77422,2015139
6.78233,1962068
6.79047,1903555
6.79858,1885836
6.80670,1873388
6.81483,1803246
6.82295,1778600
6.83107,1736523
6.83920,1705922
6.84732,1788797
6.85545,2571108
6.86357,5783351
6.87168,1.341481E+07
6.87982,2.305203E+07
6.88793,2.671362E+07
6.89607,2.106228E+07
6.90418,1.24009E+07
6.91230,7020506
6.92043,4614550
6.92855,3437951
6.93668,2834037
6.94480,3280536
6.95292,5782185
6.96105,1.075527E+07
6.96917,1.472826E+07
6.97728,1.417822E+07
6.98542,1.041492E+07
6.99353,7306279
7.00167,5361315
7.00978,3907173
7.01790,2853733
7.02603,2356944
7.03415,2123270
7.04228,1978799
7.05040,1828220
7.05852,1720154
7.06665,2012208
7.07477,2202155
7.08288,2098843
7.09102,2060385
7.09913,2104911
7.10727,2055319
7.11538,1992152
7.12350,1956592
7.13163,1923387
7.13975,1885347
7.14788,1880826
7.15600,1871743
7.16412,1870243
7.17225,1817743
7.18037,1780718
7.18850,1707250
7.19662,1646502
7.20473,1598785
7.21287,1511028
7.22098,1489142
7.22910,1455999
7.23723,1455013
7.24535,1493334
7.25348,1502393
7.26160,1472916
7.26972,1449968
7.27785,1430874
7.28597,1472871
7.29410,1488012
7.30222,1523189
7.31033,1487775
7.31847,1447923
7.32658,1415851
7.33472,1412891
7.34283,1408974
7.35095,1370443
7.35908,1354145
7.36720,1343027
7.37532,1325867
7.38345,1323678
7.39157,1322178
7.39970,1299633
7.40782,1336740
7.41593,1285086
7.42407,1272036
7.43218,1233365
7.44032,1227495
7.44843,1190639
7.45655,1163750
7.46468,1169870
7.47280,1210891
7.48093,1238335
7.48905,1301979
7.49717,1272626
7.50530,1208917
7.51342,1154578
7.52153,1148783
7.52967,1117236
7.53778,1129319
7.54592,1210462
7.55403,1488597
7.56215,1895628
7.57028,2209473
7.57840,2072298
7.58653,1661020
7.59465,1348813
7.60277,1169620
7.61090,1106250
7.61902,1059335
7.62713,1025977
7.63527,1000982
7.64338,959130
7.65152,953230
7.65963,965510
7.66775,939892
7.67588,925892
7.68400,921412
7.69213,912262
7.70025,912793
7.70837,896639
7.71650,877596
7.72462,891928
7.73275,879164
7.74087,878381
7.74898,885809
7.75712,932706
7.76523,952581
7.77335,1061838
7.78148,1292078
7.78960,1457407
7.79773,1515290
7.80585,1414037
7.81397,1240492
7.82210,1112282
7.83022,1092159
7.83835,1051438
7.84647,982088
7.85458,904599
7.86272,872656
7.87083,868785
7.87897,846272
7.88708,841009
7.89520,829349
7.90333,814047
7.91145,822281
7.91957,829230
7.92770,866797
7.93582,891615
7.94395,954122
7.95207,969106
7.96018,924951
7.96832,838644
7.97643,779013
7.98457,662587
7.99268,536682
8.00080,443851
8.00893,410373
8.01705,391719
8.02517,382452
8.03330,383824
8.04142,362506
8.04955,370690
8.05767,356227
8.06578,368436
8.07392,358443
8.08203,348011
8.09017,341436
8.09828,337580
8.10640,335490
8.11453,342264
8.12265,336632
8.13078,355132
8.13890,518713
8.14702,1106467
8.15515,2806515
8.16327,6227877
8.17138,1.086988E+07
8.17952,1.504806E+07
8.18763,1.83231E+07
8.19577,2.203274E+07
8.20388,2.654826E+07
8.21200,2.958204E+07
8.22013,2.690226E+07
8.22825,1.926859E+07
8.23638,1.096126E+07
8.24450,5605260
8.25262,3248963
8.26075,2263701
8.26887,1864294
8.27700,1658376
8.28512,1451157
8.29323,1213740
8.30137,958054
8.30948,801126
8.31760,734446
8.32573,725772
8.33385,767839
8.34198,869260
8.35010,993157
8.35822,1099051
8.36635,1154771
8.37447,1151453
8.38260,1094745
8.39072,1060973
8.39883,1015564
8.40697,993123
8.41508,995861
8.42320,1039986
8.43133,1106092
8.43945,1060111
8.44758,977659
8.45570,872560
8.46382,793525
8.47195,735512
8.48007,711437
8.48820,696628
8.49632,678877
8.50443,673824
8.51257,626874
8.52068,622433
8.52882,655795
8.53693,740389
8.54505,840054
8.55318,887279
8.56130,842976
8.56942,697757
8.57755,627061
8.58567,543882
8.59380,510955
8.60192,473454
8.61003,458605
8.61817,443260
8.62628,430841
8.63442,437786
8.64253,470091
8.65065,556978
8.65878,731139
8.66690,877439
8.67503,937876
8.68315,831070
8.69127,687969
8.69940,560378
8.70752,497190
8.71563,478707
8.72377,467310
8.73188,453651
8.74002,434624
8.74813,407376
8.75625,392536
8.76438,383286
8.77250,399028
8.78063,419293
8.78875,412963
8.79687,404176
8.80500,390553
8.81312,359596
8.82125,349281
8.82937,340109
8.83748,336249
8.84562,324407
8.85373,324020
8.86185,327827
8.86998,330564
8.87810,352429
8.88623,361128
8.89435,441847
8.90247,646644
8.91060,966002
8.91872,1283373
8.92685,1350386
8.93497,1051597
8.94308,707588
8.95122,475280
8.95933,376453
8.96745,323469
8.97558,314612
8.98370,311056
8.99183,291865
8.99995,302202
9.00807,346135
9.01620,470647
9.02432,703568
9.03245,959692
9.04057,1082250
9.04868,973178
9.05682,823727
9.06493,605244
9.07307,479737
9.08118,450373
9.08930,457922
9.09743,528575
9.10555,584441
9.11367,607858
9.12180,541293
9.12992,463940
9.13805,398347
9.14617,367459
9.15428,338270
9.16242,323663
9.17053,310885
9.17867,308870
9.18678,318447
9.19490,395398
9.20303,543613
9.21115,864513
9.21928,1191699
9.22740,1377751
9.23552,1303916
9.24365,1031388
9.25177,736680
9.25988,547318
9.26802,429802
9.27613,382559
9.28427,353338
9.29238,392910
9.30050,646868
9.30863,1680809
9.31675,4427532
9.32488,9176419
9.33300,1.419419E+07
9.34112,1.660336E+07
9.34925,1.485008E+07
9.35737,1.032203E+07
9.36548,5709757
9.37362,3004093
9.38173,1882267
9.38987,1366865
9.39798,1148326
9.40610,1041014
9.41423,1088205
9.42235,1173234
9.43048,1242818
9.43860,1215699
9.44672,1141107
9.45485,1102063
9.46297,1061395
9.47110,985962
9.47922,954722
9.48733,923055
9.49547,875790
9.50358,856314
9.51170,845156
9.51983,862364
9.52795,958428
9.53608,1094346
9.54420,1226069
9.55232,1215986
9.56045,1075950
9.56857,892286
9.57670,782163
9.58482,670244
9.59293,650099
9.60107,651209
9.60918,707779
9.61732,812324
9.62543,912096
9.63355,934118
9.64168,848975
9.64980,728408
9.65792,629814
9.66605,562909
9.67417,535428
9.68230,511773
9.69042,533889
9.69853,605944
9.70667,714803
9.71478,797364
9.72292,857060
9.73103,807523
9.73915,688692
9.74728,615650
9.75540,531634
9.76352,505756
9.77165,492050
9.77977,489698
9.78790,461897
9.79602,426181
9.80413,422865
9.81227,420620
9.82038,418268
9.82852,391400
9.83663,398126
9.84475,380717
9.85288,384809
9.86100,406591
9.86913,448152
9.87725,531697
9.88537,605853
9.89350,601706
9.90162,537119
9.90973,464431
9.91787,403810
9.92598,374797
9.93412,344705
9.94223,359872
9.95035,356128
9.95848,342158
9.96660,350124
9.97473,408203
9.98285,681791
9.99097,1729454
9.99910,4473790
10.00722,9490386
10.01535,1.545265E+07
10.02347,1.943756E+07
10.03158,1.871684E+07
10.03972,1.369961E+07
10.04783,7956632
10.05595,4009710
10.06408,2076763
10.07220,1275245
10.08033,1046241
10.08845,1156954
10.09657,1434028
10.10470,1775041
10.11282,2023945
10.12095,2240790
10.12907,2340957
10.13718,2377870
10.14532,2258329
10.15343,2067069
10.16157,1748136
10.16968,1498374
10.17780,1341096
10.18593,1234585
10.19405,1157530
10.20217,1118827
10.21030,1096288
10.21842,1087384
10.22655,1073065
10.23467,1082612
10.24278,1101305
10.25092,1169960
10.25903,1200362
10.26717,1159786
10.27528,1127506
10.28340,1027800
10.29153,975987
10.29965,921386
10.30777,891403
10.31590,873920
10.32402,857212
10.33215,831910
10.34027,795956
10.34838,770840
10.35652,768978
10.36463,743672
10.37277,722850
10.38088,701876
10.38900,677939
10.39713,684810
10.40525,655179
10.41338,634470
10.42150,658493
10.42962,634816
10.43775,586548
10.44587,566969
10.45398,548696
10.46212,546627
10.47023,531431
10.47837,524182
10.48648,506488
10.49460,504808
10.50273,477990
10.51085,472243
10.51898,481475
10.52710,466436
10.53522,467894
10.54335,459653
10.55147,440772
10.55960,439847
10.56772,448623
10.57583,447948
10.58397,445668
10.59208,433151
10.60020,433713
10.60833,436062
10.61645,419702
10.62458,417990
10.63270,399216
10.64082,406676
10.64895,424971
10.65707,467115
10.66520,635916
10.67332,1017403
10.68143,1626398
10.68957,2148249
10.69768,2315777
10.70580,2361372
10.71393,2864521
10.72205,3835433
10.73018,4605483
10.73830,4160608
10.74642,2892900
10.75455,1665290
10.76267,912607
10.77080,587628
10.77892,511262
10.78703,454283
10.79517,448575
10.80328,420970
10.81142,430541
10.81953,438093
10.82765,452549
10.83578,450099
10.84390,479362
10.85202,527791
10.86015,576615
10.86827,604541
10.87640,574457
10.88452,516203
10.89263,450248
10.90077,406265
10.90888,370206
10.91702,355558
10.92513,371980
10.93325,414449
10.94138,485967
10.94950,592525
10.95763,783114
10.96575,937641
10.97387,949268
10.98200,811768
10.99012,583241
10.99823,380151
11.00637,253954
11.01448,200686
11.02262,191732
11.03073,186360
11.03885,198514
11.04698,204381
11.05510,192705
11.06323,197639
11.07135,184877
11.07947,183334
11.08760,169021
11.09572,163711
11.10383,165999
11.11197,186225
11.12008,197110
11.12822,195167
11.13633,193799
11.14445,185776
11.15258,182067
11.16070,189770
11.16883,193705
11.17695,198896
11.18507,212560
11.19320,205657
11.20132,201114
11.20945,172372
11.21757,155411
11.22568,152126
11.23382,145958
11.24193,138591
11.25005,133425
11.25818,130067
11.26630,130294
11.27443,132552
11.28255,156058
11.29067,202414
11.29880,293729
11.30692,398205
11.31505,484220
11.32317,474212
11.33128,400071
11.33942,316546
11.34753,238643
11.35567,204830
11.36378,202517
11.37190,273693
11.38003,424137
11.38815,816517
11.39627,1791527
11.40440,4345315
11.41252,1.046188E+07
11.42065,2.252226E+07
11.42877,4.02552E+07
11.43688,6.092257E+07
11.44502,8.038531E+07
11.45313,9.562154E+07
11.46127,1.050079E+08
11.46938,1.004052E+08
11.47750,7.525384E+07
11.48563,3.777494E+07
11.49375,1.6123E+07
11.50188,1.098199E+07
11.51000,1.054577E+07
11.51812,1.075424E+07
11.52625,1.092837E+07
11.53437,1.108395E+07
11.54248,1.074517E+07
11.55062,9570370
11.55873,7808063
11.56687,6395862
11.57498,5541474
11.58310,5023001
11.59123,4658429
11.59935,4419474
11.60748,4220968
11.61560,3976000
11.62372,3781096
11.63185,3594157
11.63997,3391873
11.64808,3313151
11.65622,3193033
11.66433,3089758
11.67247,2949187
11.68058,2873675
11.68870,2757045
11.69683,2669994
11.70495,2541046
11.71308,2483209
11.72120,2434037
11.72932,2352076
11.73745,2299442
11.74557,2229731
11.75370,2151328
11.76182,2120815
11.76993,2021071
11.77807,1997416
11.78618,1982838
11.79430,1907251
11.80243,1881406
11.81055,1941218
11.81868,2061174
11.82680,2351007
11.83492,2595018
11.84305,2707425
11.85117,2568787
11.85930,2258355
11.86742,1946582
11.87553,1783727
11.88367,1679280
11.89178,1718757
11.89992,1775028
11.90803,1793757
11.91615,1810896
11.92428,1808780
11.93240,1814294
11.94052,1857651
11.94865,1841210
11.95677,1761746
11.96490,1644913
11.97302,1488310
11.98113,1387945
11.98927,1366599
11.99738,1346509
12.00552,1323735
12.01363,1329085
12.02175,1368118
12.02988,1385303
12.03800,1391418
12.04612,1384634
12.05425,1356853
12.06237,1467550
12.07050,1850602
12.07862,2550499
12.08673,3301496
12.09487,3673679
12.10298,3420112
12.11112,2705096
12.11923,1987509
12.12735,1545174
12.13548,1336240
12.14360,1281727
12.15173,1272954
12.15985,1206797
12.16797,1091583
12.17610,947300
12.18422,767350
12.19233,641316
12.20047,570534
12.20858,518085
12.21672,486308
12.22483,479399
12.23295,454341
12.24108,423964
12.24920,403671
12.25733,387087
12.26545,378499
12.27357,370853
12.28170,351420
12.28982,350948
12.29795,335516
12.30607,331721
12.31418,317412
12.32232,326725
12.33043,319514
12.33855,348357
12.34668,351827
12.35480,394251
12.36293,400586
12.37105,391878
12.37917,357203
12.38730,345809
12.39542,366670
12.40355,481234
12.41167,713415
12.41978,1097507
12.42792,1394171
12.43603,1511226
12.44415,1351845
12.45228,1021670
12.46040,713413
12.46853,508733
12.47665,431588
12.48477,416091
12.49290,412370
12.50102,393958
12.50915,388404
12.51727,362035
12.52538,352269
12.53352,334607
12.54163,321010
12.54977,300242
12.55788,304329
12.56600,285281
12.57413,286319
12.58225,275599
12.59037,296607
12.59850,448718
12.60662,914161
12.61475,2208555
12.62287,4690631
12.63098,8002177
12.63912,1.080755E+07
12.64723,1.151855E+07
12.65537,9667748
12.66348,6394294
12.67160,3658740
12.67973,2219086
12.68785,1706393
12.69598,1559313
12.70410,1491702
12.71222,1383913
12.72035,1235344
12.72847,1138875
12.73658,1069334
12.74472,982726
12.75283,937433
12.76097,888405
12.76908,864863
12.77720,858577
12.78533,895912
12.79345,927381
12.80158,1008620
12.80970,1150041
12.81782,1218142
12.82595,1184114
12.83407,1044938
12.84220,876318
12.85032,745559
12.85843,679156
12.86657,671924
12.87468,655375
12.88280,660552
12.89093,637290
12.89905,621179
12.90718,590814
12.91530,565339
12.92342,540526
12.93155,529763
12.93967,507236
12.94780,497103
12.95592,503856
12.96403,479217
12.97217,487211
12.98028,609426
12.98840,825898
12.99653,1183976
13.00465,1510825
13.01278,1626079
13.02090,1404130
13.02902,1037966
13.03715,722640
13.04527,554232
13.05340,475152
13.06152,456110
13.06963,412716
13.07777,411867
13.08588,390260
13.09402,406804
13.10213,393460
13.11025,391719
13.11838,382713
13.12650,387914
13.13462,382042
13.14275,375500
13.15087,394102
13.15900,415318
13.16712,420953
13.17523,464667
13.18337,483697
13.19148,481339
13.19962,446528
13.20773,380511
13.21585,322364
13.22398,282924
13.23210,238315
13.24023,216140
13.24835,199652
13.25647,193957
13.26460,175861
13.27272,171414
13.28083,168955
13.28897,166294
13.29708,155590
13.30522,159778
13.31333,159848
13.32145,175100
13.32958,192094
13.33770,234230
13.34583,270790
13.35395,313248
13.36207,306430
13.37020,305698
13.37832,267142
13.38643,232106
13.39457,203950
13.40268,184602
13.41082,164674
13.41893,153558
13.42705,144768
13.43518,140576
13.44330,139912
13.45143,136479
13.45955,121676
13.46767,118343
13.47580,119339
13.48392,120160
13.49205,115649
13.50017,121363
13.50828,118124
13.51642,122402
13.52453,120482
13.53265,129940
13.54078,144040
13.54890,161339
13.55703,175517
13.56515,177656
13.57327,170588
13.58140,146113
13.58952,126409
13.59765,116684
13.60577,121761
13.61388,106834
13.62202,98008
13.63013,105921
13.63827,104546
13.64638,112746
13.65450,118880
13.66263,128021
13.67075,119652
13.67887,137114
13.68700,128780
13.69512,140065
13.70325,124911
13.71137,111379
13.71948,100984
13.72762,99255
13.73573,106116
13.74387,115178
13.75198,126398
13.76010,136574
13.76823,120247
13.77635,109613
13.78448,103726
13.79260,89779
13.80072,87497
13.80885,87172
13.81697,90100
13.82508,82668
13.83322,83332
13.84133,78219
13.84947,79968
13.85758,77412
13.86570,82297
13.87383,76352
13.88195,83196
13.89008,68635
13.89820,74882
13.90632,72595
13.91445,77594
13.92257,71389
13.93068,75289
13.93882,70174
13.94693,72067
13.95507,71874
13.96318,71458
13.97130,71937
13.97943,84244
13.98755,115867
13.99568,209220
14.00380,477418
14.01192,972209
14.02005,1669434
14.02817,2308516
14.03630,2498248
14.04442,2077549
14.05253,1447186
14.06067,874253
14.06878,553338
14.07690,398840
14.08503,376785
14.09315,406426
14.10128,467220
14.10940,518409
14.11752,475244
14.12565,389690
14.13377,303424
14.14190,229974
14.15002,185087
14.15813,173344
14.16627,150006
14.17438,157597
14.18252,169155
14.19063,224047
14.19875,289874
14.20688,371629
14.21500,431545
14.22312,431582
14.23125,402009
14.23937,336155
14.24750,281173
14.25562,229868
14.26373,194046
14.27187,166717
14.27998,137207
14.28812,124333
14.29623,128121
14.30435,128063
14.31248,116515
14.32060,117734
14.32873,116648
14.33685,116211
14.34497,109703
14.35310,104721
14.36122,95816
14.36933,93603
14.37747,94668
14.38558,86974
14.39372,86003
14.40183,87704
14.40995,93556
14.41808,87579
14.42620,91442
14.43433,91555
14.44245,89500
14.45057,94055
14.45870,100592
14.46682,114330
14.47493,131159
14.48307,165487
14.49118,193538
14.49932,195700
14.50743,186425
14.51555,170641
14.52368,163318
14.53180,166960
14.53993,206041
14.54805,282282
14.55617,403477
14.56430,482736
14.57242,508010
14.58055,444466
14.58867,334151
14.59678,246452
14.60492,188457
14.61303,155620
14.62115,141307
14.62928,127367
14.63740,121035
14.64553,122611
14.65365,126755
14.66177,143438
14.66990,140537
14.67802,137665
14.68615,122433
14.69427,104278
14.70238,90243
14.71052,82066
14.71863,82688
14.72677,81598
14.73488,88618
14.74300,97108
14.75113,98310
14.75925,100012
14.76737,104111
14.77550,101498
14.78362,99624
14.79175,94906
14.79987,108735
14.80798,99942
14.81612,98219
14.82423,94726
14.83237,88974
14.84048,87757
14.84860,84488
14.85673,88702
14.86485,82679
14.87297,79952
14.88110,83499
14.88922,97918
14.89735,151241
14.90547,304885
14.91358,579517
14.92172,961348
14.92983,1225442
14.93797,1290192
14.94608,1093130
14.95420,769931
14.96233,487977
14.97045,307957
14.97858,225770
14.98670,186089
14.99482,168565
15.00295,175456
15.01107,168343
15.01918,173626
15.02732,161560
15.03543,136107
15.04357,120792
15.05168,115010
15.05980,102511
15.06793,102990
15.07605,97408
15.08418,99701
15.09230,84807
15.10042,88114
15.10855,87067
15.11667,86714
15.12480,82006
15.13292,87122
15.14103,92338
15.14917,105785
15.15728,127624
15.16540,145066
15.17353,182474
15.18165,212539
15.18978,218917
15.19790,209536
15.20602,189087
15.21415,166672
15.22227,148558
15.23040,172937
15.23852,243351
15.24663,459132
15.25477,866966
15.26288,1440412
15.27100,1870525
15.27913,1871428
15.28725,1487377
15.29538,1044771
15.30350,659220
15.31162,450687
15.31975,346788
15.32787,292142
15.33600,259599
15.34412,239733
15.35223,210472
15.36037,202122
15.36848,197184
15.37662,182449
15.38473,170389
15.39285,154526
15.40098,152565
15.40910,153273
15.41722,141957
15.42535,134285
15.43347,138499
15.44160,127775
15.44972,120926
15.45783,126574
15.46597,121307
15.47408,111850
15.48222,130662
15.49033,116628
15.49845,111012
15.50658,104662
15.51470,104999
15.52283,99917
15.53095,93727
15.53907,95843
15.54720,86407
15.55532,91412
15.56343,95896
15.57157,89057
15.57968,87959
15.58782,97948
15.59593,82173
15.60405,80811
15.61218,75363
15.62030,68305
15.62843,65351
15.63655,67159
15.64467,66646
15.65280,70414
15.66092,58469
15.66905,57475
15.67717,58546
15.68528,66959
15.69342,58400
15.70153,63033
15.70965,54317
15.71778,60574
15.72590,62658
15.73403,59953
15.74215,59496
15.75027,61036
15.75840,64966
15.76652,56687
15.77465,60516
15.78277,54991
15.79088,58610
15.79902,65736
15.80713,61907
15.81525,61494
15.82338,66121
15.83150,73898
15.83963,78235
15.84775,84411
15.85587,81174
15.86400,69048
15.87212,66206
15.88025,61997
15.88837,61350
15.89648,56455
15.90462,53712
15.91273,55778
15.92087,60286
15.92898,65709
15.93710,56273
15.94523,57286
15.95335,56712
15.96147,51543
15.96960,53307
15.97772,56012
15.98585,59699
15.99397,52841
16.00208,52579
16.01022,61755
16.01833,60681
16.02647,78998
16.03458,84777
16.04270,98844
16.05083,94610
16.05895,95121
16.06708,79572
16.07520,67062
16.08332,66250
16.09145,60861
16.09957,54797
16.10768,51938
16.11582,51157
16.12393,51507
16.13207,54209
16.14018,53650
16.14830,59635
16.15643,65245
16.16455,80143
16.17268,79258
16.18080,74516
16.18892,78614
16.19705,74609
16.20517,100258
16.21328,167550
16.22142,288309
16.22953,428609
16.23767,547373
16.24578,558707
16.25390,448692
16.26203,315531
16.27015,210215
16.27828,160269
16.28640,135904
16.29452,128714
16.30265,140105
16.31077,157656
16.31890,204048
16.32702,249521
16.33513,325475
16.34327,363200
16.35138,374747
16.35950,338986
16.36763,265305
16.37575,210621
16.38388,176224
16.39200,141701
16.40012,138034
16.40825,116216
16.41637,109572
16.42450,106306
16.43262,119356
16.44073,122448
16.44887,130758
16.45698,116935
16.46512,111122
16.47323,92910
16.48135,84727
16.48948,81680
16.49760,77395
16.50572,75690
16.51385,82129
16.52197,77246
16.53010,80198
16.53822,68135
16.54633,72745
16.55447,79395
16.56258,69020
16.57072,72279
16.57883,73427
16.58695,72882
16.59508,81588
16.60320,80584
16.61132,74962
16.61945,72684
16.62757,64407
16.63570,64537
16.64382,65703
16.65193,60496
16.66007,69521
16.66818,66480
16.67632,74163
16.68443,71844
16.69255,67259
16.70068,80885
16.70880,73721
16.71693,74869
16.72505,75274
16.73317,73554
16.74130,77830
16.74942,83954
16.75753,75045
16.76567,68721
16.77378,73785
16.78192,78994
16.79003,86262
16.79815,93495
16.80628,104429
16.81440,114740
16.82253,104662
16.83065,90889
16.83877,91504
16.84690,82441
16.85502,82634
16.86315,71645
16.87127,75215
16.87938,69186
16.88752,59910
16.89563,66522
16.90375,64610
16.91188,73387
16.92000,82593
16.92813,102106
16.93625,93640
16.94437,100222
16.95250,78743
16.96062,75469
16.96875,75509
16.97687,70038
16.98498,70193
16.99312,64813
17.00123,60605
17.00937,64311
17.01748,57507
17.02560,54279
17.03373,54118
17.04185,64132
17.04997,58785
17.05810,57509
17.06622,64215
17.07435,81732
17.08247,104686
17.09058,122036
17.09872,147085
17.10683,139605
17.11497,123249
17.12308,106030
17.13120,98382
17.13933,89088
17.14745,96560
17.15557,121426
17.16370,164123
17.17182,216441
17.17995,264285
17.18807,279686
17.19618,273201
17.20432,245656
17.21243,216190
17.22057,180185
17.22868,162439
17.23680,144958
17.24493,144151
17.25305,119925
17.26118,116913
17.26930,114398
17.27742,103565
17.28555,100825
17.29367,104855
17.30178,96528
17.30992,90736
17.31803,85070
17.32617,95694
17.33428,89825
17.34240,90813
17.35053,96594
17.35865,96376
17.36678,100913
17.37490,91738
17.38302,87769
17.39115,89208
17.39927,76807
17.40740,76586
17.41552,65599
17.42363,59905
17.43177,54172
17.43988,56261
17.44800,53763
17.45613,47366
17.46425,54202
17.47238,55488
17.48050,51911
17.48862,49125
17.49675,53435
17.50487,62779
17.51300,68014
17.52112,84017
17.52923,98548
17.53737,112543
17.54548,118625
17.55360,112202
17.56173,99485
17.56985,97203
17.57798,79792
17.58610,66693
17.59422,68191
17.60235,67681
17.61047,58666
17.61860,61740
17.62672,60616
17.63483,55259
17.64297,65484
17.65108,75177
17.65922,79259
17.66733,84916
17.67545,100350
17.68358,108355
17.69170,111566
17.69982,109550
17.70795,106996
17.71607,90929
17.72420,94404
17.73232,122902
17.74043,240085
17.74857,511693
17.75668,978748
17.76482,1618364
17.77293,2167825
17.78105,2388322
17.78918,2087949
17.79730,1562099
17.80543,1046790
17.81355,647343
17.82167,415076
17.82980,274221
17.83792,211190
17.84603,173194
17.85417,155331
17.86228,137626
17.87042,131085
17.87853,117733
17.88665,108423
17.89478,103103
17.90290,102114
17.91103,106331
17.91915,91221
17.92727,90510
17.93540,84807
17.94352,84308
17.95163,81838
17.95977,81292
17.96788,82085
17.97602,77861
17.98413,78479
17.99225,66356
18.00038,69846
18.00850,58712
18.01663,57922
18.02475,60057
18.03287,57417
18.04100,57361
18.04912,64418
18.05725,75341
18.06537,83775
18.07348,108643
18.08162,122338
18.08973,147793
18.09785,166692
18.10598,170316
18.11410,162320
18.12223,148006
18.13035,124520
18.13847,102113
18.14660,89373
18.15472,83135
18.16285,73038
18.17097,79776
18.17908,68248
18.18722,70170
18.19533,68867
18.20347,67043
18.21158,62100
18.21970,70091
18.22783,60830
18.23595,61487
18.24407,58142
18.25220,72985
18.26032,60121
18.26845,58606
18.27657,62502
18.28468,64013
18.29282,63920
18.30093,65932
18.30907,63569
18.31718,64844
18.32530,59991
18.33343,58183
18.34155,57457
18.34968,67058
18.35780,53902
18.36592,58796
18.37405,48306
18.38217,52081
18.39028,54902
18.39842,57527
18.40653,57536
18.41467,52675
18.42278,57178
18.43090,51813
18.43903,55893
18.44715,53942
18.45528,57451
18.46340,52586
18.47152,53232
18.47965,71836
18.48777,67195
18.49588,80857
18.50402,105710
18.51213,143043
18.52027,181406
18.52838,225924
18.53650,229481
18.54463,224200
18.55275,203209
18.56088,171556
18.56900,299948
18.57712,390948
18.58525,444858
18.59337,445155
18.60150,441156
18.60962,433760
18.61773,406815
18.62587,403334
18.63398,388799
18.64210,364681
18.65023,349883
18.65835,339127
18.66648,316126
18.67460,309312
18.68272,291077
18.69085,291741
18.69897,274378
18.70710,273305
18.71522,269361
18.72333,237456
18.73147,239446
18.73958,229283
18.74772,217356
18.75583,199274
18.76395,191877
18.77208,184629
18.78020,183653
18.78832,173966
18.79645,167432
18.80457,156944
18.81270,158622
18.82082,164704
18.82893,171980
18.83707,156983
18.84518,162906
18.85332,156237
18.86143,160868
18.86955,147341
18.87768,141750
18.88580,127474
18.89392,127316
18.90205,123470
18.91017,124948
18.91830,117296
18.92642,127888
18.93453,144638
18.94267,168370
18.95078,205386
18.95892,218836
18.96703,231564
18.97515,214500
18.98328,185629
18.99140,176587
18.99953,179706
19.00765,239054
19.01577,349988
19.02390,524433
19.03202,724996
19.04013,827051
19.04827,784656
19.05638,635230
19.06452,472497
19.07263,348221
19.08075,246187
19.08888,194470
19.09700,156248
19.10513,142722
19.11325,127219
19.12137,123989
19.12950,114382
19.13762,114526
19.14575,114748
19.15387,105747
19.16198,102265
19.17012,99055
19.17823,90912
19.18635,94748
19.19448,88540
19.20260,91214
19.21073,94450
19.21885,101713
19.22697,82531
19.23510,88964
19.24322,80095
19.25135,75626
19.25947,71262
19.26758,71586
19.27572,69365
19.28383,73408
19.29195,68187
19.30008,62315
19.30820,69164
19.31633,69869
19.32445,65880
19.33257,63898
19.34070,66411
19.34882,69886
19.35695,76393
19.36507,71853
19.37318,75024
19.38132,79275
19.38943,81642
19.39757,68990
19.40568,72812
19.41380,75148
19.42193,77147
19.43005,84379
19.43817,82067
19.44630,78542
19.45442,80455
19.46255,79063
19.47067,66094
19.47878,65549
19.48692,60501
19.49503,56011
19.50317,55640
19.51128,61230
19.51940,58704
19.52753,68205
19.53565,80448
19.54378,88546
19.55190,97088
19.56002,101889
19.56815,114169
19.57627,107527
19.58438,101111
19.59252,97087
19.60063,90359
19.60877,85399
19.61688,89649
19.62500,80750
19.63313,83782
19.64125,80791
19.64938,76301
19.65750,71193
19.66562,65597
19.67375,66766
19.68187,63961
19.69000,64406
19.69812,60060
19.70623,67046
19.71437,69798
19.72248,75754
19.73060,74812
19.73873,71974
19.74685,70321
19.75498,68049
19.76310,64372
19.77122,64267
19.77935,71176
19.78747,83034
19.79560,98379
19.80372,125928
19.81183,144108
19.81997,147514
19.82808,133530
19.83620,103397
19.84433,82079
19.85245,68117
19.86058,66033
19.86870,60466
19.87682,66194
19.88495,59256
19.89307,53057
19.90120,53779
19.90932,57932
19.91743,53364
19.92557,56624
19.93368,54494
19.94182,53466
19.94993,56326
19.95805,54152
19.96618,51041
19.97430,59203
19.98242,61438
19.99055,63309
19.99867,65204
20.00680,63161
20.01492,71508
20.02303,97930
20.03117,144488
20.03928,216224
20.04742,307306
20.05553,385331
20.06365,412751
20.07178,365048
20.07990,298065
20.08803,230062
20.09615,166296
20.10427,143925
20.11240,125292
20.12052,107981
20.12863,99452
20.13677,84729
20.14488,83014
20.15302,73564
20.16113,66622
20.16925,68446
20.17738,66812
20.18550,63553
20.19363,68205
20.20175,79006
20.20987,71887
20.21800,69971
20.22612,71739
20.23423,67754
20.24237,64834
20.25048,69739
20.25862,64740
20.26673,65280
20.27485,61322
20.28298,65218
20.29110,54357
20.29923,56651
20.30735,53191
20.31547,55686
20.32360,56633
20.33172,57278
20.33985,73929
20.34797,85860
20.35608,116861
20.36422,147657
20.37233,167485
20.38045,180677
20.38858,170029
20.39670,158266
20.40483,135230
20.41295,119256
20.42107,109192
20.42920,101920
20.43732,95722
20.44545,94967
20.45357,93067
20.46168,85622
20.46982,86569
20.47793,85786
20.48607,86793
20.49418,75987
20.50230,80191
20.51043,79614
20.51855,73520
20.52667,64119
20.53480,60818
20.54292,61007
20.55105,58783
20.55917,62814
20.56728,58590
20.57542,59892
20.58353,68353
20.59167,87002
20.59978,117351
20.60790,164706
20.61603,219345
20.62415,258825
20.63227,265087
20.64040,246274
20.64852,206119
20.65665,161795
20.66477,124414
20.67288,105076
20.68102,88676
20.68913,85007
20.69727,70234
20.70538,69822
20.71350,65650
20.72163,65454
20.72975,59772
20.73788,56247
20.74600,58314
20.75412,71105
20.76225,75412
20.77037,90555
20.77848,89634
20.78662,108130
20.79473,107498
20.80287,110760
20.81098,95991
20.81910,89600
20.82723,84305
20.83535,78258
20.84348,72152
20.85160,82391
20.85972,69278
20.86785,71954
20.87597,66586
20.88410,62966
20.89222,66180
20.90033,60184
20.90847,56560
20.91658,65243
20.92470,58385
20.93283,55961
20.94095,57487
20.94908,54505
20.95720,55292
20.96532,54402
20.97345,49944
20.98157,54178
20.98970,51636
20.99782,51354
21.00593,59083
21.01407,52996
21.02218,56370
21.03032,64086
21.03843,71998
21.04655,81133
21.05468,90650
21.06280,72197
21.07092,65949
21.07905,62410
21.08717,59182
21.09530,53758
21.10342,56135
21.11153,53982
21.11967,50001
21.12778,57380
21.13592,53732
21.14403,52451
21.15215,55502
21.16028,59874
21.16840,56918
21.17652,58076
21.18465,60816
21.19277,57540
21.20090,50388
21.20902,59091
21.21713,61716
21.22527,68954
21.23338,122308
21.24152,218571
21.24963,399872
21.25775,651768
21.26588,854712
21.27400,868363
21.28213,749335
21.29025,517747
21.29837,318269
21.30650,199487
21.31462,138782
21.32273,109801
21.33087,91969
21.33898,81219
21.34712,76731
21.35523,68153
21.36335,69783
21.37148,66442
21.37960,71366
21.38773,64976
21.39585,70224
21.40397,69254
21.41210,72728
21.42022,76358
21.42835,71555
21.43647,67698
21.44458,62654
21.45272,63828
21.46083,59934
21.46895,60449
21.47708,57779
21.48520,58607
21.49333,66860
21.50145,64821
21.50957,56681
21.51770,59702
21.52582,58945
21.53395,57707
21.54207,54772
21.55018,58282
21.55832,58252
21.56643,54075
21.57455,48627
21.58268,51809
21.59080,56108
21.59893,67996
21.60705,89789
21.61517,112518
21.62330,130624
21.63142,130842
21.63955,119848
21.64767,105952
21.65578,101494
21.66392,82479
21.67203,70060
21.68017,69631
21.68828,74681
21.69640,69288
21.70453,65422
21.71265,66317
21.72077,64980
21.72890,61093
21.73702,58691
21.74515,57008
21.75327,59055
21.76138,65765
21.76952,57667
21.77763,61867
21.78577,63292
21.79388,59970
21.80200,58848
21.81013,63421
21.81825,54305
21.82638,52671
21.83450,53157
21.84262,56225
21.85075,56955
21.85887,60033
21.86698,50787
21.87512,47489
21.88323,51818
21.89137,53635
21.89948,52457
21.90760,49746
21.91573,54607
21.92385,54719
21.93198,56892
21.94010,73283
21.94822,83387
21.95635,88748
21.96447,99581
21.97258,98013
21.98072,88068
21.98883,77752
21.99697,70133
22.00508,64238
22.01320,62993
22.02133,56527
22.02945,58324
22.03758,59308
22.04570,58781
22.05382,58959
22.06195,52631
22.07007,63325
22.07820,62945
22.08632,67424
22.09443,68413
22.10257,69787
22.11068,60661
22.11880,65863
22.12693,75259
22.13505,86992
22.14318,116458
22.15130,122325
22.15942,132172
22.16755,128939
22.17567,113980
22.18380,96577
22.19192,92952
22.20003,68745
22.20817,64744
22.21628,68571
22.22442,65088
22.23253,74464
22.24065,64562
22.24878,65096
22.25690,68281
22.26502,74275
22.27315,68829
22.28127,74414
22.28940,70370
22.29752,70992
22.30563,72567
22.31377,63965
22.32188,61843
22.33002,60133
22.33813,57358
22.34625,59599
22.35438,62274
22.36250,58684
22.37063,68034
22.37875,70154
22.38687,57053
22.39500,55985
22.40312,56616
22.41123,56404
22.41937,55656
22.42748,56851
22.43562,66173
22.44373,55146
22.45185,58446
22.45998,59234
22.46810,57920
22.47623,55219
22.48435,56316
22.49247,53912
22.50060,62182
22.50872,52651
22.51683,53476
22.52497,65766
22.53308,68156
22.54122,91459
22.54933,161815
22.55745,283486
22.56558,513268
22.57370,850829
22.58183,1157539
22.58995,1220028
22.59807,1079258
22.60620,795816
22.61432,534926
22.62245,330583
22.63057,227017
22.63868,174707
22.64682,139660
22.65493,127922
22.66305,111517
22.67118,102839
22.67930,97812
22.68743,90856
22.69555,87157
22.70367,87820
22.71180,87822
22.71992,80958
22.72805,75820
22.73617,76480
22.74428,75464
22.75242,73401
22.76053,76876
22.76867,71242
22.77678,68248
22.78490,67343
22.79303,70174
22.80115,68689
22.80927,68781
22.81740,71102
22.82552,66238
22.83365,66217
22.84177,65932
22.84988,66793
22.85802,65532
22.86613,63820
22.87427,65683
22.88238,58120
22.89050,60472
22.89863,55195
22.90675,63610
22.91487,55707
22.92300,55335
22.93112,56600
22.93925,54395
22.94737,61764
22.95548,62698
22.96362,56211
22.97173,55776
22.97987,63621
22.98798,56943
22.99610,65286
23.00423,70076
23.01235,65102
23.02048,61578
23.02860,55965
23.03672,59397
23.04485,56224
23.05297,55634
23.06108,54699
23.06922,53755
23.07733,50136
23.08547,53534
23.09358,54474
23.10170,61430
23.10983,65878
23.11795,67470
23.12608,82925
23.13420,66969
23.14232,65239
23.15045,64084
23.15857,69538
23.16670,71669
23.17482,71297
23.18293,74997
23.19107,74766
23.19918,75189
23.20730,75432
23.21543,79966
23.22355,71694
23.23168,68268
23.23980,63276
23.24792,57258
23.25605,59340
23.26417,62091
23.27230,55479
23.28042,50664
23.28853,46984
23.29667,54732
23.30478,56115
23.31290,53707
23.32103,65459
23.32915,71851
23.33728,81421
23.34540,88206
23.35352,95140
23.36165,108809
23.36977,117523
23.37790,118692
23.38602,117763
23.39413,121104
23.40227,121621
23.41038,118953
23.41852,121884
23.42663,132902
23.43475,132294
23.44288,133058
23.45100,127217
23.45912,129822
23.46725,127675
23.47537,136186
23.48350,127790
23.49162,127993
23.49973,114758
23.50787,103763
23.51598,95592
23.52412,91498
23.53223,90209
23.54035,80531
23.54848,78393
23.55660,82487
23.56473,77000
23.57285,65756
23.58097,67129
23.58910,63186
23.59722,67941
23.60533,67902
23.61347,74247
23.62158,90191
23.62972,83846
23.63783,91678
23.64595,88294
23.65408,86200
23.66220,74347
23.67033,75533
23.67845,57150
23.68657,55565
23.69470,54694
23.70282,57605
23.71095,51994
23.71907,61605
23.72718,55631
23.73532,57548
23.74343,54138
23.75155,59928
23.75968,64989
23.76780,60212
23.77593,56441
23.78405,55126
23.79217,53525
23.80030,55643
23.80842,55760
23.81655,55366
23.82467,52630
23.83278,55064
23.84092,47208
23.84903,47226
23.85715,48663
23.86528,47829
23.87340,49223
23.88153,49411
23.88965,48716
23.89777,51840
23.90590,53096
23.91402,58274
23.92215,61339
23.93027,75143
23.93838,66820
23.94652,65251
23.95463,63496
23.96277,65074
23.97088,56227
23.97900,60999
23.98713,51735
23.99525,53707
24.00337,51160
24.01150,62649
24.01962,78968
24.02775,86442
24.03587,95803
24.04398,105971
24.05212,105511
24.06023,109926
24.06837,110115
24.07648,110009
24.08460,110625
24.09273,108465
24.10085,101160
24.10898,107654
24.11710,115177
24.12522,118662
24.13335,133358
24.14147,151780
24.14958,177496
24.15772,186111
24.16583,206845
24.17397,220674
24.18208,209858
24.19020,200759
24.19833,164762
24.20645,136879
24.21458,119318
24.22270,113718
24.23082,174342
24.23895,384198
24.24707,967803
24.25518,2201620
24.26332,3970555
24.27143,5515363
24.27957,6144642
24.28768,5798215
24.29580,4780750
24.30393,3702499
24.31205,2794609
24.32018,2098410
24.32830,1618517
24.33642,1235743
24.34455,981150
24.35267,780047
24.36080,636833
24.36892,538107
24.37703,468463
24.38517,415658
24.39328,378039
24.40140,347754
24.40953,311560
24.41765,272060
24.42578,246659
24.43390,215443
24.44202,200496
24.45015,180172
24.45827,167078
24.46640,155652
24.47452,142386
24.48263,133672
24.49077,129233
24.49888,116375
24.50702,116014
24.51513,116191
24.52325,117586
24.53138,119299
24.53950,117726
24.54762,120500
24.55575,115267
24.56387,112783
24.57200,102485
24.58012,98570
24.58823,89635
24.59637,95218
24.60448,89413
24.61262,86726
24.62073,87768
24.62885,97040
24.63698,113349
24.64510,164663
24.65322,260551
24.66135,442718
24.66947,664092
24.67760,884847
24.68572,959386
24.69383,868897
24.70197,696053
24.71008,497822
24.71822,360221
24.72633,267111
24.73445,225907
24.74258,211234
24.75070,235953
24.75883,257020
24.76695,231201
24.77507,198669
24.78320,160875
24.79132,130994
24.79943,120109
24.80757,104746
24.81568,100970
24.82382,103830
24.83193,101724
24.84005,89611
24.84818,87181
24.85630,88482
24.86443,79250
24.87255,73135
24.88067,76222
24.88880,71585
24.89692,67645
24.90505,70004
24.91317,69304
24.92128,69132
24.92942,69146
24.93753,66037
24.94565,70082
24.95378,67799
24.96190,68673
24.97003,65373
24.97815,59437
24.98627,68305
24.99440,60517
25.00252,64819
25.01065,61465
25.01877,58510
25.02688,62002
25.03502,59837
25.04313,61415
25.05127,61031
25.05938,60210
25.06750,62024
25.07563,61898
25.08375,61068
25.09187,71480
25.10000,62898
25.10812,70121
25.11625,76352
25.12437,75016
25.13248,79070
25.14062,83616
25.14873,76329
25.15687,75894
25.16498,74840
25.17310,73086
25.18123,70403
25.18935,66690
25.19747,61924
25.20560,62660
25.21372,65727
25.22185,60059
25.22997,59421
25.23808,58305
25.24622,60005
25.25433,70101
25.26247,64857
25.27058,73709
25.27870,71218
25.28683,73764
25.29495,82724
25.30308,76386
25.31120,72619
25.31932,84355
25.32745,82898
25.33557,77052
25.34368,78751
25.35182,79264
25.35993,85519
25.36807,80722
25.37618,77582
25.38430,75945
25.39243,79306
25.40055,80720
25.40868,91514
25.41680,86346
25.42492,87406
25.43305,83564
25.44117,74523
25.44930,71389
25.45742,62943
25.46553,66848
25.47367,64845
25.48178,57295
25.48990,52920
25.49803,56656
25.50615,57058
25.51428,54314
25.52240,57863
25.53052,57092
25.53865,60190
25.54677,63301
25.55490,64662
25.56302,60378
25.57113,54717
25.57927,59080
25.58738,59620
25.59552,56341
25.60363,65289
25.61175,73003
25.61988,82734
25.62800,90401
25.63612,104987
25.64425,127725
25.65237,130243
25.66050,122405
25.66862,109649
25.67673,91875
25.68487,86275
25.69298,82375
25.70112,67121
25.70923,73257
25.71735,66818
25.72548,59645
25.73360,64094
25.74172,62766
25.74985,58938
25.75797,63397
25.76610,59098
25.77422,58856
25.78233,61759
25.79047,59907
25.79858,65420
25.80672,79648
25.81483,70734
25.82295,72120
25.83108,67206
25.83920,67617
25.84733,66971
25.85545,65168
25.86357,67420
25.87170,67809
25.87982,72538
25.88793,74414
25.89607,82364
25.90418,92609
25.91232,96005
25.92043,89063
25.92855,84268
25.93668,77133
25.94480,67912
25.95293,65792
25.96105,55991
25.96917,60391
25.97730,57196
25.98542,57796
25.99355,65001
26.00167,59544
26.00978,52580
26.01792,55387
26.02603,52513
26.03415,55761
26.04228,56043
26.05040,51371
26.05853,54818
26.06665,54393
26.07477,54377
26.08290,52844
26.09102,55715
26.09915,57429
26.10727,55514
26.11538,56632
26.12352,52177
26.13163,54097
26.13975,54617
26.14788,56336
26.15600,53504
26.16413,52845
26.17225,63319
26.18037,49950
26.18850,53166
26.19662,54011
26.20475,54589
26.21287,52802
26.22098,55282
26.22912,56021
26.23723,57557
26.24537,54066
26.25348,60758
26.26160,53743
26.26973,52936
26.27785,62622
26.28597,53735
26.29410,56684
26.30222,59549
26.31035,63919
26.31847,67301
26.32658,78070
26.33472,105593
26.34283,142844
26.35097,174466
26.35908,206245
26.36720,230285
26.37533,233274
26.38345,211839
26.39158,175930
26.39970,158431
26.40782,175008
26.41595,221930
26.42407,293533
26.43218,349347
26.44032,366298
26.44843,317282
26.45657,246114
26.46468,162918
26.47280,118441
26.48093,90928
26.48905,73751
26.49718,66482
26.50530,58519
26.51342,57755
26.52155,64149
26.52967,63867
26.53780,65033
26.54592,55620
26.55403,59319
26.56217,62766
26.57028,58620
26.57840,55801
26.58653,61876
26.59465,56658
26.60278,58909
26.61090,55271
26.61902,58406
26.62715,60450
26.63527,60093
26.64340,66508
26.65152,67475
26.65963,85231
26.66777,86216
26.67588,91294
26.68400,90327
26.69213,95217
26.70025,88402
26.70838,80939
26.71650,78077
26.72462,65788
26.73275,59604
26.74087,62904
26.74900,55560
26.75712,58247
26.76523,53668
26.77337,61271
26.78148,53280
26.78962,55735
26.79773,52702
26.80585,54124
26.81398,53691
26.82210,54560
26.83022,54268
26.83835,53649
26.84647,51189
26.85460,52246
26.86272,50639
26.87083,48873
26.87897,53182
26.88708,51223
26.89522,51046
26.90333,52318
26.91145,56732
26.91958,51393
26.92770,49038
26.93583,52797
26.94395,56628
26.95207,57675
26.96020,65203
26.96832,81169
26.97643,101528
26.98457,136560
26.99268,170904
27.00082,183513
27.00893,190247
27.01705,162607
27.02518,131386
27.03330,106820
27.04143,82729
27.04955,65855
27.05767,63470
27.06580,61805
27.07392,60042
27.08203,65200
27.09017,59700
27.09828,58745
27.10642,61594
27.11453,58250
27.12265,59698
27.13078,63694
27.13890,63497
27.14703,65628
27.15515,65410
27.16327,59629
27.17140,60098
27.17952,61712
27.18765,61822
27.19577,64380
27.20388,62790
27.21202,62207
27.22013,62163
27.22825,62310
27.23638,73297
27.24450,82407
27.25263,70129
27.26075,77023
27.26887,76567
27.27700,81449
27.28512,78368
27.29325,76738
27.30137,75897
27.30948,70600
27.31762,68484
27.32573,70932
27.33387,69797
27.34198,76573
27.35010,70491
27.35823,61823
27.36635,65109
27.37447,58657
27.38260,62391
27.39072,61370
27.39885,64913
27.40697,77920
27.41508,107664
27.42322,172451
27.43133,305347
27.43947,483959
27.44758,710377
27.45570,926010
27.46383,1085355
27.47195,1169286
27.48007,1101260
27.48820,987846
27.49632,810725
27.50445,691305
27.51257,550600
27.52068,452532
27.52882,365895
27.53693,300961
27.54507,266185
27.55318,215919
27.56130,180316
27.56943,180105
27.57755,146639
27.58568,130923
27.59380,120304
27.60192,120298
27.61005,108291
27.61817,100568
27.62628,99143
27.63442,98727
27.64253,111099
27.65067,125665
27.65878,153310
27.66690,199054
27.67503,261325
27.68315,303648
27.69128,319546
27.69940,290982
27.70752,226868
27.71565,172718
27.72377,141550
27.73190,118851
27.74002,93978
27.74813,89365
27.75627,86400
27.76438,83470
27.77250,83726
27.78063,76731
27.78875,85550
27.79688,74167
27.80500,71657
27.81312,70559
27.82125,79204
27.82937,65412
27.83750,73232
27.84562,81491
27.85373,70299
27.86187,73675
27.86998,72179
27.87812,77415
27.88623,68713
27.89435,66265
27.90248,66302
27.91060,72377
27.91872,65984
27.92685,63734
27.93497,63312
27.94310,68326
27.95122,72103
27.95933,66291
27.96747,73832
27.97558,63130
27.98372,61476
27.99183,72872
27.99995,62099
28.00808,67527
28.01620,58825
28.02432,65530
28.03245,57925
28.04057,55151
28.04870,59694
28.05682,64420
28.06493,60001
28.07307,57159
28.08118,55899
28.08932,63005
28.09743,60790
28.10555,57632
28.11368,60453
28.12180,67406
28.12993,64872
28.13805,68553
28.14617,66230
28.15430,69710
28.16242,66245
28.17053,68049
28.17867,62109
28.18678,66391
28.19492,61044
28.20303,61182
28.21115,56655
28.21928,60021
28.22740,58262
28.23553,58804
28.24365,57148
28.25177,60019
28.25990,63551
28.26802,55911
28.27615,56383
28.28427,57707
28.29238,62931
28.30052,57306
28.30863,63568
28.31675,60969
28.32488,62436
28.33300,57675
28.34113,57397
28.34925,61739
28.35737,60806
28.36550,57983
28.37362,68706
28.38175,57968
28.38987,55629
28.39798,61412
28.40612,54408
28.41423,56701
28.42235,55311
28.43048,55004
28.43860,55937
28.44673,57447
28.45485,62075
28.46297,60842
28.47110,60234
28.47922,61596
28.48735,60544
28.49547,62602
28.50358,69518
28.51172,78453
28.51983,69575
28.52797,63657
28.53608,68180
28.54420,58948
28.55233,60800
28.56045,76286
28.56857,61621
28.57670,66132
28.58482,65626
28.59295,69589
28.60107,76591
28.60918,73823
28.61732,79220
28.62543,84800
28.63357,86372
28.64168,98338
28.64980,100469
28.65793,102071
28.66605,92981
28.67418,77743
28.68230,68473
28.69042,71174
28.69855,77027
28.70667,87989
28.71478,97611
28.72292,125951
28.73103,149223
28.73917,175935
28.74728,201966
28.75540,213972
28.76353,222417
28.77165,229455
28.77978,242670
28.78790,232562
28.79602,226996
28.80415,237698
28.81227,226148
28.82038,230139
28.82852,210217
28.83663,207085
28.84477,183099
28.85288,179055
28.86100,163824
28.86913,143520
28.87725,141963
28.88538,134706
28.89350,122003
28.90162,120934
28.90975,114023
28.91787,107704
28.92600,101170
28.93412,104173
28.94223,104886
28.95037,91358
28.95848,90157
28.96660,83855
28.97473,87765
28.98285,87598
28.99098,83764
28.99910,83730
29.00722,71339
29.01535,73684
29.02347,76293
29.03160,71310
29.03972,73068
29.04783,73594
29.05597,68693
29.06408,74850
29.07222,84360
29.08033,88593
29.08845,83225
29.09658,90981
29.10470,86800
29.11282,82768
29.12095,73474
29.12907,67821
29.13720,67184
29.14532,63701
29.15343,65301
29.16157,71849
29.16968,73001
29.17782,73072
29.18593,71735
29.19405,79874
29.20218,82220
29.21030,76316
29.21843,68904
29.22655,77779
29.23467,68320
29.24280,66550
29.25092,70509
29.25903,68843
29.26717,70472
29.27528,63052
29.28342,65368
29.29153,67699
29.29965,63931
29.30778,65554
29.31590,63643
29.32403,69649
29.33215,64530
29.34027,57603
29.34840,60680
29.35652,67854
29.36463,57383
29.37277,57856
29.38088,58104
29.38902,57769
29.39713,59396
29.40525,57655
29.41338,56493
29.42150,65718
29.42963,67119
29.43775,58113
29.44587,54027
29.45400,56076
29.46212,55646
29.47025,53528
29.47837,57656
29.48648,60373
29.49462,59368
29.50273,63004
29.51085,69270
29.51898,63758
29.52710,60467
29.53523,54900
29.54335,57735
29.55147,56250
29.55960,57431
29.56772,54036
29.57585,58272
29.58397,55306
29.59208,54264
29.60022,58457
29.60833,55116
29.61647,57315
29.62458,56255
29.63270,55018
29.64083,61055
29.64895,70277
29.65707,60287
29.66520,61085
29.67332,58195
29.68145,67981
29.68957,56407
29.69768,58148
29.70582,64893
29.71393,62537
29.72207,64112
29.73018,62531
29.73830,61378
29.74643,59983
29.75455,67220
29.76267,62123
29.77080,60157
29.77892,59091
29.78705,57982
29.79517,61597
29.80328,61532
29.81142,67321
29.81953,62255
29.82767,60459
29.83578,56518
29.84390,56996
29.85203,57441
29.86015,56642
29.86828,56549
29.87640,57080
29.88452,68142
29.89265,57413
29.90077,57460
29.90888,54056
29.91702,63642
29.92513,58673
29.93327,57831
29.94138,56479
29.94950,59511
29.95763,58227
29.96575,53793
29.97388,58433
29.98200,56939
29.99012,55957
29.99825,62781
30.00637,57652
30.01450,56747
30.02262,57428
30.03073,60336
30.03887,61291
30.04698,61315
30.05510,67434
30.06323,65464
30.07135,65113
30.07948,73488
30.08760,62396
30.09572,56688
30.10385,69250
30.11197,58529
30.12010,64548
30.12822,59514
30.13633,65609
30.14447,65077
30.15258,71069
30.16070,72389
30.16883,72022
30.17695,72800
30.18508,66272
30.19320,71202
30.20132,78596
30.20945,71485
30.21757,76190
30.22570,69792
30.23382,68605
30.24193,73377
30.25007,72040
30.25818,74582
30.26632,73182
30.27443,72179
30.28255,65066
30.29068,64831
30.29880,65443
30.30692,68562
30.31505,73892
30.32317,88053
30.33130,96373
30.33942,105671
30.34753,114722
30.35567,122614
30.36378,135917
30.37192,134494
30.38003,129158
30.38815,134074
30.39628,142044
30.40440,143969
30.41253,149042
30.42065,165034
30.42877,184390
30.43690,194421
30.44502,194360
30.45313,174744
30.46127,155082
30.46938,137150
30.47752,124554
30.48563,109937
30.49375,110592
30.50188,100923
30.51000,94069
30.51813,98341
30.52625,93020
30.53437,87764
30.54250,81102
30.55062,83089
30.55875,82286
30.56687,79382
30.57498,80042
30.58312,86951
30.59123,72781
30.59935,80011
30.60748,80247
30.61560,75746
30.62373,80692
30.63185,80890
30.63997,77420
30.64810,74028
30.65622,68635
30.66435,78060
30.67247,71155
30.68058,70414
30.68872,69236
30.69683,66059
30.70495,63758
30.71308,67720
30.72120,59030
30.72933,62486
30.73745,63140
30.74557,65159
30.75370,64418
30.76182,61369
30.76995,66177
30.77807,63560
30.78618,60785
30.79432,64970
30.80243,62753
30.81057,66320
30.81868,67655
30.82680,69276
30.83493,64568
30.84305,69257
30.85117,68225
30.85930,64347
30.86742,63523
30.87555,63122
30.88367,64756
30.89178,68301
30.89992,58625
30.90803,64338
30.91617,63324
30.92428,61418
30.93240,58201
30.94053,63091
30.94865,57399
30.95678,59271
30.96490,60389
30.97302,62661
30.98115,64934
30.98927,60153
30.99738,58273
31.00552,61135
31.01363,62437
31.02177,66414
31.02988,61860
31.03800,58308
31.04613,68400
31.05425,63326
31.06238,61950
31.07050,60904
31.07862,61168
31.08675,59888
31.09487,59809
31.10298,67616
31.11112,60828
31.11923,57294
31.12737,55640
31.13548,57187
31.14360,57314
31.15173,56601
31.15985,58208
31.16798,57326
31.17610,58176
31.18422,59461
31.19235,56983
31.20047,58713
31.20860,60531
31.21672,59450
31.22483,60088
31.23297,55454
31.24108,60922
31.24920,59011
31.25733,58224
31.26545,59305
31.27358,62088
31.28170,55490
31.28982,59218
31.29795,60956
31.30607,63370
31.31420,64103
31.32232,70882
31.33043,84129
31.33857,96773
31.34668,111732
31.35482,129196
31.36293,123909
31.37105,114908
31.37918,100533
31.38730,80839
31.39542,72739
31.40355,71889
31.41167,66937
31.41980,66885
31.42792,73045
31.43603,60205
31.44417,59282
31.45228,62112
31.46042,64562
31.46853,59795
31.47665,60486
31.48478,67027
31.49290,63225
31.50102,63384
31.50915,65933
31.51727,59294
31.52540,62028
31.53352,71642
31.54163,63398
31.54977,67184
31.55788,62001
31.56602,67537
31.57413,65176
31.58225,64705
31.59038,61989
31.59850,67268
31.60663,62804
31.61475,69288
31.62287,72952
31.63100,96672
31.63912,109125
31.64723,134330
31.65537,159113
31.66348,161566
31.67162,166884
31.67973,140965
31.68785,124109
31.69598,104157
31.70410,85199
31.71223,78328
31.72035,78299
31.72847,77548
31.73660,70510
31.74472,74463
31.75285,66270
31.76097,64417
31.76908,75897
31.77722,70345
31.78533,63310
31.79345,66301
31.80158,62765
31.80970,67448
31.81783,61004
31.82595,71170
31.83407,63767
31.84220,61546
31.85032,58101
31.85845,64009
31.86657,63718
31.87468,59952
31.88282,58350
31.89093,62197
31.89907,61519
31.90718,58421
31.91530,60832
31.92343,58278
31.93155,61004
31.93967,58357
31.94780,59387
31.95592,66253
31.96405,69873
31.97217,66023
31.98028,58633
31.98842,60640
31.99653,61080
32.00467,61128
32.01278,64211
32.02090,60573
32.02903,60017
32.03715,60634
32.04527,65833
32.05340,60688
32.06152,67883
32.06965,63416
32.07777,61030
32.08588,62309
32.09402,63567
32.10213,62976
32.11027,67817
32.11838,67281
32.12650,69119
32.13463,64451
32.14275,64689
32.15088,66348
32.15900,61131
32.16712,62430
32.17525,73240
32.18337,63858
32.19148,62227
32.19962,66561
32.20773,66826
32.21587,64856
32.22398,62877
32.23210,60856
32.24023,68703
32.24835,73342
32.25648,86968
32.26460,91652
32.27272,103047
32.28085,107206
32.28897,115113
32.29710,118926
32.30522,116081
32.31333,121113
32.32147,114556
32.32958,120417
32.33770,112585
32.34583,112065
32.35395,105305
32.36208,105912
32.37020,98461
32.37832,102732
32.38645,111599
32.39457,99189
32.40270,100651
32.41082,102195
32.41893,104276
32.42707,111371
32.43518,110067
32.44330,110081
32.45143,112100
32.45955,110019
32.46768,96081
32.47580,81956
32.48392,72611
32.49205,76502
32.50017,72075
32.50830,75412
32.51642,70700
32.52453,69559
32.53267,70298
32.54078,68610
32.54892,74974
32.55703,68621
32.56515,69280
32.57328,71945
32.58140,71517
32.58952,69141
32.59765,66749
32.60577,76036
32.61390,67974
32.62202,69525
32.63013,72579
32.63827,65730
32.64638,70712
32.65452,69838
32.66263,64557
32.67075,67816
32.67888,65501
32.68700,73184
32.69513,67913
32.70325,60607
32.71137,63599
32.71950,66850
32.72762,69447
32.73573,67202
32.74387,66597
32.75198,67648
32.76012,68337
32.76823,66474
32.77635,70003
32.78448,65883
32.79260,77324
32.80073,68378
32.80885,67511
32.81697,72049
32.82510,73013
32.83322,70357
32.84133,70504
32.84947,67219
32.85758,72855
32.86572,68265
32.87383,64236
32.88195,63370
32.89008,66425
32.89820,75981
32.90633,67217
32.91445,75634
32.92257,66185
32.93070,67208
32.93882,69865
32.94695,73070
32.95507,69945
32.96318,74571
32.97132,71902
32.97943,80591
32.98755,81799
32.99568,81641
33.00380,76539
33.01193,81993
33.02005,79525
33.02817,72087
33.03630,69383
33.04442,69352
33.05255,77555
33.06067,63496
33.06878,75674
33.07692,74434
33.08503,66531
33.09317,65412
33.10128,69498
33.10940,67478
33.11753,64852
33.12565,70083
33.13377,71086
33.14190,69597
33.15002,68097
33.15815,67644
33.16627,67638
33.17438,70202
33.18252,67233
33.19063,65316
33.19877,64874
33.20688,65241
33.21500,67268
33.22313,78185
33.23125,73224
33.23938,81143
33.24750,77569
33.25562,67486
33.26375,71315
33.27187,70486
33.27998,72167
33.28812,68600
33.29623,75155
33.30437,67758
33.31248,64194
33.32060,67514
33.32873,70105
33.33685,67440
33.34498,69277
33.35310,64045
33.36122,66846
33.36935,64012
33.37747,63317
33.38558,67471
33.39372,74425
33.40183,65445
33.40997,62546
33.41808,67796
33.42620,70739
33.43433,66102
33.44245,61692
33.45058,65001
33.45870,68556
33.46682,68255
33.47495,71218
33.48307,75615
33.49120,70260
33.49932,68827
33.50743,73524
33.51557,72334
33.52368,71183
33.53180,73063
33.53993,68389
33.54805,69415
33.55618,69618
33.56430,65634
33.57242,73759
33.58055,70317
33.58867,68363
33.59680,68143
33.60492,71996
33.61303,74597
33.62117,71032
33.62928,76015
33.63742,78998
33.64553,89907
33.65365,93420
33.66178,96365
33.66990,99237
33.67802,97809
33.68615,77362
33.69427,78384
33.70240,69087
33.71052,69657
33.71863,70925
33.72677,71897
33.73488,66760
33.74302,70644
33.75113,67720
33.75925,78004
33.76738,69065
33.77550,68641
33.78362,71169
33.79175,75614
33.79987,72898
33.80800,71114
33.81612,74816
33.82423,77274
33.83237,77223
33.84048,70401
33.84862,71516
33.85673,76598
33.86485,71265
33.87298,61133
33.88110,69468
33.88923,72141
33.89735,71114
33.90547,67256
33.91360,79599
33.92172,68801
33.92983,71349
33.93797,79411
33.94608,67781
33.95422,67617
33.96233,65166
33.97045,70491
33.97858,69620
33.98670,76531
33.99483,67666
34.00295,65453
34.01107,70742
34.01920,69731
34.02732,80089
34.03545,70599
34.04357,66410
34.05168,77386
34.05982,71918
34.06793,69676
34.07605,70437
34.08418,70480
34.09230,78031
34.10043,78860
34.10855,74002
34.11667,70687
34.12480,78542
34.13292,74660
34.14105,68093
34.14917,72049
34.15728,77872
34.16542,83492
34.17353,74996
34.18165,84815
34.18978,76755
34.19790,73986
34.20603,75620
34.21415,76792
34.22227,75932
34.23040,81281
34.23852,80496
34.24665,78003
34.25477,85786
34.26288,72864
34.27102,76212
34.27913,73996
34.28727,72898
34.29538,70754
34.30350,75419
34.31163,71077
34.31975,76695
34.32787,74810
34.33600,72698
34.34412,71985
34.35225,77480
34.36037,70046
34.36848,72096
34.37662,70580
34.38473,74992
34.39287,78185
34.40098,84954
34.40910,80165
34.41723,83851
34.42535,80911
34.43348,76144
34.44160,78831
34.44972,80160
34.45785,81057
34.46597,75952
34.47408,73443
34.48222,71470
34.49033,71758
34.49847,80712
34.50658,74709
34.51470,73825
34.52283,76486
34.53095,75520
34.53908,77853
34.54720,88068
34.55532,94226
34.56345,102703
34.57157,114273
34.57970,131932
34.58782,129412
34.59593,120590
34.60407,108260
34.61218,94963
34.62030,92544
34.62843,92761
34.63655,81123
34.64468,78711
34.65280,79851
34.66092,82239
34.66905,75810
34.67717,77737
34.68530,76315
34.69342,77088
34.70153,82799
34.70967,82602
34.71778,80782
34.72590,78236
34.73403,73181
34.74215,78369
34.75028,77403
34.75840,81513
34.76652,73973
34.77465,70902
34.78277,72580
34.79090,80145
34.79902,81314
34.80713,86284
34.81527,78927
34.82338,85135
34.83152,75852
34.83963,76098
34.84775,81498
34.85588,90264
34.86400,111439
34.87212,120909
34.88025,122038
34.88837,133019
34.89650,140304
34.90462,150575
34.91273,131555
34.92087,121051
34.92898,108270
34.93712,108994
34.94523,99981
34.95335,102646
34.96148,99648
34.96960,89634
34.97773,88438
34.98585,92911
34.99397,92973
35.00210,85978
35.01022,88754
35.01833,83195
35.02647,82059
35.03458,85772
35.04272,89510
35.05083,81432
35.05895,85098
35.06708,83633
35.07520,85807
35.08333,84824
35.09145,79649
35.09957,82488
35.10770,84790
35.11582,85677
35.12393,79951
35.13207,81604
35.14018,78965
35.14832,77563
35.15643,78549
35.16455,79204
35.17268,78836
35.18080,75289
35.18893,82333
35.19705,75716
35.20517,81221
35.21330,78457
35.22142,81684
35.22955,80611
35.23767,78307
35.24578,81565
35.25392,79005
35.26203,80705
35.27015,86823
35.27828,80953
35.28640,88586
35.29453,83775
35.30265,79436
35.31077,83140
35.31890,83048
35.32702,79958
35.33515,85964
35.34327,84148
35.35138,85508
35.35952,82981
35.36763,86203
35.37577,91560
35.38388,83980
35.39200,84063
35.40013,83886
35.40825,86325
35.41637,84993
35.42450,84347
35.43262,83393
35.44075,86626
35.44887,87372
35.45698,88420
35.46512,82839
35.47323,92807
35.48137,88052
35.48948,90899
35.49760,91800
35.50573,91275
35.51385,95011
35.52197,92954
35.53010,93984
35.53822,87530
35.54635,88511
35.55447,89557
35.56258,91617
35.57072,96928
35.57883,89250
35.58697,89038
35.59508,103298
35.60320,93992
35.61133,92016
35.61945,93930
35.62758,92671
35.63570,95254
35.64382,92266
35.65195,95190
35.66007,87527
35.66818,88472
35.67632,90066
35.68443,102377
35.69257,92592
35.70068,92831
35.70880,91900
35.71693,86712
35.72505,87045
35.73318,89405
35.74130,84884
35.74942,86546
35.75755,86553
35.76567,88406
35.77380,89191
35.78192,89435
35.79003,86770
35.79817,93737
35.80628,90708
35.81440,91014
35.82253,86261
35.83065,97791
35.83878,86388
35.84690,86628
35.85502,87653
35.86315,84558
35.87127,87481
35.87940,86908
35.88752,88247
35.89563,84205
35.90377,91543
35.91188,90254
35.92002,93342
35.92813,92408
35.93625,89970
35.94438,85815
35.95250,84373
35.96062,91110
35.96875,90406
35.97687,93180
35.98500,101663
35.99312,97241
36.00123,103847
36.00937,104381
36.01748,102516
36.02562,99305
36.03373,99043
36.04185,103468
36.04998,99087
36.05810,90439
36.06622,96706
36.07435,93464
36.08247,91228
36.09060,92652
36.09872,97966
36.10683,101793
36.11497,92784
36.12308,89363
36.13122,94244
36.13933,98065
36.14745,94342
36.15558,95479
36.16370,102137
36.17183,101070
36.17995,89755
36.18807,88903
36.19620,87860
36.20432,93621
36.21243,92793
36.22057,90608
36.22868,98216
36.23682,95012
36.24493,98613
36.25305,96210
36.26118,99581
36.26930,100494
36.27743,100926
36.28555,97641
36.29367,97399
36.30180,106926
36.30992,98233
36.31805,100898
36.32617,95678
36.33428,91111
36.34242,95129
36.35053,92687
36.35865,99044
36.36678,94931
36.37490,106011
36.38303,94142
36.39115,94680
36.39927,93193
36.40740,91991
36.41552,92354
36.42365,105439
36.43177,93550
36.43988,93343
36.44802,93456
36.45613,93433
36.46425,94592
36.47238,95707
36.48050,92105
36.48863,101198
36.49675,97427
36.50487,93929
36.51300,97623
36.52112,90094
36.52925,99754
36.53737,109375
36.54548,96233
36.55362,96010
36.56173,92043
36.56987,100128
36.57798,106312
36.58610,102457
36.59423,109124
36.60235,110454
36.61047,110197
36.61860,105169
36.62672,105070
36.63485,111337
36.64297,110373
36.65108,117991
36.65922,125176
36.66733,130941
36.67547,135844
36.68358,133209
36.69170,132714
36.69983,129508
36.70795,114902
36.71608,111342
36.72420,102832
36.73232,102147
36.74045,100421
36.74857,99336
36.75668,99847
36.76482,97449
36.77293,101677
36.78107,95794
36.78918,106460
36.79730,99826
36.80543,95941
36.81355,101637
36.82168,110646
36.82980,99286
36.83792,99637
36.84605,101415
36.85417,97937
36.86228,98938
36.87042,103259
36.87853,98027
36.88667,105999
36.89478,104321
36.90290,106517
36.91103,102388
36.91915,104584
36.92728,108920
36.93540,104878
36.94352,104331
36.95165,113280
36.95977,122807
36.96790,150360
36.97602,165056
36.98413,187659
36.99227,200808
37.00038,194182
37.00850,174673
37.01663,151099
37.02475,132173
37.03288,121756
37.04100,117350
37.04912,107003
37.05725,110508
37.06537,109250
37.07350,107268
37.08162,107623
37.08973,103067
37.09787,105163
37.10598,109514
37.11412,108490
37.12223,104009
37.13035,104863
37.13848,114544
37.14660,111717
37.15472,108496
37.16285,105550
37.17097,110225
37.17910,109599
37.18722,114818
37.19533,118183
37.20347,106959
37.21158,109910
37.21972,102356
37.22783,107102
37.23595,107629
37.24408,106625
37.25220,109629
37.26033,109395
37.26845,107703
37.27657,106997
37.28470,113466
37.29282,106152
37.30093,108442
37.30907,109371
37.31718,114914
37.32532,110266
37.33343,108987
37.34155,103010
37.34968,111753
37.35780,110497
37.36593,119965
37.37405,108161
37.38217,112577
37.39030,110097
37.39842,111126
37.40653,111772
37.41467,113016
37.42278,109256
37.43092,117361
37.43903,113342
37.44715,106664
37.45528,112576
37.46340,114716
37.47153,111801
37.47965,105765
37.48777,114287
