C:\MassHunter\GCMS\1\data\JTB-E02\BACandBLUE\JTB-E18-018-10.D Thu Jul 04 12:27:15 2019
Start of data points
2.09538	80889
2.10350	76936
2.11163	78138
2.11975	78740
2.12788	74661
2.13600	83549
2.14412	81427
2.15225	80465
2.16037	79420
2.16848	78172
2.17662	78943
2.18473	74884
2.19287	72720
2.20098	75002
2.20910	77232
2.21723	77965
2.22535	77589
2.23348	74407
2.24160	71593
2.24972	74455
2.25785	74898
2.26597	86827
2.27408	365952
2.28222	1299926
2.29033	1176021
2.29847	508374
2.30658	323198
2.31470	254194
2.32283	228409
2.33095	205650
2.33908	189808
2.34720	187130
2.35532	161323
2.36345	151596
2.37157	144904
2.37970	139519
2.38782	145585
2.39593	135651
2.40407	129914
2.41218	134633
2.42030	127291
2.42843	133893
2.43655	128286
2.44468	125075
2.45280	122999
2.46092	122917
2.46905	119180
2.47717	119115
2.48530	116520
2.49342	132203
2.50153	156769
2.50967	131204
2.51778	125279
2.52590	120471
2.53403	118788
2.54215	114187
2.55028	127134
2.55840	154801
2.56652	209039
2.57465	194981
2.58277	157051
2.59090	140935
2.59902	135589
2.60713	291201
2.61527	939326
2.62338	1132898
2.63152	657434
2.63963	396408
2.64775	292341
2.65588	230571
2.66400	197993
2.67212	181781
2.68025	159984
2.68837	156698
2.69650	142899
2.70462	140885
2.71273	135452
2.72087	128622
2.72898	127068
2.73712	120001
2.74523	124889
2.75335	119275
2.76148	122546
2.76960	120595
2.77773	124522
2.78585	179977
2.79397	253971
2.80210	218358
2.81022	169550
2.81833	172283
2.82647	181135
2.83458	185844
2.84272	171851
2.85083	156382
2.85895	138508
2.86708	132316
2.87520	129772
2.88333	118217
2.89145	123833
2.89957	115990
2.90770	118011
2.91582	113638
2.92395	115381
2.93207	112877
2.94018	110302
2.94832	107670
2.95643	110412
2.96455	120919
2.97268	133761
2.98080	122111
2.98893	119155
2.99705	113058
3.00517	117782
3.01330	114861
3.02142	110409
3.02955	108489
3.03767	103485
3.04578	106178
3.05392	105810
3.06203	109344
3.07015	117484
3.07828	150525
3.08640	634209
3.09453	2329378
3.10265	4046704
3.11077	5092694
3.11890	5370798
3.12702	3685397
3.13515	2285787
3.14327	1684449
3.15138	1332427
3.15952	1060109
3.16763	900092
3.17577	823460
3.18388	799348
3.19200	1144295
3.20013	1744142
3.20825	1661112
3.21637	1168847
3.22450	908742
3.23262	784148
3.24075	666843
3.24887	577738
3.25698	516608
3.26512	459310
3.27323	427725
3.28137	404362
3.28948	515462
3.29760	1272937
3.30573	3323086
3.31385	5706131
3.32197	6066869
3.33010	4613251
3.33822	3210871
3.34635	2305652
3.35447	1800434
3.36258	1471453
3.37072	1209007
3.37883	1033607
3.38697	900563
3.39508	802065
3.40320	717633
3.41133	668670
3.41945	611945
3.42758	583922
3.43570	543083
3.44382	524036
3.45195	514728
3.46007	486743
3.46818	490869
3.47632	497907
3.48443	503269
3.49257	460302
3.50068	428157
3.50880	420959
3.51693	395953
3.52505	391047
3.53318	384718
3.54130	393386
3.54942	395528
3.55755	362986
3.56567	362885
3.57380	400278
3.58192	447047
3.59003	426101
3.59817	392336
3.60628	366861
3.61440	352799
3.62253	362771
3.63065	368541
3.63878	384568
3.64690	391715
3.65502	372106
3.66315	474703
3.67127	1403754
3.67940	4123427
3.68752	6345653
3.69563	5214603
3.70377	3132993
3.71188	2093781
3.72000	1634663
3.72813	1374023
3.73625	1229198
3.74438	1098005
3.75250	993958
3.76062	901486
3.76875	831362
3.77687	774082
3.78500	725078
3.79312	694590
3.80123	709352
3.80937	1036553
3.81748	1725957
3.82562	2054635
3.83373	1700260
3.84185	1228809
3.84998	991943
3.85810	855667
3.86622	771636
3.87435	715735
3.88247	658911
3.89060	627194
3.89872	586698
3.90683	565005
3.91497	571174
3.92308	640391
3.93122	795367
3.93933	848206
3.94745	963767
3.95558	2095101
3.96370	5361310
3.97183	8691843
3.97995	8371378
3.98807	5399762
3.99620	4032104
4.00432	8702298
4.01243	2.176218E+07
4.02057	3.386593E+07
4.02868	3.348891E+07
4.03682	2.133587E+07
4.04493	1.026119E+07
4.05305	5540904
4.06118	3687824
4.06930	2790505
4.07743	2186898
4.08555	1831430
4.09367	1569669
4.10180	1387842
4.10992	1223930
4.11803	1130538
4.12617	1031929
4.13428	968862
4.14242	976937
4.15053	1071883
4.15865	1123800
4.16678	1051222
4.17490	934823
4.18303	880985
4.19115	803566
4.19927	746671
4.20740	846556
4.21552	1849326
4.22365	5571610
4.23177	1.184224E+07
4.23988	1.63654E+07
4.24802	1.595211E+07
4.25613	1.130208E+07
4.26425	6793671
4.27238	4540323
4.28050	3298709
4.28863	2595395
4.29675	2094329
4.30487	1727152
4.31300	1525704
4.32112	1343345
4.32925	1211706
4.33737	1120431
4.34548	1054941
4.35362	1016056
4.36173	997346
4.36985	978918
4.37798	944946
4.38610	867326
4.39423	800427
4.40235	746641
4.41047	709968
4.41860	685820
4.42672	665603
4.43485	637275
4.44297	630408
4.45108	596023
4.45922	586812
4.46733	568028
4.47547	542928
4.48358	554652
4.49170	527516
4.49983	521954
4.50795	508729
4.51607	494329
4.52420	481354
4.53232	478076
4.54045	463280
4.54857	459139
4.55668	458176
4.56482	453088
4.57293	436858
4.58107	425820
4.58918	416540
4.59730	405847
4.60543	412971
4.61355	403714
4.62168	425278
4.62980	506364
4.63792	700476
4.64605	893567
4.65417	922286
4.66228	756645
4.67042	589532
4.67853	499145
4.68667	450308
4.69478	430512
4.70290	409377
4.71103	386213
4.71915	374588
4.72728	385171
4.73540	373660
4.74352	370519
4.75165	359686
4.75977	341474
4.76788	346478
4.77602	331921
4.78413	348150
4.79227	466670
4.80038	820455
4.80850	1338864
4.81663	1540667
4.82475	1304530
4.83288	946692
4.84100	773715
4.84912	700333
4.85725	652462
4.86537	594918
4.87350	530145
4.88162	506402
4.88973	464609
4.89787	444350
4.90598	421637
4.91410	406200
4.92223	394400
4.93035	425363
4.93848	599601
4.94660	1138543
4.95472	2191327
4.96285	3246851
4.97097	3685099
4.97910	3321241
4.98722	2566657
4.99533	1865412
5.00347	1379968
5.01158	1076680
5.01972	919032
5.02783	924442
5.03595	1128659
5.04408	1426329
5.05220	1471651
5.06032	1309614
5.06845	1057230
5.07657	887964
5.08470	789900
5.09282	728016
5.10093	680595
5.10907	637685
5.11718	616331
5.12532	578139
5.13343	553758
5.14155	536215
5.14968	534159
5.15780	546205
5.16592	565719
5.17405	609057
5.18217	591457
5.19030	552710
5.19842	531102
5.20653	537471
5.21467	566833
5.22278	564444
5.23092	529627
5.23903	505812
5.24715	468521
5.25528	448836
5.26340	419585
5.27153	390408
5.27965	384781
5.28777	364676
5.29590	355789
5.30402	359267
5.31213	350127
5.32027	366446
5.32838	358922
5.33652	394756
5.34463	416618
5.35275	425762
5.36088	403783
5.36900	364324
5.37713	350896
5.38525	348568
5.39337	345208
5.40150	349082
5.40962	350110
5.41775	342671
5.42587	330654
5.43398	317937
5.44212	324544
5.45023	320857
5.45835	319855
5.46648	328006
5.47460	310876
5.48273	302973
5.49085	290100
5.49897	284289
5.50710	286941
5.51522	292371
5.52335	303107
5.53147	297511
5.53958	294860
5.54772	280266
5.55583	291308
5.56395	291227
5.57208	324493
5.58020	338897
5.58833	333342
5.59645	311349
5.60457	294637
5.61270	277764
5.62082	272859
5.62895	280023
5.63707	296460
5.64518	298694
5.65332	296294
5.66143	284323
5.66957	286827
5.67768	282215
5.68580	311386
5.69393	342721
5.70205	355205
5.71017	339270
5.71830	301825
5.72642	281024
5.73455	267992
5.74267	258799
5.75078	256909
5.75892	249556
5.76703	238434
5.77517	248625
5.78328	236207
5.79140	242397
5.79953	234701
5.80765	228253
5.81577	235956
5.82390	239256
5.83202	233992
5.84015	239551
5.84827	239067
5.85638	233187
5.86452	240394
5.87263	234018
5.88077	222570
5.88888	223045
5.89700	220283
5.90513	209227
5.91325	190240
5.92138	170390
5.92950	170251
5.93762	167619
5.94575	169265
5.95387	189174
5.96198	205428
5.97012	241564
5.97823	273159
5.98637	315955
5.99448	342618
6.00260	329368
6.01073	296179
6.01885	247957
6.02698	216950
6.03510	210149
6.04322	198080
6.05135	182222
6.05947	174064
6.06760	169283
6.07572	166025
6.08383	159126
6.09197	154759
6.10008	165916
6.10820	167713
6.11633	196486
6.12445	217807
6.13258	274633
6.14070	386749
6.14882	513116
6.15695	544589
6.16507	471433
6.17320	372034
6.18132	282696
6.18943	255768
6.19757	235756
6.20568	231666
6.21380	231457
6.22193	224331
6.23005	218322
6.23818	213207
6.24630	208974
6.25442	212372
6.26255	219967
6.27067	213370
6.27880	212041
6.28692	207418
6.29503	206905
6.30317	201869
6.31128	207644
6.31942	216835
6.32753	228302
6.33565	260027
6.34378	282783
6.35190	282707
6.36002	266202
6.36815	238233
6.37627	231404
6.38440	217924
6.39252	226097
6.40063	212755
6.40877	221300
6.41688	206689
6.42502	203156
6.43313	212211
6.44125	211598
6.44938	206657
6.45750	207846
6.46563	214176
6.47375	213052
6.48187	207800
6.49000	210212
6.49812	215827
6.50623	212377
6.51437	209343
6.52248	214878
6.53062	216111
6.53873	211571
6.54685	218871
6.55498	213167
6.56310	214988
6.57123	232473
6.57935	254354
6.58747	267600
6.59560	258939
6.60372	247154
6.61183	234320
6.61997	228555
6.62808	223773
6.63622	222375
6.64433	223169
6.65245	254839
6.66058	343588
6.66870	506123
6.67683	647657
6.68495	628675
6.69307	507923
6.70120	392281
6.70932	325454
6.71745	299330
6.72557	274960
6.73368	259641
6.74182	267383
6.74993	238751
6.75805	212349
6.76618	199339
6.77430	186212
6.78243	186767
6.79055	171197
6.79867	170459
6.80680	176168
6.81492	158874
6.82305	157675
6.83117	156768
6.83928	161656
6.84742	173471
6.85553	201607
6.86365	218033
6.87178	231027
6.87990	216187
6.88803	176014
6.89615	146906
6.90427	124813
6.91240	116181
6.92052	114185
6.92865	104780
6.93677	105835
6.94488	103922
6.95302	104049
6.96113	108918
6.96927	127193
6.97738	133304
6.98550	146121
6.99363	146580
7.00175	133709
7.00987	114875
7.01800	109355
7.02612	106884
7.03425	115894
7.04237	106641
7.05048	103512
7.05862	99555
7.06673	99786
7.07487	101877
7.08298	102011
7.09110	96307
7.09923	94664
7.10735	95107
7.11548	91314
7.12360	93022
7.13172	90173
7.13985	103771
7.14797	137879
7.15608	201114
7.16422	264286
7.17233	290833
7.18047	260461
7.18858	205534
7.19670	170621
7.20483	156910
7.21295	225417
7.22108	460837
7.22920	903283
7.23732	1385557
7.24545	1520954
7.25357	1164063
7.26170	749392
7.26982	439506
7.27793	308101
7.28607	238858
7.29418	178989
7.30230	149935
7.31043	130156
7.31855	125943
7.32668	124894
7.33480	132879
7.34292	128356
7.35105	122982
7.35917	119923
7.36730	107170
7.37542	107469
7.38353	112260
7.39167	112940
7.39978	111996
7.40790	117262
7.41603	112271
7.42415	108903
7.43228	107096
7.44040	102375
7.44852	107640
7.45665	103647
7.46477	105272
7.47290	101555
7.48102	91451
7.48913	88739
7.49727	94849
7.50538	88409
7.51352	90728
7.52163	109106
7.52975	143232
7.53788	196257
7.54600	270177
7.55412	354227
7.56225	407992
7.57037	385286
7.57850	346476
7.58662	268689
7.59473	207175
7.60287	150370
7.61098	128935
7.61912	111448
7.62723	104304
7.63535	98007
7.64348	95543
7.65160	94215
7.65972	93478
7.66785	85728
7.67597	90177
7.68410	91378
7.69222	93329
7.70033	88343
7.70847	85482
7.71658	84629
7.72472	85532
7.73283	86560
7.74095	86140
7.74908	85994
7.75720	93858
7.76533	90996
7.77345	93033
7.78157	90749
7.78970	99808
7.79782	99120
7.80593	107232
7.81407	110778
7.82218	109584
7.83032	99317
7.83843	81969
7.84655	88120
7.85468	86811
7.86280	84831
7.87093	88131
7.87905	92611
7.88717	100407
7.89530	102257
7.90342	101600
7.91155	93329
7.91967	93357
7.92778	100187
7.93592	114871
7.94403	138340
7.95215	143526
7.96028	142300
7.96840	125600
7.97653	111311
7.98465	102087
7.99277	89659
8.00090	83447
8.00902	76641
8.01715	78067
8.02527	76213
8.03338	74125
8.04152	76027
8.04963	77816
8.05775	74718
8.06588	76262
8.07400	75819
8.08213	74203
8.09025	71176
8.09837	71160
8.10650	73227
8.11462	74805
8.12275	73990
8.13087	79944
8.13898	97599
8.14712	106448
8.15523	118975
8.16337	122922
8.17148	110184
8.17960	95127
8.18773	83886
8.19585	82795
8.20397	81823
8.21210	77814
8.22022	78265
8.22835	77270
8.23647	74975
8.24458	77051
8.25272	75019
8.26083	76152
8.26897	73945
8.27708	71066
8.28520	71182
8.29333	71977
8.30145	73482
8.30958	74605
8.31770	79961
8.32582	86678
8.33395	86151
8.34207	82074
8.35018	77853
8.35832	76559
8.36643	72726
8.37457	77395
8.38268	77576
8.39080	80656
8.39893	78625
8.40705	72364
8.41518	71504
8.42330	69051
8.43142	66698
8.43955	68131
8.44767	70570
8.45578	56675
8.46392	65531
8.47203	63951
8.48017	67752
8.48828	71608
8.49640	66549
8.50453	63251
8.51265	70099
8.52078	80767
8.52890	112203
8.53702	203707
8.54515	324097
8.55327	433848
8.56140	434486
8.56952	354609
8.57763	232671
8.58577	159090
8.59388	122072
8.60200	109645
8.61013	113682
8.61825	109726
8.62638	104101
8.63450	97956
8.64262	88396
8.65075	82018
8.65887	78401
8.66700	79205
8.67512	80470
8.68323	78477
8.69137	79543
8.69948	79717
8.70760	80166
8.71573	79960
8.72385	81637
8.73198	75831
8.74010	82518
8.74822	114282
8.75635	212978
8.76447	411549
8.77260	743754
8.78072	1045401
8.78883	1140397
8.79697	1009101
8.80508	732412
8.81322	482454
8.82133	296501
8.82945	228479
8.83758	198686
8.84570	192574
8.85382	192393
8.86195	187304
8.87007	181045
8.87820	168612
8.88632	155411
8.89443	148385
8.90257	140760
8.91068	147000
8.91882	139562
8.92693	135525
8.93505	146021
8.94318	155059
8.95130	161252
8.95943	162053
8.96755	155122
8.97567	148363
8.98380	139734
8.99192	143614
9.00003	137639
9.00817	127417
9.01628	126539
9.02442	118166
9.03253	117507
9.04065	109882
9.04878	115795
9.05690	106567
9.06503	101510
9.07315	94178
9.08127	106831
9.08940	105089
9.09752	114266
9.10563	117496
9.11377	132370
9.12188	143808
9.13002	143077
9.13813	133453
9.14625	117252
9.15438	116341
9.16250	105482
9.17063	108870
9.17875	99785
9.18687	98305
9.19500	93775
9.20312	94698
9.21125	92280
9.21937	97757
9.22748	92081
9.23562	91328
9.24373	95159
9.25185	95826
9.25998	91360
9.26810	92999
9.27623	97094
9.28435	95345
9.29247	95025
9.30060	85483
9.30872	83380
9.31685	84404
9.32497	86891
9.33308	87369
9.34122	84265
9.34933	82766
9.35747	77774
9.36558	78543
9.37370	77201
9.38183	80893
9.38995	83999
9.39807	82105
9.40620	89231
9.41432	91428
9.42245	114522
9.43057	122031
9.43868	137753
9.44682	139888
9.45493	140352
9.46307	122740
9.47118	109603
9.47930	96273
9.48743	86207
9.49555	82629
9.50367	87697
9.51180	95975
9.51992	109139
9.52805	118617
9.53617	120168
9.54428	114431
9.55242	93408
9.56053	83745
9.56867	75537
9.57678	68733
9.58490	75328
9.59303	71603
9.60115	68012
9.60928	65649
9.61740	63204
9.62552	61487
9.63365	55837
9.64177	55456
9.64988	54817
9.65802	54259
9.66613	54294
9.67427	59143
9.68238	56602
9.69050	54849
9.69863	51136
9.70675	51135
9.71488	48671
9.72300	51245
9.73112	45397
9.73925	51023
9.74737	48768
9.75550	48167
9.76362	47823
9.77173	41970
9.77987	49470
9.78798	47372
9.79610	46140
9.80423	46004
9.81235	46899
9.82048	48748
9.82860	48884
9.83672	47546
9.84485	52576
9.85297	47670
9.86110	50181
9.86922	51868
9.87733	52489
9.88547	51957
9.89358	50758
9.90170	52605
9.90983	51786
9.91795	52656
9.92608	57421
9.93420	74605
9.94232	95237
9.95045	127801
9.95857	161735
9.96670	182720
9.97482	171961
9.98293	147066
9.99107	119235
9.99918	106953
10.00732	87806
10.01543	84301
10.02355	74866
10.03168	71535
10.03980	64121
10.04792	63868
10.05605	59696
10.06417	59810
10.07230	58697
10.08042	63740
10.08853	62759
10.09667	63600
10.10478	66686
10.11292	65612
10.12103	64067
10.12915	58067
10.13728	67078
10.14540	59335
10.15352	61330
10.16165	57399
10.16977	60041
10.17790	56962
10.18602	53634
10.19413	56613
10.20227	53688
10.21038	57074
10.21852	55157
10.22663	55273
10.23475	64945
10.24288	66592
10.25100	74012
10.25913	89632
10.26725	152937
10.27537	329925
10.28350	719983
10.29162	1294260
10.29973	2005394
10.30787	2754304
10.31598	3954658
10.32412	5644906
10.33223	7731383
10.34035	8705561
10.34848	8090859
10.35660	6313321
10.36473	4442833
10.37285	3220304
10.38097	2479139
10.38910	1831914
10.39722	1331703
10.40535	927477
10.41347	653535
10.42158	519151
10.42972	451124
10.43783	411139
10.44595	372037
10.45408	346691
10.46220	318587
10.47033	309583
10.47845	291492
10.48657	265490
10.49470	246773
10.50282	237859
10.51095	218136
10.51907	215208
10.52718	203359
10.53532	193131
10.54343	191830
10.55155	183795
10.55968	183769
10.56780	181048
10.57593	173256
10.58405	173747
10.59217	160135
10.60030	157310
10.60842	145865
10.61655	142599
10.62467	131689
10.63278	128594
10.64092	131055
10.64903	127899
10.65717	121797
10.66528	117244
10.67340	120714
10.68153	122247
10.68965	118573
10.69777	124810
10.70590	111673
10.71402	116118
10.72215	109318
10.73027	117576
10.73838	112132
10.74652	110287
10.75463	104814
10.76277	111527
10.77088	107224
10.77900	99976
10.78713	92610
10.79525	93212
10.80338	92350
10.81150	89928
10.81962	93609
10.82775	91087
10.83587	93760
10.84398	86592
10.85212	84145
10.86023	85364
10.86837	79335
10.87648	81466
10.88460	78245
10.89273	83543
10.90085	78645
10.90898	78681
10.91710	77242
10.92522	74810
10.93335	72492
10.94147	74159
10.94958	75375
10.95772	80838
10.96583	72548
10.97397	71080
10.98208	73736
10.99020	74959
10.99833	74091
11.00645	73538
11.01458	68792
11.02270	74459
11.03082	69014
11.03895	70343
11.04707	71505
11.05520	66681
11.06332	66942
11.07143	66030
11.07957	69354
11.08768	72943
11.09580	74541
11.10393	74847
11.11205	66707
11.12018	65004
11.12830	63249
11.13642	60403
11.14455	55648
11.15267	62922
11.16080	63991
11.16892	65356
11.17703	62458
11.18517	60147
11.19328	68621
11.20140	65883
11.20953	65057
11.21765	64434
11.22578	59091
11.23390	58255
11.24202	57420
11.25015	54733
11.25827	60142
11.26640	49517
11.27452	55663
11.28263	56180
11.29077	64446
11.29888	67153
11.30702	89323
11.31513	135200
11.32325	221028
11.33138	353812
11.33950	472242
11.34762	569600
11.35575	578465
11.36387	499655
11.37200	364273
11.38012	261583
11.38823	185734
11.39637	141294
11.40448	123559
11.41262	117606
11.42073	103898
11.42885	101292
11.43698	93080
11.44510	88618
11.45323	82058
11.46135	77804
11.46947	73764
11.47760	78933
11.48572	87511
11.49383	104517
11.50197	120875
11.51008	122626
11.51822	121125
11.52633	113623
11.53445	102171
11.54258	93459
11.55070	90540
11.55883	84952
11.56695	81623
11.57507	76703
11.58320	84540
11.59132	80339
11.59943	90496
11.60757	109889
11.61568	136288
11.62382	144908
11.63193	138447
11.64005	123709
11.64818	108399
11.65630	88853
11.66443	76518
11.67255	74852
11.68067	73582
11.68880	75198
11.69692	76879
11.70505	76822
11.71317	78804
11.72128	80371
11.72942	76339
11.73753	72506
11.74565	66186
11.75378	67362
11.76190	58346
11.77003	58768
11.77815	58995
11.78627	60940
11.79440	57709
11.80252	65732
11.81065	59296
11.81877	62189
11.82688	61863
11.83502	64589
11.84313	65389
11.85127	57985
11.85938	61763
11.86750	61314
11.87563	59606
11.88375	53959
11.89187	51868
11.90000	52667
11.90812	54254
11.91625	62669
11.92437	61654
11.93248	65697
11.94062	65822
11.94873	64634
11.95687	63677
11.96498	58039
11.97310	74455
11.98123	119527
11.98935	242151
11.99747	438287
12.00560	702659
12.01372	908331
12.02185	905919
12.02997	764486
12.03808	560675
12.04622	363574
12.05433	248307
12.06247	188589
12.07058	158665
12.07870	143391
12.08683	137584
12.09495	125649
12.10308	122244
12.11120	121213
12.11932	116359
12.12745	114034
12.13557	115948
12.14368	116687
12.15182	112222
12.15993	112690
12.16807	98407
12.17618	92860
12.18430	97853
12.19243	87967
12.20055	91900
12.20868	84762
12.21680	86261
12.22492	85424
12.23305	83930
12.24117	85212
12.24928	88724
12.25742	81016
12.26553	78982
12.27367	88392
12.28178	73178
12.28990	74289
12.29803	74563
12.30615	75008
12.31428	71516
12.32240	69430
12.33052	67739
12.33865	67334
12.34677	68532
12.35490	69010
12.36302	67222
12.37113	66077
12.37927	65720
12.38738	70364
12.39550	70092
12.40363	76884
12.41175	85945
12.41988	93864
12.42800	103117
12.43612	104445
12.44425	104079
12.45237	97130
12.46050	88483
12.46862	80959
12.47673	80326
12.48487	67684
12.49298	73997
12.50112	68175
12.50923	67604
12.51735	72827
12.52548	84018
12.53360	124021
12.54172	238400
12.54985	499463
12.55797	877669
12.56610	1249839
12.57422	1359670
12.58233	1166019
12.59047	832128
12.59858	507279
12.60672	300322
12.61483	210054
12.62295	154653
12.63108	140279
12.63920	125572
12.64733	117601
12.65545	107055
12.66357	102984
12.67170	95134
12.67982	86894
12.68793	82445
12.69607	80287
12.70418	82397
12.71232	78587
12.72043	82464
12.72855	82629
12.73668	86895
12.74480	85378
12.75293	90746
12.76105	80420
12.76917	77155
12.77730	69015
12.78542	68957
12.79353	62725
12.80167	65171
12.80978	59889
12.81792	61705
12.82603	58694
12.83415	55280
12.84228	56939
12.85040	55335
12.85853	56660
12.86665	52723
12.87477	54495
12.88290	56969
12.89102	53613
12.89915	55214
12.90727	54902
12.91538	55881
12.92352	55204
12.93163	53787
12.93975	59482
12.94788	63048
12.95600	82231
12.96413	133019
12.97225	217261
12.98037	313219
12.98850	366596
12.99662	352075
13.00475	273240
13.01287	192283
13.02098	137766
13.02912	106046
13.03723	88934
13.04535	82405
13.05348	83808
13.06160	87739
13.06973	86466
13.07785	90247
13.08597	90482
13.09410	87642
13.10222	80215
13.11035	68548
13.11847	65353
13.12658	64206
13.13472	60003
13.14283	59862
13.15097	62269
13.15908	54559
13.16720	62038
13.17533	60840
13.18345	59416
13.19157	62924
13.19970	59648
13.20782	59234
13.21595	65984
13.22407	66001
13.23218	61804
13.24032	62344
13.24843	59311
13.25657	55491
13.26468	60702
13.27280	54010
13.28093	52567
13.28905	50607
13.29718	44422
13.30530	50210
13.31342	48543
13.32155	57490
13.32967	47147
13.33778	49259
13.34592	48437
13.35403	45060
13.36217	45731
13.37028	45313
13.37840	49892
13.38653	46868
13.39465	48699
13.40278	42338
13.41090	44922
13.41902	43600
13.42715	42163
13.43527	46581
13.44338	44223
13.45152	43597
13.45963	42660
13.46777	46291
13.47588	49234
13.48400	47131
13.49213	47177
13.50025	47020
13.50838	49163
13.51650	46343
13.52462	53387
13.53275	49372
13.54087	52591
13.54900	51383
13.55712	49568
13.56523	51624
13.57337	49528
13.58148	47017
13.58960	53450
13.59773	63021
13.60585	83179
13.61398	109984
13.62210	141639
13.63022	169081
13.63835	149326
13.64647	119715
13.65460	94108
13.66272	76532
13.67083	63045
13.67897	58243
13.68708	54809
13.69522	54425
13.70333	51836
13.71145	50542
13.71958	58192
13.72770	65446
13.73582	114691
13.74395	270951
13.75207	662071
13.76020	1475445
13.76832	2627219
13.77643	3766927
13.78457	4363502
13.79268	4021594
13.80082	3083271
13.80893	2067542
13.81705	1349614
13.82518	958633
13.83330	789465
13.84142	719103
13.84955	657272
13.85767	578518
13.86580	496284
13.87392	430155
13.88203	375296
13.89017	331349
13.89828	325343
13.90642	286904
13.91453	267210
13.92265	256591
13.93078	240631
13.93890	241046
13.94703	243656
13.95515	250161
13.96327	278527
13.97140	310833
13.97952	350524
13.98763	365365
13.99577	361876
14.00388	329906
14.01202	288740
14.02013	241241
14.02825	217183
14.03638	212433
14.04450	195862
14.05263	194790
14.06075	185727
14.06887	182856
14.07700	180905
14.08512	178420
14.09323	170721
14.10137	169673
14.10948	165263
14.11762	165412
14.12573	173884
14.13385	182504
14.14198	204413
14.15010	229587
14.15823	247181
14.16635	248696
14.17447	278252
14.18260	306737
14.19072	371455
14.19885	446718
14.20697	469408
14.21508	426984
14.22322	370179
14.23133	305847
14.23945	268167
14.24758	236931
14.25570	214791
14.26383	204677
14.27195	177320
14.28007	162581
14.28820	141706
14.29632	132989
14.30445	124281
14.31257	120669
14.32068	115484
14.32882	113456
14.33693	112356
14.34507	98273
14.35318	96241
14.36130	90495
14.36943	83612
14.37755	78436
14.38567	88228
14.39380	107050
14.40192	153301
14.41005	237044
14.41817	337679
14.42628	430563
14.43442	432238
14.44253	364743
14.45067	265309
14.45878	188724
14.46690	141351
14.47503	113747
14.48315	104005
14.49127	99432
14.49940	94776
14.50752	97768
14.51565	101127
14.52377	103125
14.53188	103931
14.54002	99330
14.54813	98353
14.55627	89902
14.56438	81600
14.57250	75591
14.58063	69388
14.58875	70358
14.59688	64732
14.60500	63422
14.61312	62714
14.62125	60407
14.62937	66443
14.63748	63882
14.64562	64493
14.65373	62073
14.66187	60114
14.66998	59686
14.67810	59173
14.68623	58287
14.69435	57146
14.70248	58928
14.71060	61136
14.71872	60492
14.72685	63558
14.73497	64616
14.74310	61890
14.75122	69838
14.75933	70941
14.76747	71858
14.77558	68113
14.78370	74119
14.79183	106871
14.79995	196416
14.80808	439012
14.81620	960135
14.82432	1632289
14.83245	2219786
14.84057	2457441
14.84870	2193750
14.85682	1675974
14.86493	1072181
14.87307	674834
14.88118	448118
14.88930	319312
14.89743	260035
14.90555	212922
14.91368	188333
14.92180	169909
14.92992	152391
14.93805	150675
14.94617	141764
14.95430	130711
14.96242	124754
14.97053	124985
14.97867	130560
14.98678	117899
14.99492	112456
15.00303	111951
15.01115	102988
15.01928	97503
15.02740	95131
15.03552	91091
15.04365	94952
15.05177	88594
15.05990	87827
15.06802	80962
15.07613	80378
15.08427	77324
15.09238	74731
15.10052	77779
15.10863	77041
15.11675	78399
15.12488	79252
15.13300	75493
15.14113	82535
15.14925	88983
15.15737	84269
15.16550	83447
15.17362	74925
15.18173	72726
15.18987	65928
15.19798	59898
15.20612	58491
15.21423	57589
15.22235	57761
15.23048	54235
15.23860	57352
15.24673	52530
15.25485	53670
15.26297	57390
15.27110	53797
15.27922	50016
15.28733	53262
15.29547	49795
15.30358	51535
15.31172	53515
15.31983	49294
15.32795	45684
15.33608	50593
15.34420	46254
15.35233	48359
15.36045	46871
15.36857	49327
15.37670	49284
15.38482	45878
15.39295	51440
15.40107	50964
15.40918	58992
15.41732	63854
15.42543	65474
15.43355	60176
15.44168	60699
15.44980	54213
15.45793	53321
15.46605	54652
15.47417	65316
15.48230	76996
15.49042	105125
15.49855	115364
15.50667	140136
15.51478	139432
15.52292	141545
15.53103	135052
15.53915	127648
15.54728	126439
15.55540	120279
15.56353	112567
15.57165	98317
15.57977	76547
15.58790	60853
15.59602	57470
15.60415	54489
15.61227	50826
15.62038	51766
15.62852	51462
15.63663	47119
15.64477	47891
15.65288	48528
15.66100	46415
15.66913	48346
15.67725	44049
15.68537	45289
15.69350	48581
15.70162	48094
15.70975	46466
15.71787	43153
15.72598	46523
15.73412	45349
15.74223	49959
15.75037	53963
15.75848	65953
15.76660	96068
15.77473	148901
15.78285	213396
15.79098	263442
15.79910	276022
15.80722	249723
15.81535	201684
15.82347	148330
15.83158	108432
15.83972	90806
15.84783	81912
15.85597	73893
15.86408	67549
15.87220	65834
15.88033	63259
15.88845	63426
15.89658	58531
15.90470	56050
15.91282	57993
15.92095	58602
15.92907	57717
15.93718	58953
15.94532	75549
15.95343	97416
15.96157	138794
15.96968	197241
15.97780	228696
15.98593	245748
15.99405	244800
16.00218	202311
16.01030	157893
16.01842	135456
16.02655	119328
16.03467	109668
16.04280	98271
16.05092	91258
16.05903	82374
16.06717	79636
16.07528	75129
16.08340	68293
16.09153	70753
16.09965	63017
16.10778	61570
16.11590	67244
16.12402	63393
16.13215	66026
16.14027	71450
16.14840	68144
16.15652	66350
16.16463	68178
16.17277	67021
16.18088	60775
16.18902	59888
16.19713	56532
16.20525	54400
16.21338	54198
16.22150	58291
16.22962	60317
16.23775	58520
16.24587	57590
16.25400	55686
16.26212	52511
16.27023	56937
16.27837	57923
16.28648	59423
16.29462	58252
16.30273	62157
16.31085	64610
16.31898	60685
16.32710	61812
16.33522	64201
16.34335	70944
16.35147	85736
16.35960	124486
16.36772	170174
16.37583	222891
16.38397	237994
16.39208	238664
16.40022	193813
16.40833	153813
16.41645	120131
16.42458	94371
16.43270	76584
16.44083	80076
16.44895	92028
16.45707	114895
16.46520	172268
16.47332	259173
16.48143	334241
16.48957	387719
16.49768	355742
16.50582	278683
16.51393	217227
16.52205	146722
16.53018	113066
16.53830	95502
16.54643	81185
16.55455	82537
16.56267	71443
16.57080	77190
16.57892	81135
16.58703	80780
16.59517	93925
16.60328	108860
16.61142	124146
16.61953	128430
16.62765	131437
16.63578	123987
16.64390	104326
16.65203	91144
16.66015	78856
16.66827	72993
16.67640	68279
16.68452	64733
16.69265	62354
16.70077	62171
16.70888	57345
16.71702	54230
16.72513	54457
16.73325	56278
16.74138	51221
16.74950	50814
16.75763	54541
16.76575	53267
16.77387	55238
16.78200	54951
16.79012	49318
16.79825	51540
16.80637	51185
16.81448	48109
16.82262	44712
16.83073	48087
16.83887	50306
16.84698	47882
16.85510	45903
16.86323	44664
16.87135	45013
16.87947	45538
16.88760	46582
16.89572	47226
16.90385	46887
16.91197	45462
16.92008	43388
16.92822	43078
16.93633	44923
16.94447	47116
16.95258	43304
16.96070	44287
16.96883	47283
16.97695	43944
16.98508	45848
16.99320	43584
17.00132	47511
17.00945	53437
17.01757	42253
17.02568	46366
17.03382	49642
17.04193	50309
17.05007	54095
17.05818	57823
17.06630	65651
17.07443	61606
17.08255	63682
17.09068	69506
17.09880	81128
17.10692	91531
17.11505	103948
17.12317	108610
17.13128	114368
17.13942	107299
17.14753	105019
17.15567	94580
17.16378	79954
17.17190	70321
17.18003	64434
17.18815	55019
17.19628	54285
17.20440	48799
17.21252	49690
17.22065	47563
17.22877	45755
17.23690	45209
17.24502	45658
17.25313	47470
17.26127	46092
17.26938	42313
17.27750	46226
17.28563	43787
17.29375	45243
17.30188	45750
17.31000	43839
17.31812	52991
17.32625	56769
17.33437	69171
17.34250	72474
17.35062	75444
17.35873	83834
17.36687	79917
17.37498	74774
17.38310	67097
17.39123	66967
17.39935	66723
17.40748	61434
17.41560	58950
17.42372	60758
17.43185	57665
17.43997	56510
17.44810	57319
17.45622	53296
17.46433	53197
17.47247	50595
17.48058	48035
17.48872	47838
17.49683	44354
17.50495	44116
17.51308	44063
17.52120	47846
17.52932	47368
17.53745	49449
17.54557	50953
17.55370	56620
17.56182	68401
17.56993	103898
17.57807	176575
17.58618	286018
17.59432	474614
17.60243	701233
17.61055	876735
17.61868	903984
17.62680	791129
17.63493	604156
17.64305	449222
17.65117	352307
17.65930	313982
17.66742	304484
17.67553	296850
17.68367	268406
17.69178	230376
17.69992	184133
17.70803	155405
17.71615	127668
17.72428	111099
17.73240	100405
17.74053	95511
17.74865	86457
17.75677	85289
17.76490	80244
17.77302	76139
17.78113	82865
17.78927	91558
17.79738	124587
17.80552	197480
17.81363	315437
17.82175	458230
17.82988	581662
17.83800	627556
17.84613	572847
17.85425	459314
17.86237	346712
17.87050	255735
17.87862	195984
17.88675	160244
17.89487	142929
17.90298	120918
17.91112	108410
17.91923	105076
17.92735	100044
17.93548	92895
17.94360	82930
17.95173	86880
17.95985	80759
17.96797	76300
17.97610	73308
17.98422	74142
17.99235	71293
18.00047	71822
18.00858	74153
18.01672	77809
18.02483	86403
18.03297	89911
18.04108	107104
18.04920	122907
18.05733	164936
18.06545	305183
18.07357	585040
18.08170	1069577
18.08982	1624085
18.09795	1981393
18.10607	1977758
18.11418	1695388
18.12232	1283288
18.13043	941938
18.13857	703839
18.14668	541253
18.15480	438946
18.16293	399469
18.17105	357971
18.17917	329505
18.18730	326259
18.19542	365487
18.20355	445226
18.21167	532423
18.21978	579677
18.22792	589300
18.23603	586637
18.24417	601485
18.25228	575107
18.26040	569010
18.26853	554873
18.27665	542615
18.28478	531542
18.29290	509921
18.30102	497941
18.30915	475313
18.31727	469712
18.32538	455135
18.33352	444732
18.34163	442918
18.34977	438473
18.35788	441489
18.36600	439691
18.37413	427466
18.38225	426621
18.39038	423009
18.39850	431471
18.40662	456183
18.41475	473180
18.42287	499625
18.43098	513918
18.43912	501449
18.44723	493074
18.45537	498039
18.46348	535049
18.47160	597558
18.47973	659019
18.48785	665839
18.49598	669811
18.50410	603685
18.51222	531400
18.52035	468238
18.52847	412769
18.53660	387767
18.54472	358377
18.55283	350194
18.56097	349509
18.56908	331026
18.57720	331749
18.58533	329009
18.59345	322889
18.60158	323107
18.60970	319367
18.61782	325034
18.62595	304325
18.63407	304083
18.64220	311676
18.65032	301082
18.65843	298875
18.66657	296420
18.67468	279061
18.68282	276090
18.69093	268402
18.69905	258682
18.70718	267623
18.71530	264499
18.72342	256925
18.73155	247980
18.73967	252647
18.74780	254790
18.75592	256231
18.76403	245727
18.77217	233321
18.78028	237653
18.78842	230391
18.79653	233980
18.80465	233209
18.81278	231320
18.82090	227856
18.82902	227297
18.83715	221913
18.84527	222288
18.85340	215430
18.86152	219665
18.86963	213845
18.87777	216492
18.88588	209564
18.89402	209991
18.90213	205680
18.91025	199522
18.91838	203969
18.92650	206825
18.93463	212374
18.94275	207551
18.95087	215286
18.95900	205699
18.96712	203250
18.97523	204315
18.98337	202226
18.99148	197801
18.99962	190516
19.00773	194930
19.01585	184439
19.02398	192957
19.03210	181862
19.04023	179323
19.04835	172628
19.05647	177494
19.06460	175463
19.07272	186303
19.08085	216043
19.08897	245702
19.09708	282941
19.10522	331142
19.11333	347442
19.12145	337919
19.12958	296615
19.13770	262861
19.14583	226795
19.15395	215547
19.16207	203570
19.17020	192719
19.17832	179070
19.18645	171890
19.19457	176929
19.20268	164185
19.21082	169550
19.21893	159031
19.22705	157836
19.23518	154640
19.24330	148661
19.25143	149408
19.25955	146090
19.26767	152421
19.27580	154861
19.28392	150308
19.29205	153581
19.30017	159037
19.30828	154131
19.31642	160110
19.32453	154862
19.33267	153713
19.34078	153731
19.34890	164182
19.35703	184747
19.36515	198845
19.37327	229297
19.38140	245949
19.38952	231726
19.39765	214187
19.40577	188949
19.41388	171185
19.42202	159664
19.43013	144245
19.43827	148982
19.44638	143229
19.45450	147495
19.46263	156213
19.47075	168793
19.47888	189194
19.48700	225771
19.49512	271136
19.50325	304016
19.51137	323948
19.51948	309223
19.52762	248476
19.53573	208306
19.54387	174025
19.55198	153517
19.56010	143919
19.56823	141326
19.57635	135577
19.58448	125177
19.59260	124107
19.60072	122103
19.60885	116585
19.61697	121641
19.62508	121678
19.63322	124821
19.64133	139904
19.64947	161153
19.65758	193769
19.66570	233758
19.67383	270737
19.68195	289556
19.69008	287820
19.69820	275198
19.70632	254564
19.71445	225411
19.72257	209066
19.73070	184377
19.73882	167020
19.74693	162979
19.75507	146351
19.76318	139023
19.77130	140473
19.77943	137809
19.78755	141913
19.79568	153142
19.80380	160488
19.81192	163023
19.82005	155216
19.82817	145749
19.83630	137494
19.84442	139353
19.85253	172245
19.86067	298317
19.86878	678172
19.87690	1434452
19.88503	2674349
19.89315	4257643
19.90128	5621806
19.90940	5979530
19.91752	5445055
19.92565	4317284
19.93377	3088794
19.94190	2091146
19.95002	1515686
19.95813	1177864
19.96627	994943
19.97438	885163
19.98252	817269
19.99063	736806
19.99875	686870
20.00688	654682
20.01500	621917
20.02312	585293
20.03125	553535
20.03937	499734
20.04750	451342
20.05562	377459
20.06373	328921
20.07187	279302
20.07998	249738
20.08812	228661
20.09623	210213
20.10435	190436
20.11248	188052
20.12060	169814
20.12873	158738
20.13685	151340
20.14497	142071
20.15310	147436
20.16122	157199
20.16933	165625
20.17747	174209
20.18558	186944
20.19372	198651
20.20183	198713
20.20995	202510
20.21808	196334
20.22620	179343
20.23433	170357
20.24245	168880
20.25057	180746
20.25870	187976
20.26682	217159
20.27493	256522
20.28307	277298
20.29118	277308
20.29932	264774
20.30743	237739
20.31555	206258
20.32368	183512
20.33180	159196
20.33993	139021
20.34805	128972
20.35617	122381
20.36430	111136
20.37242	104815
20.38055	95407
20.38867	91356
20.39678	87491
20.40492	91518
20.41303	90167
20.42115	93227
20.42928	90321
20.43740	102512
20.44553	108218
20.45365	116749
20.46177	120873
20.46990	125464
20.47802	137165
20.48615	121010
20.49427	110926
20.50238	102818
20.51052	100736
20.51863	90500
20.52677	87187
20.53488	82188
20.54300	83152
20.55113	83503
20.55925	86797
20.56737	88336
20.57550	82823
20.58362	78426
20.59175	74822
20.59987	78251
20.60798	71745
20.61612	72974
20.62423	76320
20.63237	71882
20.64048	72240
20.64860	81120
20.65673	78712
20.66485	78441
20.67297	79176
20.68110	75996
20.68922	71628
20.69735	72595
20.70547	71318
20.71358	71228
20.72172	68945
20.72983	70546
20.73797	68896
20.74608	69256
20.75420	71427
20.76233	71784
20.77045	76721
20.77858	87335
20.78670	103458
20.79482	139258
20.80295	210157
20.81107	284723
20.81918	349950
20.82732	360937
20.83543	331195
20.84357	259174
20.85168	196292
20.85980	136039
20.86793	103302
20.87605	90095
20.88418	84225
20.89230	84706
20.90042	78332
20.90855	78080
20.91667	76066
20.92478	81743
20.93292	77688
20.94103	76449
20.94917	79297
20.95728	75544
20.96540	76215
20.97353	73058
20.98165	69847
20.98978	72669
20.99790	66063
21.00602	68920
21.01415	66424
21.02227	65419
21.03040	71029
21.03852	75918
21.04663	70690
21.05477	71223
21.06288	72734
21.07100	73741
21.07913	68357
21.08725	67296
21.09538	64995
21.10350	67937
21.11162	64195
21.11975	63135
21.12787	68862
21.13600	70289
21.14412	81713
21.15223	92341
21.16037	99459
21.16848	104340
21.17662	110607
21.18473	96104
21.19285	86649
21.20098	77583
21.20910	74349
21.21722	73691
21.22535	71074
21.23347	67682
21.24160	71478
21.24972	70231
21.25783	68259
21.26597	65826
21.27408	65545
21.28222	63956
21.29033	62142
21.29845	64874
21.30658	61766
21.31470	60337
21.32283	62316
21.33095	57880
21.33907	62970
21.34720	61175
21.35532	61477
21.36343	62033
21.37157	71837
21.37968	64634
21.38782	73304
21.39593	85902
21.40405	93397
21.41218	103425
21.42030	105052
21.42843	100877
21.43655	90873
21.44467	83154
21.45280	75788
21.46092	77023
21.46903	69475
21.47717	67554
21.48528	67828
21.49342	62261
21.50153	61784
21.50965	64168
21.51778	68363
21.52590	60976
21.53403	60862
21.54215	58357
21.55027	61616
21.55840	63501
21.56652	59662
21.57465	64522
21.58277	71048
21.59088	78620
21.59902	82631
21.60713	89702
21.61525	88521
21.62338	90938
21.63150	92187
21.63963	100111
21.64775	99277
21.65587	102120
21.66400	99500
21.67212	104166
21.68025	101987
21.68837	101680
21.69648	94767
21.70462	90087
21.71273	77615
21.72085	73726
21.72898	73043
21.73710	72237
21.74523	61643
21.75335	70162
21.76147	68307
21.76960	64792
21.77772	66534
21.78585	74483
21.79397	75097
21.80208	80118
21.81022	78261
21.81833	81846
21.82647	88254
21.83458	94098
21.84270	84183
21.85083	84181
21.85895	76935
21.86707	72979
21.87520	72763
21.88332	69416
21.89145	68317
21.89957	68250
21.90768	65041
21.91582	64353
21.92393	63658
21.93207	62472
21.94018	59384
21.94830	56701
21.95643	56179
21.96455	56460
21.97268	49381
21.98080	49818
21.98892	53551
21.99705	52487
22.00517	48719
22.01328	49852
22.02142	53397
22.02953	52212
22.03767	56444
22.04578	52754
22.05390	55475
22.06203	53485
22.07015	49773
22.07828	51394
22.08640	52068
22.09452	50024
22.10265	50878
22.11077	53631
22.11888	51303
22.12702	49931
22.13513	49959
22.14327	54479
22.15138	53987
22.15950	50788
22.16763	51348
22.17575	50569
22.18388	55507
22.19200	50894
22.20012	52910
22.20825	49214
22.21637	53864
22.22450	58206
22.23262	61039
22.24073	54128
22.24887	57085
22.25698	54814
22.26510	54129
22.27323	60145
22.28135	57396
22.28948	64546
22.29760	64413
22.30572	64345
22.31385	67139
22.32197	65934
22.33010	66913
22.33822	67021
22.34633	65433
22.35447	59824
22.36258	60670
22.37072	55189
22.37883	58325
22.38695	67346
22.39508	76825
22.40320	89122
22.41132	110736
22.41945	134240
22.42757	147890
22.43570	140936
22.44382	123352
22.45193	109190
22.46007	86964
22.46818	80766
22.47632	82179
22.48443	87980
22.49255	98046
22.50068	106521
22.50880	122473
22.51692	114732
22.52505	107123
22.53317	99526
22.54130	89709
22.54942	85221
22.55753	79302
22.56567	77390
22.57378	69049
22.58192	66389
22.59003	64085
22.59815	62756
22.60628	59973
22.61440	60546
22.62253	58979
22.63065	61728
22.63877	59949
22.64690	58124
22.65502	62412
22.66313	65877
22.67127	60334
22.67938	63347
22.68752	61970
22.69563	69934
22.70375	72539
22.71188	84251
22.72000	77203
22.72813	73655
22.73625	79706
22.74437	71983
22.75250	61215
22.76062	62594
22.76873	61668
22.77687	65600
22.78498	64814
22.79312	79160
22.80123	92055
22.80935	99046
22.81748	105652
22.82560	106423
22.83373	92280
22.84185	85690
22.84997	75440
22.85810	71181
22.86622	70786
22.87435	80486
22.88247	80436
22.89058	90328
22.89872	101944
22.90683	124725
22.91495	151351
22.92308	177423
22.93120	199893
22.93933	193368
22.94745	161967
22.95557	142417
22.96370	117280
22.97182	95240
22.97995	85798
22.98807	79497
22.99618	70134
23.00432	69828
23.01243	72380
23.02057	72313
23.02868	78358
23.03680	78241
23.04493	79613
23.05305	80442
23.06117	79117
23.06930	84086
23.07742	82855
23.08555	82593
23.09367	79212
23.10178	82508
23.10992	78998
23.11803	77096
23.12617	78363
23.13428	75125
23.14240	71982
23.15053	77720
23.15865	77563
23.16677	80920
23.17490	81434
23.18302	83896
23.19115	82585
23.19927	82212
23.20738	86669
23.21552	77518
23.22363	76988
23.23177	79564
23.23988	80351
23.24800	81928
23.25613	86603
23.26425	86882
23.27238	92381
23.28050	87485
23.28862	85222
23.29675	80899
23.30487	78042
23.31298	81198
23.32112	78671
23.32923	84610
23.33737	99029
23.34548	119660
23.35360	158815
23.36173	203721
23.36985	283789
23.37798	356288
23.38610	468949
23.39422	541166
23.40235	615021
23.41047	685410
23.41860	711872
23.42672	727404
23.43483	713232
23.44297	697732
23.45108	656246
23.45920	632725
23.46733	578374
23.47545	545703
23.48358	509777
23.49170	460460
23.49982	426501
23.50795	390392
23.51607	363796
23.52420	334127
23.53232	311528
23.54043	300135
23.54857	272268
23.55668	258952
23.56480	252314
23.57293	248151
23.58105	255593
23.58918	274878
23.59730	277676
23.60542	294853
23.61355	287717
23.62167	277302
23.62980	244770
23.63792	233433
23.64603	234573
23.65417	229380
23.66228	257686
23.67042	259218
23.67853	252205
23.68665	226292
23.69478	207217
23.70290	173620
23.71102	155606
23.71915	146605
23.72727	137587
23.73540	138559
23.74352	143300
23.75163	182670
23.75977	315222
23.76788	563104
23.77602	983437
23.78413	1531802
23.79225	2067039
23.80038	2313166
23.80850	2161661
23.81663	1869634
23.82475	1561783
23.83287	1260601
23.84100	974221
23.84912	769536
23.85723	615765
23.86537	509620
23.87348	447497
23.88162	388659
23.88973	356626
23.89785	330471
23.90598	303424
23.91410	294439
23.92223	275591
23.93035	258704
23.93847	235344
23.94660	220182
23.95472	207409
23.96283	192903
23.97097	182550
23.97908	177763
23.98722	170477
23.99533	181855
24.00345	224007
24.01158	335292
24.01970	526623
24.02783	758552
24.03595	940227
24.04407	986246
24.05220	892343
24.06032	678069
24.06845	448357
24.07657	304260
24.08468	222301
24.09282	178561
24.10093	157859
24.10905	150086
24.11718	138276
24.12530	136163
24.13343	132421
24.14155	135522
24.14967	125093
24.15780	126465
24.16592	123532
24.17405	123402
24.18217	125171
24.19028	128945
24.19842	122348
24.20653	119070
24.21465	119167
24.22278	118331
24.23090	111668
24.23903	106552
24.24715	96470
24.25527	100776
24.26340	96639
24.27152	91008
24.27965	88243
24.28777	91157
24.29588	88550
24.30402	84757
24.31213	83505
24.32027	81284
24.32838	86949
24.33650	83996
24.34463	85548
24.35275	86669
24.36087	85967
24.36900	100741
24.37712	119534
24.38525	146280
24.39337	169208
24.40148	172391
24.40962	145500
24.41773	122814
24.42587	106054
24.43398	88382
24.44210	86887
24.45023	83016
24.45835	84268
24.46648	93523
24.47460	104679
24.48272	116714
24.49085	145017
24.49897	160566
24.50708	169585
24.51522	174021
24.52333	181130
24.53147	193497
24.53958	206697
24.54770	225380
24.55583	231167
24.56395	237039
24.57208	244498
24.58020	223889
24.58832	222581
24.59645	205974
24.60457	197208
24.61268	194957
24.62082	195039
24.62893	199417
24.63707	191452
24.64518	193156
24.65330	198053
24.66143	197875
24.66955	200473
24.67768	199309
24.68580	208919
24.69392	206913
24.70205	204514
24.71017	205715
24.71830	206662
24.72642	213015
24.73453	201528
24.74267	209046
24.75078	195354
24.75890	207549
24.76703	204841
24.77515	211078
24.78328	207634
24.79140	216272
24.79952	203966
24.80765	203433
24.81577	203324
24.82390	210906
24.83202	211984
24.84013	232589
24.84827	268188
24.85638	313579
24.86452	397461
24.87263	479982
24.88075	601644
24.88888	681542
24.89700	716295
24.90512	673266
24.91325	600214
24.92137	467406
24.92950	355370
24.93762	272786
24.94573	237135
24.95387	205924
24.96198	179232
24.97012	176084
24.97823	166641
24.98635	161942
24.99448	159722
25.00260	155777
25.01072	142459
25.01885	137572
25.02697	124436
25.03510	114403
25.04322	99165
25.05133	99243
25.05947	95745
25.06758	89899
25.07572	89388
25.08383	96080
25.09195	106477
25.10008	147148
25.10820	264273
25.11633	525387
25.12445	1025239
25.13257	1767176
25.14070	2515418
25.14882	3060750
25.15693	3110631
25.16507	2472119
25.17318	1756315
25.18132	1104774
25.18943	640018
25.19755	358335
25.20568	223560
25.21380	169038
25.22193	136003
25.23005	128234
25.23817	134875
25.24630	156581
25.25442	194693
25.26253	240253
25.27067	274912
25.27878	286531
25.28692	268303
25.29503	239868
25.30315	196307
25.31128	152016
25.31940	129994
25.32753	113267
25.33565	95917
25.34377	93109
25.35190	92008
25.36002	81117
25.36815	78034
25.37627	77112
25.38438	76546
25.39252	74202
25.40063	73646
25.40875	73837
25.41688	70691
25.42500	70535
25.43313	77362
25.44125	89063
25.44937	116524
25.45750	154850
25.46562	193244
25.47375	220129
25.48187	236186
25.48998	246061
25.49812	254222
25.50623	254986
25.51437	263092
25.52248	278004
25.53060	268688
25.53873	276918
25.54685	273067
25.55497	276395
25.56310	278029
25.57122	273165
25.57935	278851
25.58747	278339
25.59558	280172
25.60372	270929
25.61183	272422
25.61997	274930
25.62808	273111
25.63620	262442
25.64433	265879
25.65245	261886
25.66058	259892
25.66870	248257
25.67682	256013
25.68495	252046
25.69307	250058
25.70118	246885
25.70932	240243
25.71743	240913
25.72557	242489
25.73368	234735
25.74180	238837
25.74993	238254
25.75805	233726
25.76618	228888
25.77430	233340
25.78242	232003
25.79055	237816
25.79867	222042
25.80678	230596
25.81492	224735
25.82303	228341
25.83117	245041
25.83928	243778
25.84740	257612
25.85553	250943
25.86365	252656
25.87178	243053
25.87990	232596
25.88802	209878
25.89615	200987
25.90427	194172
25.91240	188658
25.92052	185691
25.92863	188201
25.93677	179298
25.94488	181765
25.95300	179047
25.96113	176889
25.96925	179698
25.97738	169971
25.98550	168196
25.99362	165700
26.00175	159838
26.00987	161259
26.01800	161789
26.02612	154615
26.03423	161028
26.04237	156972
26.05048	153475
26.05860	157675
26.06673	148233
26.07485	151317
26.08298	150805
26.09110	150200
26.09922	148460
26.10735	145790
26.11547	145923
26.12360	142727
26.13172	144850
26.13983	147922
26.14797	152095
26.15608	144767
26.16422	144602
26.17233	146437
26.18045	133564
26.18858	135447
26.19670	131300
26.20482	131015
26.21295	126983
26.22107	128697
26.22920	123798
26.23732	124531
26.24543	126082
26.25357	115884
26.26168	118149
26.26982	115395
26.27793	116553
26.28605	114717
26.29418	114630
26.30230	107081
26.31043	106440
26.31855	108656
26.32667	104274
26.33480	103823
26.34292	103597
26.35103	103467
26.35917	105215
26.36728	103713
26.37542	122261
26.38353	120145
26.39165	129727
26.39978	135346
26.40790	135911
26.41603	137828
26.42415	134461
26.43227	113470
26.44040	105529
26.44852	95882
26.45663	97169
26.46477	101290
26.47288	97627
26.48102	98976
26.48913	95952
26.49725	91969
26.50538	89515
26.51350	88839
26.52163	84184
26.52975	80807
26.53787	89205
26.54600	81556
26.55412	78596
26.56225	82622
26.57037	84283
26.57848	80727
26.58662	77936
26.59473	78232
26.60285	76560
26.61098	77070
26.61910	78087
26.62723	77689
26.63535	75998
26.64347	77620
26.65160	76868
26.65972	81242
26.66785	80911
26.67597	84926
26.68408	82889
26.69222	79549
26.70033	78213
26.70847	75343
26.71658	71101
26.72470	69675
26.73283	70495
26.74095	77395
26.74907	70359
26.75720	69504
26.76532	69645
26.77345	75070
26.78157	71072
26.78968	80572
26.79782	78531
26.80593	79772
26.81407	80112
26.82218	78383
26.83030	74804
26.83843	74171
26.84655	71447
26.85467	69709
26.86280	68538
26.87092	67836
26.87905	61314
26.88717	68523
26.89528	66899
26.90342	65124
26.91153	67073
26.91967	64218
26.92778	62958
26.93590	62651
26.94403	61593
26.95215	67359
26.96028	68089
26.96840	70291
26.97652	85571
26.98465	111111
26.99277	156813
27.00088	229783
27.00902	294844
27.01713	399359
27.02527	466946
27.03338	475902
27.04150	473361
27.04963	448910
27.05775	376002
27.06588	335786
27.07400	289369
27.08212	250535
27.09025	213441
27.09837	187922
27.10648	172364
27.11462	156697
27.12273	152891
27.13087	143714
27.13898	134385
27.14710	133407
27.15523	125154
27.16335	123008
27.17148	119539
27.17960	119136
27.18772	120860
27.19585	111705
27.20397	111395
27.21210	108934
27.22022	102645
27.22833	102196
27.23647	93953
27.24458	92849
27.25270	91639
27.26083	92734
27.26895	87789
27.27708	87714
27.28520	79810
27.29332	77669
27.30145	80597
27.30957	76950
27.31770	83533
27.32582	77757
27.33393	70544
27.34207	78370
27.35018	72713
27.35832	74506
27.36643	77368
27.37455	73490
27.38268	71317
27.39080	68725
27.39892	72245
27.40705	70365
27.41517	65370
27.42330	64103
27.43142	65752
27.43953	61279
27.44767	61018
27.45578	66254
27.46392	63475
27.47203	63142
27.48015	61661
27.48828	67043
27.49640	61272
27.50452	66428
27.51265	66476
27.52077	69981
27.52890	70411
27.53702	67331
27.54513	69735
27.55327	70275
27.56138	70809
27.56952	67515
27.57763	71937
27.58575	78593
27.59388	88336
27.60200	87274
27.61013	88944
27.61825	83563
27.62637	80600
27.63450	75422
27.64262	66887
27.65073	61691
27.65887	63090
27.66698	62717
27.67512	63554
27.68323	67930
27.69135	66807
27.69948	71456
27.70760	70330
27.71573	66835
27.72385	62865
27.73197	56659
27.74010	57379
27.74822	57815
27.75635	54230
27.76447	54836
27.77258	55671
27.78072	57009
27.78883	60618
27.79695	57728
27.80508	58894
27.81320	61932
27.82133	58369
27.82945	60095
27.83757	59564
27.84570	52508
27.85382	54867
27.86195	56836
27.87007	52780
27.87818	49983
27.88632	49825
27.89443	51507
27.90255	49644
27.91068	48828
27.91880	52526
27.92693	50509
27.93505	50429
27.94317	51344
27.95130	48455
27.95942	49994
27.96755	48326
27.97567	49196
27.98378	52028
27.99192	48380
28.00003	54853
28.00817	56555
28.01628	57391
28.02440	67615
28.03253	71648
28.04065	82423
28.04877	92448
28.05690	92516
28.06502	88331
28.07315	86826
28.08127	76148
28.08938	75137
28.09752	71288
28.10563	68587
28.11377	61257
28.12188	57140
28.13000	56397
28.13813	51935
28.14625	51914
28.15437	46780
28.16250	45496
28.17062	50576
28.17875	59622
28.18687	62969
28.19498	67051
28.20312	77831
28.21123	83886
28.21937	86898
28.22748	87356
28.23560	83069
28.24373	82344
28.25185	72434
28.25998	62541
28.26810	61419
28.27622	58059
28.28435	53855
28.29247	55648
28.30058	57198
28.30872	72018
28.31683	77068
28.32497	86908
28.33308	104294
28.34120	114671
28.34933	127793
28.35745	154550
28.36558	157552
28.37370	172329
28.38182	184668
28.38995	198399
28.39807	196417
28.40620	198408
28.41432	189234
28.42243	186111
28.43057	178518
28.43868	170652
28.44680	159864
28.45493	140727
28.46305	142805
28.47118	131104
28.47930	119400
28.48742	118236
28.49555	107158
28.50367	107728
28.51180	103290
28.51992	95262
28.52803	92214
28.53617	88055
28.54428	84696
28.55240	82179
28.56053	77903
28.56865	78812
28.57678	74077
28.58490	77832
28.59302	73255
28.60115	70353
28.60927	72453
28.61740	74519
28.62552	70299
28.63363	81010
28.64177	74968
28.64988	75993
28.65802	78610
28.66613	73233
28.67425	73319
28.68238	71770
28.69050	72416
28.69862	74024
28.70675	68945
28.71487	64156
28.72300	61464
28.73112	67024
28.73923	77330
28.74737	74897
28.75548	84454
28.76362	99032
28.77173	91583
28.77985	89959
28.78798	85612
28.79610	82803
28.80423	75395
28.81235	77522
28.82047	68921
28.82860	65713
28.83672	69715
28.84483	64801
28.85297	66062
28.86108	64470
28.86922	67723
28.87733	66880
28.88545	71481
28.89358	76232
28.90170	82315
28.90983	81771
28.91795	73482
28.92607	72671
28.93420	66752
28.94232	65721
28.95043	67774
28.95857	63374
28.96668	66973
28.97482	61022
28.98293	66285
28.99105	59709
28.99918	59749
29.00730	56243
29.01543	53977
29.02355	54454
29.03167	53494
29.03980	55617
29.04792	55732
29.05605	55224
29.06417	54392
29.07228	55386
29.08042	60364
29.08853	59016
29.09665	57526
29.10478	58100
29.11290	61472
29.12103	54932
29.12915	55568
29.13727	54259
29.14540	55542
29.15352	53534
29.16165	53120
29.16977	59792
29.17788	56877
29.18602	65383
29.19413	75584
29.20227	87507
29.21038	102494
29.21850	111313
29.22663	108946
29.23475	110379
29.24287	112296
29.25100	122023
29.25912	138889
29.26725	149820
29.27537	149379
29.28348	143792
29.29162	123403
29.29973	98331
29.30787	84037
29.31598	72032
29.32410	60512
29.33223	57494
29.34035	56997
29.34847	49986
29.35660	55212
29.36472	53642
29.37285	51213
29.38097	52738
29.38908	49770
29.39722	51377
29.40533	53161
29.41347	55752
29.42158	55382
29.42970	58416
29.43783	56133
29.44595	60520
29.45408	57660
29.46220	56318
29.47032	49052
29.47845	50184
29.48657	55972
29.49468	50676
29.50282	57318
29.51093	52141
29.51907	54115
29.52718	54865
29.53530	51367
29.54343	50871
29.55155	50009
29.55968	48552
29.56780	50988
29.57592	48874
29.58405	46886
29.59217	43443
29.60028	43269
29.60842	44790
29.61653	44514
29.62467	47277
29.63278	48335
29.64090	47372
29.64903	48952
29.65715	46265
29.66528	44953
29.67340	48854
29.68152	53306
29.68965	53676
29.69777	56490
29.70590	58874
29.71402	56515
29.72213	54510
29.73027	58119
29.73838	50082
29.74650	48972
29.75463	47233
29.76275	49852
29.77088	43672
29.77900	48620
29.78712	46998
29.79525	43655
29.80337	45962
29.81150	43415
29.81962	46207
29.82773	44205
29.83587	45429
29.84398	45181
29.85212	44478
29.86023	42379
29.86835	52563
29.87648	54620
29.88460	65527
29.89272	77340
29.90085	84593
29.90897	85780
29.91710	84428
29.92522	73805
29.93333	63528
29.94147	60331
29.94958	62989
29.95772	66046
29.96583	62522
29.97395	67588
29.98208	72774
29.99020	83665
29.99832	86450
30.00645	91450
30.01457	103088
30.02270	103283
30.03082	108412
30.03893	110208
30.04707	111046
30.05518	110201
30.06332	116413
30.07143	113707
30.07955	110305
30.08768	108668
30.09580	106891
30.10393	102922
30.11205	102171
30.12017	98209
30.12830	100565
30.13642	96800
30.14453	93557
30.15267	89674
30.16078	87340
30.16892	82943
30.17703	85003
30.18515	84719
30.19328	80766
30.20140	77549
30.20953	75293
30.21765	79064
30.22577	76337
30.23390	71199
30.24202	73246
30.25015	67156
30.25827	70519
30.26638	62064
30.27452	62589
30.28263	60441
30.29075	60018
30.29888	62329
30.30700	59764
30.31513	61034
30.32325	58968
30.33137	56566
30.33950	65420
30.34762	61663
30.35575	57182
30.36387	57453
30.37198	55604
30.38012	54695
30.38823	52688
30.39635	49544
30.40448	45884
30.41260	50278
30.42073	49448
30.42885	49173
30.43697	51615
30.44510	47169
30.45322	49048
30.46135	50749
30.46947	49006
30.47758	50014
30.48572	50436
30.49383	51420
30.50197	50160
30.51008	49656
30.51820	48051
30.52633	51984
30.53445	49100
30.54257	48016
30.55070	50464
30.55882	45986
30.56695	51783
30.57507	46555
30.58318	50326
30.59132	49141
30.59943	49483
30.60757	49830
30.61568	49259
30.62380	48076
30.63193	52184
30.64005	44736
30.64817	45645
30.65630	45712
30.66442	48745
30.67255	49449
30.68067	46775
30.68878	48385
30.69692	46774
30.70503	41349
30.71317	46038
30.72128	52272
30.72940	54162
30.73753	63222
30.74565	69802
30.75378	74283
30.76190	74934
30.77002	82617
30.77815	90166
30.78627	104065
30.79438	118649
30.80252	134343
30.81063	149020
30.81877	147496
30.82688	136034
30.83500	129841
30.84313	122337
30.85125	110803
30.85938	102038
30.86750	103931
30.87562	99648
30.88375	99432
30.89187	97838
30.90000	94106
30.90812	97558
30.91623	97921
30.92437	93956
30.93248	95391
30.94060	99465
30.94873	95491
30.95685	91840
30.96498	101037
30.97310	96150
30.98122	95700
30.98935	94609
30.99747	98073
31.00560	93945
31.01372	92761
31.02183	97363
31.02997	95103
31.03808	102830
31.04622	98861
31.05433	102205
31.06245	95356
31.07058	95635
31.07870	100399
31.08682	108031
31.09495	113288
31.10307	116607
31.11120	120225
31.11932	117703
31.12743	108351
31.13557	103543
31.14368	102509
31.15182	103725
31.15993	98917
31.16805	98143
31.17618	108982
31.18430	107218
31.19242	119803
31.20055	134687
31.20867	164454
31.21680	175821
31.22492	197664
31.23303	192702
31.24117	188770
31.24928	157188
31.25742	131773
31.26553	116692
31.27365	96847
31.28178	90929
31.28990	88810
31.29803	86232
31.30615	82564
31.31427	81596
31.32240	84799
31.33052	83513
31.33863	84057
31.34677	86036
31.35488	80270
31.36302	78906
31.37113	83727
31.37925	87681
31.38738	84646
31.39550	81594
31.40363	85752
31.41175	81970
31.41987	82679
31.42800	78338
31.43612	74464
31.44423	75552
31.45237	72634
31.46048	72273
31.46862	68304
31.47673	67059
31.48485	73109
31.49298	70004
31.50110	71826
31.50923	71701
31.51735	76933
31.52547	76264
31.53360	73038
31.54172	72621
31.54985	74136
31.55797	76140
31.56608	76884
31.57422	68605
31.58233	66941
31.59045	69323
31.59858	73266
31.60670	70958
31.61483	65414
31.62295	62581
31.63107	67674
31.63920	63150
31.64732	63326
31.65545	63362
31.66357	72342
31.67168	71861
31.67982	67588
31.68793	68854
31.69607	66708
31.70418	62349
31.71230	65679
31.72043	64796
31.72855	58674
31.73667	62321
31.74480	61726
31.75292	58737
31.76105	58541
31.76917	56920
31.77728	55277
31.78542	56552
31.79353	58912
31.80167	60863
31.80978	58898
31.81790	58932
31.82603	60732
31.83415	61172
31.84227	59241
31.85040	63672
31.85852	59762
31.86665	63057
31.87477	63381
31.88288	64894
31.89102	68472
31.89913	78138
31.90727	77449
31.91538	84426
31.92350	94432
31.93163	93351
31.93975	100386
31.94788	102610
31.95600	106024
31.96412	106830
31.97225	111580
31.98037	109297
31.98848	113396
31.99662	110081
32.00473	118829
32.01287	110613
32.02098	119326
32.02910	109252
32.03723	98767
32.04535	101040
32.05348	97433
32.06160	96013
32.06972	93887
32.07785	84256
32.08597	87749
32.09410	84523
32.10222	79315
32.11033	81507
32.11847	73519
32.12658	71193
32.13470	68600
32.14283	71682
32.15095	71726
32.15908	65669
32.16720	67108
32.17532	66005
32.18345	62374
32.19157	64560
32.19970	63412
32.20782	58057
32.21593	67100
32.22407	65384
32.23218	69956
32.24030	61713
32.24843	63892
32.25655	60688
32.26468	66141
32.27280	65367
32.28092	70079
32.28905	60958
32.29717	62280
32.30530	58736
32.31342	61029
32.32153	61922
32.32967	58798
32.33778	60000
32.34592	60706
32.35403	63080
32.36215	58119
32.37028	60748
32.37840	56122
32.38652	54304
32.39465	54975
32.40277	53263
32.41090	54007
32.41902	60913
32.42713	51544
32.43527	54477
32.44338	54182
32.45152	54855
32.45963	53196
32.46775	54404
32.47588	52854
32.48400	55143
32.49212	52408
32.50025	51236
32.50837	49916
32.51650	50775
32.52462	53164
32.53273	50573
32.54087	55089
32.54898	52038
32.55712	51486
32.56523	53227
32.57335	51990
32.58148	51226
32.58960	55413
32.59773	51196
32.60585	53888
32.61397	50494
32.62210	53557
32.63022	56422
32.63833	57570
32.64647	63745
32.65458	65164
32.66272	70999
32.67083	69016
32.67895	65570
32.68708	62021
32.69520	59183
32.70333	58458
32.71145	53320
32.71957	53277
32.72770	54426
32.73582	53940
32.74395	50804
32.75207	52759
32.76018	47586
32.76832	51132
32.77643	48863
32.78455	49353
32.79268	46741
32.80080	48030
32.80893	51029
32.81705	52107
32.82517	52342
32.83330	49372
32.84142	49546
32.84955	48260
32.85767	46013
32.86578	48974
32.87392	49753
32.88203	51081
32.89015	50766
32.89828	51407
32.90640	51637
32.91453	53983
32.92265	55843
32.93077	57178
32.93890	50815
32.94702	48464
32.95515	49352
32.96327	51971
32.97138	49903
32.97952	55913
32.98763	65960
32.99577	70656
33.00388	75135
33.01200	74205
33.02013	72426
33.02825	69367
33.03637	67090
33.04450	63879
33.05262	56226
33.06075	60834
33.06887	61118
33.07698	65899
33.08512	67076
33.09323	73439
33.10137	75688
33.10948	78232
33.11760	76341
33.12573	77093
33.13385	74540
33.14198	69606
33.15010	68867
33.15822	56226
33.16635	59787
33.17447	57931
33.18258	54708
33.19072	50291
33.19883	56886
33.20697	53683
33.21508	51332
33.22320	53125
33.23133	53104
33.23945	51632
33.24758	51145
33.25570	50109
33.26382	48206
33.27195	49176
33.28007	47121
33.28818	49557
33.29632	48612
33.30443	48280
33.31257	48851
33.32068	51611
33.32880	46277
33.33693	49131
33.34505	53128
33.35318	50933
33.36130	55988
33.36942	57197
33.37755	56922
33.38567	51842
33.39380	49974
33.40192	47934
33.41003	50601
33.41817	51108
33.42628	50069
33.43440	48832
33.44253	48328
33.45065	44581
33.45878	48804
33.46690	46754
33.47502	47293
33.48315	48007
33.49127	48682
33.49940	49630
33.50752	49342
33.51563	49809
33.52377	54058
33.53188	51630
33.54002	53190
33.54813	56995
33.55625	60265
33.56438	62176
33.57250	57924
33.58062	53355
33.58875	48961
33.59687	47421
33.60500	54325
33.61312	49770
33.62123	53246
33.62937	49873
33.63748	50770
33.64562	53316
33.65373	55543
33.66185	55748
33.66998	54101
33.67810	52963
33.68622	50394
33.69435	50976
33.70247	52967
33.71060	45792
33.71872	49189
33.72683	46224
33.73497	44977
33.74308	44775
33.75122	47609
33.75933	48217
33.76745	48793
33.77558	47399
33.78370	46671
33.79183	47277
33.79995	46744
33.80807	48146
33.81620	48338
33.82432	46008
33.83243	50551
33.84057	44085
33.84868	50715
33.85682	49548
33.86493	47985
33.87305	51822
33.88118	47696
33.88930	52468
33.89743	51677
33.90555	50094
33.91367	50342
33.92180	51467
33.92992	51083
33.93803	47930
33.94617	46422
33.95428	50059
33.96242	48629
33.97053	46416
33.97865	46445
33.98678	48255
33.99490	48006
34.00303	45918
34.01115	49680
34.01927	47325
34.02740	46455
34.03552	47549
34.04365	47680
34.05177	45990
34.05988	48929
34.06802	49411
34.07613	49618
34.08425	51522
34.09238	51244
34.10050	50879
34.10863	53511
34.11675	51323
34.12487	55739
34.13300	51129
34.14112	51147
34.14925	51147
34.15737	59287
34.16548	49867
34.17362	49898
34.18173	46815
34.18987	47989
34.19798	53053
34.20610	52032
34.21423	53501
34.22235	48153
34.23047	52439
34.23860	49955
34.24672	49220
34.25485	48243
34.26297	48832
34.27108	49784
34.27922	48678
34.28733	48112
34.29547	51908
34.30358	51384
34.31170	52544
34.31983	47704
34.32795	52550
34.33607	50035
34.34420	49642
34.35232	47441
34.36045	51532
34.36857	49921
34.37668	49724
34.38482	55526
34.39293	53724
34.40107	48597
34.40918	48193
34.41730	46961
34.42543	50059
34.43355	47921
34.44168	50815
34.44980	52145
34.45792	46785
34.46605	49257
34.47417	52959
34.48228	48008
34.49042	50600
34.49853	57162
34.50667	58994
34.51478	68243
34.52290	75367
34.53103	83127
34.53915	89475
34.54728	100120
34.55540	103408
34.56352	99262
34.57165	94944
34.57977	91513
34.58790	85752
34.59602	86418
34.60413	81740
34.61227	73869
34.62038	70657
34.62850	69122
34.63663	65708
34.64475	62803
34.65288	62068
34.66100	61474
34.66912	63182
34.67725	58805
34.68537	57294
34.69350	61164
34.70162	56055
34.70973	55892
34.71787	59824
34.72598	57311
34.73410	58219
34.74223	54582
34.75035	57274
34.75848	56918
34.76660	55443
34.77472	58995
34.78285	58229
34.79097	51023
34.79910	57450
34.80722	57848
34.81533	58320
34.82347	59903
34.83158	60258
34.83972	59415
34.84783	58145
34.85595	58992
34.86408	54176
34.87220	59140
34.88032	56699
34.88845	56930
34.89657	56738
34.90470	54398
34.91282	54710
34.92093	54943
34.92907	56722
34.93718	60176
34.94532	60211
34.95343	62682
34.96155	63078
34.96968	70996
34.97780	66135
34.98592	63471
34.99405	61746
35.00217	60432
35.01030	53709
35.01842	61125
35.02653	51960
35.03467	57419
35.04278	49771
35.05092	53054
35.05903	54310
35.06715	53603
35.07528	51501
35.08340	52680
35.09153	51512
35.09965	50157
35.10777	54705
35.11590	53789
35.12402	48202
35.13213	53425
35.14027	53831
35.14838	54327
35.15652	55028
35.16463	55217
35.17275	51962
35.18088	53368
35.18900	53444
35.19713	50860
35.20525	51003
35.21337	49865
35.22150	49093
35.22962	50595
35.23775	52053
35.24587	47830
35.25398	52805
35.26212	54995
35.27023	52691
35.27835	52295
35.28648	53769
35.29460	47066
35.30273	50817
35.31085	48718
35.31897	54382
35.32710	49991
35.33522	51606
35.34335	48759
35.35147	50597
35.35958	52201
35.36772	52044
35.37583	52318
35.38397	54075
35.39208	54738
35.40020	58996
35.40833	52012
35.41645	59332
35.42457	68573
35.43270	68186
35.44082	66101
35.44895	60704
35.45707	62547
35.46518	58365
35.47332	57123
35.48143	59297
35.48957	58588
35.49768	57385
35.50580	56234
35.51393	53707
35.52205	51368
35.53017	56208
35.53830	51806
35.54642	52188
35.55455	55277
35.56267	56861
35.57078	53842
35.57892	55934
35.58703	54882
35.59517	53114
35.60328	49637
35.61140	59267
35.61953	52040
35.62765	52862
35.63578	52885
35.64390	51629
35.65202	57561
35.66015	55474
35.66827	57078
35.67638	54025
35.68452	55245
35.69263	51703
35.70077	55783
35.70888	50915
35.71700	54206
35.72513	50914
35.73325	58645
35.74138	59654
35.74950	57975
35.75762	65146
35.76575	63632
35.77387	61167
35.78198	62546
35.79012	60417
35.79823	59250
35.80637	56011
35.81448	51341
35.82260	54197
35.83073	56333
35.83885	53760
35.84698	51943
35.85510	53147
35.86322	46182
35.87135	54371
35.87947	52420
35.88760	54163
35.89572	49641
35.90383	54802
35.91197	51640
35.92008	55646
35.92820	53978
35.93633	52770
35.94445	52851
35.95258	54415
35.96070	50062
35.96882	49146
35.97695	53543
35.98507	51532
35.99320	53866
36.00132	53779
36.00943	54293
36.01757	53591
36.02568	60412
36.03382	55403
36.04193	51557
36.05005	57463
36.05818	55059
36.06630	56266
36.07442	54345
36.08255	54181
36.09067	55121
36.09880	58259
36.10692	51921
36.11503	51291
36.12317	52267
36.13128	55376
36.13942	54958
36.14753	57963
36.15565	57996
36.16378	54845
36.17190	53672
36.18002	52995
36.18815	55275
36.19627	55220
36.20440	56517
36.21252	57093
36.22063	52897
36.22877	50373
36.23688	48605
36.24502	52615
36.25313	50313
36.26125	53103
36.26938	55446
36.27750	57699
36.28563	73958
36.29375	78625
36.30187	82450
36.31000	90069
36.31812	90734
36.32623	86223
36.33437	84893
36.34248	77886
36.35062	83073
36.35873	79649
36.36685	74446
36.37498	80301
36.38310	82301
36.39123	82886
36.39935	83144
36.40747	77636
36.41560	79891
36.42372	83919
36.43185	80155
36.43997	81807
36.44808	81702
36.45622	81687
36.46433	79972
36.47245	81682
36.48058	79408
36.48870	79305
36.49683	78344
36.50495	82978
36.51307	80896
36.52120	82020
36.52932	76698
36.53745	79892
36.54557	77321
36.55368	76608
36.56182	80853
36.56993	79041
36.57805	74699
36.58618	78175
36.59430	81126
36.60243	81589
36.61055	82006
36.61867	74982
36.62680	76704
36.63492	77729
36.64305	75614
36.65117	80191
36.65928	81357
36.66742	81833
36.67553	71380
36.68367	77235
36.69178	75202
36.69990	70332
36.70803	69863
36.71615	72880
36.72427	76097
36.73240	74823
36.74052	74962
36.74865	74427
36.75677	73075
36.76488	71894
36.77302	74440
36.78113	74896
36.78927	82919
36.79738	76002
36.80550	72977
36.81363	70435
36.82175	71801
36.82987	71173
36.83800	71451
36.84612	71597
36.85425	70513
36.86237	74211
36.87048	74608
36.87862	68504
36.88673	70747
36.89487	71149
36.90298	69252
36.91110	74203
36.91923	70404
36.92735	70452
36.93548	74310
36.94360	81746
36.95172	78279
36.95985	84424
36.96797	92030
36.97608	91237
36.98422	87702
36.99233	81897
37.00047	81052
37.00858	73524
37.01670	72193
37.02483	74856
37.03295	68027
37.04108	71895
37.04920	73044
37.05732	67730
37.06545	70953
37.07357	71768
37.08170	68298
37.08982	67122
37.09793	68678
37.10607	77054
37.11418	66786
37.12230	67375
37.13043	68965
37.13855	66418
37.14668	67091
37.15480	68404
37.16292	70348
37.17105	69848
37.17917	69906
37.18730	73206
37.19542	67882
37.20353	65148
37.21167	73710
37.21978	70440
37.22790	72033
37.23603	68992
37.24415	72426
37.25228	68943
37.26040	64074
37.26852	64496
37.27665	65291
37.28477	66246
37.29290	62598
37.30102	67675
37.30913	75065
37.31727	80099
37.32538	88835
37.33352	96314
37.34163	100505
37.34975	108163
37.35788	105800
37.36600	99905
37.37412	101078
37.38225	97762
37.39037	92056
37.39850	89544
37.40662	88649
37.41473	80788
37.42287	85149
37.43098	79474
37.43912	79896
37.44723	81583
37.45535	77821
37.46348	78921
37.47160	77363
37.47973	75006
37.48785	75761
