Z:\data\JTB-E02\BACandBLUE\JTB-E02-200-11.D Thu Feb 28 10:35:54 2019
Start of data points
2.09527,76505
2.10340,74788
2.11152,72538
2.11965,70572
2.12777,73582
2.13588,67363
2.14402,68301
2.15213,65953
2.16025,63748
2.16838,65193
2.17650,64440
2.18463,64226
2.19275,61912
2.20087,63263
2.20900,61794
2.21712,61400
2.22525,64529
2.23337,60424
2.24148,60966
2.24962,60082
2.25773,65797
2.26585,277285
2.27398,942698
2.28210,1082564
2.29023,615245
2.29835,383063
2.30647,335477
2.31460,1006864
2.32272,1153452
2.33085,447164
2.33897,281494
2.34708,237099
2.35522,209587
2.36333,192618
2.37147,173226
2.37958,179887
2.38770,164305
2.39583,160242
2.40395,159412
2.41207,146476
2.42020,156315
2.42832,148620
2.43645,140384
2.44457,139544
2.45268,129609
2.46082,124554
2.46893,117531
2.47707,113924
2.48518,117637
2.49330,124484
2.50143,123512
2.50955,116354
2.51768,119646
2.52580,114113
2.53392,115741
2.54205,116322
2.55017,134268
2.55828,174330
2.56642,207832
2.57453,180161
2.58267,149668
2.59078,132909
2.59890,163859
2.60703,566148
2.61515,1215825
2.62328,1082142
2.63140,604719
2.63952,400233
2.64765,318976
2.65577,251976
2.66388,207906
2.67202,193216
2.68013,168952
2.68827,157036
2.69638,146430
2.70450,138234
2.71263,131203
2.72075,127094
2.72888,118807
2.73700,117812
2.74512,114389
2.75325,114267
2.76137,112329
2.76950,127037
2.77762,310294
2.78573,1042682
2.79387,1490913
2.80198,1010759
2.81010,630640
2.81823,486674
2.82635,405896
2.83448,329509
2.84260,289477
2.85072,245020
2.85885,233947
2.86697,207409
2.87510,199041
2.88322,184178
2.89133,178692
2.89947,176242
2.90758,161484
2.91570,144036
2.92383,131913
2.93195,130935
2.94008,129729
2.94820,122596
2.95632,126418
2.96445,139577
2.97257,155221
2.98070,146229
2.98882,128959
2.99693,130795
3.00507,144841
3.01318,172830
3.02132,160489
3.02943,137279
3.03755,124182
3.04568,112715
3.05380,113450
3.06192,116693
3.07005,110054
3.07817,167579
3.08630,734813
3.09442,2496219
3.10253,4415006
3.11067,5906327
3.11878,6764437
3.12692,5301672
3.13503,3491651
3.14315,2536692
3.15128,1959957
3.15940,1586047
3.16753,1302142
3.17565,1120399
3.18377,1054779
3.19190,1300292
3.20002,1842099
3.20813,1957265
3.21627,1540027
3.22438,1228323
3.23252,1004677
3.24063,867251
3.24875,769099
3.25688,668260
3.26500,597493
3.27313,556639
3.28125,516376
3.28937,555151
3.29750,1195961
3.30562,3613775
3.31375,7732693
3.32187,1.009809E+07
3.32998,8726446
3.33812,5768261
3.34623,3660841
3.35435,2516244
3.36248,1919113
3.37060,1517802
3.37873,1268051
3.38685,1104839
3.39497,991917
3.40310,896272
3.41122,804267
3.41935,745871
3.42747,710530
3.43558,652445
3.44372,607329
3.45183,581562
3.45995,542695
3.46808,527895
3.47620,524989
3.48433,517681
3.49245,491536
3.50057,478094
3.50870,448374
3.51682,430618
3.52495,405987
3.53307,406017
3.54118,404843
3.54932,400172
3.55743,383059
3.56557,352667
3.57368,405564
3.58180,576486
3.58993,654895
3.59805,573911
3.60617,452087
3.61430,411182
3.62242,390080
3.63055,374028
3.63867,372935
3.64678,352351
3.65492,346730
3.66303,408043
3.67117,1230478
3.67928,5116679
3.68740,1.178302E+07
3.69553,1.470267E+07
3.70365,1.161416E+07
3.71177,8025620
3.71990,6084349
3.72802,4995340
3.73615,4202836
3.74427,3589135
3.75238,3137712
3.76052,2782764
3.76863,2561521
3.77677,2326790
3.78488,2141890
3.79300,1988202
3.80113,1892522
3.80925,2029333
3.81738,2850580
3.82550,4171662
3.83362,4526438
3.84175,3782010
3.84987,2965135
3.85798,2446109
3.86612,2159187
3.87423,1940694
3.88237,1758569
3.89048,1625183
3.89860,1491779
3.90673,1390258
3.91485,1302211
3.92298,1233168
3.93110,1284465
3.93922,1325299
3.94735,1318594
3.95547,1547310
3.96360,2845976
3.97172,5658816
3.97983,7550493
3.98797,6665075
3.99608,4694836
4.00420,5105210
4.01233,1.172743E+07
4.02045,2.515833E+07
4.02858,3.458205E+07
4.03670,3.106316E+07
4.04482,1.963943E+07
4.05295,1.079685E+07
4.06107,6464683
4.06920,4500260
4.07732,3452605
4.08543,2704980
4.09357,2280987
4.10168,1925115
4.10980,1712602
4.11793,1511571
4.12605,1360955
4.13418,1247871
4.14230,1168036
4.15042,1083578
4.15855,1063507
4.16667,1034350
4.17480,1001241
4.18292,959144
4.19103,953794
4.19917,869810
4.20728,820490
4.21542,868486
4.22353,1642809
4.23165,4690493
4.23978,1.024975E+07
4.24790,1.50556E+07
4.25602,1.557117E+07
4.26415,1.174902E+07
4.27227,7525886
4.28040,5081445
4.28852,3709821
4.29663,2886202
4.30477,2313886
4.31288,1956914
4.32102,1669220
4.32913,1487450
4.33725,1312170
4.34538,1210527
4.35350,1123409
4.36163,1066211
4.36975,1046052
4.37787,1020114
4.38600,995981
4.39412,894515
4.40223,806103
4.41037,732860
4.41848,691895
4.42662,644230
4.43473,626566
4.44285,596799
4.45098,576909
4.45910,537589
4.46723,502331
4.47535,470751
4.48347,456958
4.49160,440450
4.49972,428306
4.50783,414046
4.51597,412493
4.52408,409641
4.53222,399697
4.54033,395862
4.54845,398491
4.55658,396866
4.56470,412145
4.57283,412521
4.58095,396899
4.58907,374476
4.59720,369940
4.60532,366526
4.61345,355184
4.62157,356182
4.62968,369386
4.63782,432652
4.64593,586243
4.65405,764970
4.66218,788056
4.67030,685394
4.67843,539267
4.68655,489335
4.69467,456484
4.70280,429616
4.71092,399015
4.71905,373017
4.72717,340620
4.73528,329142
4.74342,326941
4.75153,309227
4.75965,314748
4.76778,296602
4.77590,288305
4.78403,285476
4.79215,279851
4.80027,290187
4.80840,331053
4.81652,412381
4.82465,459207
4.83277,452519
4.84088,406327
4.84902,391304
4.85713,391687
4.86527,408176
4.87338,398750
4.88150,382230
4.88963,354977
4.89775,333110
4.90587,312934
4.91400,302231
4.92212,290237
4.93025,272741
4.93837,278482
4.94648,292124
4.95462,391583
4.96273,727867
4.97087,1483028
4.97898,2413163
4.98710,2934311
4.99523,2795570
5.00335,2198588
5.01148,1555285
5.01960,1127992
5.02772,905401
5.03585,789051
5.04397,746325
5.05208,785119
5.06022,808563
5.06833,753614
5.07647,694019
5.08458,631246
5.09270,574025
5.10083,537844
5.10895,494602
5.11708,472949
5.12520,454343
5.13332,419207
5.14145,393125
5.14957,381463
5.15768,390939
5.16582,421940
5.17393,485129
5.18207,547330
5.19018,560666
5.19830,529181
5.20643,496212
5.21455,509775
5.22268,529747
5.23080,540886
5.23892,493926
5.24705,458531
5.25517,434669
5.26330,397007
5.27142,383081
5.27953,334400
5.28767,310272
5.29578,296281
5.30390,298481
5.31203,297488
5.32015,288770
5.32828,289974
5.33640,299400
5.34452,314213
5.35265,348302
5.36077,356905
5.36890,343372
5.37702,315629
5.38513,289647
5.39327,296516
5.40138,300971
5.40952,315676
5.41763,325077
5.42575,320354
5.43388,281909
5.44200,278751
5.45012,267227
5.45825,270984
5.46637,287434
5.47450,301155
5.48262,302230
5.49073,290517
5.49887,253992
5.50698,249760
5.51512,249434
5.52323,232058
5.53135,245880
5.53948,257789
5.54760,252326
5.55572,246327
5.56385,245797
5.57197,290549
5.58010,395123
5.58822,526167
5.59633,557052
5.60447,513283
5.61258,418848
5.62072,336646
5.62883,301536
5.63695,284401
5.64508,286927
5.65320,292216
5.66133,291221
5.66945,279099
5.67757,258827
5.68570,244231
5.69382,256245
5.70193,296445
5.71007,342104
5.71818,347253
5.72632,333273
5.73443,295389
5.74255,266143
5.75068,240148
5.75880,223138
5.76693,221303
5.77505,208884
5.78317,202911
5.79130,208661
5.79942,203560
5.80755,198786
5.81567,189915
5.82378,190405
5.83192,195408
5.84003,197940
5.84815,194822
5.85628,203014
5.86440,194845
5.87253,195347
5.88065,190863
5.88877,186114
5.89690,179455
5.90502,183224
5.91315,180789
5.92127,167874
5.92938,164333
5.93752,164597
5.94563,170101
5.95375,172145
5.96188,166398
5.97000,187782
5.97813,233133
5.98625,337364
5.99437,479071
6.00250,616056
6.01062,648107
6.01875,585079
6.02687,445066
6.03498,368817
6.04312,303809
6.05123,267655
6.05937,234689
6.06748,225187
6.07560,212265
6.08373,202190
6.09185,199163
6.09997,198859
6.10810,186976
6.11622,185536
6.12435,181697
6.13247,184284
6.14058,196316
6.14872,262806
6.15683,350792
6.16497,443583
6.17308,469565
6.18120,406171
6.18933,353445
6.19745,298882
6.20557,274486
6.21370,262947
6.22182,238645
6.22995,233345
6.23807,230981
6.24618,226922
6.25432,230081
6.26243,231497
6.27057,248640
6.27868,243790
6.28680,257126
6.29493,249368
6.30305,234593
6.31118,213349
6.31930,226859
6.32742,203586
6.33555,216000
6.34367,214084
6.35178,226927
6.35992,225572
6.36803,219277
6.37617,215815
6.38428,212629
6.39240,219181
6.40053,219482
6.40865,227986
6.41678,217434
6.42490,218945
6.43302,216926
6.44115,209582
6.44927,214544
6.45740,216557
6.46552,220352
6.47363,210006
6.48177,214665
6.48988,217628
6.49800,226412
6.50613,225457
6.51425,221485
6.52238,229472
6.53050,217386
6.53862,228051
6.54675,221246
6.55487,231890
6.56300,219297
6.57112,229111
6.57923,268361
6.58737,334806
6.59548,401535
6.60360,466557
6.61173,456242
6.61985,378147
6.62798,322237
6.63610,271593
6.64422,267302
6.65235,258420
6.66047,303829
6.66860,465051
6.67672,920861
6.68483,1669409
6.69297,2251698
6.70108,2218058
6.70922,1786383
6.71733,1204873
6.72545,863260
6.73358,657140
6.74170,526747
6.74982,467084
6.75795,408512
6.76607,379687
6.77420,347818
6.78232,313266
6.79043,283466
6.79857,268718
6.80668,248411
6.81482,231907
6.82293,216466
6.83105,208618
6.83918,192389
6.84730,200539
6.85543,200779
6.86355,199173
6.87167,206548
6.87980,222984
6.88792,243027
6.89603,240906
6.90417,219006
6.91228,184573
6.92042,162110
6.92853,141095
6.93665,142893
6.94478,136044
6.95290,131106
6.96103,122492
6.96915,121012
6.97727,131668
6.98540,153660
6.99352,190670
7.00163,229631
7.00977,234828
7.01788,221914
7.02602,188917
7.03413,157258
7.04225,158588
7.05038,139504
7.05850,139712
7.06663,135073
7.07475,144201
7.08287,149723
7.09100,148760
7.09912,159730
7.10725,150842
7.11537,142871
7.12348,129833
7.13162,121255
7.13973,118895
7.14785,119850
7.15598,125154
7.16410,144953
7.17223,173840
7.18035,226300
7.18847,244758
7.19660,222533
7.20472,221336
7.21285,292653
7.22097,596732
7.22908,1238585
7.23722,2066113
7.24533,2366334
7.25345,1980605
7.26158,1296676
7.26970,741456
7.27783,413282
7.28595,248695
7.29407,170158
7.30220,138436
7.31032,131650
7.31845,124720
7.32657,123749
7.33468,123727
7.34282,127785
7.35093,127433
7.35907,122980
7.36718,132181
7.37530,124025
7.38343,125296
7.39155,122533
7.39967,117004
7.40780,115751
7.41592,133866
7.42405,126551
7.43217,120487
7.44028,122512
7.44842,121470
7.45653,117416
7.46467,115284
7.47278,108347
7.48090,102470
7.48903,107361
7.49715,98411
7.50528,98413
7.51340,94516
7.52152,98947
7.52965,89592
7.53777,107799
7.54588,145104
7.55402,235922
7.56213,406854
7.57027,673052
7.57838,957000
7.58650,1146260
7.59463,1195312
7.60275,1051619
7.61088,798870
7.61900,554893
7.62712,379725
7.63525,257594
7.64337,193413
7.65150,161065
7.65962,141330
7.66773,127305
7.67587,121950
7.68398,113347
7.69210,103749
7.70023,99610
7.70835,94220
7.71648,98462
7.72460,91358
7.73272,97124
7.74085,98347
7.74897,101396
7.75710,97856
7.76522,102096
7.77333,103805
7.78147,102327
7.78958,100975
7.79770,103946
7.80583,99174
7.81395,109493
7.82208,108865
7.83020,121564
7.83832,125074
7.84645,115782
7.85457,108050
7.86270,97226
7.87082,90746
7.87893,102815
7.88707,101923
7.89518,106672
7.90332,117251
7.91143,125255
7.91955,129573
7.92768,126265
7.93580,134968
7.94392,155913
7.95205,229047
7.96017,330851
7.96830,394690
7.97642,402108
7.98453,317087
7.99267,231209
8.00078,170474
8.00892,129458
8.01703,119112
8.02515,102662
8.03328,92463
8.04140,87639
8.04952,87902
8.05765,89210
8.06577,86446
8.07390,83286
8.08202,78941
8.09013,77792
8.09827,77841
8.10638,81718
8.11452,75141
8.12263,76216
8.13075,80442
8.13888,77958
8.14700,82301
8.15513,87384
8.16325,103437
8.17137,113141
8.17950,116675
8.18762,103765
8.19573,94356
8.20387,87588
8.21198,85751
8.22012,76706
8.22823,83435
8.23635,76765
8.24448,79441
8.25260,75425
8.26073,73219
8.26885,73358
8.27697,73452
8.28510,69360
8.29322,71403
8.30135,71761
8.30947,67014
8.31758,72549
8.32572,74084
8.33383,81529
8.34195,84592
8.35008,90033
8.35820,89625
8.36633,85033
8.37445,79001
8.38257,80379
8.39070,73434
8.39882,75429
8.40695,75609
8.41507,73168
8.42318,69588
8.43132,71611
8.43943,63097
8.44755,61772
8.45568,64760
8.46380,59593
8.47193,67259
8.48005,67281
8.48817,66880
8.49630,69714
8.50442,66860
8.51255,62770
8.52067,61285
8.52878,70365
8.53692,87936
8.54503,149069
8.55317,259913
8.56128,365787
8.56940,429796
8.57753,386575
8.58565,279671
8.59377,182477
8.60190,128859
8.61002,107855
8.61815,107324
8.62627,97579
8.63438,99475
8.64252,95604
8.65063,92728
8.65877,88557
8.66688,83489
8.67500,78084
8.68313,75691
8.69125,70105
8.69938,79207
8.70750,70190
8.71562,72496
8.72375,69343
8.73187,72602
8.73998,65372
8.74812,67424
8.75623,67534
8.76437,68647
8.77248,64294
8.78060,81482
8.78873,135500
8.79685,252918
8.80498,442006
8.81310,657315
8.82122,764320
8.82935,724805
8.83747,552921
8.84558,399483
8.85372,293274
8.86183,234733
8.86997,222286
8.87808,203896
8.88620,189368
8.89433,181492
8.90245,175510
8.91058,161215
8.91870,154266
8.92682,157267
8.93495,146619
8.94307,149971
8.95120,159615
8.95932,168590
8.96743,177578
8.97557,180511
8.98368,164553
8.99180,150039
8.99993,151649
9.00805,158118
9.01618,153905
9.02430,148998
9.03242,136373
9.04055,135509
9.04867,124297
9.05680,111726
9.06492,108336
9.07303,114066
9.08117,109813
9.08928,109192
9.09740,107229
9.10553,109268
9.11365,116530
9.12178,127647
9.12990,138731
9.13802,159138
9.14615,159265
9.15427,154585
9.16240,147848
9.17052,121928
9.17863,117883
9.18677,114190
9.19488,106830
9.20302,101556
9.21113,97338
9.21925,100613
9.22738,99992
9.23550,97396
9.24362,98017
9.25175,95566
9.25987,95041
9.26800,91074
9.27612,96876
9.28423,98184
9.29237,100350
9.30048,95697
9.30862,91403
9.31673,86176
9.32485,87242
9.33298,82795
9.34110,85107
9.34923,83682
9.35735,81550
9.36547,82890
9.37360,83027
9.38172,83693
9.38983,83359
9.39797,82355
9.40608,79668
9.41422,84905
9.42233,90345
9.43045,99965
9.43858,105167
9.44670,119158
9.45483,145640
9.46295,149001
9.47107,162074
9.47920,141746
9.48732,125057
9.49543,119862
9.50357,97982
9.51168,88239
9.51982,84885
9.52793,92045
9.53605,105713
9.54418,111666
9.55230,121216
9.56043,119708
9.56855,117756
9.57667,102834
9.58480,95887
9.59292,84526
9.60105,83465
9.60917,82869
9.61728,78380
9.62542,78710
9.63353,76376
9.64165,67024
9.64978,68897
9.65790,61345
9.66603,57673
9.67415,59918
9.68227,62826
9.69040,59311
9.69852,55332
9.70665,58877
9.71477,55658
9.72288,56890
9.73102,56211
9.73913,59998
9.74727,58103
9.75538,55176
9.76350,51842
9.77163,58649
9.77975,55562
9.78787,53285
9.79600,48814
9.80412,50161
9.81225,50013
9.82037,52482
9.82848,48695
9.83662,51830
9.84473,49815
9.85287,52842
9.86098,50093
9.86910,55705
9.87723,57299
9.88535,62624
9.89347,57426
9.90160,63060
9.90972,53588
9.91785,52969
9.92597,52526
9.93408,50313
9.94222,53415
9.95033,60467
9.95847,71230
9.96658,91072
9.97470,118859
9.98283,136957
9.99095,139593
9.99908,128556
10.00720,111275
10.01532,93418
10.02345,86195
10.03157,88708
10.03968,77792
10.04782,75458
10.05593,77708
10.06407,75173
10.07218,68293
10.08030,65922
10.08843,69204
10.09655,70191
10.10468,65318
10.11280,71426
10.12092,77820
10.12905,69656
10.13717,71985
10.14530,70254
10.15342,71569
10.16153,59222
10.16967,60310
10.17778,59768
10.18590,57349
10.19403,56613
10.20215,59143
10.21028,55920
10.21840,53008
10.22652,52144
10.23465,56170
10.24277,56392
10.25090,61674
10.25902,65705
10.26713,67112
10.27527,90567
10.28338,172520
10.29150,403412
10.29963,895426
10.30775,1640785
10.31588,2531455
10.32400,3572270
10.33212,5114405
10.34025,7482772
10.34837,1.014241E+07
10.35650,1.178336E+07
10.36462,1.095089E+07
10.37273,8062981
10.38087,4846038
10.38898,2764695
10.39712,1756457
10.40523,1269104
10.41335,924718
10.42148,654079
10.42960,486113
10.43772,366991
10.44585,311827
10.45397,292680
10.46210,275155
10.47022,269131
10.47833,248408
10.48647,228479
10.49458,215100
10.50272,193706
10.51083,177147
10.51895,168038
10.52708,161572
10.53520,151155
10.54332,148065
10.55145,143078
10.55957,138212
10.56770,132884
10.57582,132870
10.58393,130466
10.59207,132009
10.60018,121456
10.60832,123100
10.61643,115105
10.62455,113941
10.63268,107105
10.64080,105626
10.64893,99425
10.65705,97656
10.66517,93985
10.67330,92818
10.68142,91648
10.68953,91844
10.69767,92492
10.70578,90041
10.71392,93631
10.72203,94198
10.73015,92880
10.73828,91996
10.74640,91536
10.75453,92272
10.76265,90055
10.77077,82459
10.77890,85277
10.78702,86342
10.79515,84526
10.80327,83625
10.81138,81507
10.81952,77749
10.82763,82208
10.83575,85996
10.84388,81409
10.85200,73694
10.86013,73506
10.86825,71192
10.87637,71676
10.88450,66681
10.89262,70475
10.90075,62803
10.90887,62309
10.91698,69196
10.92512,64278
10.93323,59921
10.94135,62437
10.94948,63529
10.95760,62801
10.96573,57016
10.97385,58553
10.98197,60642
10.99010,61731
10.99822,64719
11.00635,61961
11.01447,64876
11.02258,63706
11.03072,68430
11.03883,62185
11.04697,59546
11.05508,58970
11.06320,53353
11.07133,56957
11.07945,55251
11.08757,61834
11.09570,63881
11.10382,61245
11.11195,66103
11.12007,66206
11.12818,63818
11.13632,60098
11.14443,58001
11.15257,58842
11.16068,49450
11.16880,48648
11.17693,52802
11.18505,51854
11.19318,54050
11.20130,60012
11.20942,52661
11.21755,57165
11.22567,60394
11.23378,57312
11.24192,54539
11.25003,53790
11.25817,46968
11.26628,48530
11.27440,44386
11.28253,45151
11.29065,44996
11.29878,44497
11.30690,46200
11.31502,52998
11.32315,70716
11.33127,116660
11.33938,202569
11.34752,338886
11.35563,508289
11.36377,646894
11.37188,704980
11.38000,625214
11.38813,493054
11.39625,358955
11.40438,254852
11.41250,213007
11.42062,182626
11.42875,172636
11.43687,151544
11.44500,139235
11.45312,125676
11.46123,112335
11.46937,109022
11.47748,96977
11.48560,103269
11.49373,98561
11.50185,117295
11.50998,141040
11.51810,166884
11.52622,175874
11.53435,163722
11.54247,144054
11.55060,125143
11.55872,116913
11.56683,104502
11.57497,99968
11.58308,89305
11.59120,89469
11.59933,82134
11.60745,84605
11.61558,91824
11.62370,113365
11.63182,123601
11.63995,159182
11.64807,161507
11.65620,143715
11.66432,119881
11.67243,101098
11.68057,83572
11.68868,73316
11.69682,71285
11.70493,68635
11.71305,72115
11.72118,67836
11.72930,73672
11.73742,68795
11.74555,64657
11.75367,64910
11.76180,73256
11.76992,59994
11.77803,62906
11.78617,54470
11.79428,57207
11.80242,53352
11.81053,53277
11.81865,54732
11.82678,48996
11.83490,56543
11.84303,55312
11.85115,62283
11.85927,68624
11.86740,79318
11.87552,90246
11.88363,95500
11.89177,88050
11.89988,78583
11.90802,70619
11.91613,56702
11.92425,51951
11.93238,52993
11.94050,59364
11.94863,55568
11.95675,54757
11.96487,56608
11.97300,52839
11.98112,51050
11.98923,46254
11.99737,49409
12.00548,55335
12.01362,56992
12.02173,73546
12.02985,79637
12.03798,79196
12.04610,72739
12.05423,69489
12.06235,63090
12.07047,54623
12.07860,52985
12.08672,49783
12.09485,48884
12.10297,51335
12.11108,53869
12.11922,60522
12.12733,74439
12.13545,100785
12.14358,131384
12.15170,172678
12.15983,185285
12.16795,176458
12.17607,154691
12.18420,119771
12.19232,91825
12.20045,79823
12.20857,74403
12.21668,78913
12.22482,75325
12.23293,71073
12.24107,74598
12.24918,73962
12.25730,67884
12.26543,70929
12.27355,72350
12.28167,63241
12.28980,69251
12.29792,59198
12.30605,62924
12.31417,60811
12.32228,55788
12.33042,57052
12.33853,56069
12.34667,57714
12.35478,56884
12.36290,54005
12.37103,58148
12.37915,67271
12.38727,65390
12.39540,68491
12.40352,65026
12.41165,66440
12.41977,67340
12.42788,85460
12.43602,111662
12.44413,117828
12.45227,131668
12.46038,124606
12.46850,105451
12.47663,93154
12.48475,84028
12.49288,70546
12.50100,72807
12.50912,62218
12.51725,59708
12.52537,57887
12.53348,57018
12.54162,55321
12.54973,57540
12.55787,59725
12.56598,77822
12.57410,80562
12.58223,88297
12.59035,87016
12.59848,83199
12.60660,75805
12.61472,66607
12.62285,67647
12.63097,57030
12.63908,55848
12.64722,54531
12.65533,55205
12.66347,54690
12.67158,52394
12.67970,51323
12.68783,51696
12.69595,51897
12.70408,54216
12.71220,49423
12.72032,49101
12.72845,50333
12.73657,49236
12.74470,52666
12.75282,57728
12.76093,58449
12.76907,56193
12.77718,54819
12.78530,50071
12.79343,49415
12.80155,47315
12.80968,45397
12.81780,41628
12.82592,46009
12.83405,45074
12.84217,43012
12.85030,39298
12.85842,38772
12.86653,40668
12.87467,41357
12.88278,40876
12.89092,37385
12.89903,42533
12.90715,35915
12.91528,38437
12.92340,39010
12.93152,42207
12.93965,37623
12.94777,37614
12.95590,37718
12.96402,38243
12.97213,43485
12.98027,40813
12.98838,40441
12.99652,44876
13.00463,45809
13.01275,48038
13.02088,46861
13.02900,40807
13.03713,38748
13.04525,37380
13.05337,38958
13.06150,41514
13.06962,37368
13.07773,38572
13.08587,39122
13.09398,41309
13.10212,44188
13.11023,43957
13.11835,42708
13.12648,39460
13.13460,38487
13.14273,38409
13.15085,41037
13.15897,36409
13.16710,40224
13.17522,41229
13.18333,42166
13.19147,38574
13.19958,40303
13.20772,40304
13.21583,48222
13.22395,43877
13.23208,49752
13.24020,48880
13.24833,47186
13.25645,47242
13.26457,45195
13.27270,44585
13.28082,44315
13.28895,43782
13.29707,40842
13.30518,41174
13.31332,35845
13.32143,38448
13.32955,37505
13.33768,40636
13.34580,35272
13.35393,37405
13.36205,33746
13.37017,36326
13.37830,36374
13.38642,37607
13.39455,39278
13.40267,35697
13.41078,36067
13.41892,32669
13.42703,35283
13.43515,41470
13.44328,38267
13.45140,37719
13.45953,37518
13.46765,40374
13.47577,35413
13.48390,36502
13.49202,33635
13.50015,35737
13.50827,36078
13.51638,34653
13.52452,38955
13.53263,37051
13.54077,35503
13.54888,37975
13.55700,42308
13.56513,38353
13.57325,41945
13.58137,40969
13.58950,41806
13.59762,47386
13.60575,43064
13.61387,45929
13.62198,46107
13.63012,45807
13.63823,49304
13.64637,53230
13.65448,49494
13.66260,43954
13.67073,40617
13.67885,39963
13.68698,36254
13.69510,36205
13.70322,36319
13.71135,43620
13.71947,37683
13.72758,35055
13.73572,36048
13.74383,35699
13.75197,40935
13.76008,46450
13.76820,50098
13.77633,71042
13.78445,90742
13.79258,128803
13.80070,145805
13.80882,173628
13.81695,180215
13.82507,185753
13.83318,186120
13.84132,197713
13.84943,225820
13.85757,240075
13.86568,238579
13.87380,212540
13.88193,185941
13.89005,150870
13.89818,126637
13.90630,105826
13.91442,85732
13.92255,76184
13.93067,65981
13.93880,63502
13.94692,55860
13.95503,55754
13.96317,58592
13.97128,63475
13.97940,80807
13.98753,102272
13.99565,131995
14.00378,150680
14.01190,148971
14.02002,136041
14.02815,105072
14.03627,94643
14.04440,76441
14.05252,66049
14.06063,61836
14.06877,63845
14.07688,65462
14.08502,61185
14.09313,57422
14.10125,58018
14.10938,54610
14.11750,54580
14.12562,53006
14.13375,48564
14.14187,51796
14.15000,50677
14.15812,50008
14.16623,51467
14.17437,59196
14.18248,53778
14.19062,57746
14.19873,68754
14.20685,72257
14.21498,93102
14.22310,126132
14.23122,156714
14.23935,179679
14.24747,182545
14.25560,184910
14.26372,174755
14.27183,158680
14.27997,148937
14.28808,134309
14.29622,127600
14.30433,112275
14.31245,100230
14.32058,90143
14.32870,85423
14.33683,87558
14.34495,81366
14.35307,81746
14.36120,81118
14.36932,77445
14.37743,65876
14.38557,62180
14.39368,57361
14.40182,51425
14.40993,49037
14.41805,49886
14.42618,53181
14.43430,64426
14.44243,69824
14.45055,75004
14.45867,68663
14.46680,59466
14.47492,54394
14.48303,59815
14.49117,50331
14.49928,46113
14.50742,50360
14.51553,54491
14.52365,49214
14.53178,48959
14.53990,53150
14.54803,54060
14.55615,50066
14.56427,48987
14.57240,47785
14.58052,48206
14.58865,48683
14.59677,42053
14.60488,41291
14.61302,40041
14.62113,42720
14.62925,40342
14.63738,35331
14.64550,36335
14.65363,34990
14.66175,36506
14.66987,42928
14.67800,39985
14.68612,37960
14.69425,38219
14.70237,36892
14.71048,36407
14.71862,39373
14.72673,41556
14.73487,35982
14.74298,35303
14.75110,39327
14.75923,35441
14.76735,41600
14.77547,37664
14.78360,44258
14.79172,45301
14.79985,47442
14.80797,79080
14.81608,184590
14.82422,467102
14.83233,1110566
14.84047,2181696
14.84858,3351154
14.85670,4052854
14.86483,3876793
14.87295,3111769
14.88107,2109114
14.88920,1299078
14.89732,826861
14.90545,570069
14.91357,450125
14.92168,366413
14.92982,315147
14.93793,276076
14.94607,250323
14.95418,225495
14.96230,207464
14.97043,198465
14.97855,183878
14.98668,175992
14.99480,162431
15.00292,148314
15.01105,148023
15.01917,134900
15.02728,135588
15.03542,123079
15.04353,121796
15.05167,114991
15.05978,116979
15.06790,103041
15.07603,104664
15.08415,100225
15.09228,100429
15.10040,89500
15.10852,92731
15.11665,89499
15.12477,80957
15.13290,89970
15.14102,87403
15.14913,97245
15.15727,97083
15.16538,99504
15.17350,96991
15.18163,92594
15.18975,83716
15.19788,65936
15.20600,66645
15.21412,60242
15.22225,54338
15.23037,55613
15.23850,53968
15.24662,51290
15.25473,51634
15.26287,49400
15.27098,55656
15.27910,51269
15.28723,47340
15.29535,43702
15.30348,45669
15.31160,47018
15.31972,47249
15.32785,46058
15.33597,43748
15.34410,52424
15.35222,49629
15.36033,42981
15.36847,43038
15.37658,43240
15.38472,44417
15.39283,44123
15.40095,47990
15.40908,43753
15.41720,42531
15.42532,40659
15.43345,39182
15.44157,39137
15.44970,42457
15.45782,48220
15.46593,40115
15.47407,48209
15.48218,46227
15.49032,56434
15.49843,62103
15.50655,79873
15.51468,97434
15.52280,120764
15.53093,118441
15.53905,119311
15.54717,113102
15.55530,111476
15.56342,106954
15.57153,98489
15.57967,87221
15.58778,76453
15.59592,68613
15.60403,64500
15.61215,57761
15.62028,55996
15.62840,52817
15.63653,50204
15.64465,54859
15.65277,43684
15.66090,45206
15.66902,50834
15.67713,44093
15.68527,46486
15.69338,46026
15.70152,44293
15.70963,42892
15.71775,43346
15.72588,40391
15.73400,36340
15.74213,41330
15.75025,45607
15.75837,47466
15.76650,45707
15.77462,55563
15.78275,93078
15.79087,128503
15.79898,191129
15.80712,255763
15.81523,281818
15.82335,243865
15.83148,209036
15.83960,157514
15.84773,114709
15.85585,94345
15.86397,79436
15.87210,70881
15.88022,64074
15.88835,62313
15.89647,62017
15.90458,58459
15.91272,60077
15.92083,56576
15.92895,52419
15.93708,54365
15.94520,53769
15.95333,53136
15.96145,50167
15.96957,55536
15.97770,55511
15.98582,62996
15.99395,72718
16.00207,73549
16.01018,72491
16.01832,76491
16.02643,69925
16.03457,72365
16.04268,72631
16.05080,68097
16.05893,69853
16.06705,69741
16.07517,65192
16.08330,56278
16.09142,49586
16.09955,49928
16.10767,49487
16.11578,45525
16.12392,45425
16.13203,47935
16.14017,48854
16.14828,46469
16.15640,55062
16.16453,51823
16.17265,53494
16.18078,53270
16.18890,53817
16.19702,47639
16.20515,55458
16.21327,52297
16.22138,48813
16.22952,44610
16.23763,46024
16.24577,43122
16.25388,42357
16.26200,44094
16.27013,44275
16.27825,39840
16.28638,41945
16.29450,43230
16.30262,48240
16.31075,53699
16.31887,50402
16.32698,55121
16.33512,48073
16.34323,52050
16.35137,51111
16.35948,51233
16.36760,54343
16.37573,63948
16.38385,70897
16.39198,82364
16.40010,91653
16.40822,84317
16.41635,78375
16.42447,69655
16.43260,60749
16.44072,52787
16.44883,56159
16.45697,57643
16.46508,78953
16.47320,134247
16.48133,245053
16.48945,447922
16.49758,652776
16.50570,793792
16.51382,784482
16.52195,645636
16.53007,450689
16.53820,285860
16.54632,189174
16.55443,150037
16.56257,120515
16.57068,106383
16.57882,105935
16.58693,97186
16.59505,85499
16.60318,86553
16.61130,87420
16.61942,91843
16.62755,87725
16.63567,84580
16.64380,78253
16.65192,78709
16.66003,73500
16.66817,69732
16.67628,62625
16.68442,60407
16.69253,55893
16.70065,55719
16.70878,59659
16.71690,57840
16.72502,49602
16.73315,46765
16.74127,51764
16.74940,49726
16.75752,49475
16.76563,50553
16.77377,52945
16.78188,56055
16.79002,58934
16.79813,55085
16.80625,53720
16.81438,50912
16.82250,46434
16.83063,43175
16.83875,38998
16.84687,43760
16.85500,42027
16.86312,40622
16.87123,43808
16.87937,39322
16.88748,37549
16.89562,37231
16.90373,44307
16.91185,40897
16.91998,47153
16.92810,35670
16.93623,37947
16.94435,42202
16.95247,38786
16.96060,40153
16.96872,39059
16.97683,42841
16.98497,42875
16.99308,41266
17.00122,39258
17.00933,37971
17.01745,36783
17.02558,38408
17.03370,40135
17.04183,36114
17.04995,40528
17.05807,43776
17.06620,47440
17.07432,49801
17.08245,48703
17.09057,47539
17.09868,44577
17.10682,42386
17.11493,40874
17.12305,40139
17.13118,39265
17.13930,43264
17.14743,45372
17.15555,47050
17.16367,41017
17.17180,41033
17.17992,43518
17.18805,38245
17.19617,43683
17.20428,38078
17.21242,40457
17.22053,35026
17.22867,34998
17.23678,38745
17.24490,35669
17.25303,38398
17.26115,37868
17.26927,36658
17.27740,39031
17.28552,46155
17.29365,40363
17.30177,40600
17.30988,40857
17.31802,40164
17.32613,41210
17.33427,44697
17.34238,43466
17.35050,49923
17.35863,57002
17.36675,54863
17.37487,57219
17.38300,52970
17.39112,60570
17.39925,56740
17.40737,54068
17.41548,56081
17.42362,55759
17.43173,50214
17.43987,56153
17.44798,57677
17.45610,59269
17.46423,53883
17.47235,52943
17.48048,46600
17.48860,47062
17.49672,44825
17.50485,42631
17.51297,42430
17.52108,43223
17.52922,43989
17.53733,44513
17.54547,44470
17.55358,41854
17.56170,42147
17.56983,45387
17.57795,56358
17.58608,84258
17.59420,124778
17.60232,191162
17.61045,288908
17.61857,405247
17.62670,486270
17.63482,497945
17.64293,447570
17.65107,360832
17.65918,291482
17.66730,244688
17.67543,237206
17.68355,258378
17.69168,251442
17.69980,244375
17.70792,208711
17.71605,166868
17.72417,142132
17.73230,120522
17.74042,102118
17.74853,89338
17.75667,78004
17.76478,76933
17.77290,72745
17.78103,76101
17.78915,64433
17.79728,66564
17.80540,65148
17.81352,64474
17.82165,76964
17.82977,94231
17.83790,109028
17.84602,127387
17.85413,139696
17.86227,137955
17.87038,130820
17.87852,121757
17.88663,103309
17.89475,96250
17.90288,86642
17.91100,81738
17.91912,69316
17.92725,67126
17.93537,68567
17.94350,55976
17.95162,54123
17.95973,56690
17.96787,53580
17.97598,47122
17.98412,46888
17.99223,47017
18.00035,52985
18.00848,47217
18.01660,50326
18.02472,52126
18.03285,55255
18.04097,59879
18.04910,73757
18.05722,84126
18.06533,96068
18.07347,120360
18.08158,202244
18.08972,383467
18.09783,705045
18.10595,1095898
18.11408,1351717
18.12220,1485426
18.13033,1357508
18.13845,1099585
18.14657,840492
18.15470,633714
18.16282,522726
18.17093,452622
18.17907,380721
18.18718,338436
18.19532,316105
18.20343,283246
18.21155,260232
18.21968,235746
18.22780,217488
18.23593,206973
18.24405,195540
18.25217,175474
18.26030,166173
18.26842,155151
18.27655,146626
18.28467,128040
18.29278,116610
18.30092,102108
18.30903,87346
18.31715,78904
18.32528,67918
18.33340,64253
18.34153,57617
18.34965,57494
18.35777,59826
18.36590,47700
18.37402,51249
18.38215,53138
18.39027,51568
18.39838,52253
18.40652,47612
18.41463,51493
18.42277,48290
18.43088,51914
18.43900,53355
18.44713,60015
18.45525,61277
18.46337,75070
18.47150,84441
18.47962,117802
18.48775,155322
18.49587,175681
18.50398,189872
18.51212,189201
18.52023,168351
18.52837,134765
18.53648,115468
18.54460,89141
18.55273,68602
18.56085,61246
18.56897,61582
18.57710,58150
18.58522,58327
18.59335,55883
18.60147,59139
18.60958,55812
18.61772,54118
18.62583,56796
18.63397,55722
18.64208,62602
18.65020,58840
18.65833,61800
18.66645,52409
18.67458,54875
18.68270,51005
18.69082,50814
18.69895,52011
18.70707,38934
18.71518,42671
18.72332,41949
18.73143,41678
18.73957,43358
18.74768,43526
18.75580,38897
18.76393,46998
18.77205,48050
18.78018,57699
18.78830,90091
18.79642,130397
18.80455,153393
18.81267,175044
18.82078,184283
18.82892,189250
18.83703,203805
18.84517,200211
18.85328,191738
18.86140,206026
18.86953,206228
18.87765,211671
18.88578,214083
18.89390,217458
18.90202,210904
18.91015,213347
18.91827,214145
18.92640,215043
18.93452,218497
18.94263,222125
18.95077,222723
18.95888,227673
18.96700,222029
18.97513,220201
18.98325,230609
18.99138,225777
18.99950,217152
19.00762,205244
19.01575,211581
19.02387,214483
19.03200,205171
19.04012,198962
19.04823,199156
19.05637,194589
19.06448,194470
19.07262,202382
19.08073,195837
19.08885,191994
19.09698,199020
19.10510,216703
19.11322,221121
19.12135,228587
19.12947,243494
19.13760,249803
19.14572,234135
19.15383,220472
19.16197,205568
19.17008,207686
19.17822,197018
19.18633,193815
19.19445,200188
19.20258,206199
19.21070,199614
19.21882,202075
19.22695,197743
19.23507,195198
19.24320,185416
19.25132,186828
19.25943,182050
19.26757,174149
19.27568,172917
19.28382,175395
19.29193,178504
19.30005,176614
19.30818,179235
19.31630,186826
19.32443,174332
19.33255,183298
19.34067,178269
19.34880,169381
19.35692,179835
19.36503,180370
19.37317,191389
19.38128,201220
19.38942,208912
19.39753,215353
19.40565,212824
19.41378,201749
19.42190,185181
19.43003,179365
19.43815,166528
19.44627,168346
19.45440,158358
19.46252,161846
19.47065,155246
19.47877,156204
19.48688,158828
19.49502,163843
19.50313,160621
19.51125,177831
19.51938,198059
19.52750,229462
19.53563,254397
19.54375,259504
19.55187,257985
19.56000,229465
19.56812,196330
19.57625,182579
19.58437,167865
19.59248,154572
19.60062,143970
19.60873,138325
19.61685,141956
19.62498,141407
19.63310,140680
19.64123,152014
19.64935,155395
19.65747,182781
19.66560,244459
19.67372,320023
19.68185,416395
19.68997,498810
19.69808,522625
19.70622,499322
19.71433,433044
19.72247,374271
19.73058,313186
19.73870,260898
19.74683,234529
19.75495,213336
19.76307,186717
19.77120,176316
19.77932,171707
19.78745,165943
19.79557,176555
19.80368,155522
19.81182,168186
19.81993,172648
19.82807,170694
19.83618,172076
19.84430,163304
19.85243,154654
19.86055,214288
19.86867,436086
19.87680,1166180
19.88492,3230255
19.89305,7623732
19.90117,1.411074E+07
19.90928,2.231953E+07
19.91742,2.878583E+07
19.92553,3.170089E+07
19.93367,3.045548E+07
19.94178,2.568918E+07
19.94990,1.950077E+07
19.95803,1.374163E+07
19.96615,9759575
19.97428,7521051
19.98240,6219181
19.99052,5417714
19.99865,4759586
20.00677,4283501
20.01488,4036789
20.02302,3753074
20.03113,3516334
20.03927,3182450
20.04738,2902524
20.05550,2601710
20.06363,2194946
20.07175,1814026
20.07988,1349001
20.08800,1043102
20.09612,799546
20.10425,671721
20.11237,595752
20.12050,553480
20.12862,519357
20.13673,490854
20.14487,471749
20.15298,441606
20.16110,430694
20.16923,434048
20.17735,440236
20.18548,447349
20.19360,457746
20.20172,472889
20.20985,473341
20.21797,464036
20.22610,459316
20.23422,429887
20.24233,408916
20.25047,374479
20.25858,367974
20.26670,383482
20.27483,426543
20.28295,485386
20.29108,569070
20.29920,634479
20.30732,667886
20.31545,629908
20.32357,573467
20.33170,494723
20.33982,400458
20.34793,337184
20.35607,285724
20.36418,233273
20.37232,192711
20.38043,171312
20.38855,149251
20.39668,139875
20.40480,133685
20.41292,135726
20.42105,128924
20.42917,123038
20.43730,131406
20.44542,137474
20.45353,154432
20.46167,166321
20.46978,170911
20.47792,168065
20.48603,162155
20.49415,154366
20.50228,133927
20.51040,133687
20.51853,119728
20.52665,112079
20.53477,112282
20.54290,104644
20.55102,111478
20.55913,108014
20.56727,105735
20.57538,103032
20.58352,103456
20.59163,98842
20.59975,101050
20.60788,99042
20.61600,98259
20.62413,93457
20.63225,93057
20.64037,88994
20.64850,96128
20.65662,91155
20.66473,97659
20.67287,91491
20.68098,91543
20.68912,97420
20.69723,93585
20.70535,92135
20.71348,83653
20.72160,88458
20.72973,88840
20.73785,85047
20.74597,85803
20.75410,90626
20.76222,88841
20.77035,92762
20.77847,83360
20.78658,89731
20.79472,95997
20.80283,110028
20.81095,140807
20.81908,182186
20.82720,228710
20.83533,281409
20.84345,293168
20.85157,273965
20.85970,229672
20.86782,174582
20.87595,127120
20.88407,114504
20.89218,102961
20.90032,95586
20.90843,88066
20.91657,88163
20.92468,86495
20.93280,84592
20.94093,85464
20.94905,80136
20.95717,81818
20.96530,87615
20.97342,85841
20.98155,86057
20.98967,85743
20.99778,79601
21.00592,75334
21.01403,78008
21.02217,75392
21.03028,81429
21.03840,88310
21.04653,78220
21.05465,81970
21.06277,82371
21.07090,84812
21.07902,83872
21.08715,83316
21.09527,79605
21.10338,78487
21.11152,78465
21.11963,79790
21.12777,74285
21.13588,75105
21.14400,76607
21.15213,90250
21.16025,100009
21.16838,117905
21.17650,129166
21.18462,133258
21.19275,131686
21.20087,129996
21.20898,111071
21.21712,99814
21.22523,94763
21.23337,93182
21.24148,87828
21.24960,86016
21.25773,86286
21.26585,87852
21.27398,81913
21.28210,73194
21.29022,75336
21.29835,75825
21.30647,82138
21.31458,80876
21.32272,72260
21.33083,76922
21.33897,73498
21.34708,72211
21.35520,73480
21.36333,74967
21.37145,70421
21.37958,79134
21.38770,70038
21.39582,74003
21.40395,80264
21.41207,84453
21.42020,98309
21.42832,110005
21.43643,117818
21.44457,109752
21.45268,111655
21.46080,99653
21.46893,96806
21.47705,86606
21.48518,82055
21.49330,76600
21.50142,78363
21.50955,71528
21.51767,73163
21.52580,66917
21.53392,67280
21.54203,66770
21.55017,68293
21.55828,67095
21.56642,66886
21.57453,65736
21.58265,65041
21.59078,69881
21.59890,74994
21.60702,76026
21.61515,77879
21.62327,76485
21.63140,80847
21.63952,87229
21.64763,92209
21.65577,106941
21.66388,112516
21.67202,123395
21.68013,114826
21.68825,118082
21.69638,111060
21.70450,106037
21.71262,94489
21.72075,82285
21.72887,74459
21.73700,71000
21.74512,62461
21.75323,66767
21.76137,60195
21.76948,61311
21.77762,58983
21.78573,59525
21.79385,59777
21.80198,55600
21.81010,54101
21.81823,59557
21.82635,56930
21.83447,64573
21.84260,70672
21.85072,80558
21.85883,95594
21.86697,94333
21.87508,101366
21.88322,88218
21.89133,83677
21.89945,80539
21.90758,69213
21.91570,59702
21.92383,60379
21.93195,60795
21.94007,56870
21.94820,55167
21.95632,55489
21.96445,50392
21.97257,49953
21.98068,46008
21.98882,47442
21.99693,49447
22.00505,46357
22.01318,45582
22.02130,49699
22.02943,47704
22.03755,44685
22.04567,48477
22.05380,49179
22.06192,50719
22.07005,51628
22.07817,50571
22.08628,50059
22.09442,49461
22.10253,46773
22.11065,44663
22.11878,42033
22.12690,43922
22.13503,43910
22.14315,47014
22.15127,45739
22.15940,43038
22.16752,44439
22.17565,43043
22.18377,45591
22.19188,49076
22.20002,49537
22.20813,46078
22.21627,43046
22.22438,47090
22.23250,49506
22.24063,48787
22.24875,56505
22.25687,51771
22.26500,48341
22.27312,56158
22.28125,53887
22.28937,53401
22.29748,47448
22.30562,53936
22.31373,58928
22.32187,69484
22.32998,79857
22.33810,98441
22.34623,114057
22.35435,132923
22.36247,136800
22.37060,123578
22.37872,110885
22.38685,90191
22.39497,82076
22.40308,85469
22.41122,94397
22.41933,117578
22.42747,138288
22.43558,154265
22.44370,166108
22.45183,157892
22.45995,147521
22.46808,141356
22.47620,129392
22.48432,126689
22.49245,116271
22.50057,121329
22.50868,130219
22.51682,127300
22.52493,127995
22.53307,126291
22.54118,124006
22.54930,128445
22.55743,123486
22.56555,119261
22.57368,114976
22.58180,115865
22.58992,107237
22.59805,109605
22.60617,99636
22.61430,104841
22.62242,105996
22.63053,99041
22.63867,93184
22.64678,93510
22.65490,97049
22.66303,96965
22.67115,104241
22.67928,97614
22.68740,104056
22.69552,114667
22.70365,116979
22.71177,120241
22.71990,124274
22.72802,122382
22.73613,119199
22.74427,122909
22.75238,107212
22.76052,104254
22.76863,105647
22.77675,98128
22.78488,97739
22.79300,98344
22.80112,111141
22.80925,113621
22.81737,117036
22.82550,121545
22.83362,120779
22.84173,124994
22.84987,118470
22.85798,111593
22.86612,107038
22.87423,108151
22.88235,97359
22.89048,106980
22.89860,110246
22.90672,113822
22.91485,113381
22.92297,110254
22.93110,128126
22.93922,135263
22.94733,144340
22.95547,147482
22.96358,138956
22.97172,119628
22.97983,104629
22.98795,95149
22.99608,86259
23.00420,81759
23.01233,75686
23.02045,70747
23.02857,70834
23.03670,68845
23.04482,62637
23.05293,61774
23.06107,58466
23.06918,57226
23.07732,61013
23.08543,64602
23.09355,58827
23.10168,59349
23.10980,53632
23.11793,52665
23.12605,54775
23.13417,46958
23.14230,53716
23.15042,50465
23.15853,49004
23.16667,54170
23.17478,48946
23.18292,62048
23.19103,66095
23.19915,81776
23.20728,96789
23.21540,101105
23.22353,107106
23.23165,115695
23.23977,114814
23.24790,118443
23.25602,130425
23.26415,140385
23.27227,159015
23.28038,159036
23.28852,168558
23.29663,158809
23.30475,158194
23.31288,150045
23.32100,141519
23.32913,141915
23.33725,133266
23.34537,137481
23.35350,158392
23.36162,159003
23.36975,184076
23.37787,216993
23.38598,263222
23.39412,316135
23.40223,367839
23.41037,433667
23.41848,491417
23.42660,533576
23.43473,570848
23.44285,580340
23.45097,570780
23.45910,568102
23.46722,556112
23.47535,510265
23.48347,490248
23.49158,465733
23.49972,436070
23.50783,403387
23.51597,370389
23.52408,342795
23.53220,313167
23.54033,310108
23.54845,289890
23.55657,275761
23.56470,281229
23.57282,278556
23.58095,265432
23.58907,254401
23.59718,269236
23.60532,275840
23.61343,280855
23.62157,284755
23.62968,276940
23.63780,262991
23.64593,266711
23.65405,307021
23.66218,364252
23.67030,485091
23.67842,596721
23.68655,649882
23.69467,653022
23.70278,567090
23.71092,467923
23.71903,374995
23.72717,305526
23.73528,255281
23.74340,230046
23.75153,207907
23.75965,207530
23.76778,256143
23.77590,422353
23.78402,803377
23.79215,1426419
23.80027,2250462
23.80840,2830955
23.81652,3051387
23.82463,2862390
23.83277,2415013
23.84088,1855498
23.84900,1355413
23.85713,991195
23.86525,778984
23.87338,646411
23.88150,542335
23.88962,473121
23.89775,425763
23.90587,383994
23.91400,351803
23.92212,339613
23.93023,322264
23.93837,304017
23.94648,298227
23.95460,278680
23.96273,265353
23.97085,253973
23.97898,239419
23.98710,223041
23.99522,215204
24.00335,217612
24.01147,203612
24.01960,197347
24.02772,197623
24.03583,196478
24.04397,205207
24.05208,204435
24.06022,209189
24.06833,204117
24.07645,204255
24.08458,201623
24.09270,193922
24.10082,180856
24.10895,165656
24.11707,162749
24.12520,159333
24.13332,159265
24.14143,162813
24.14957,159326
24.15768,158643
24.16582,165245
24.17393,169868
24.18205,163347
24.19018,159402
24.19830,158717
24.20642,152024
24.21455,148040
24.22267,149840
24.23080,158012
24.23892,155899
24.24703,146922
24.25517,147688
24.26328,135546
24.27142,132012
24.27953,133579
24.28765,127082
24.29578,121953
24.30390,119383
24.31203,118945
24.32015,117989
24.32827,122507
24.33640,107222
24.34452,110705
24.35263,111608
24.36077,106194
24.36888,100186
24.37702,97916
24.38513,92735
24.39325,90243
24.40138,101524
24.40950,110850
24.41763,125357
24.42575,134243
24.43387,142766
24.44200,124784
24.45012,117084
24.45825,100614
24.46637,91569
24.47448,85485
24.48262,93343
24.49073,99258
24.49885,101283
24.50698,113466
24.51510,116201
24.52323,127658
24.53135,139609
24.53947,167130
24.54760,203002
24.55572,230294
24.56385,236342
24.57197,252354
24.58008,222776
24.58822,210007
24.59633,185117
24.60445,165056
24.61258,143878
24.62070,124065
24.62883,118787
24.63695,111712
24.64507,102123
24.65320,94955
24.66132,90494
24.66945,86598
24.67757,84559
24.68568,81357
24.69382,82952
24.70193,82280
24.71007,78824
24.71818,74311
24.72630,73076
24.73443,72377
24.74255,77308
24.75067,71404
24.75880,69786
24.76692,67791
24.77505,66423
24.78317,71927
24.79128,73478
24.79942,79961
24.80753,75971
24.81567,76366
24.82378,73681
24.83190,70743
24.84003,73831
24.84815,83630
24.85628,101509
24.86440,118107
24.87252,180415
24.88065,257477
24.88877,360949
24.89688,450518
24.90502,545108
24.91313,605243
24.92127,592308
24.92938,523975
24.93750,434609
24.94563,366865
24.95375,324585
24.96188,289908
24.97000,269422
24.97812,251630
24.98625,250957
24.99437,244179
25.00248,255882
25.01062,250890
25.01873,251188
25.02687,242629
25.03498,237239
25.04310,239456
25.05123,241571
25.05935,233521
25.06748,240542
25.07560,232756
25.08372,228228
25.09185,232501
25.09997,240054
25.10810,242895
25.11622,283197
25.12433,376838
25.13247,609276
25.14058,993428
25.14870,1570962
25.15683,2110756
25.16495,2406054
25.17308,2407702
25.18120,2026401
25.18932,1566176
25.19745,1064692
25.20557,697996
25.21370,476131
25.22182,357142
25.22993,297173
25.23807,268427
25.24618,257078
25.25432,251520
25.26243,268190
25.27055,277192
25.27868,299443
25.28680,310419
25.29492,299846
25.30305,300125
25.31117,268873
25.31930,244444
25.32742,232600
25.33553,205345
25.34367,197897
25.35178,200400
25.35992,188389
25.36803,186117
25.37615,187441
25.38428,174414
25.39240,176277
25.40052,172353
25.40865,166218
25.41677,168008
25.42490,159071
25.43302,157230
25.44113,150070
25.44927,148905
25.45738,138573
25.46552,128954
25.47363,111483
25.48175,102795
25.48988,96578
25.49800,84692
25.50613,95446
25.51425,83336
25.52237,86128
25.53050,87317
25.53862,82462
25.54673,79621
25.55487,74679
25.56298,72889
25.57112,71580
25.57923,74491
25.58735,68336
25.59548,72878
25.60360,66638
25.61173,66046
25.61985,68203
25.62797,64215
25.63610,61683
25.64422,67483
25.65233,70329
25.66047,74595
25.66858,75325
25.67672,76751
25.68483,76777
25.69295,72145
25.70108,76167
25.70920,68394
25.71733,67281
25.72545,67114
25.73357,68621
25.74170,63602
25.74982,69961
25.75795,65463
25.76607,68782
25.77418,64675
25.78232,65915
25.79043,61893
25.79855,61476
25.80668,63619
25.81480,63497
25.82293,70785
25.83105,64429
25.83917,71063
25.84730,78373
25.85542,91112
25.86355,130018
25.87167,158957
25.87978,201937
25.88792,231356
25.89603,251269
25.90417,248850
25.91228,258312
25.92040,262112
25.92853,263973
25.93665,259176
25.94477,268801
25.95290,264746
25.96102,273276
25.96915,268942
25.97727,269198
25.98538,272981
25.99352,267422
26.00163,267802
26.00977,266944
26.01788,263280
26.02600,267695
26.03413,256756
26.04225,260817
26.05037,259368
26.05850,263483
26.06662,259191
26.07475,257513
26.08287,254640
26.09098,258345
26.09912,257968
26.10723,254000
26.11537,255075
26.12348,252243
26.13160,250500
26.13973,244413
26.14785,246082
26.15598,245594
26.16410,248400
26.17222,252119
26.18035,243239
26.18847,252256
26.19658,257043
26.20472,249994
26.21283,241433
26.22097,230033
26.22908,231877
26.23720,226331
26.24533,233565
26.25345,223762
26.26158,219234
26.26970,217194
26.27782,219460
26.28595,204677
26.29407,217087
26.30220,196416
26.31032,201560
26.31843,196096
26.32657,200026
26.33468,195615
26.34280,203353
26.35093,181474
26.35905,185194
26.36718,194644
26.37530,192763
26.38342,199071
26.39155,214182
26.39967,219924
26.40780,240095
26.41592,251285
26.42403,247949
26.43217,247013
26.44028,231494
26.44840,227590
26.45653,198934
26.46465,195476
26.47278,186569
26.48090,178457
26.48902,177000
26.49715,181282
26.50527,170237
26.51340,161928
26.52152,159947
26.52963,160574
26.53777,157191
26.54588,151823
26.55402,148652
26.56213,152801
26.57025,149014
26.57838,147033
26.58650,155077
26.59462,147736
26.60275,143184
26.61087,137454
26.61900,139699
26.62712,140928
26.63523,143619
26.64337,138436
26.65148,139167
26.65962,134690
26.66773,141525
26.67585,148940
26.68398,140871
26.69210,137423
26.70022,137212
26.70835,138867
26.71647,136580
26.72460,139822
26.73272,130368
26.74083,128344
26.74897,127870
26.75708,114192
26.76522,119786
26.77333,122540
26.78145,118199
26.78958,121732
26.79770,116470
26.80583,115077
26.81395,121402
26.82207,129991
26.83020,119106
26.83832,121611
26.84643,120833
26.85457,121877
26.86268,113095
26.87082,116658
26.87893,113194
26.88705,112033
26.89518,108133
26.90330,112235
26.91143,113674
26.91955,98051
26.92767,101697
26.93580,101958
26.94392,101898
26.95205,107636
26.96017,104245
26.96828,107770
26.97642,114173
26.98453,126475
26.99265,158493
27.00078,234247
27.00890,373257
27.01703,545262
27.02515,793692
27.03327,997390
27.04140,1133331
27.04952,1098040
27.05765,958457
27.06577,793279
27.07388,610537
27.08202,486319
27.09013,392662
27.09827,338047
27.10638,281676
27.11450,248739
27.12263,228547
27.13075,215057
27.13887,204413
27.14700,188959
27.15512,180633
27.16325,169569
27.17137,171976
27.17948,163132
27.18762,169014
27.19573,160150
27.20387,170054
27.21198,166963
27.22010,156651
27.22823,150400
27.23635,141509
27.24447,130546
27.25260,129063
27.26072,122259
27.26885,117748
27.27697,122438
27.28508,113956
27.29322,111738
27.30133,104928
27.30947,103557
27.31758,100335
27.32570,99924
27.33383,100754
27.34195,102049
27.35008,98882
27.35820,99124
27.36632,95798
27.37445,95128
27.38257,103540
27.39068,93572
27.39882,91375
27.40693,88431
27.41507,84045
27.42318,91044
27.43130,88116
27.43943,78284
27.44755,81639
27.45568,86210
27.46380,82682
27.47192,81338
27.48005,83315
27.48817,76586
27.49628,79332
27.50442,82371
27.51253,78425
27.52067,75671
27.52878,80533
27.53690,77829
27.54503,78284
27.55315,80294
27.56128,77732
27.56940,71442
27.57752,75366
27.58565,80635
27.59377,80333
27.60190,88250
27.61002,93874
27.61813,102375
27.62627,92134
27.63438,90521
27.64250,82082
27.65063,78578
27.65875,68269
27.66688,70037
27.67500,74373
27.68312,67478
27.69125,67338
27.69937,67308
27.70750,65323
27.71562,74892
27.72373,71980
27.73187,65298
27.73998,67583
27.74812,61443
27.75623,60845
27.76435,69377
27.77248,64317
27.78060,65913
27.78872,60667
27.79685,62111
27.80497,61076
27.81310,64301
27.82122,62045
27.82933,70852
27.83747,65070
27.84558,64500
27.85372,67014
27.86183,59634
27.86995,62881
27.87808,65289
27.88620,64988
27.89432,55095
27.90245,60996
27.91057,60203
27.91870,62716
27.92682,57107
27.93493,58289
27.94307,55681
27.95118,56989
27.95932,59795
27.96743,55541
27.97555,54019
27.98368,62689
27.99180,52004
27.99993,54024
28.00805,58289
28.01617,60153
28.02430,57886
28.03242,57481
28.04053,61394
28.04867,61312
28.05678,69212
28.06492,70125
28.07303,73194
28.08115,69278
28.08928,64744
28.09740,66055
28.10553,65501
28.11365,65915
28.12177,63306
28.12990,60199
28.13802,56908
28.14615,60655
28.15427,56739
28.16238,57398
28.17052,49738
28.17863,53819
28.18675,50571
28.19488,57918
28.20300,58758
28.21113,66316
28.21925,71944
28.22737,78097
28.23550,84582
28.24362,86678
28.25175,84248
28.25987,79188
28.26798,68253
28.27612,67477
28.28423,58234
28.29235,56961
28.30048,54857
28.30860,61625
28.31673,69735
28.32485,68513
28.33297,76381
28.34110,87223
28.34922,98233
28.35735,117853
28.36547,124085
28.37358,137390
28.38172,148806
28.38983,152574
28.39797,162509
28.40608,161466
28.41420,144234
28.42233,138761
28.43045,132754
28.43857,122452
28.44670,118561
28.45482,105261
28.46295,97973
28.47107,99589
28.47918,94395
28.48732,87625
28.49543,82509
28.50357,82080
28.51168,78817
28.51980,81522
28.52793,71038
28.53605,70709
28.54417,65822
28.55230,71703
28.56042,68257
28.56855,65781
28.57667,65737
28.58478,66533
28.59292,62726
28.60103,62098
28.60917,56642
28.61728,59960
28.62540,64246
28.63353,63185
28.64165,63234
28.64978,69059
28.65790,61026
28.66602,71157
28.67415,68039
28.68227,68690
28.69038,70486
28.69852,65323
28.70663,61820
28.71477,55838
28.72288,61180
28.73100,56131
28.73913,50524
28.74725,50521
28.75538,55669
28.76350,54586
28.77162,62014
28.77975,61957
28.78787,70682
28.79600,80441
28.80412,79164
28.81223,83693
28.82037,72982
28.82848,67244
28.83660,63915
28.84473,63123
28.85285,58459
28.86098,57886
28.86910,55245
28.87722,56691
28.88535,57500
28.89347,57041
28.90160,60260
28.90972,62242
28.91783,67334
28.92597,63843
28.93408,62056
28.94220,63101
28.95033,60530
28.95845,60758
28.96658,60643
28.97470,63901
28.98282,64340
28.99095,64694
28.99907,65147
29.00720,55385
29.01532,55715
29.02343,51759
29.03157,50492
29.03968,56244
29.04782,53738
29.05593,53673
29.06405,57504
29.07218,53555
29.08030,54242
29.08842,52839
29.09655,56059
29.10467,49370
29.11280,60465
29.12092,55503
29.12903,54901
29.13717,55055
29.14528,52551
29.15342,57594
29.16153,55773
29.16965,52037
29.17778,58553
29.18590,54352
29.19403,62104
29.20215,65153
29.21027,73655
29.21840,82930
29.22652,89063
29.23463,92759
29.24277,92187
29.25088,85665
29.25902,77561
29.26713,74803
29.27525,67921
29.28338,67706
29.29150,63530
29.29963,61564
29.30775,54565
29.31587,53210
29.32400,50341
29.33212,51376
29.34023,52046
29.34837,50244
29.35648,53412
29.36462,52853
29.37273,53508
29.38085,46766
29.38898,50278
29.39710,52771
29.40523,51418
29.41335,52991
29.42147,50481
29.42960,50312
29.43772,49598
29.44585,54463
29.45397,51947
29.46208,51138
29.47022,51180
29.47833,49166
29.48645,48134
29.49458,50451
29.50270,50002
29.51083,54056
29.51895,49965
29.52707,54724
29.53520,50286
29.54332,52087
29.55145,53053
29.55957,53886
29.56768,49975
29.57582,46049
29.58393,47774
29.59205,46649
29.60018,46761
29.60830,47661
29.61643,45080
29.62455,52669
29.63267,45392
29.64080,46930
29.64892,44116
29.65705,45125
29.66517,45034
29.67328,42638
29.68142,40333
29.68953,50797
29.69767,48527
29.70578,50730
29.71390,50290
29.72203,50757
29.73015,51416
29.73827,47575
29.74640,47379
29.75452,46658
29.76265,45091
29.77077,43807
29.77888,44435
29.78702,45478
29.79513,45607
29.80327,51752
29.81138,46203
29.81950,40632
29.82763,44864
29.83575,45479
29.84388,46067
29.85200,40295
29.86012,43462
29.86825,47994
29.87637,51179
29.88448,60225
29.89262,78739
29.90073,100038
29.90887,126964
29.91698,139622
29.92510,137853
29.93323,130459
29.94135,102579
29.94948,89009
29.95760,72460
29.96572,67998
29.97385,61153
29.98197,59455
29.99008,64419
29.99822,72317
30.00633,74678
30.01447,77273
30.02258,87590
30.03070,93777
30.03883,93307
30.04695,101484
30.05508,95251
30.06320,96543
30.07132,89624
30.07945,87212
30.08757,95740
30.09570,91644
30.10382,87393
30.11193,73744
30.12007,82261
30.12818,80122
30.13630,66195
30.14443,69306
30.15255,65854
30.16068,69201
30.16880,63196
30.17692,61855
30.18505,67792
30.19317,61499
30.20130,60870
30.20942,61935
30.21753,60048
30.22567,60176
30.23378,58284
30.24192,59189
30.25003,57849
30.25815,55320
30.26628,50928
30.27440,51062
30.28252,49544
30.29065,47086
30.29877,49235
30.30690,47082
30.31502,48184
30.32313,50958
30.33127,49620
30.33938,54396
30.34752,55479
30.35563,51984
30.36375,49649
30.37188,50579
30.38000,52719
30.38812,53663
30.39625,54432
30.40437,52134
30.41250,60915
30.42062,54023
30.42873,49083
30.43687,52881
30.44498,49411
30.45312,50267
30.46123,45390
30.46935,52881
30.47748,50434
30.48560,50723
30.49373,49587
30.50185,50894
30.50997,51124
30.51810,47886
30.52622,48392
30.53433,48462
30.54247,53822
30.55058,45077
30.55872,47513
30.56683,46907
30.57495,48993
30.58308,40174
30.59120,44194
30.59933,44255
30.60745,50228
30.61557,50767
30.62370,47907
30.63182,45053
30.63995,45330
30.64807,41230
30.65618,49271
30.66432,48012
30.67243,45217
30.68055,49162
30.68868,47185
30.69680,46681
30.70493,45334
30.71305,51192
30.72117,45643
30.72930,50528
30.73742,51911
30.74555,54773
30.75367,51763
30.76178,50804
30.76992,54717
30.77803,51812
30.78615,55861
30.79428,61787
30.80240,66733
30.81053,70014
30.81865,81792
30.82677,84131
30.83490,88347
30.84302,77741
30.85115,70777
30.85927,62683
30.86738,58086
30.87552,55065
30.88363,53630
30.89177,53890
30.89988,56751
30.90800,50032
30.91613,53977
30.92425,55526
30.93237,52394
30.94050,50954
30.94862,55527
30.95675,55105
30.96487,52007
30.97298,53907
30.98112,54744
30.98923,52706
30.99737,52547
31.00548,50905
31.01360,56506
31.02173,50984
31.02985,54896
31.03797,54894
31.04610,60379
31.05422,60738
31.06235,63553
31.07047,61464
31.07858,63525
31.08672,61963
31.09483,73484
31.10297,100350
31.11108,131902
31.11920,156675
31.12733,180941
31.13545,170675
31.14358,146655
31.15170,122913
31.15982,90386
31.16795,75168
31.17607,64042
31.18418,63118
31.19232,67175
31.20043,73812
31.20857,90080
31.21668,110559
31.22480,127942
31.23293,144306
31.24105,144607
31.24918,135061
31.25730,117746
31.26542,105310
31.27355,76162
31.28167,67517
31.28980,55248
31.29792,53250
31.30603,52797
31.31417,46804
31.32228,47581
31.33040,48620
31.33853,52048
31.34665,47968
31.35478,49745
31.36290,54321
31.37102,54739
31.37915,56362
31.38727,59177
31.39540,65832
31.40352,66166
31.41163,66108
31.41977,62325
31.42788,63756
31.43600,53182
31.44413,53147
31.45225,50230
31.46038,50823
31.46850,46602
31.47662,47658
31.48475,44314
31.49287,46408
31.50100,45569
31.50912,47906
31.51723,41915
31.52537,50857
31.53348,52085
31.54162,45323
31.54973,50027
31.55785,49692
31.56598,51178
31.57410,51483
31.58222,56419
31.59035,54651
31.59847,57551
31.60660,62141
31.61472,67537
31.62283,59122
31.63097,64578
31.63908,59676
31.64722,60630
31.65533,63033
31.66345,62662
31.67158,68025
31.67970,66555
31.68783,74144
31.69595,66453
31.70407,70706
31.71220,73006
31.72032,68542
31.72843,71801
31.73657,66456
31.74468,65525
31.75282,68026
31.76093,66040
31.76905,67128
31.77718,68732
31.78530,61093
31.79343,64228
31.80155,69463
31.80967,66242
31.81780,68105
31.82592,64309
31.83403,71893
31.84217,72918
31.85028,71572
31.85842,70541
31.86653,73612
31.87465,69925
31.88278,74798
31.89090,77028
31.89903,74838
31.90715,80594
31.91527,83347
31.92340,83062
31.93152,85730
31.93965,100419
31.94777,92507
31.95588,101147
31.96402,103152
31.97213,96722
31.98025,100935
31.98838,104157
31.99650,98652
32.00463,100938
32.01275,101956
32.02087,96479
32.02900,99141
32.03712,93365
32.04525,88965
32.05337,81840
32.06148,80175
32.06962,77899
32.07773,78891
32.08585,74970
32.09398,78005
32.10210,77879
32.11023,81329
32.11835,73722
32.12647,69454
32.13460,68840
32.14272,63901
32.15085,63275
32.15897,61488
32.16708,61465
32.17522,61477
32.18333,65142
32.19147,61031
32.19958,58463
32.20770,59270
32.21583,56127
32.22395,59430
32.23207,57044
32.24020,58968
32.24832,58397
32.25645,59548
32.26457,58056
32.27268,61490
32.28082,60056
32.28893,60610
32.29707,64416
32.30518,59131
32.31330,58023
32.32143,53378
32.32955,55141
32.33768,54982
32.34580,52933
32.35392,55739
32.36205,54853
32.37017,55508
32.37828,53703
32.38642,56306
32.39453,55166
32.40267,58715
32.41078,54343
32.41890,48388
32.42703,44619
32.43515,47880
32.44328,51055
32.45140,50416
32.45952,49425
32.46765,53334
32.47577,54192
32.48390,51401
32.49202,51615
32.50013,51837
32.50827,48959
32.51638,49083
32.52450,48917
32.53263,47648
32.54075,44287
32.54888,47471
32.55700,47907
32.56512,45049
32.57325,52629
32.58137,48070
32.58950,45541
32.59762,47441
32.60573,49810
32.61387,46289
32.62198,47954
32.63010,48927
32.63823,42814
32.64635,47351
32.65448,51188
32.66260,49211
32.67072,49003
32.67885,59503
32.68697,63744
32.69510,67318
32.70322,71541
32.71133,63060
32.71947,59312
32.72758,59394
32.73572,58562
32.74383,55956
32.75195,52247
32.76008,52064
32.76820,47834
32.77632,46002
32.78445,45947
32.79257,44203
32.80070,48931
32.80882,45660
32.81693,51208
32.82507,43838
32.83318,45554
32.84132,46178
32.84943,47611
32.85755,42414
32.86568,50111
32.87380,47469
32.88192,46365
32.89005,43309
32.89817,45270
32.90630,45826
32.91442,46090
32.92253,45007
32.93067,44883
32.93878,42515
32.94692,41917
32.95503,41212
32.96315,44571
32.97128,48312
32.97940,49064
32.98753,52633
32.99565,51324
33.00377,62454
33.01190,68534
33.02002,65480
33.02813,67575
33.03627,60494
33.04438,56849
33.05252,54050
33.06063,53815
33.06875,56775
33.07688,55835
33.08500,56956
33.09313,62464
33.10125,65459
33.10937,68098
33.11750,76210
33.12562,83703
33.13375,89861
33.14187,90574
33.14998,90369
33.15812,74550
33.16623,60234
33.17435,60194
33.18248,53829
33.19060,49330
33.19873,47360
33.20685,47896
33.21497,49156
33.22310,48242
33.23122,54077
33.23935,46049
33.24747,51200
33.25558,50115
33.26372,49253
33.27183,42174
33.27995,48435
33.28808,53649
33.29620,48835
33.30433,47666
33.31245,46145
33.32057,44634
33.32870,48382
33.33682,42166
33.34495,47509
33.35307,45438
33.36118,48544
33.36932,47955
33.37743,56973
33.38557,48706
33.39368,47574
33.40180,48115
33.40993,43565
33.41805,49308
33.42617,39926
33.43430,43176
33.44242,45907
33.45055,50062
33.45867,43885
33.46678,41371
33.47492,40440
33.48303,43721
33.49117,42114
33.49928,45046
33.50740,48250
33.51553,48516
33.52365,48341
33.53178,45635
33.53990,46916
33.54802,50068
33.55615,50575
33.56427,52844
33.57238,54089
33.58052,53483
33.58863,51000
33.59677,51539
33.60488,46953
33.61300,45011
33.62113,46791
33.62925,48735
33.63738,46778
33.64550,45142
33.65362,44951
33.66175,45214
33.66987,43747
33.67798,46541
33.68612,43678
33.69423,46773
33.70237,45854
33.71048,46535
33.71860,48484
33.72673,47852
33.73485,43231
33.74298,46349
33.75110,41555
33.75922,44453
33.76735,42216
33.77547,42118
33.78360,44647
33.79172,50548
33.79983,46752
33.80797,49506
33.81608,46066
33.82420,42499
33.83233,44110
33.84045,42469
33.84858,46391
33.85670,44835
33.86482,49792
33.87295,49543
33.88107,45131
33.88920,48956
33.89732,58190
33.90543,51269
33.91357,48718
33.92168,47822
33.92980,45929
33.93793,47813
33.94605,43666
33.95418,44248
33.96230,46886
33.97042,44777
33.97855,48806
33.98667,44453
33.99480,47645
34.00292,48565
34.01103,47356
34.01917,44184
34.02728,46197
34.03542,44640
34.04353,46421
34.05165,46439
34.05978,43500
34.06790,43934
34.07602,45487
34.08415,40856
34.09227,44237
34.10040,43018
34.10852,44082
34.11663,51310
34.12477,44935
34.13288,44037
34.14102,47149
34.14913,46820
34.15725,48949
34.16538,52725
34.17350,44138
34.18163,43578
34.18975,40885
34.19787,43918
34.20600,47770
34.21412,44814
34.22223,45448
34.23037,50002
34.23848,46709
34.24662,46180
34.25473,43872
34.26285,45229
34.27098,46679
34.27910,42844
34.28723,44063
34.29535,46591
34.30347,47265
34.31160,48808
34.31972,47122
34.32783,47790
34.33597,50449
34.34408,49061
34.35222,50838
34.36033,43048
34.36845,46057
34.37658,45981
34.38470,51035
34.39283,45269
34.40095,47527
34.40907,44732
34.41720,48839
34.42532,45740
34.43345,50229
34.44157,47861
34.44968,48900
34.45782,47235
34.46593,45770
34.47405,53063
34.48218,47778
34.49030,47416
34.49843,45201
34.50655,46021
34.51467,43121
34.52280,47744
34.53092,45984
34.53905,56562
34.54717,56205
34.55528,65274
34.56342,64778
34.57153,70698
34.57967,75867
34.58778,71346
34.59590,70910
34.60403,64739
34.61215,60905
34.62027,64289
34.62840,61217
34.63652,59418
34.64465,59865
34.65277,55745
34.66088,55269
34.66902,51015
34.67713,54566
34.68527,51092
34.69338,49394
34.70150,50854
34.70963,50797
34.71775,52704
34.72587,51259
34.73400,47810
34.74212,52420
34.75025,50344
34.75837,51585
34.76648,50795
34.77462,49469
34.78273,56734
34.79087,59954
34.79898,54664
34.80710,50096
34.81523,48542
34.82335,52955
34.83148,52232
34.83960,49525
34.84772,54303
34.85585,51473
34.86397,53637
34.87208,51389
34.88022,50100
34.88833,52772
34.89647,47479
34.90458,52386
34.91270,48579
34.92083,54604
34.92895,46752
34.93708,48489
34.94520,61244
34.95332,62802
34.96145,86169
34.96957,127141
34.97770,180938
34.98582,235631
34.99393,271094
35.00207,276571
35.01018,236749
35.01830,176946
35.02643,126652
35.03455,86804
35.04268,72813
35.05080,63323
35.05892,60540
35.06705,56736
35.07517,64386
35.08330,56773
35.09142,59094
35.09953,64997
35.10767,55070
35.11578,54059
35.12390,58464
35.13203,52324
35.14015,56914
35.14828,53288
35.15640,53648
35.16452,58007
35.17265,56398
35.18077,54386
35.18890,54823
35.19702,52778
35.20513,54701
35.21327,52578
35.22138,52262
35.22952,55924
35.23763,59638
35.24575,51914
35.25388,49734
35.26200,53578
35.27012,53141
35.27825,51000
35.28637,52768
35.29450,52762
35.30262,54698
35.31073,52584
35.31887,54312
35.32698,50340
35.33512,50116
35.34323,50751
35.35135,49868
35.35948,48171
35.36760,49512
35.37572,48269
35.38385,57959
35.39197,46477
35.40010,51008
35.40822,51522
35.41633,52303
35.42447,54275
35.43258,59632
35.44072,62696
35.44883,56488
35.45695,52634
35.46508,50007
35.47320,50349
35.48133,55109
35.48945,51575
35.49757,54282
35.50570,55719
35.51382,58879
35.52193,55350
35.53007,51372
35.53818,56435
35.54632,57542
35.55443,50641
35.56255,50228
35.57068,55151
35.57880,52210
35.58693,52670
35.59505,51327
35.60317,50869
35.61130,51548
35.61942,52825
35.62755,51603
35.63567,51894
35.64378,48263
35.65192,51112
35.66003,51526
35.66815,51426
35.67628,57329
35.68440,55400
35.69253,57628
35.70065,52030
35.70877,60133
35.71690,63496
35.72502,52955
35.73315,54115
35.74127,53811
35.74938,56924
35.75752,57264
35.76563,59137
35.77375,59314
35.78188,63635
35.79000,64715
35.79813,60596
35.80625,59974
35.81437,57328
35.82250,58922
35.83062,52905
35.83875,49950
35.84687,50386
35.85498,55063
35.86312,52947
35.87123,53214
35.87937,51981
35.88748,53461
35.89560,50971
35.90373,53444
35.91185,52121
35.91997,54442
35.92810,51358
35.93622,51982
35.94435,49115
35.95247,53068
35.96058,53001
35.96872,52296
35.97683,49964
35.98497,50238
35.99308,56626
36.00120,52582
36.00933,52476
36.01745,55330
36.02558,55282
36.03370,61181
36.04182,57606
36.04995,52917
36.05807,53078
36.06618,55393
36.07432,57905
36.08243,58293
36.09057,58381
36.09868,56009
36.10680,57043
36.11493,52401
36.12305,52328
36.13118,50146
36.13930,56983
36.14742,51623
36.15555,59828
36.16367,55625
36.17178,56846
36.17992,58537
36.18803,53404
36.19617,57102
36.20428,57407
36.21240,55723
36.22053,51433
36.22865,53273
36.23678,52408
36.24490,53623
36.25302,54311
36.26115,57235
36.26927,52697
36.27740,55719
36.28552,56694
36.29363,56744
36.30177,50062
36.30988,59943
36.31800,58055
36.32613,66327
36.33425,69732
36.34238,66421
36.35050,69685
36.35862,69314
36.36675,60591
36.37487,55434
36.38300,53244
36.39112,58777
36.39923,57824
36.40737,57018
36.41548,65293
36.42360,62669
36.43173,55456
36.43985,59196
36.44798,57736
36.45610,57587
36.46422,56314
36.47235,53750
36.48047,55514
36.48860,54914
36.49672,54332
36.50483,51015
36.51297,56318
36.52108,51680
36.52922,53732
36.53733,55491
36.54545,54017
36.55358,53572
36.56170,56121
36.56982,53755
36.57795,56083
36.58607,54428
36.59420,55224
36.60232,56851
36.61043,49344
36.61857,54601
36.62668,57013
36.63482,55281
36.64293,54102
36.65105,58869
36.65918,59187
36.66730,56586
36.67543,55460
36.68355,58432
36.69167,57670
36.69980,58240
36.70792,56207
36.71603,56742
36.72417,55269
36.73228,59940
36.74042,53151
36.74853,52918
36.75665,53485
36.76478,53421
36.77290,55689
36.78103,54420
36.78915,54076
36.79727,53929
36.80540,59430
36.81352,55739
36.82163,55697
36.82977,57389
36.83788,60189
36.84602,52346
36.85413,53071
36.86225,55409
36.87038,52750
36.87850,56528
36.88663,54546
36.89475,52946
36.90287,53353
36.91100,56725
36.91912,56461
36.92725,55102
36.93537,54629
36.94348,61094
36.95162,56479
36.95973,59389
36.96785,73719
36.97598,65651
36.98410,67165
36.99223,69485
37.00035,66547
37.00847,62392
37.01660,64880
37.02472,65791
37.03285,61141
37.04097,63372
37.04908,64866
37.05722,65695
37.06533,69816
37.07347,73475
37.08158,72083
37.08970,75279
37.09783,74202
37.10595,77724
37.11407,80782
37.12220,66309
37.13032,76531
37.13845,77457
37.14657,73127
37.15468,78240
37.16282,76560
37.17093,74984
37.17907,77366
37.18718,75051
37.19530,74147
37.20343,72637
37.21155,72220
37.21967,75710
37.22780,78910
37.23592,76064
37.24405,76905
37.25217,72956
37.26028,74122
37.26842,70808
37.27653,74099
37.28467,71578
37.29278,78098
37.30090,69971
37.30903,73301
37.31715,70917
37.32528,71319
37.33340,78944
37.34152,74725
37.34965,79226
37.35777,77791
37.36588,87953
37.37402,84542
37.38213,84268
37.39027,86273
37.39838,83317
37.40650,84215
37.41463,86825
37.42275,85815
37.43088,84430
37.43900,84116
37.44712,77601
37.45525,80485
37.46337,78686
37.47148,77378
37.47962,82377
37.48773,78964
