C:\MassHunter\GCMS\1\data\JTB-E18\JTB-E18-036-13.D Thu Oct 17 11:21:40 2019
Start of data points
2.09528,104281
2.10340,108708
2.11152,103971
2.11965,103993
2.12777,103687
2.13590,106991
2.14402,104080
2.15213,106905
2.16027,97622
2.16838,106230
2.17650,99469
2.18463,105403
2.19275,92608
2.20088,95776
2.20900,96680
2.21712,89455
2.22525,85667
2.23337,92598
2.24150,82891
2.24962,84124
2.25773,87842
2.26587,217102
2.27398,1884567
2.28212,4312487
2.29023,2643059
2.29835,1126471
2.30648,730152
2.31460,591204
2.32272,550669
2.33085,459420
2.33897,418428
2.34710,351460
2.35522,330081
2.36333,284966
2.37147,269760
2.37958,259974
2.38772,262527
2.39583,236714
2.40395,226600
2.41208,220600
2.42020,223284
2.42832,224896
2.43645,209336
2.44457,202286
2.45270,206303
2.46082,189459
2.46893,174834
2.47707,168534
2.48518,166339
2.49332,174168
2.50143,173572
2.50955,160975
2.51768,154032
2.52580,156900
2.53393,153161
2.54205,152294
2.55017,165328
2.55830,154456
2.56642,145597
2.57453,135346
2.58267,134051
2.59078,127865
2.59892,127731
2.60703,132843
2.61515,154836
2.62328,152085
2.63140,142404
2.63953,133062
2.64765,131097
2.65577,126877
2.66390,125674
2.67202,123726
2.68015,120256
2.68827,116653
2.69638,114659
2.70452,120078
2.71263,114415
2.72075,111923
2.72888,104327
2.73700,107150
2.74513,106754
2.75325,100578
2.76137,100952
2.76950,102863
2.77762,104942
2.78575,100620
2.79387,106183
2.80198,105977
2.81012,109666
2.81823,103021
2.82635,105469
2.83448,101562
2.84260,94817
2.85073,95110
2.85885,103189
2.86697,100889
2.87510,97579
2.88322,95219
2.89135,97046
2.89947,96175
2.90758,90681
2.91572,92903
2.92383,87700
2.93197,89439
2.94008,88923
2.94820,91736
2.95633,89471
2.96445,91459
2.97257,86047
2.98070,91992
2.98882,94619
2.99695,84985
3.00507,91959
3.01318,88830
3.02132,82677
3.02943,80015
3.03757,85429
3.04568,82743
3.05380,82809
3.06193,95379
3.07005,101141
3.07817,101650
3.08630,95814
3.09442,97715
3.10255,95439
3.11067,117361
3.11878,120792
3.12692,101190
3.13503,91644
3.14317,92099
3.15128,86977
3.15940,85898
3.16753,85761
3.17565,80716
3.18378,82750
3.19190,81744
3.20002,84679
3.20815,83396
3.21627,80275
3.22438,78037
3.23252,84142
3.24063,75966
3.24877,80229
3.25688,77770
3.26500,75862
3.27313,86142
3.28125,173657
3.28938,790033
3.29750,2920793
3.30562,7149807
3.31375,1.051529E+07
3.32187,9516499
3.33000,6756567
3.33812,4640037
3.34623,3331963
3.35437,2574529
3.36248,2082279
3.37060,1721088
3.37873,1458972
3.38685,1275458
3.39498,1121570
3.40310,1016930
3.41122,923953
3.41935,842119
3.42747,793881
3.43560,733434
3.44372,690453
3.45183,660095
3.45997,618186
3.46808,591182
3.47620,562150
3.48433,534915
3.49245,516598
3.50058,497085
3.50870,463406
3.51682,451191
3.52495,437951
3.53307,423893
3.54120,415626
3.54932,405668
3.55743,385301
3.56557,377621
3.57368,377683
3.58182,369596
3.58993,342615
3.59805,344755
3.60618,331531
3.61430,326120
3.62242,330486
3.63055,326374
3.63867,317002
3.64680,302719
3.65492,302787
3.66303,285453
3.67117,289559
3.67928,279873
3.68742,275862
3.69553,269908
3.70365,268336
3.71178,262443
3.71990,262958
3.72803,251707
3.73615,245495
3.74427,247086
3.75240,231670
3.76052,236170
3.76863,229406
3.77677,227404
3.78488,227470
3.79302,230787
3.80113,220890
3.80925,232320
3.81738,229764
3.82550,225777
3.83363,215103
3.84175,220218
3.84987,209278
3.85800,208924
3.86612,200903
3.87423,194860
3.88237,195449
3.89048,196567
3.89862,193931
3.90673,185852
3.91485,187038
3.92298,183700
3.93110,177839
3.93923,175888
3.94735,179331
3.95547,177193
3.96360,181405
3.97172,181302
3.97985,175211
3.98797,169812
3.99608,170985
4.00422,171370
4.01233,170413
4.02045,170754
4.02858,160086
4.03670,161955
4.04483,161736
4.05295,167650
4.06107,161558
4.06920,156282
4.07732,154952
4.08545,158080
4.09357,157848
4.10168,158941
4.10982,151421
4.11793,151134
4.12607,153096
4.13418,154126
4.14230,153462
4.15043,161861
4.15855,165620
4.16667,155756
4.17480,148779
4.18292,148395
4.19105,145103
4.19917,149145
4.20728,141860
4.21542,146861
4.22353,156834
4.23167,159949
4.23978,172751
4.24790,165882
4.25603,163504
4.26415,155330
4.27227,152990
4.28040,155367
4.28852,149099
4.29665,144126
4.30477,141612
4.31288,140849
4.32102,140983
4.32913,142213
4.33727,141763
4.34538,147502
4.35350,142262
4.36163,141242
4.36975,146697
4.37788,142678
4.38600,133146
4.39412,138445
4.40225,135549
4.41037,136830
4.41848,136267
4.42662,130951
4.43473,128939
4.44287,127564
4.45098,126164
4.45910,124974
4.46723,124896
4.47535,124650
4.48348,122314
4.49160,126644
4.49972,117630
4.50785,124391
4.51597,120788
4.52408,119604
4.53222,128329
4.54033,127933
4.54847,129653
4.55658,134627
4.56470,131220
4.57283,117630
4.58095,127081
4.58908,128367
4.59720,121064
4.60532,120328
4.61345,118990
4.62157,114358
4.62970,113046
4.63782,113710
4.64593,115920
4.65407,112668
4.66218,113462
4.67030,114115
4.67843,109725
4.68655,111652
4.69468,111440
4.70280,107420
4.71092,109826
4.71905,108966
4.72717,109027
4.73530,107104
4.74342,106049
4.75153,106752
4.75967,109907
4.76778,106669
4.77592,104494
4.78403,108962
4.79215,105092
4.80028,107017
4.80840,109599
4.81652,107934
4.82465,109210
4.83277,100325
4.84090,109773
4.84902,110058
4.85713,104894
4.86527,106474
4.87338,110843
4.88152,104350
4.88963,102558
4.89775,107584
4.90588,118723
4.91400,170552
4.92212,402630
4.93025,983095
4.93837,2012627
4.94650,3122516
4.95462,3647180
4.96273,3222967
4.97087,2275364
4.97898,1557840
4.98712,1112744
4.99523,850537
5.00335,706052
5.01148,618244
5.01960,549782
5.02773,504612
5.03585,469123
5.04397,445036
5.05210,417990
5.06022,396040
5.06833,378187
5.07647,364018
5.08458,346453
5.09272,340315
5.10083,325521
5.10895,319438
5.11708,301358
5.12520,295204
5.13333,288419
5.14145,286752
5.14957,271660
5.15770,263933
5.16582,269216
5.17395,266533
5.18207,256705
5.19018,245807
5.19832,248726
5.20643,242689
5.21455,238496
5.22268,247424
5.23080,280466
5.23893,330371
5.24705,342705
5.25517,319848
5.26330,278392
5.27142,244629
5.27955,221658
5.28767,212604
5.29578,201520
5.30392,209659
5.31203,195570
5.32015,191945
5.32828,194683
5.33640,188984
5.34453,187741
5.35265,190782
5.36077,185347
5.36890,182715
5.37702,183703
5.38515,181057
5.39327,175907
5.40138,178142
5.40952,170279
5.41763,173274
5.42577,174425
5.43388,167662
5.44200,169147
5.45013,163221
5.45825,165362
5.46637,163091
5.47450,160139
5.48262,161517
5.49075,159774
5.49887,162525
5.50698,159303
5.51512,157193
5.52323,153733
5.53137,154078
5.53948,151667
5.54760,151977
5.55573,155474
5.56385,149753
5.57197,150775
5.58010,154712
5.58822,144281
5.59635,145620
5.60447,149913
5.61258,147683
5.62072,149534
5.62883,154015
5.63697,157547
5.64508,155949
5.65320,145663
5.66133,145467
5.66945,146288
5.67758,171533
5.68570,194601
5.69382,207280
5.70195,208456
5.71007,187528
5.71818,172263
5.72632,159420
5.73443,149849
5.74257,150071
5.75068,143872
5.75880,138809
5.76693,138140
5.77505,139846
5.78318,139902
5.79130,131266
5.79942,133935
5.80755,130184
5.81567,131301
5.82380,135557
5.83192,126874
5.84003,130981
5.84817,133486
5.85628,127372
5.86440,130377
5.87253,123747
5.88065,127346
5.88878,124476
5.89690,126243
5.90502,119842
5.91315,110594
5.92127,100090
5.92940,93996
5.93752,93575
5.94563,97118
5.95377,92679
5.96188,104211
5.97002,104885
5.97813,118153
5.98625,123661
5.99438,116676
6.00250,105883
6.01062,103712
6.01875,99381
6.02687,88495
6.03500,95640
6.04312,90609
6.05123,90892
6.05937,91879
6.06748,86829
6.07562,90044
6.08373,93087
6.09185,90491
6.09998,87427
6.10810,89236
6.11622,88101
6.12435,90844
6.13247,90747
6.14060,90574
6.14872,92849
6.15683,93844
6.16497,95747
6.17308,102315
6.18122,101307
6.18933,112503
6.19745,116416
6.20558,116441
6.21370,115024
6.22183,119055
6.22995,121229
6.23807,127066
6.24620,128944
6.25432,135314
6.26243,135825
6.27057,141003
6.27868,136050
6.28682,148161
6.29493,146550
6.30305,151354
6.31118,146565
6.31930,150004
6.32743,154984
6.33555,159563
6.34367,163419
6.35180,166355
6.35992,165137
6.36803,169723
6.37617,168369
6.38428,170575
6.39242,174965
6.40053,176601
6.40865,181531
6.41678,184395
6.42490,181190
6.43303,194747
6.44115,202535
6.44927,200622
6.45740,199528
6.46552,196239
6.47365,198512
6.48177,202515
6.48988,202355
6.49802,209630
6.50613,200473
6.51425,200945
6.52238,206106
6.53050,199939
6.53863,201883
6.54675,215108
6.55487,214723
6.56300,214136
6.57112,213177
6.57925,215584
6.58737,212304
6.59548,191066
6.60362,145232
6.61173,127124
6.61987,117222
6.62798,109461
6.63610,104034
6.64423,103217
6.65235,104431
6.66047,92892
6.66860,96001
6.67672,92104
6.68485,89550
6.69297,88100
6.70108,88381
6.70922,87516
6.71733,84976
6.72547,86212
6.73358,86720
6.74170,87235
6.74983,77942
6.75795,78014
6.76607,83580
6.77420,77928
6.78232,80051
6.79045,76585
6.79857,79093
6.80668,79038
6.81482,77537
6.82293,76809
6.83107,74818
6.83918,72591
6.84730,65577
6.85543,57054
6.86355,59144
6.87168,60196
6.87980,54303
6.88792,55879
6.89605,54478
6.90417,52125
6.91228,51103
6.92042,46503
6.92853,53017
6.93667,52236
6.94478,47802
6.95290,52468
6.96103,47266
6.96915,50775
6.97728,48854
6.98540,51175
6.99352,46089
7.00165,46726
7.00977,46189
7.01790,46727
7.02602,48705
7.03413,51450
7.04227,45913
7.05038,44114
7.05850,48654
7.06663,45708
7.07475,45513
7.08288,46027
7.09100,46901
7.09912,49665
7.10725,45185
7.11537,47081
7.12350,44041
7.13162,47585
7.13973,44831
7.14787,44378
7.15598,41652
7.16410,48070
7.17223,49754
7.18035,43990
7.18848,42226
7.19660,43312
7.20472,44658
7.21285,49282
7.22097,48443
7.22910,43299
7.23722,45851
7.24533,41617
7.25347,42091
7.26158,42965
7.26972,45581
7.27783,42130
7.28595,40055
7.29408,40813
7.30220,43227
7.31032,42459
7.31845,40170
7.32657,39390
7.33470,39719
7.34282,43066
7.35093,44868
7.35907,38859
7.36718,39970
7.37532,41581
7.38343,41522
7.39155,42066
7.39968,46772
7.40780,43886
7.41592,43039
7.42405,46835
7.43217,47239
7.44030,47853
7.44842,47137
7.45653,43425
7.46467,49587
7.47278,43331
7.48092,41899
7.48903,38943
7.49715,40926
7.50528,39748
7.51340,41713
7.52153,41482
7.52965,38876
7.53777,41628
7.54590,44157
7.55402,42147
7.56213,40517
7.57027,43292
7.57838,43476
7.58652,38928
7.59463,38566
7.60275,40715
7.61088,41308
7.61900,42008
7.62713,43895
7.63525,38591
7.64337,39837
7.65150,42626
7.65962,38561
7.66775,37337
7.67587,39381
7.68398,39479
7.69212,37745
7.70023,42190
7.70835,40681
7.71648,40731
7.72460,39065
7.73273,39681
7.74085,40179
7.74897,40095
7.75710,38875
7.76522,37279
7.77335,38544
7.78147,36385
7.78958,38241
7.79772,40144
7.80583,36788
7.81395,38186
7.82208,36798
7.83020,39633
7.83833,37602
7.84645,36121
7.85457,36467
7.86270,37192
7.87082,36346
7.87895,38478
7.88707,38585
7.89518,35539
7.90332,38364
7.91143,36059
7.91957,35491
7.92768,34247
7.93580,36569
7.94393,37993
7.95205,39097
7.96017,39743
7.96830,42890
7.97642,38209
7.98455,35164
7.99267,36438
8.00078,36081
8.00892,34030
8.01703,36391
8.02517,38531
8.03328,37860
8.04140,36762
8.04953,40373
8.05765,36377
8.06578,37508
8.07390,36993
8.08202,38516
8.09015,37684
8.09827,36107
8.10638,39299
8.11452,43543
8.12263,32193
8.13077,33902
8.13888,34566
8.14700,36343
8.15513,38568
8.16325,39354
8.17138,42414
8.17950,41057
8.18762,38645
8.19575,38874
8.20387,37163
8.21198,38975
8.22012,34006
8.22823,33808
8.23637,36161
8.24448,34601
8.25260,33430
8.26073,34230
8.26885,36858
8.27698,35611
8.28510,38482
8.29322,35557
8.30135,34362
8.30947,32839
8.31760,34570
8.32572,38024
8.33383,38924
8.34197,37283
8.35008,37968
8.35820,38161
8.36633,36303
8.37445,33302
8.38258,32122
8.39070,30266
8.39882,34475
8.40695,31448
8.41507,31980
8.42320,36108
8.43132,38355
8.43943,30492
8.44757,30603
8.45568,30464
8.46382,32625
8.47193,29696
8.48005,39781
8.48818,276817
8.49630,970689
8.50442,787079
8.51255,290971
8.52067,156813
8.52880,116758
8.53692,94521
8.54503,81170
8.55317,74357
8.56128,70585
8.56942,65501
8.57753,62820
8.58565,63411
8.59378,58064
8.60190,54566
8.61002,55322
8.61815,53494
8.62627,51307
8.63440,52066
8.64252,49252
8.65063,49622
8.65877,47232
8.66688,52621
8.67502,55216
8.68313,55152
8.69125,50554
8.69938,48406
8.70750,51806
8.71563,69203
8.72375,123653
8.73187,211701
8.74000,363241
8.74812,507896
8.75623,559986
8.76437,481383
8.77248,360731
8.78062,248277
8.78873,198258
8.79685,175254
8.80498,156515
8.81310,156452
8.82123,135562
8.82935,128293
8.83747,130431
8.84560,118916
8.85372,117817
8.86183,115265
8.86997,107856
8.87808,103897
8.88622,131366
8.89433,513700
8.90245,1838730
8.91058,2402362
8.91870,1757038
8.92683,1250989
8.93495,956025
8.94307,786033
8.95120,643641
8.95932,542239
8.96745,464330
8.97557,411366
8.98368,364439
8.99182,324226
8.99993,292367
9.00805,276766
9.01618,244055
9.02430,230708
9.03243,209855
9.04055,190559
9.04867,183503
9.05680,174024
9.06492,163047
9.07305,161950
9.08117,156385
9.08928,148538
9.09742,139631
9.10553,138739
9.11367,132614
9.12178,136823
9.12990,130580
9.13803,135035
9.14615,128394
9.15427,126075
9.16240,118948
9.17052,112164
9.17865,117783
9.18677,108707
9.19488,108215
9.20302,100305
9.21113,100857
9.21927,98478
9.22738,105003
9.23550,103566
9.24363,94729
9.25175,91906
9.25987,93086
9.26800,84617
9.27612,89747
9.28425,87397
9.29237,82327
9.30048,79153
9.30862,87613
9.31673,86338
9.32487,106622
9.33298,111946
9.34110,104504
9.34923,92076
9.35735,88158
9.36548,89659
9.37360,84674
9.38172,94505
9.38985,206472
9.39797,550537
9.40608,858654
9.41422,764513
9.42233,562206
9.43047,429478
9.43858,341251
9.44670,299729
9.45483,267098
9.46295,240364
9.47108,218731
9.47920,188882
9.48732,178156
9.49545,161493
9.50357,152698
9.51170,137806
9.51982,130649
9.52793,122044
9.53607,115032
9.54418,110778
9.55230,105207
9.56043,101493
9.56855,100223
9.57668,95434
9.58480,91134
9.59292,84610
9.60105,84722
9.60917,81165
9.61730,83307
9.62542,75918
9.63353,75926
9.64167,73670
9.64978,69956
9.65790,68874
9.66603,70991
9.67415,68350
9.68228,67301
9.69040,68595
9.69852,63233
9.70665,62879
9.71477,65542
9.72290,64182
9.73102,61236
9.73913,58127
9.74727,65270
9.75538,56545
9.76352,60230
9.77163,61173
9.77975,56851
9.78788,55261
9.79600,53277
9.80412,57085
9.81225,55282
9.82037,56161
9.82850,59102
9.83662,70760
9.84473,75902
9.85287,75650
9.86098,68209
9.86912,60687
9.87723,59480
9.88535,54935
9.89348,51983
9.90160,62432
9.90972,75878
9.91785,85185
9.92597,78648
9.93410,71752
9.94222,61094
9.95033,57773
9.95847,56577
9.96658,67762
9.97472,63589
9.98283,63909
9.99095,70397
9.99908,66482
10.00720,63051
10.01533,62968
10.02345,60078
10.03157,62780
10.03970,59875
10.04782,60190
10.05593,58393
10.06407,59295
10.07218,55297
10.08032,54366
10.08843,56713
10.09655,55110
10.10468,59135
10.11280,65246
10.12093,69389
10.12905,78226
10.13717,90874
10.14530,94409
10.15342,108325
10.16155,109358
10.16967,119367
10.17778,135330
10.18592,113989
10.19403,89535
10.20215,78883
10.21028,76450
10.21840,76989
10.22653,70414
10.23465,75304
10.24277,67249
10.25090,69585
10.25902,64916
10.26715,55987
10.27527,57330
10.28338,61145
10.29152,54096
10.29963,53729
10.30775,56027
10.31588,55211
10.32400,51840
10.33213,53911
10.34025,51440
10.34837,53934
10.35650,49275
10.36462,53895
10.37275,50475
10.38087,48283
10.38898,47572
10.39712,47006
10.40523,46645
10.41337,47988
10.42148,48753
10.42960,48178
10.43773,47268
10.44585,47469
10.45397,47554
10.46210,47878
10.47022,46448
10.47835,48014
10.48647,45169
10.49458,44076
10.50272,43723
10.51083,41065
10.51897,44224
10.52708,46295
10.53520,45733
10.54333,47557
10.55145,43622
10.55958,43589
10.56770,41445
10.57582,41303
10.58395,43607
10.59207,39978
10.60018,44870
10.60832,42790
10.61643,46497
10.62457,42533
10.63268,41258
10.64080,43425
10.64893,42988
10.65705,40000
10.66518,41137
10.67330,43567
10.68142,42201
10.68955,40254
10.69767,46197
10.70578,39943
10.71392,43342
10.72203,39556
10.73017,40772
10.73828,41625
10.74640,40040
10.75453,41903
10.76265,42119
10.77078,42211
10.77890,42398
10.78702,44207
10.79515,40188
10.80327,38383
10.81140,41995
10.81952,39368
10.82763,37169
10.83577,38915
10.84388,38271
10.85200,39608
10.86013,41517
10.86825,38991
10.87638,40266
10.88450,41439
10.89262,40546
10.90075,40863
10.90887,39599
10.91700,39251
10.92512,42961
10.93323,36732
10.94137,37743
10.94948,36741
10.95760,40800
10.96573,38987
10.97385,44489
10.98198,57902
10.99010,92702
10.99822,118392
11.00635,130146
11.01447,122093
11.02260,103680
11.03072,84145
11.03883,77439
11.04697,67929
11.05508,65859
11.06322,62119
11.07133,56539
11.07945,58984
11.08758,53797
11.09570,54450
11.10382,52014
11.11195,53053
11.12007,48986
11.12820,52578
11.13632,48859
11.14443,57293
11.15257,57078
11.16068,57717
11.16882,52574
11.17693,50359
11.18505,47634
11.19318,47553
11.20130,43328
11.20943,41869
11.21755,41812
11.22567,38366
11.23380,43427
11.24192,39670
11.25003,45431
11.25817,39800
11.26628,41472
11.27442,40979
11.28253,39689
11.29065,41415
11.29878,45506
11.30690,39957
11.31503,40802
11.32315,38181
11.33127,39192
11.33940,40960
11.34752,39459
11.35565,38284
11.36377,37514
11.37188,37407
11.38002,39007
11.38813,42433
11.39625,39148
11.40438,43690
11.41250,36788
11.42063,37230
11.42875,38592
11.43687,41954
11.44500,38375
11.45312,38316
11.46125,39603
11.46937,39000
11.47748,37972
11.48562,40891
11.49373,40274
11.50185,39744
11.50998,42052
11.51810,38875
11.52623,38475
11.53435,37683
11.54247,39613
11.55060,38426
11.55872,36739
11.56685,41593
11.57497,40500
11.58308,35376
11.59122,37063
11.59933,38956
11.60747,35618
11.61558,36752
11.62370,38387
11.63183,35802
11.63995,36538
11.64807,34970
11.65620,41819
11.66432,43242
11.67245,36660
11.68057,36046
11.68868,34888
11.69682,41625
11.70493,39433
11.71307,39346
11.72118,37175
11.72930,42429
11.73743,40951
11.74555,40288
11.75367,39998
11.76180,42449
11.76992,40887
11.77805,39310
11.78617,37022
11.79428,36079
11.80242,38050
11.81053,36906
11.81867,36883
11.82678,37639
11.83490,36532
11.84303,34334
11.85115,39231
11.85928,37370
11.86740,35619
11.87552,37189
11.88365,38124
11.89177,36403
11.89988,38105
11.90802,38408
11.91613,37346
11.92427,32862
11.93238,41600
11.94050,38541
11.94863,37117
11.95675,37193
11.96488,36997
11.97300,37629
11.98112,34693
11.98925,31698
11.99737,34195
12.00550,34639
12.01362,35941
12.02173,35409
12.02987,35575
12.03798,35504
12.04610,33390
12.05423,36605
12.06235,33119
12.07048,36346
12.07860,35846
12.08672,33117
12.09485,36749
12.10297,34429
12.11110,34553
12.11922,34581
12.12733,33923
12.13547,34224
12.14358,37354
12.15170,36403
12.15983,37698
12.16795,40513
12.17608,33988
12.18420,36881
12.19232,37412
12.20045,38001
12.20857,38181
12.21670,39677
12.22482,34522
12.23293,42442
12.24107,38032
12.24918,35664
12.25732,35977
12.26543,38393
12.27355,35720
12.28168,36693
12.28980,41454
12.29792,34970
12.30605,32632
12.31417,34229
12.32230,33064
12.33042,33784
12.33853,30289
12.34667,29417
12.35478,34469
12.36292,32173
12.37103,35014
12.37915,35303
12.38728,33226
12.39540,32985
12.40353,35969
12.41165,34800
12.41977,33650
12.42790,35173
12.43602,35537
12.44413,35397
12.45227,36263
12.46038,37772
12.46852,33340
12.47663,36535
12.48475,37197
12.49288,34150
12.50100,34448
12.50913,36779
12.51725,36260
12.52537,36457
12.53350,35797
12.54162,31340
12.54973,32158
12.55787,33369
12.56598,32683
12.57412,34434
12.58223,37070
12.59035,32319
12.59848,33282
12.60660,32200
12.61473,34142
12.62285,32470
12.63097,30809
12.63910,31248
12.64722,33370
12.65535,34898
12.66347,30803
12.67158,35311
12.67972,33935
12.68783,30867
12.69595,31542
12.70408,33632
12.71220,34989
12.72033,37954
12.72845,39501
12.73657,39394
12.74470,37975
12.75282,35282
12.76095,37080
12.76907,34358
12.77718,36376
12.78532,36052
12.79343,33759
12.80155,34394
12.80968,34974
12.81780,33441
12.82593,33724
12.83405,31068
12.84217,37288
12.85030,31287
12.85842,33561
12.86655,32922
12.87467,34926
12.88278,30480
12.89092,31875
12.89903,31857
12.90717,32593
12.91528,32672
12.92340,30737
12.93153,34036
12.93965,31433
12.94777,33098
12.95590,33805
12.96402,29038
12.97215,33220
12.98027,32196
12.98838,31767
12.99652,33299
13.00463,32609
13.01277,31111
13.02088,31901
13.02900,30870
13.03713,30033
13.04525,29514
13.05338,29399
13.06150,30110
13.06962,32554
13.07775,34249
13.08587,37407
13.09398,34800
13.10212,31864
13.11023,30971
13.11837,34877
13.12648,35736
13.13460,39581
13.14273,37600
13.15085,38018
13.15898,41220
13.16710,39723
13.17522,36409
13.18335,34300
13.19147,34902
13.19958,31084
13.20772,34310
13.21583,32876
13.22397,33522
13.23208,32591
13.24020,34157
13.24833,33939
13.25645,36882
13.26458,34071
13.27270,29436
13.28082,30124
13.28895,32944
13.29707,32496
13.30520,33765
13.31332,36617
13.32143,31430
13.32957,32032
13.33768,30694
13.34580,30813
13.35393,32195
13.36205,32368
13.37018,37890
13.37830,31614
13.38642,29783
13.39455,32799
13.40267,34919
13.41080,31868
13.41892,33013
13.42703,27801
13.43517,30362
13.44328,33764
13.45142,32157
13.45953,32977
13.46765,31377
13.47578,31138
13.48390,31581
13.49202,31715
13.50015,31217
13.50827,32815
13.51640,32408
13.52452,28471
13.53263,33766
13.54077,29555
13.54888,31525
13.55702,33687
13.56513,31140
13.57325,31177
13.58138,30398
13.58950,30374
13.59762,32645
13.60575,31501
13.61387,28292
13.62200,33227
13.63012,32152
13.63823,33301
13.64637,32747
13.65448,29114
13.66262,33208
13.67073,34319
13.67885,32099
13.68698,34094
13.69510,28738
13.70323,30483
13.71135,33022
13.71947,29267
13.72760,29267
13.73572,30616
13.74383,32583
13.75197,31807
13.76008,32991
13.76822,29995
13.77633,33516
13.78445,31265
13.79258,31130
13.80070,34692
13.80883,33391
13.81695,34514
13.82507,34461
13.83320,31969
13.84132,31360
13.84945,32515
13.85757,30542
13.86568,33671
13.87382,34457
13.88193,36304
13.89005,35460
13.89818,34286
13.90630,33784
13.91443,31356
13.92255,31607
13.93067,37277
13.93880,32554
13.94692,34119
13.95505,30717
13.96317,31418
13.97128,33247
13.97942,32205
13.98753,36399
13.99565,34570
14.00378,37336
14.01190,31796
14.02003,35283
14.02815,35470
14.03627,33799
14.04440,33742
14.05252,33226
14.06065,37641
14.06877,33892
14.07688,31772
14.08502,31787
14.09313,33164
14.10127,34191
14.10938,36564
14.11750,46866
14.12563,63302
14.13375,101600
14.14187,137213
14.15000,153058
14.15812,153841
14.16625,138203
14.17437,118305
14.18248,93316
14.19062,81779
14.19873,72282
14.20687,73288
14.21498,72912
14.22310,66755
14.23123,57765
14.23935,59496
14.24747,55416
14.25560,55662
14.26372,50825
14.27185,58966
14.27997,56212
14.28808,47664
14.29622,45331
14.30433,42998
14.31247,41545
14.32058,40330
14.32870,35107
14.33683,34231
14.34495,35055
14.35308,31421
14.36120,33799
14.36932,34996
14.37745,33847
14.38557,31708
14.39368,33282
14.40182,33519
14.40993,33637
14.41807,36109
14.42618,33459
14.43430,32591
14.44243,33968
14.45055,34333
14.45868,34646
14.46680,32270
14.47492,33208
14.48305,34192
14.49117,30990
14.49930,34246
14.50742,31706
14.51553,33562
14.52367,32941
14.53178,32450
14.53990,32128
14.54803,33126
14.55615,31718
14.56428,32335
14.57240,32595
14.58052,32384
14.58865,27930
14.59677,31885
14.60490,36920
14.61302,32785
14.62113,28845
14.62927,33055
14.63738,29438
14.64550,29203
14.65363,34352
14.66175,35154
14.66988,30474
14.67800,33650
14.68612,32964
14.69425,31698
14.70237,30188
14.71050,31974
14.71862,38850
14.72673,41209
14.73487,46195
14.74298,55112
14.75112,49899
14.75923,45269
14.76735,42373
14.77548,36694
14.78360,37679
14.79172,35595
14.79985,34325
14.80797,33411
14.81610,32251
14.82422,40061
14.83233,34553
14.84047,35445
14.84858,35479
14.85672,31386
14.86483,37316
14.87295,39459
14.88108,34305
14.88920,33222
14.89733,36489
14.90545,40083
14.91357,37724
14.92170,33262
14.92982,33848
14.93793,35743
14.94607,34126
14.95418,36643
14.96232,34442
14.97043,32552
14.97855,34153
14.98668,35072
14.99480,33205
15.00293,38084
15.01105,39222
15.01917,35170
15.02730,37506
15.03542,35847
15.04353,37338
15.05167,33140
15.05978,36127
15.06792,34897
15.07603,33153
15.08415,33694
15.09228,33044
15.10040,35684
15.10853,33077
15.11665,35458
15.12477,31746
15.13290,31743
15.14102,29774
15.14915,31694
15.15727,33517
15.16538,32023
15.17352,34410
15.18163,30705
15.18975,31382
15.19788,33335
15.20600,31957
15.21413,31974
15.22225,30903
15.23037,29742
15.23850,29923
15.24662,30506
15.25475,28155
15.26287,29564
15.27098,29086
15.27912,30374
15.28723,31135
15.29535,32340
15.30348,30218
15.31160,28994
15.31973,26156
15.32785,30134
15.33597,28112
15.34410,28221
15.35222,29795
15.36035,30004
15.36847,30284
15.37658,31087
15.38472,31462
15.39283,28484
15.40097,30580
15.40908,28961
15.41720,29089
15.42533,28836
15.43345,31471
15.44157,32339
15.44970,30494
15.45782,32515
15.46595,30093
15.47407,29635
15.48218,31141
15.49032,31796
15.49843,30369
15.50657,31407
15.51468,27215
15.52280,29439
15.53093,30900
15.53905,30052
15.54718,30022
15.55530,29842
15.56342,32027
15.57155,31843
15.57967,30849
15.58778,30195
15.59592,29100
15.60403,27642
15.61217,28775
15.62028,31139
15.62840,29964
15.63653,28905
15.64465,30556
15.65278,32032
15.66090,27125
15.66902,29725
15.67715,29571
15.68527,28000
15.69338,27944
15.70152,26820
15.70963,29194
15.71777,29144
15.72588,30807
15.73400,28741
15.74213,29491
15.75025,29569
15.75838,28950
15.76650,30241
15.77462,29084
15.78275,29483
15.79087,32150
15.79900,28935
15.80712,29296
15.81523,28664
15.82337,30769
15.83148,28963
15.83960,28070
15.84773,28853
15.85585,28800
15.86398,33669
15.87210,28443
15.88022,29915
15.88835,32099
15.89647,29947
15.90460,29092
15.91272,26672
15.92083,31850
15.92897,29657
15.93708,27805
15.94522,29800
15.95333,30355
15.96145,28171
15.96958,30157
15.97770,28614
15.98582,30651
15.99395,29878
16.00207,33072
16.01020,33570
16.01832,30564
16.02643,32898
16.03457,30906
16.04268,32058
16.05082,32022
16.05893,29662
16.06705,31228
16.07518,30042
16.08330,38556
16.09142,311779
16.09955,844574
16.10767,553754
16.11580,195190
16.12392,115476
16.13203,89475
16.14017,85427
16.14828,72317
16.15642,69041
16.16453,63729
16.17265,63818
16.18078,58263
16.18890,56968
16.19703,53724
16.20515,47063
16.21327,49349
16.22140,44647
16.22952,46221
16.23763,45377
16.24577,48688
16.25388,154908
16.26202,711310
16.27013,627147
16.27825,360834
16.28638,252349
16.29450,201487
16.30263,160927
16.31075,139513
16.31887,122564
16.32700,107664
16.33512,98062
16.34323,94431
16.35137,95761
16.35948,85172
16.36762,86355
16.37573,137098
16.38385,321042
16.39198,305382
16.40010,183281
16.40823,140986
16.41635,118071
16.42447,111592
16.43260,105408
16.44072,97959
16.44885,90383
16.45697,87888
16.46508,84195
16.47322,78885
16.48133,72100
16.48945,74411
16.49758,74571
16.50570,64476
16.51383,69890
16.52195,66958
16.53007,64681
16.53820,64857
16.54632,57873
16.55445,63722
16.56257,60037
16.57068,62093
16.57882,57029
16.58693,57790
16.59507,54378
16.60318,60058
16.61130,58295
16.61943,68031
16.62755,59590
16.63567,54177
16.64380,54333
16.65192,59284
16.66005,72737
16.66817,77951
16.67628,72925
16.68442,100746
16.69253,137186
16.70067,150722
16.70878,134333
16.71690,104949
16.72503,89427
16.73315,75397
16.74128,75670
16.74940,70195
16.75752,78022
16.76565,97164
16.77377,115115
16.78188,101142
16.79002,90448
16.79813,77892
16.80627,74843
16.81438,68829
16.82250,63865
16.83063,65326
16.83875,61403
16.84688,54701
16.85500,50253
16.86312,51975
16.87125,53333
16.87937,50405
16.88748,53165
16.89562,51541
16.90373,51226
16.91187,50031
16.91998,50968
16.92810,50942
16.93623,49349
16.94435,49158
16.95248,52145
16.96060,50618
16.96872,46245
16.97685,46411
16.98497,45596
16.99310,45080
17.00122,45338
17.00933,43106
17.01747,46916
17.02558,45841
17.03370,45311
17.04183,43328
17.04995,43203
17.05808,41860
17.06620,42636
17.07432,41390
17.08245,42113
17.09057,42906
17.09870,40365
17.10682,43225
17.11493,45116
17.12307,41922
17.13118,39189
17.13930,40360
17.14743,42861
17.15555,39640
17.16368,39580
17.17180,41917
17.17992,41797
17.18805,39673
17.19617,43465
17.20430,43373
17.21242,41076
17.22053,41228
17.22867,39323
17.23678,40943
17.24492,41415
17.25303,40266
17.26115,39457
17.26928,38777
17.27740,35153
17.28552,39122
17.29365,39154
17.30177,41795
17.30990,40043
17.31802,40938
17.32613,40893
17.33427,39609
17.34238,37251
17.35052,41329
17.35863,42750
17.36675,39114
17.37488,39635
17.38300,40961
17.39113,38607
17.39925,41346
17.40737,38695
17.41550,38807
17.42362,36772
17.43173,40186
17.43987,36703
17.44798,37274
17.45612,35449
17.46423,38023
17.47235,38940
17.48048,38350
17.48860,36045
17.49673,38713
17.50485,38586
17.51297,37131
17.52110,35433
17.52922,35887
17.53733,35760
17.54547,40213
17.55358,38529
17.56172,39380
17.56983,35829
17.57795,35564
17.58608,36520
17.59420,35137
17.60233,36171
17.61045,32962
17.61857,36280
17.62670,33366
17.63482,38624
17.64295,35094
17.65107,33214
17.65918,39242
17.66732,37496
17.67543,35778
17.68355,36645
17.69168,34809
17.69980,34128
17.70793,36291
17.71605,38669
17.72417,34358
17.73230,37894
17.74042,33485
17.74855,37637
17.75667,34160
17.76478,37599
17.77292,33222
17.78103,33009
17.78917,35428
17.79728,36464
17.80540,33011
17.81353,30591
17.82165,34699
17.82977,34808
17.83790,38995
17.84602,36025
17.85415,37376
17.86227,36159
17.87038,34568
17.87852,32704
17.88663,31593
17.89477,29436
17.90288,34206
17.91100,32532
17.91913,28353
17.92725,32097
17.93537,32471
17.94350,33591
17.95162,33580
17.95975,32271
17.96787,31449
17.97598,28962
17.98412,30924
17.99223,32591
18.00037,31655
18.00848,39981
18.01660,38223
18.02473,40286
18.03285,38194
18.04098,36170
18.04910,35181
18.05722,37604
18.06535,34396
18.07347,35118
18.08158,36685
18.08972,35197
18.09783,33030
18.10597,34827
18.11408,36129
18.12220,37065
18.13033,34978
18.13845,35223
18.14658,33974
18.15470,31886
18.16282,30520
18.17095,35516
18.17907,32665
18.18718,34343
18.19532,33758
18.20343,31902
18.21157,31619
18.21968,34739
18.22780,31812
18.23593,33111
18.24405,34150
18.25218,36337
18.26030,36601
18.26842,33431
18.27655,33480
18.28467,33308
18.29280,33179
18.30092,32981
18.30903,30905
18.31717,29581
18.32528,31451
18.33340,30381
18.34153,35589
18.34965,35313
18.35778,28494
18.36590,31743
18.37402,32666
18.38215,28511
18.39027,32624
18.39840,35252
18.40652,32945
18.41463,33975
18.42277,30360
18.43088,31020
18.43902,32870
18.44713,33046
18.45525,27143
18.46338,31720
18.47150,28792
18.47962,29602
18.48775,30491
18.49587,31808
18.50400,30645
18.51212,30628
18.52023,30147
18.52837,29794
18.53648,31133
18.54462,31393
18.55273,30722
18.56085,29093
18.56898,30691
18.57710,32037
18.58522,33393
18.59335,32590
18.60147,32287
18.60960,36605
18.61772,38999
18.62583,36363
18.63397,36957
18.64208,42418
18.65022,43202
18.65833,43006
18.66645,36876
18.67458,40205
18.68270,44815
18.69083,42391
18.69895,41232
18.70707,38604
18.71520,43122
18.72332,42073
18.73143,41353
18.73957,40303
18.74768,38722
18.75582,40800
18.76393,44493
18.77205,41329
18.78018,43137
18.78830,42891
18.79643,39792
18.80455,41273
18.81267,42723
18.82080,43055
18.82892,37768
18.83705,41166
18.84517,41755
18.85328,38219
18.86142,42725
18.86953,40769
18.87765,36998
18.88578,36433
18.89390,38759
18.90203,39257
18.91015,36354
18.91827,36878
18.92640,37918
18.93452,36691
18.94265,39682
18.95077,38786
18.95888,35309
18.96702,36488
18.97513,35156
18.98325,37554
18.99138,36645
18.99950,36918
19.00763,36627
19.01575,34864
19.02387,34514
19.03200,35552
19.04012,35527
19.04825,40113
19.05637,37528
19.06448,36803
19.07262,35201
19.08073,39127
19.08887,40079
19.09698,42322
19.10510,43146
19.11323,44396
19.12135,42512
19.12947,43478
19.13760,54818
19.14572,41674
19.15385,42519
19.16197,38906
19.17008,38497
19.17822,35745
19.18633,36447
19.19447,39905
19.20258,42474
19.21070,41764
19.21883,37123
19.22695,38216
19.23508,40037
19.24320,44401
19.25132,41047
19.25945,43532
19.26757,44712
19.27568,51248
19.28382,51644
19.29193,52960
19.30007,51515
19.30818,48527
19.31630,46475
19.32443,47461
19.33255,44085
19.34068,39550
19.34880,40190
19.35692,44216
19.36505,40939
19.37317,38268
19.38128,38176
19.38942,43534
19.39753,39962
19.40567,44123
19.41378,47981
19.42190,59414
19.43003,75669
19.43815,95726
19.44628,109793
19.45440,101871
19.46252,88081
19.47065,74759
19.47877,59076
19.48690,54048
19.49502,45317
19.50313,41939
19.51127,42139
19.51938,38938
19.52750,40783
19.53563,39621
19.54375,43269
19.55188,45947
19.56000,44451
19.56812,50514
19.57625,45980
19.58437,44203
19.59250,39682
19.60062,43358
19.60873,48024
19.61687,70213
19.62498,106009
19.63310,177665
19.64123,266883
19.64935,352857
19.65748,386716
19.66560,378355
19.67372,314432
19.68185,246282
19.68997,168760
19.69810,130319
19.70622,105154
19.71433,84484
19.72247,75303
19.73058,68031
19.73872,61678
19.74683,56576
19.75495,51859
19.76308,48862
19.77120,43602
19.77932,43824
19.78745,44766
19.79557,42767
19.80370,43222
19.81182,41200
19.81993,44377
19.82807,40920
19.83618,38996
19.84432,41122
19.85243,40812
19.86055,41225
19.86868,42524
19.87680,46199
19.88493,51761
19.89305,62224
19.90117,77097
19.90930,91258
19.91742,102647
19.92553,108743
19.93367,108152
19.94178,93706
19.94992,85112
19.95803,71307
19.96615,67442
19.97428,61567
19.98240,59074
19.99053,61588
19.99865,54799
20.00677,53318
20.01490,52129
20.02302,50617
20.03113,54931
20.03927,50727
20.04738,49017
20.05552,45581
20.06363,42653
20.07175,43383
20.07988,41807
20.08800,38351
20.09613,38533
20.10425,40473
20.11237,40432
20.12050,39473
20.12862,40697
20.13675,39631
20.14487,35102
20.15298,39663
20.16112,38473
20.16923,39286
20.17735,36966
20.18548,35905
20.19360,38671
20.20173,41029
20.20985,53576
20.21797,78995
20.22610,113328
20.23422,165806
20.24235,212501
20.25047,243660
20.25858,246907
20.26672,217202
20.27483,174935
20.28297,142377
20.29108,100871
20.29920,83221
20.30733,71726
20.31545,60175
20.32357,54902
20.33170,50402
20.33982,43238
20.34795,46984
20.35607,44335
20.36418,47465
20.37232,50921
20.38043,57332
20.38857,72457
20.39668,82350
20.40480,103600
20.41293,124593
20.42105,132981
20.42917,142247
20.43730,117395
20.44542,102495
20.45355,90022
20.46167,74678
20.46978,62254
20.47792,63194
20.48603,53381
20.49417,49213
20.50228,47613
20.51040,48770
20.51853,47686
20.52665,43169
20.53478,48259
20.54290,40934
20.55102,43536
20.55915,46286
20.56727,48590
20.57538,46647
20.58352,48565
20.59163,51110
20.59977,49109
20.60788,49697
20.61600,48009
20.62413,44482
20.63225,41373
20.64038,40326
20.64850,41735
20.65662,42037
20.66475,39602
20.67287,39024
20.68098,40985
20.68912,38448
20.69723,35127
20.70537,36284
20.71348,35635
20.72160,38144
20.72973,40905
20.73785,41175
20.74598,40225
20.75410,38293
20.76222,37006
20.77035,42839
20.77847,38254
20.78660,37169
20.79472,37389
20.80283,36028
20.81097,35411
20.81908,34794
20.82720,37202
20.83533,38211
20.84345,36018
20.85158,36697
20.85970,32222
20.86782,37530
20.87595,30873
20.88407,33901
20.89220,33102
20.90032,31505
20.90843,33862
20.91657,36392
20.92468,35027
20.93282,34652
20.94093,34894
20.94905,37231
20.95718,32293
20.96530,33052
20.97342,34800
20.98155,36106
20.98967,30461
20.99780,34611
21.00592,37258
21.01403,35664
21.02217,35055
21.03028,33750
21.03842,33390
21.04653,33616
21.05465,34121
21.06278,32782
21.07090,32324
21.07903,32383
21.08715,32936
21.09527,32269
21.10340,30728
21.11152,32239
21.11963,33720
21.12777,32462
21.13588,39777
21.14402,33930
21.15213,32056
21.16025,35388
21.16838,35295
21.17650,33153
21.18463,30483
21.19275,33932
21.20087,37418
21.20900,33456
21.21712,39000
21.22523,34769
21.23337,31053
21.24148,31041
21.24962,31668
21.25773,30948
21.26585,33437
21.27398,31925
21.28210,33863
21.29023,30914
21.29835,31011
21.30647,30789
21.31460,32751
21.32272,36594
21.33085,31283
21.33897,33217
21.34708,33829
21.35522,31498
21.36333,33649
21.37145,33769
21.37958,39692
21.38770,33817
21.39583,33484
21.40395,37700
21.41207,34026
21.42020,38868
21.42832,37430
21.43645,36152
21.44457,39087
21.45268,35475
21.46082,37566
21.46893,41045
21.47705,43615
21.48518,46956
21.49330,53591
21.50143,64876
21.50955,63997
21.51767,57395
21.52580,54404
21.53392,46877
21.54205,44414
21.55017,45458
21.55828,52258
21.56642,64485
21.57453,84037
21.58267,99583
21.59078,112203
21.59890,110467
21.60703,104753
21.61515,88918
21.62327,72221
21.63140,63183
21.63952,52822
21.64765,51082
21.65577,49650
21.66388,54176
21.67202,56458
21.68013,59723
21.68827,62987
21.69638,62375
21.70450,62524
21.71263,65964
21.72075,64965
21.72888,62556
21.73700,61172
21.74512,57327
21.75325,62115
21.76137,69163
21.76948,79393
21.77762,90944
21.78573,97542
21.79387,98827
21.80198,90913
21.81010,78936
21.81823,66448
21.82635,57710
21.83448,57446
21.84260,49736
21.85072,50937
21.85885,53782
21.86697,52916
21.87508,54388
21.88322,51111
21.89133,49247
21.89947,49869
21.90758,42652
21.91570,39670
21.92383,40705
21.93195,40468
21.94008,38543
21.94820,36252
21.95632,35912
21.96445,37253
21.97257,36246
21.98070,37782
21.98882,35123
21.99693,36396
22.00507,33860
22.01318,35857
22.02130,37408
22.02943,33986
22.03755,35162
22.04568,36066
22.05380,33448
22.06192,40575
22.07005,39244
22.07817,40908
22.08630,37729
22.09442,37122
22.10253,35466
22.11067,35295
22.11878,36259
22.12692,36013
22.13503,35085
22.14315,40188
22.15128,42585
22.15940,44115
22.16752,46861
22.17565,47823
22.18377,49622
22.19190,47691
22.20002,47611
22.20813,40429
22.21627,38831
22.22438,38162
22.23252,32149
22.24063,33653
22.24875,34883
22.25688,36722
22.26500,36977
22.27312,33743
22.28125,37605
22.28937,35721
22.29750,31327
22.30562,33107
22.31373,32167
22.32187,36915
22.32998,32170
22.33812,34625
22.34623,37867
22.35435,37110
22.36248,34222
22.37060,30889
22.37873,35358
22.38685,29977
22.39497,34784
22.40310,30368
22.41122,31648
22.41933,31890
22.42747,29269
22.43558,31126
22.44372,32482
22.45183,35533
22.45995,30497
22.46808,33070
22.47620,29960
22.48433,31934
22.49245,33133
22.50057,30953
22.50870,32857
22.51682,33067
22.52493,33692
22.53307,37327
22.54118,37592
22.54932,31436
22.55743,38095
22.56555,33638
22.57368,35116
22.58180,35815
22.58993,33153
22.59805,31774
22.60617,33793
22.61430,30678
22.62242,28996
22.63055,30423
22.63867,29245
22.64678,29461
22.65492,33407
22.66303,32496
22.67115,28856
22.67928,32079
22.68740,30541
22.69553,34507
22.70365,31831
22.71177,31273
22.71990,33579
22.72802,33791
22.73615,33517
22.74427,33409
22.75238,32985
22.76052,39759
22.76863,35765
22.77677,32554
22.78488,37133
22.79300,33440
22.80113,33742
22.80925,32760
22.81737,31398
22.82550,28056
22.83362,33766
22.84175,31831
22.84987,32277
22.85798,30351
22.86612,36071
22.87423,30460
22.88237,37355
22.89048,41660
22.89860,47962
22.90673,66377
22.91485,88655
22.92297,109927
22.93110,129170
22.93922,150540
22.94735,144932
22.95547,144018
22.96358,138854
22.97172,123488
22.97983,111905
22.98797,99310
22.99608,86030
23.00420,84338
23.01233,72808
23.02045,64809
23.02858,54871
23.03670,53200
23.04482,52654
23.05295,47546
23.06107,44225
23.06918,45470
23.07732,47559
23.08543,44537
23.09357,43007
23.10168,41911
23.10980,40898
23.11793,36491
23.12605,42230
23.13418,38646
23.14230,36458
23.15042,36266
23.15855,36190
23.16667,38491
23.17480,39431
23.18292,43984
23.19103,46140
23.19917,50221
23.20728,49347
23.21540,49498
23.22353,49967
23.23165,44013
23.23978,44060
23.24790,42609
23.25602,37857
23.26415,40428
23.27227,37160
23.28040,36921
23.28852,39164
23.29663,35832
23.30477,35976
23.31288,31084
23.32100,32530
23.32913,32172
23.33725,33523
23.34538,32553
23.35350,31119
23.36162,29437
23.36975,33041
23.37787,29977
23.38600,30242
23.39412,28238
23.40223,31782
23.41037,35962
23.41848,27970
23.42662,32419
23.43473,30036
23.44285,30015
23.45098,29217
23.45910,31060
23.46722,29455
23.47535,28680
23.48347,34705
23.49160,29279
23.49972,31832
23.50783,31196
23.51597,29707
23.52408,30664
23.53222,30745
23.54033,28627
23.54845,29110
23.55658,31862
23.56470,31067
23.57282,32125
23.58095,30776
23.58907,32434
23.59720,32069
23.60532,30724
23.61343,31267
23.62157,30598
23.62968,27921
23.63782,31487
23.64593,32119
23.65405,31877
23.66218,32698
23.67030,32326
23.67843,32813
23.68655,34244
23.69467,32159
23.70280,31678
23.71092,33623
23.71903,45514
23.72717,94104
23.73528,237268
23.74342,638526
23.75153,1659958
23.75965,4077780
23.76778,7023232
23.77590,8984549
23.78403,9286181
23.79215,7953259
23.80027,5944025
23.80840,4220337
23.81652,2954443
23.82465,2070345
23.83277,1495618
23.84088,1171354
23.84902,1035484
23.85713,1079411
23.86525,1357988
23.87338,1751392
23.88150,1975382
23.88963,2074816
23.89775,1942210
23.90587,1631658
23.91400,1272147
23.92212,972556
23.93025,754451
23.93837,608418
23.94648,496555
23.95462,432592
23.96273,359848
23.97085,325263
23.97898,296855
23.98710,262273
23.99523,252267
24.00335,236962
24.01147,216396
24.01960,206953
24.02772,197344
24.03585,191145
24.04397,183994
24.05208,197527
24.06022,199290
24.06833,197347
24.07647,188201
24.08458,179970
24.09270,180381
24.10083,165322
24.10895,153631
24.11707,147792
24.12520,147338
24.13332,146293
24.14145,155186
24.14957,162966
24.15768,156450
24.16582,145017
24.17393,146642
24.18207,126816
24.19018,125150
24.19830,116993
24.20643,111221
24.21455,108481
24.22268,102935
24.23080,98770
24.23892,99872
24.24705,92983
24.25517,92492
24.26328,91942
24.27142,91720
24.27953,93223
24.28767,89747
24.29578,92659
24.30390,97791
24.31203,113944
24.32015,127968
24.32828,144269
24.33640,143574
24.34452,129181
24.35265,113078
24.36077,101217
24.36888,93814
24.37702,87981
24.38513,80523
24.39327,79680
24.40138,79576
24.40950,81375
24.41763,91352
24.42575,106222
24.43388,115553
24.44200,122927
24.45012,129047
24.45825,126132
24.46637,115619
24.47450,109089
24.48262,96211
24.49073,92532
24.49887,79402
24.50698,77241
24.51510,77596
24.52323,74269
24.53135,75134
24.53948,74337
24.54760,66469
24.55572,69403
24.56385,69217
24.57197,66469
24.58010,65524
24.58822,62250
24.59633,70760
24.60447,72112
24.61258,86910
24.62072,136476
24.62883,255243
24.63695,459808
24.64508,734869
24.65320,938573
24.66132,1037587
24.66945,951095
24.67757,780697
24.68570,583973
24.69382,441463
24.70193,344659
24.71007,277819
24.71818,226133
24.72632,188657
24.73443,161565
24.74255,145051
24.75068,134981
24.75880,117005
24.76692,113888
24.77505,106757
24.78317,105967
24.79130,92900
24.79942,94943
24.80753,88663
24.81567,82077
24.82378,82134
24.83192,79977
24.84003,83606
24.84815,78541
24.85628,79077
24.86440,78435
24.87253,78008
24.88065,72554
24.88877,69623
24.89690,69232
24.90502,67720
24.91313,67645
24.92127,62348
24.92938,65776
24.93752,60357
24.94563,61074
24.95375,58228
24.96188,61906
24.97000,62625
24.97813,55717
24.98625,57508
24.99437,54551
25.00250,54724
25.01062,59622
25.01873,56575
25.02687,55729
25.03498,55307
25.04312,55460
25.05123,47746
25.05935,52029
25.06748,50242
25.07560,50250
25.08373,50755
25.09185,49977
25.09997,52404
25.10810,54061
25.11622,48368
25.12435,54961
25.13247,58488
25.14058,60920
25.14872,60787
25.15683,60409
25.16495,57795
25.17308,55715
25.18120,56387
25.18933,52424
25.19745,51419
25.20557,52363
25.21370,51484
25.22182,51529
25.22995,51978
25.23807,52280
25.24618,48052
25.25432,50842
25.26243,51607
25.27057,52561
25.27868,48909
25.28680,50657
25.29493,53909
25.30305,51893
25.31117,53735
25.31930,51929
25.32742,53383
25.33555,52141
25.34367,47190
25.35178,46453
25.35992,46685
25.36803,50599
25.37617,51359
25.38428,51357
25.39240,51771
25.40053,58524
25.40865,55871
25.41677,58704
25.42490,54165
25.43302,51456
25.44115,51751
25.44927,49345
25.45738,49427
25.46552,45329
25.47363,43394
25.48177,43807
25.48988,43034
25.49800,42025
25.50613,40285
25.51425,41482
25.52238,42725
25.53050,39831
25.53862,44738
25.54675,42840
25.55487,44268
25.56298,42170
25.57112,41978
25.57923,40145
25.58737,41562
25.59548,43152
25.60360,39580
25.61173,34158
25.61985,40510
25.62798,37544
25.63610,41057
25.64422,38814
25.65235,43154
25.66047,37613
25.66860,40232
25.67672,39933
25.68483,42260
25.69297,39312
25.70108,40144
25.70920,38331
25.71733,39608
25.72545,39316
25.73358,45303
25.74170,42152
25.74982,40233
25.75795,37244
25.76607,34858
25.77420,38364
25.78232,39407
25.79043,39284
25.79857,41557
25.80668,36068
25.81480,34361
25.82293,41660
25.83105,37712
25.83918,36504
25.84730,38298
25.85542,37705
25.86355,32216
25.87167,37232
25.87980,39400
25.88792,39305
25.89603,37232
25.90417,39950
25.91228,39849
25.92042,36988
25.92853,38128
25.93665,36587
25.94478,36857
25.95290,37560
25.96102,36418
25.96915,39884
25.97727,37154
25.98540,37936
25.99352,36199
26.00163,34538
26.00977,38502
26.01788,36410
26.02602,35066
26.03413,36280
26.04225,36900
26.05038,35476
26.05850,34668
26.06662,35813
26.07475,38658
26.08287,35241
26.09100,37625
26.09912,39030
26.10723,34457
26.11537,36845
26.12348,39251
26.13162,40012
26.13973,38391
26.14785,35688
26.15598,38427
26.16410,42994
26.17223,45059
26.18035,38522
26.18847,45414
26.19660,43686
26.20472,41327
26.21283,39611
26.22097,35990
26.22908,36538
26.23722,34898
26.24533,36590
26.25345,35040
26.26158,35569
26.26970,36747
26.27783,35762
26.28595,38029
26.29407,39228
26.30220,36508
26.31032,35029
26.31845,35078
26.32657,38433
26.33468,36937
26.34282,33789
26.35093,34008
26.35905,34193
26.36718,37814
26.37530,35281
26.38343,36083
26.39155,31939
26.39967,32987
26.40780,35433
26.41592,35113
26.42405,35007
26.43217,34593
26.44028,32855
26.44842,36779
26.45653,34237
26.46467,36392
26.47278,34566
26.48090,37708
26.48903,32790
26.49715,32673
26.50527,36747
26.51340,32790
26.52152,36443
26.52965,30633
26.53777,36481
26.54588,32312
26.55402,35216
26.56213,33303
26.57027,33160
26.57838,32963
26.58650,34314
26.59463,37420
26.60275,37620
26.61087,32629
26.61900,37151
26.62712,36452
26.63525,35696
26.64337,39757
26.65148,36433
26.65962,41811
26.66773,36958
26.67587,40131
26.68398,38648
26.69210,38100
26.70023,39803
26.70835,39243
26.71648,39111
26.72460,40578
26.73272,39324
26.74085,40560
26.74897,37643
26.75708,41905
26.76522,45403
26.77333,49078
26.78147,43094
26.78958,44884
26.79770,47563
26.80583,40698
26.81395,42009
26.82208,41188
26.83020,40410
26.83832,42880
26.84645,42600
26.85457,40967
26.86268,41702
26.87082,43035
26.87893,42338
26.88707,44365
26.89518,48534
26.90330,48128
26.91143,53766
26.91955,58455
26.92768,83618
26.93580,151164
26.94392,305411
26.95205,674440
26.96017,1471866
26.96830,3102921
26.97642,6304071
26.98453,1.017574E+07
26.99267,1.262316E+07
27.00078,1.260461E+07
27.00890,1.139971E+07
27.01703,9770886
27.02515,8351189
27.03328,6616490
27.04140,4966959
27.04952,3622450
27.05765,2602851
27.06577,1884658
27.07390,1366376
27.08202,1048770
27.09013,792358
27.09827,618553
27.10638,524244
27.11450,441336
27.12263,387266
27.13075,337111
27.13888,299484
27.14700,265174
27.15512,248906
27.16325,231630
27.17137,216733
27.17950,205725
27.18762,180353
27.19573,181420
27.20387,165803
27.21198,161697
27.22012,151774
27.22823,143670
27.23635,136628
27.24448,131534
27.25260,128846
27.26072,122369
27.26885,115158
27.27697,116943
27.28510,111584
27.29322,103708
27.30133,112908
27.30947,129105
27.31758,159690
27.32572,218837
27.33383,301524
27.34195,388041
27.35008,484115
27.35820,539597
27.36633,544865
27.37445,515833
27.38257,453273
27.39070,385213
27.39882,317394
27.40693,266266
27.41507,223530
27.42318,196063
27.43132,169858
27.43943,165813
27.44755,152035
27.45568,147657
27.46380,139607
27.47193,118988
27.48005,113888
27.48817,108620
27.49630,95243
27.50442,92625
27.51255,96534
27.52067,96890
27.52878,100075
27.53692,94117
27.54503,95296
27.55315,86623
27.56128,86989
27.56940,78045
27.57753,74581
27.58565,77010
27.59377,74485
27.60190,69403
27.61002,69443
27.61815,66663
27.62627,65788
27.63438,66809
27.64252,64910
27.65063,62941
27.65875,59449
27.66688,58676
27.67500,59012
27.68313,58195
27.69125,59454
27.69937,57252
27.70750,55973
27.71562,58691
27.72375,56407
27.73187,54957
27.73998,57843
27.74812,59431
27.75623,55579
27.76437,52552
27.77248,54221
27.78060,55753
27.78873,53464
27.79685,50884
27.80497,54564
27.81310,57413
27.82122,52213
27.82935,54403
27.83747,52809
27.84558,53744
27.85372,52241
27.86183,49394
27.86997,51248
27.87808,46603
27.88620,48177
27.89433,42616
27.90245,50243
27.91057,48431
27.91870,49899
27.92682,47896
27.93495,46000
27.94307,46645
27.95118,47086
27.95932,42484
27.96743,42143
27.97557,46594
27.98368,44220
27.99180,42299
27.99993,41532
28.00805,45730
28.01618,41453
28.02430,45564
28.03242,45161
28.04055,44106
28.04867,44737
28.05678,43355
28.06492,41356
28.07303,44958
28.08117,44160
28.08928,49068
28.09740,51953
28.10553,62428
28.11365,69151
28.12178,79485
28.12990,83312
28.13802,76418
28.14615,67228
28.15427,61003
28.16240,58381
28.17052,47753
28.17863,44935
28.18677,43258
28.19488,41771
28.20300,41335
28.21113,45827
28.21925,45509
28.22738,53086
28.23550,81493
28.24362,124953
28.25175,207537
28.25987,335022
28.26800,512642
28.27612,780857
28.28423,1058530
28.29237,1395183
28.30048,1724529
28.30860,2032839
28.31673,2181923
28.32485,2260315
28.33298,2212238
28.34110,2061118
28.34922,1766652
28.35735,1498783
28.36547,1283396
28.37360,1040588
28.38172,908263
28.38983,729224
28.39797,604828
28.40608,494999
28.41422,416823
28.42233,371607
28.43045,312348
28.43858,266312
28.44670,243747
28.45482,227307
28.46295,198029
28.47107,177801
28.47920,166945
28.48732,161994
28.49543,162333
28.50357,168317
28.51168,175495
28.51982,198975
28.52793,210514
28.53605,218384
28.54418,234802
28.55230,239782
28.56043,248158
28.56855,227710
28.57667,228439
28.58480,211999
28.59292,209612
28.60103,198311
28.60917,177657
28.61728,164826
28.62542,154967
28.63353,145914
28.64165,138988
28.64978,136124
28.65790,126412
28.66603,133417
28.67415,133994
28.68227,141818
28.69040,146211
28.69852,142070
28.70663,133956
28.71477,120247
28.72288,106031
28.73102,92847
28.73913,90598
28.74725,85538
28.75538,79834
28.76350,80646
28.77163,77638
28.77975,76142
28.78787,72464
28.79600,73200
28.80412,70039
28.81225,70820
28.82037,69601
28.82848,68426
28.83662,67869
28.84473,62794
28.85285,66355
28.86098,59727
28.86910,62438
28.87723,64257
28.88535,58843
28.89347,61238
28.90160,64653
28.90972,61395
28.91785,53808
28.92597,59901
28.93408,62701
28.94222,61577
28.95033,58195
28.95845,54871
28.96658,60393
28.97470,56425
28.98283,54351
28.99095,57298
28.99907,57222
29.00720,55101
29.01532,53454
29.02345,50767
29.03157,55250
29.03968,53285
29.04782,55933
29.05593,52708
29.06407,51785
29.07218,51119
29.08030,52099
29.08843,50699
29.09655,49373
29.10467,47729
29.11280,47197
29.12092,47390
29.12905,47267
29.13717,47202
29.14528,47391
29.15342,51980
29.16153,44731
29.16967,42943
29.17778,45895
29.18590,45823
29.19403,46586
29.20215,45468
29.21028,47216
29.21840,45634
29.22652,47184
29.23465,45492
29.24277,48339
29.25088,48891
29.25902,46952
29.26713,45551
29.27527,46409
29.28338,44017
29.29150,43362
29.29963,44381
29.30775,44758
29.31588,42990
29.32400,42548
29.33212,45440
29.34025,42195
29.34837,46854
29.35648,41654
29.36462,45346
29.37273,48029
29.38087,47037
29.38898,50454
29.39710,49469
29.40523,54850
29.41335,57353
29.42148,50911
29.42960,47827
29.43772,47111
29.44585,43706
29.45397,40157
29.46210,43392
29.47022,43407
29.47833,42765
29.48647,42159
29.49458,44209
29.50270,42196
29.51083,42144
29.51895,45045
29.52708,41842
29.53520,39299
29.54332,41083
29.55145,42876
29.55957,45820
29.56770,40099
29.57582,39615
29.58393,39289
29.59207,39397
29.60018,39175
29.60832,39423
29.61643,39193
29.62455,38722
29.63268,39559
29.64080,36632
29.64892,37938
29.65705,39143
29.66517,36953
29.67330,36329
29.68142,39845
29.68953,39063
29.69767,36773
29.70578,35107
29.71392,36097
29.72203,35632
29.73015,36491
29.73828,35393
29.74640,39295
29.75452,36061
29.76265,35483
29.77077,33995
29.77890,36903
29.78702,36316
29.79513,34704
29.80327,35899
29.81138,35816
29.81952,35010
29.82763,34627
29.83575,36380
29.84388,37616
29.85200,46901
29.86013,53740
29.86825,74422
29.87637,104990
29.88450,149608
29.89262,203244
29.90073,266685
29.90887,330726
29.91698,416634
29.92512,452866
29.93323,507659
29.94135,529335
29.94948,549539
29.95760,575783
29.96573,551099
29.97385,523921
29.98197,486426
29.99010,455204
29.99822,430510
30.00635,385097
30.01447,346560
30.02258,322018
30.03072,308273
30.03883,277677
30.04695,262559
30.05508,239671
30.06320,237348
30.07133,230630
30.07945,206484
30.08757,198074
30.09570,185645
30.10382,170863
30.11195,164433
30.12007,151079
30.12818,140774
30.13632,133500
30.14443,129266
30.15255,111703
30.16068,112320
30.16880,102849
30.17693,91076
30.18505,86354
30.19317,89654
30.20130,87652
30.20942,79737
30.21755,76523
30.22567,73847
30.23378,73109
30.24192,64314
30.25003,72317
30.25817,62512
30.26628,66777
30.27440,63642
30.28253,60232
30.29065,58670
30.29877,57882
30.30690,60999
30.31502,57910
30.32315,56634
30.33127,53734
30.33938,50386
30.34752,56717
30.35563,49901
30.36377,53095
30.37188,52519
30.38000,47905
30.38813,51270
30.39625,46107
30.40437,45382
30.41250,46258
30.42062,49347
30.42875,51113
30.43687,50820
30.44498,46959
30.45312,47786
30.46123,45349
30.46937,44857
30.47748,47347
30.48560,47794
30.49373,46729
30.50185,43111
30.50998,43948
30.51810,43944
30.52622,42209
30.53435,45633
30.54247,41659
30.55058,41500
30.55872,42289
30.56683,40161
30.57497,39118
30.58308,42942
30.59120,38082
30.59933,43773
30.60745,40791
30.61558,39037
30.62370,38801
30.63182,45359
30.63995,42605
30.64807,38076
30.65620,37684
30.66432,38032
30.67243,39801
30.68057,40709
30.68868,38110
30.69680,37410
30.70493,41558
30.71305,39175
30.72118,40893
30.72930,43716
30.73742,38983
30.74555,38996
30.75367,37880
30.76180,37910
30.76992,39655
30.77803,41154
30.78617,37243
30.79428,40709
30.80240,38974
30.81053,39390
30.81865,36867
30.82678,38112
30.83490,39439
30.84302,41075
30.85115,35444
30.85927,36479
30.86740,37870
30.87552,35345
30.88363,37267
30.89177,34842
30.89988,38941
30.90802,39993
30.91613,36164
30.92425,37293
30.93238,36142
30.94050,35603
30.94862,34012
30.95675,35298
30.96487,35297
30.97300,34008
30.98112,34850
30.98923,34407
30.99737,34021
31.00548,37670
31.01362,37715
31.02173,33098
31.02985,35619
31.03798,34062
31.04610,36144
31.05423,38037
31.06235,37724
31.07047,43567
31.07860,50895
31.08672,54423
31.09483,61644
31.10297,60380
31.11108,58897
31.11922,57333
31.12733,53579
31.13545,44736
31.14358,45304
31.15170,46960
31.15983,51208
31.16795,49314
31.17607,52750
31.18420,50064
31.19232,52363
31.20043,55128
31.20857,56482
31.21668,53966
31.22482,53595
31.23293,46428
31.24105,45548
31.24918,47187
31.25730,38565
31.26543,38490
31.27355,37284
31.28167,39346
31.28980,37150
31.29792,42694
31.30605,43585
31.31417,47892
31.32228,46747
31.33042,50081
31.33853,50669
31.34665,46144
31.35478,44172
31.36290,42052
31.37103,36808
31.37915,37777
31.38727,37845
31.39540,34444
31.40352,38437
31.41165,38458
31.41977,38334
31.42788,35667
31.43602,36043
31.44413,36611
31.45225,37527
31.46038,34409
31.46850,35831
31.47663,39446
31.48475,32698
31.49287,33429
31.50100,34619
31.50912,34707
31.51725,35225
31.52537,34589
31.53348,32300
31.54162,33434
31.54973,39017
31.55787,33081
31.56598,31304
31.57410,30304
31.58223,34838
31.59035,34131
31.59847,34006
31.60660,33723
31.61472,35638
31.62285,33620
31.63097,34893
31.63908,34944
31.64722,33971
31.65533,32929
31.66347,34058
31.67158,33853
31.67970,35968
31.68783,33994
31.69595,32614
31.70408,32839
31.71220,30528
31.72032,34245
31.72845,30460
31.73657,31879
31.74468,34404
31.75282,35154
31.76093,31536
31.76907,33146
31.77718,37489
31.78530,32986
31.79343,36838
31.80155,41593
31.80968,53275
31.81780,68147
31.82592,93506
31.83405,118657
31.84217,158059
31.85030,203955
31.85842,236676
31.86653,275057
31.87467,290009
31.88278,294487
31.89090,312451
31.89903,297879
31.90715,282476
31.91528,270682
31.92340,246696
31.93152,232276
31.93965,226642
31.94777,212174
31.95590,196795
31.96402,192144
31.97213,194294
31.98027,186418
31.98838,175265
31.99650,161073
32.00463,144562
32.01275,130260
32.02088,106714
32.02900,102592
32.03712,89159
32.04525,88329
32.05337,84877
32.06150,77876
32.06962,72795
32.07773,69163
32.08587,71706
32.09398,57687
32.10212,60224
32.11023,57982
32.11835,56856
32.12648,54711
32.13460,54288
32.14272,52565
32.15085,52483
32.15897,51749
32.16710,49836
32.17522,46804
32.18333,46860
32.19147,44250
32.19958,48952
32.20772,43011
32.21583,46396
32.22395,44354
32.23208,44582
32.24020,41830
32.24832,45049
32.25645,43296
32.26457,45854
32.27270,42721
32.28082,43931
32.28893,38229
32.29707,40885
32.30518,49194
32.31332,42330
32.32143,37620
32.32955,41229
32.33768,42296
32.34580,44074
32.35393,46570
32.36205,41684
32.37017,42255
32.37830,42759
32.38642,39396
32.39453,38411
32.40267,36355
32.41078,37816
32.41892,41935
32.42703,40574
32.43515,37487
32.44328,38675
32.45140,38124
32.45953,40839
32.46765,36291
32.47577,37906
32.48390,37309
32.49202,35958
32.50013,37836
32.50827,37531
32.51638,36637
32.52452,36909
32.53263,37345
32.54075,38867
32.54888,43205
32.55700,47335
32.56513,53902
32.57325,63627
32.58137,64201
32.58950,67075
32.59762,64142
32.60575,56995
32.61387,50632
32.62198,42259
32.63012,39390
32.63823,44269
32.64635,41085
32.65448,42080
32.66260,42130
32.67073,37677
32.67885,36206
32.68697,39979
32.69510,39104
32.70322,37702
32.71135,38758
32.71947,40316
32.72758,41070
32.73572,39300
32.74383,41571
32.75197,40705
32.76008,38490
32.76820,36611
32.77633,34673
32.78445,34278
32.79257,36747
32.80070,35820
32.80882,32885
32.81695,34690
32.82507,38748
32.83318,37477
32.84132,37855
32.84943,35718
32.85757,38789
32.86568,33552
32.87380,36763
32.88193,31897
32.89005,33251
32.89818,34420
32.90630,35948
32.91442,37593
32.92255,35558
32.93067,31816
32.93878,37815
32.94692,36805
32.95503,37283
32.96317,32399
32.97128,35171
32.97940,33625
32.98753,36389
32.99565,33578
33.00378,36847
33.01190,34190
33.02002,36454
33.02815,37531
33.03627,36222
33.04438,35495
33.05252,31483
33.06063,35702
33.06877,33853
33.07688,38314
33.08500,43155
33.09313,47904
33.10125,56526
33.10938,57666
33.11750,57443
33.12562,56583
33.13375,52823
33.14187,52762
33.15000,44045
33.15812,43832
33.16623,38877
33.17437,39704
33.18248,39284
33.19060,34212
33.19873,37619
33.20685,38430
33.21498,37503
33.22310,36222
33.23122,34283
33.23935,33192
33.24747,33304
33.25560,37996
33.26372,34946
33.27183,35432
33.27997,32904
33.28808,33974
33.29620,34620
33.30433,34875
33.31245,36927
33.32058,38453
33.32870,34840
33.33682,32700
33.34495,35926
33.35307,35254
33.36120,37271
33.36932,36285
33.37743,35867
33.38557,32706
33.39368,37331
33.40182,37517
33.40993,35878
33.41805,36531
33.42618,34990
33.43430,34515
33.44242,33153
33.45055,32611
33.45867,34066
33.46680,34338
33.47492,33836
33.48303,33975
33.49117,37771
33.49928,40060
33.50742,33319
33.51553,30830
33.52365,33667
33.53178,38024
33.53990,34778
33.54803,34037
33.55615,35229
33.56427,33519
33.57240,34244
33.58052,33764
33.58863,32834
33.59677,31233
33.60488,37871
33.61302,37112
33.62113,39511
33.62925,36351
33.63738,31392
33.64550,35799
33.65363,33750
33.66175,35395
33.66987,33981
33.67800,35110
33.68612,33525
33.69423,37721
33.70237,32918
33.71048,34061
33.71862,37182
33.72673,35165
33.73485,35460
33.74298,40724
33.75110,41322
33.75923,42431
33.76735,44152
33.77547,39829
33.78360,39738
33.79172,37970
33.79985,35905
33.80797,38461
33.81608,37866
33.82422,35168
33.83233,38774
33.84045,37859
33.84858,45678
33.85670,35437
33.86483,35814
33.87295,34761
33.88107,36638
33.88920,37661
33.89732,37406
33.90545,38573
33.91357,35927
33.92168,34549
33.92982,37851
33.93793,32700
33.94607,33311
33.95418,38564
33.96230,32412
33.97043,35023
33.97855,37633
33.98667,33469
33.99480,35839
34.00292,30111
34.01105,35457
34.01917,35091
34.02728,34014
34.03542,35272
34.04353,32853
34.05167,34514
34.05978,33957
34.06790,34154
34.07603,33193
34.08415,32556
34.09227,34874
34.10040,38029
34.10852,35699
34.11665,35482
34.12477,32665
34.13288,31614
34.14102,34031
34.14913,34210
34.15727,37163
34.16538,34606
34.17350,33481
34.18163,39040
34.18975,33609
34.19788,34039
34.20600,35668
34.21412,35148
34.22225,33464
34.23037,34710
34.23848,33208
34.24662,37497
34.25473,32536
34.26287,33844
34.27098,38887
34.27910,35514
34.28723,33547
34.29535,34070
34.30348,37916
34.31160,30968
34.31972,36316
34.32785,37617
34.33597,36401
34.34408,34795
34.35222,35376
34.36033,31576
34.36847,36062
34.37658,35659
34.38470,35658
34.39283,35505
34.40095,36558
34.40908,37641
34.41720,43075
34.42532,69693
34.43345,95110
34.44157,124040
34.44970,170805
34.45782,217630
34.46593,253399
34.47407,272640
34.48218,269605
34.49030,262977
34.49843,238956
34.50655,218254
34.51468,185535
34.52280,154752
34.53092,137268
34.53905,117209
34.54717,101211
34.55530,93510
34.56342,86046
34.57153,79759
34.57967,73130
34.58778,69561
34.59592,64366
34.60403,65497
34.61215,62558
34.62028,68479
34.62840,64644
34.63652,61380
34.64465,61669
34.65277,56727
34.66090,55455
34.66902,52373
34.67713,51210
34.68527,49414
34.69338,50087
34.70152,50246
34.70963,44981
34.71775,45233
34.72588,44776
34.73400,47554
34.74212,50545
34.75025,49552
34.75837,49007
34.76650,45224
34.77462,46219
34.78273,44170
34.79087,43105
34.79898,42525
34.80712,43918
34.81523,42203
34.82335,41281
34.83148,42144
34.83960,43051
34.84773,49311
34.85585,50309
34.86397,47911
34.87210,47187
34.88022,48718
34.88833,45642
34.89647,45054
34.90458,40738
34.91272,46783
34.92083,43119
34.92895,42476
34.93708,41687
34.94520,43655
34.95333,38010
34.96145,42413
34.96957,44308
34.97770,42024
34.98582,40330
34.99395,38454
35.00207,40669
35.01018,42892
35.01832,43891
35.02643,41713
35.03455,42930
35.04268,48979
35.05080,51060
35.05893,53452
35.06705,53570
35.07517,54401
35.08330,54780
35.09142,47529
35.09955,47737
35.10767,46399
35.11578,39199
35.12392,40943
35.13203,40856
35.14015,42406
35.14828,41059
35.15640,40777
35.16453,39852
35.17265,40277
35.18077,42023
35.18890,40462
35.19702,42613
35.20515,41992
35.21327,44379
35.22138,39099
35.22952,42320
35.23763,40561
35.24577,38168
35.25388,40514
35.26200,47415
35.27013,41097
35.27825,40138
35.28637,47738
35.29450,40518
35.30262,43642
35.31075,41153
35.31887,38350
35.32698,39057
35.33512,38944
35.34323,39184
35.35137,37838
35.35948,39520
35.36760,37463
35.37573,38745
35.38385,36337
35.39198,40423
35.40010,39683
35.40822,43459
35.41635,37954
35.42447,39694
35.43258,46054
35.44072,41973
35.44883,41829
35.45697,45347
35.46508,49239
35.47320,47193
35.48133,42947
35.48945,39991
35.49758,42012
35.50570,41720
35.51382,47248
35.52195,42267
35.53007,42898
35.53818,43391
35.54632,51101
35.55443,52062
35.56257,63413
35.57068,71476
35.57880,74618
35.58693,78520
35.59505,71668
35.60318,65832
35.61130,59218
35.61942,52934
35.62755,50402
35.63567,49632
35.64380,45801
35.65192,55753
35.66003,43871
35.66817,45709
35.67628,44994
35.68440,43830
35.69253,45104
35.70065,44847
35.70878,47435
35.71690,44684
35.72502,42119
35.73315,41638
35.74127,42515
35.74940,40918
35.75752,46738
35.76563,40191
35.77377,44720
35.78188,43152
35.79000,45788
35.79813,49634
35.80625,45639
35.81438,48605
35.82250,46206
35.83062,48017
35.83875,48838
35.84687,45056
35.85500,43746
35.86312,44319
35.87123,44702
35.87937,43586
35.88748,41343
35.89562,43074
35.90373,40243
35.91185,41646
35.91998,42379
35.92810,41184
35.93622,41192
35.94435,39770
35.95247,41911
35.96060,42701
35.96872,49927
35.97683,42922
35.98497,43173
35.99308,45608
36.00122,41641
36.00933,44161
36.01745,46452
36.02558,46183
36.03370,46255
36.04183,44581
36.04995,47686
36.05807,46978
36.06620,44269
36.07432,44901
36.08243,42839
36.09057,44414
36.09868,44933
36.10682,44332
36.11493,43916
36.12305,43916
36.13118,43223
36.13930,44087
36.14743,42933
36.15555,41775
36.16367,43808
36.17180,43128
36.17992,43931
36.18803,42158
36.19617,52297
36.20428,57590
36.21242,68981
36.22053,74294
36.22865,80151
36.23678,81348
36.24490,72605
36.25303,63499
36.26115,55896
36.26927,52050
36.27740,47740
36.28552,50927
36.29365,49346
36.30177,49115
36.30988,50540
36.31802,45992
36.32613,44988
36.33425,43235
36.34238,43213
36.35050,46763
36.35863,45857
36.36675,49298
36.37487,50470
36.38300,46698
36.39112,49977
36.39925,48110
36.40737,48126
36.41548,46911
36.42362,43651
36.43173,47379
36.43987,42917
36.44798,44140
36.45610,47505
36.46423,46348
36.47235,43674
36.48047,45257
36.48860,40140
36.49672,42544
36.50485,44546
36.51297,46689
36.52108,42259
36.52922,46997
36.53733,44967
36.54547,50464
36.55358,54866
36.56170,59038
36.56983,57759
36.57795,55241
36.58607,49926
36.59420,46010
36.60232,50846
36.61045,49038
36.61857,44575
36.62668,43124
36.63482,44393
36.64293,44692
36.65107,46082
36.65918,40820
36.66730,46208
36.67543,48360
36.68355,42303
36.69168,46062
36.69980,45517
36.70792,43582
36.71605,43065
36.72417,41096
36.73228,45885
36.74042,41021
36.74853,45640
36.75667,42563
36.76478,46247
36.77290,45582
36.78103,43662
36.78915,48624
36.79728,47685
36.80540,49648
36.81352,43818
36.82165,46295
36.82977,41768
36.83788,44123
36.84602,43858
36.85413,45188
36.86227,45079
36.87038,41995
36.87850,45543
36.88663,43737
36.89475,45495
36.90288,45163
36.91100,46665
36.91912,43214
36.92725,48121
36.93537,45416
36.94350,47107
36.95162,42858
36.95973,47749
36.96787,49260
36.97598,46520
36.98410,45028
36.99223,50150
37.00035,46371
37.00848,49258
37.01660,43483
37.02472,47406
37.03285,45638
37.04097,44419
37.04910,48968
37.05722,46203
37.06533,45995
37.07347,49807
37.08158,52902
37.08972,54897
37.09783,55197
37.10595,52598
37.11408,54913
37.12220,51994
37.13032,47344
37.13845,50831
37.14657,49769
37.15470,45683
37.16282,49623
37.17093,51075
37.17907,48291
37.18718,50397
37.19532,50458
37.20343,53762
37.21155,58041
37.21968,67348
37.22780,92404
37.23593,120103
37.24405,159119
37.25217,206952
37.26030,259309
37.26842,262940
37.27653,245586
37.28467,227931
37.29278,198193
37.30092,176082
37.30903,141018
37.31715,119302
37.32528,109711
37.33340,98643
37.34153,90691
37.34965,82515
37.35777,80253
37.36590,81250
37.37402,78295
37.38213,74670
37.39027,72115
37.39838,67300
37.40652,66757
37.41463,67416
37.42275,59273
37.43088,64960
37.43900,67505
37.44713,61477
37.45525,61570
37.46337,60014
37.47150,59629
37.47962,60196
37.48775,61981
