C:\MassHunter\GCMS\1\data\JTB-E02\BACandBLUE\JTB-E18-009-09.D Thu May 16 11:33:43 2019
Start of data points
2.09537,51364
2.10350,52536
2.11162,55780
2.11973,54147
2.12787,48999
2.13598,55256
2.14412,52005
2.15223,52083
2.16035,50525
2.16848,49465
2.17660,54449
2.18473,47973
2.19285,48345
2.20097,47267
2.20910,48481
2.21722,47788
2.22535,43143
2.23347,43662
2.24158,48264
2.24972,45955
2.25783,41650
2.26595,46284
2.27408,157268
2.28220,987180
2.29033,1182374
2.29845,465987
2.30657,269762
2.31470,216097
2.32282,190164
2.33095,169373
2.33907,164318
2.34718,147292
2.35532,139212
2.36343,125132
2.37157,117667
2.37968,115625
2.38780,104590
2.39593,103379
2.40405,105969
2.41217,102119
2.42030,96044
2.42842,98472
2.43655,101856
2.44467,94900
2.45278,101268
2.46092,99140
2.46903,95041
2.47717,92798
2.48528,92246
2.49340,96618
2.50153,132457
2.50965,102009
2.51777,93278
2.52590,98185
2.53402,88641
2.54215,89719
2.55027,90557
2.55838,109477
2.56652,151552
2.57463,150645
2.58277,123743
2.59088,115321
2.59900,107558
2.60713,170510
2.61525,687073
2.62338,1014654
2.63150,603731
2.63962,336756
2.64775,245624
2.65587,199530
2.66398,169567
2.67212,146888
2.68023,133464
2.68837,123173
2.69648,116372
2.70460,111469
2.71273,106492
2.72085,104995
2.72898,102271
2.73710,95042
2.74522,95737
2.75335,91061
2.76147,92905
2.76958,91625
2.77772,111583
2.78583,384818
2.79397,984683
2.80208,840596
2.81020,452982
2.81833,328592
2.82645,301096
2.83458,252439
2.84270,210589
2.85082,177832
2.85895,166553
2.86707,152448
2.87520,141678
2.88332,131742
2.89143,127144
2.89957,119556
2.90768,118998
2.91580,111040
2.92393,112995
2.93205,102194
2.94018,100927
2.94830,101496
2.95642,102906
2.96455,120219
2.97267,138659
2.98080,122756
2.98892,109958
2.99703,109648
3.00517,110302
3.01328,107642
3.02142,99839
3.02953,96889
3.03765,96136
3.04578,96025
3.05390,92411
3.06202,96871
3.07015,93393
3.07827,108324
3.08640,338217
3.09452,1564930
3.10263,3153796
3.11077,4026050
3.11888,4344730
3.12702,3048239
3.13513,1791089
3.14325,1285675
3.15138,1029485
3.15950,840130
3.16763,709170
3.17575,652563
3.18387,635581
3.19200,974279
3.20012,1731275
3.20823,1738425
3.21637,1196453
3.22448,867838
3.23262,724349
3.24073,631375
3.24885,535017
3.25698,479502
3.26510,427484
3.27323,387465
3.28135,370637
3.28947,421805
3.29760,907914
3.30572,2642728
3.31383,4989036
3.32197,5522519
3.33008,4103742
3.33822,2523576
3.34633,1706518
3.35445,1327205
3.36258,1086840
3.37070,940336
3.37883,813811
3.38695,729665
3.39507,674772
3.40320,616374
3.41132,587677
3.41945,546802
3.42757,533184
3.43568,508371
3.44382,504794
3.45193,479325
3.46005,454137
3.46818,447271
3.47630,437293
3.48443,434645
3.49255,419443
3.50067,395349
3.50880,385833
3.51692,373959
3.52505,370143
3.53317,368542
3.54128,378583
3.54942,391704
3.55753,373211
3.56565,374432
3.57378,525433
3.58190,774767
3.59003,784493
3.59815,593028
3.60627,483911
3.61440,423990
3.62252,406107
3.63065,403472
3.63877,390254
3.64688,377135
3.65502,366353
3.66313,527670
3.67127,2411737
3.67938,9203790
3.68750,1.649417E+07
3.69563,1.492306E+07
3.70375,8735556
3.71187,5173364
3.72000,3828242
3.72812,3129378
3.73625,2690584
3.74437,2329082
3.75248,2090934
3.76062,1872086
3.76873,1730370
3.77687,1566067
3.78498,1452634
3.79310,1364039
3.80123,1316568
3.80935,1467818
3.81748,2103034
3.82560,2584684
3.83372,2243812
3.84185,1672333
3.84997,1377383
3.85808,1216904
3.86622,1121507
3.87433,1027695
3.88247,970066
3.89058,934545
3.89870,881423
3.90683,849219
3.91495,817721
3.92308,878563
3.93120,1012896
3.93932,1089084
3.94745,1066309
3.95557,1525488
3.96368,3328330
3.97182,5779271
3.97993,6041818
3.98807,4184045
3.99618,2923051
4.00430,4989136
4.01243,1.333085E+07
4.02055,2.297589E+07
4.02868,2.404795E+07
4.03680,1.652956E+07
4.04492,8555290
4.05305,4942582
4.06117,3385030
4.06930,2613139
4.07742,2163916
4.08553,1843703
4.09367,1583274
4.10178,1427419
4.10990,1278539
4.11803,1183002
4.12615,1091157
4.13428,1001440
4.14240,972379
4.15052,940110
4.15865,930060
4.16677,876537
4.17490,833317
4.18302,807091
4.19113,780689
4.19927,737179
4.20738,778535
4.21552,1366145
4.22363,4197423
4.23175,1.013993E+07
4.23988,1.543257E+07
4.24800,1.588203E+07
4.25612,1.154454E+07
4.26425,7043455
4.27237,4812789
4.28050,3565546
4.28862,2786123
4.29673,2307354
4.30487,1926138
4.31298,1646235
4.32112,1468705
4.32923,1321068
4.33735,1200774
4.34548,1115522
4.35360,1056617
4.36172,1053044
4.36985,1050321
4.37797,1037173
4.38610,963947
4.39422,877989
4.40233,815971
4.41047,763804
4.41858,728130
4.42672,699491
4.43483,681625
4.44295,658437
4.45108,636132
4.45920,626010
4.46733,601943
4.47545,586780
4.48357,554657
4.49170,553274
4.49982,543731
4.50793,540285
4.51607,517963
4.52418,512241
4.53232,485951
4.54043,494400
4.54855,479295
4.55668,495173
4.56480,496614
4.57293,477165
4.58105,453500
4.58917,431129
4.59730,430221
4.60542,420627
4.61353,418709
4.62167,435035
4.62978,497582
4.63792,656802
4.64603,864387
4.65415,914076
4.66228,787124
4.67040,621441
4.67853,533435
4.68665,504833
4.69477,480931
4.70290,453047
4.71102,424623
4.71915,401315
4.72727,388259
4.73538,377070
4.74352,372383
4.75163,372181
4.75975,355497
4.76788,344847
4.77600,347917
4.78413,343895
4.79225,362566
4.80037,409269
4.80850,493817
4.81662,517901
4.82475,486215
4.83287,423654
4.84098,422337
4.84912,443749
4.85723,474253
4.86537,475912
4.87348,443477
4.88160,413742
4.88973,380995
4.89785,355789
4.90597,337903
4.91410,315011
4.92222,309921
4.93035,321366
4.93847,396849
4.94658,678570
4.95472,1318515
4.96283,2196842
4.97097,2772975
4.97908,2645766
4.98720,1991304
4.99533,1378536
5.00345,993409
5.01157,785246
5.01970,695439
5.02782,655367
5.03595,708498
5.04407,807511
5.05218,831633
5.06032,765038
5.06843,660128
5.07657,585206
5.08468,533012
5.09280,509064
5.10093,492492
5.10905,486766
5.11718,455592
5.12530,443151
5.13342,428951
5.14155,432006
5.14967,426280
5.15778,461789
5.16592,532382
5.17403,593808
5.18217,601608
5.19028,541533
5.19840,500001
5.20653,511298
5.21465,530479
5.22278,534363
5.23090,514276
5.23902,480419
5.24715,450437
5.25527,424292
5.26340,399244
5.27152,367927
5.27963,361963
5.28777,344975
5.29588,342543
5.30400,330676
5.31213,316202
5.32025,330241
5.32838,327609
5.33650,328634
5.34462,350040
5.35275,344635
5.36087,335844
5.36900,333658
5.37712,317088
5.38523,320799
5.39337,317368
5.40148,329998
5.40960,341579
5.41773,338391
5.42585,325874
5.43398,304727
5.44210,306829
5.45022,316867
5.45835,327081
5.46647,341760
5.47460,331205
5.48272,316558
5.49083,292150
5.49897,283502
5.50708,275827
5.51522,269013
5.52333,277151
5.53145,284918
5.53958,270930
5.54770,278316
5.55582,290656
5.56395,351018
5.57207,472978
5.58020,568343
5.58832,578540
5.59643,497359
5.60457,398943
5.61268,340003
5.62082,307219
5.62893,285986
5.63705,281588
5.64518,293491
5.65330,279546
5.66143,276331
5.66955,271582
5.67767,270853
5.68580,295833
5.69392,325914
5.70203,330400
5.71017,324111
5.71828,305371
5.72642,278981
5.73453,270655
5.74265,256588
5.75078,250358
5.75890,248959
5.76703,241231
5.77515,241350
5.78327,239857
5.79140,240121
5.79952,228579
5.80763,229929
5.81577,230289
5.82388,236932
5.83202,223746
5.84013,230424
5.84825,227994
5.85638,222722
5.86450,228779
5.87263,224909
5.88075,215455
5.88887,219382
5.89700,225030
5.90512,216938
5.91325,191692
5.92137,179329
5.92948,176417
5.93762,179813
5.94573,176450
5.95385,194594
5.96198,219319
5.97010,243622
5.97823,280680
5.98635,338447
5.99447,385032
6.00260,382624
6.01072,336132
6.01885,281509
6.02697,233586
6.03508,198639
6.04322,185465
6.05133,178792
6.05945,170096
6.06758,164007
6.07570,166845
6.08383,161905
6.09195,157537
6.10007,161600
6.10820,157614
6.11632,158595
6.12445,179250
6.13257,235360
6.14068,366209
6.14882,527846
6.15693,615211
6.16507,525914
6.17318,392922
6.18130,302962
6.18943,254619
6.19755,231793
6.20567,209429
6.21380,204561
6.22192,190561
6.23005,188762
6.23817,189550
6.24628,195965
6.25442,196584
6.26253,205704
6.27067,204721
6.27878,208414
6.28690,199228
6.29503,188317
6.30315,182893
6.31128,186798
6.31940,182146
6.32752,192236
6.33565,216130
6.34377,235289
6.35188,246960
6.36002,228995
6.36813,209623
6.37627,187977
6.38438,189564
6.39250,188769
6.40063,182324
6.40875,182682
6.41688,176989
6.42500,180421
6.43312,174865
6.44125,178965
6.44937,178098
6.45748,172999
6.46562,186074
6.47373,186071
6.48187,174717
6.48998,186613
6.49810,187222
6.50623,185425
6.51435,179100
6.52248,185910
6.53060,186477
6.53872,187027
6.54685,187780
6.55497,184052
6.56310,197903
6.57122,232582
6.57933,299803
6.58747,359561
6.59558,371351
6.60370,322403
6.61183,263502
6.61995,224125
6.62808,216684
6.63620,196742
6.64432,210806
6.65245,210489
6.66057,277770
6.66870,405480
6.67682,527220
6.68493,556085
6.69307,459274
6.70118,354919
6.70932,280723
6.71743,255951
6.72555,234060
6.73368,224586
6.74180,222512
6.74992,219999
6.75805,212590
6.76617,194511
6.77430,186230
6.78242,181938
6.79053,177904
6.79867,175504
6.80678,168478
6.81492,158161
6.82303,152132
6.83115,150506
6.83928,153750
6.84740,176374
6.85552,220784
6.86365,287046
6.87177,319454
6.87990,309986
6.88802,239831
6.89613,176388
6.90427,133646
6.91238,109832
6.92052,107047
6.92863,96075
6.93675,93859
6.94488,92312
6.95300,96873
6.96113,99461
6.96925,102164
6.97737,119067
6.98550,129039
6.99362,130420
7.00173,126848
7.00987,114421
7.01798,94894
7.02612,91871
7.03423,88009
7.04235,97513
7.05048,100853
7.05860,110205
7.06673,118644
7.07485,116300
7.08297,113372
7.09110,103101
7.09922,95617
7.10733,83302
7.11547,83506
7.12358,81986
7.13172,82053
7.13983,89859
7.14795,111872
7.15608,155732
7.16420,213588
7.17233,246695
7.18045,233827
7.18857,189847
7.19670,146201
7.20482,124651
7.21295,160767
7.22107,331576
7.22918,815930
7.23732,1656001
7.24543,2336583
7.25355,2335851
7.26168,1701658
7.26980,1028487
7.27793,622639
7.28605,425266
7.29417,333581
7.30230,250694
7.31042,164966
7.31855,135468
7.32667,126915
7.33478,120681
7.34292,116831
7.35103,105999
7.35917,103191
7.36728,100198
7.37540,97402
7.38353,95065
7.39165,100371
7.39977,97535
7.40790,90387
7.41602,94842
7.42415,89360
7.43227,88696
7.44038,83050
7.44852,92452
7.45663,87038
7.46477,88439
7.47288,91454
7.48100,87437
7.48913,86772
7.49725,84349
7.50538,83170
7.51350,96604
7.52162,137693
7.52975,232327
7.53787,410199
7.54598,650365
7.55412,899697
7.56223,1053730
7.57037,1009557
7.57848,840062
7.58660,629334
7.59473,421551
7.60285,280179
7.61098,203689
7.61910,161666
7.62722,136498
7.63535,118359
7.64347,110415
7.65158,100721
7.65972,94582
7.66783,89224
7.67597,85409
7.68408,83590
7.69220,81854
7.70033,87207
7.70845,85847
7.71658,82007
7.72470,84308
7.73282,79528
7.74095,75583
7.74907,82529
7.75720,78698
7.76532,76751
7.77343,85650
7.78157,90029
7.78968,92070
7.79780,95889
7.80593,113226
7.81405,121236
7.82218,122385
7.83030,115493
7.83842,100938
7.84655,94439
7.85467,88786
7.86280,95566
7.87092,103885
7.87903,122843
7.88717,130748
7.89528,127925
7.90340,120171
7.91153,108579
7.91965,95267
7.92778,92071
7.93590,107116
7.94402,117370
7.95215,135466
7.96027,136288
7.96840,121572
7.97652,115623
7.98463,97037
7.99277,84302
8.00088,78524
8.00902,73718
8.01713,77569
8.02525,81331
8.03338,77370
8.04150,79022
8.04962,75086
8.05775,74051
8.06587,71012
8.07400,73272
8.08212,69413
8.09023,66450
8.09837,65520
8.10648,60160
8.11462,63277
8.12273,62488
8.13085,70765
8.13898,76712
8.14710,88516
8.15523,103449
8.16335,105465
8.17147,98567
8.17960,88329
8.18772,75942
8.19583,74812
8.20397,68251
8.21208,71121
8.22022,67203
8.22833,65811
8.23645,64423
8.24458,62651
8.25270,63527
8.26083,63474
8.26895,63072
8.27707,60471
8.28520,58347
8.29332,62204
8.30143,63409
8.30957,72381
8.31768,68987
8.32582,70228
8.33393,71861
8.34205,68585
8.35018,65320
8.35830,60760
8.36643,59404
8.37455,61493
8.38267,58461
8.39080,59112
8.39892,60495
8.40705,58890
8.41517,54784
8.42328,56211
8.43142,54716
8.43953,54440
8.44765,58294
8.45578,61178
8.46390,54291
8.47203,53826
8.48015,51296
8.48827,53168
8.49640,53874
8.50452,55204
8.51265,57744
8.52077,56704
8.52888,69055
8.53702,110446
8.54513,182397
8.55327,267196
8.56138,305811
8.56950,280084
8.57763,214035
8.58575,148190
8.59387,102547
8.60200,82875
8.61012,81184
8.61825,78578
8.62637,75755
8.63448,69845
8.64262,69495
8.65073,67875
8.65887,65297
8.66698,64774
8.67510,61763
8.68323,61688
8.69135,60938
8.69947,65900
8.70760,65898
8.71572,61548
8.72385,64199
8.73197,57976
8.74008,64049
8.74822,69030
8.75633,107040
8.76447,226017
8.77258,466328
8.78070,868753
8.78883,1226720
8.79695,1373714
8.80508,1158975
8.81320,797348
8.82132,490301
8.82945,303716
8.83757,218125
8.84568,181506
8.85382,183294
8.86193,179630
8.87007,180378
8.87818,165881
8.88630,168074
8.89443,152372
8.90255,150470
8.91068,141446
8.91880,138893
8.92692,135455
8.93505,147537
8.94317,165851
8.95128,185918
8.95942,194065
8.96753,188216
8.97567,168797
8.98378,166611
8.99190,160313
9.00003,161686
9.00815,151458
9.01628,138759
9.02440,122771
9.03252,119937
9.04065,113538
9.04877,107992
9.05690,104402
9.06502,109667
9.07313,98506
9.08127,106133
9.08938,110011
9.09750,107462
9.10563,130162
9.11375,157259
9.12188,174855
9.13000,172471
9.13812,167417
9.14625,139679
9.15437,119292
9.16250,116662
9.17062,109838
9.17873,98969
9.18687,96371
9.19498,101032
9.20312,94354
9.21123,92863
9.21935,94359
9.22748,98751
9.23560,96668
9.24372,94088
9.25185,96688
9.25997,95500
9.26810,90755
9.27622,90275
9.28433,82625
9.29247,86046
9.30058,79564
9.30872,83106
9.31683,80930
9.32495,82066
9.33308,82855
9.34120,81638
9.34932,83983
9.35745,79201
9.36557,83339
9.37370,83838
9.38182,80860
9.38993,85421
9.39807,91024
9.40618,96093
9.41432,98150
9.42243,113288
9.43055,130891
9.43868,140303
9.44680,147570
9.45493,141490
9.46305,127228
9.47117,110377
9.47930,95638
9.48742,82722
9.49553,81992
9.50367,83336
9.51178,85837
9.51992,97107
9.52803,104708
9.53615,107126
9.54428,102775
9.55240,90798
9.56053,84318
9.56865,80322
9.57677,79604
9.58490,87424
9.59302,92273
9.60115,92802
9.60927,84535
9.61738,77465
9.62552,65199
9.63363,61009
9.64175,62708
9.64988,62040
9.65800,53165
9.66613,56867
9.67425,52591
9.68237,52478
9.69050,52155
9.69862,46878
9.70675,49453
9.71487,50246
9.72298,49922
9.73112,49153
9.73923,48496
9.74735,46237
9.75548,45675
9.76360,44900
9.77173,43789
9.77985,44030
9.78797,43481
9.79610,43884
9.80422,47035
9.81235,44373
9.82047,41710
9.82858,44291
9.83672,47706
9.84483,41932
9.85297,42105
9.86108,46954
9.86920,47978
9.87733,48044
9.88545,55455
9.89357,47888
9.90170,49424
9.90982,46430
9.91795,53660
9.92607,63348
9.93418,90767
9.94232,152981
9.95043,239277
9.95857,328580
9.96668,360352
9.97480,336529
9.98293,248834
9.99105,186449
9.99917,135337
10.00730,107569
10.01542,96504
10.02355,83589
10.03167,80634
10.03978,78183
10.04792,70761
10.05603,67798
10.06417,72671
10.07228,70181
10.08040,65916
10.08853,67213
10.09665,69343
10.10478,64541
10.11290,63366
10.12102,67291
10.12915,62805
10.13727,62256
10.14538,59705
10.15352,58294
10.16163,52995
10.16977,58324
10.17788,53490
10.18600,53178
10.19413,54385
10.20225,54574
10.21038,56761
10.21850,54403
10.22662,61080
10.23475,66041
10.24287,65000
10.25100,71645
10.25912,86198
10.26723,142778
10.27537,312012
10.28348,751506
10.29160,1487211
10.29973,2442013
10.30785,3408177
10.31598,4770066
10.32410,6816511
10.33222,9695605
10.34035,1.206488E+07
10.34847,1.263187E+07
10.35660,1.043806E+07
10.36472,6945695
10.37283,3992459
10.38097,2304549
10.38908,1498398
10.39720,990118
10.40533,727429
10.41345,528222
10.42158,424388
10.42970,361878
10.43782,319901
10.44595,306423
10.45407,291525
10.46220,287492
10.47032,271209
10.47843,260083
10.48657,239434
10.49468,229918
10.50282,207704
10.51093,190203
10.51905,190450
10.52718,177965
10.53530,178012
10.54342,173137
10.55155,172153
10.55967,156174
10.56780,162676
10.57592,157779
10.58403,158117
10.59217,152010
10.60028,138625
10.60842,129688
10.61653,128637
10.62465,128137
10.63278,119522
10.64090,119207
10.64903,106305
10.65715,111012
10.66527,110217
10.67340,113897
10.68152,110877
10.68963,108472
10.69777,101305
10.70588,110348
10.71402,106398
10.72213,104637
10.73025,100464
10.73838,98759
10.74650,96897
10.75463,98885
10.76275,92992
10.77087,91178
10.77900,92712
10.78712,87016
10.79523,95727
10.80337,93014
10.81148,94624
10.81962,93797
10.82773,90724
10.83585,90299
10.84398,84634
10.85210,81094
10.86023,78026
10.86835,77984
10.87647,72711
10.88460,71473
10.89272,72974
10.90085,68387
10.90897,69199
10.91708,69540
10.92522,69230
10.93333,67053
10.94145,62765
10.94958,65725
10.95770,64384
10.96583,59754
10.97395,65608
10.98207,65397
10.99020,68268
10.99832,67481
11.00645,69452
11.01457,70255
11.02268,69851
11.03082,63586
11.03893,65326
11.04707,59461
11.05518,60049
11.06330,61267
11.07143,62969
11.07955,69798
11.08767,69761
11.09580,70211
11.10392,68982
11.11205,66021
11.12017,63085
11.12828,59890
11.13642,57100
11.14453,50212
11.15267,52671
11.16078,54946
11.16890,54010
11.17703,50871
11.18515,55099
11.19327,56123
11.20140,58430
11.20952,56228
11.21765,55937
11.22577,54554
11.23388,51083
11.24202,45667
11.25013,47121
11.25827,49046
11.26638,44679
11.27450,43175
11.28263,42190
11.29075,45819
11.29888,56036
11.30700,78846
11.31512,144821
11.32325,267656
11.33137,457065
11.33948,643175
11.34762,753711
11.35573,741598
11.36387,621100
11.37198,441858
11.38010,289210
11.38823,196456
11.39635,146552
11.40448,126630
11.41260,122269
11.42072,122120
11.42885,117569
11.43697,110814
11.44508,103072
11.45322,92600
11.46133,86519
11.46947,86385
11.47758,92969
11.48570,106915
11.49383,138257
11.50195,157379
11.51008,157792
11.51820,155611
11.52632,140705
11.53445,110479
11.54257,100522
11.55070,94342
11.55882,89026
11.56693,88306
11.57507,86628
11.58318,79608
11.59130,83308
11.59943,91108
11.60755,117001
11.61568,150370
11.62380,177653
11.63192,180266
11.64005,165471
11.64817,137108
11.65630,108215
11.66442,88692
11.67253,75254
11.68067,64280
11.68878,65435
11.69692,69955
11.70503,65641
11.71315,67537
11.72128,64753
11.72940,61800
11.73752,61502
11.74565,61104
11.75377,56571
11.76190,57026
11.77002,58107
11.77813,55242
11.78627,55212
11.79438,57797
11.80252,61056
11.81063,49556
11.81875,56418
11.82688,52572
11.83500,50185
11.84312,49775
11.85125,46997
11.85937,47664
11.86750,49620
11.87562,48397
11.88373,47481
11.89187,47337
11.89998,47042
11.90812,46589
11.91623,50958
11.92435,49767
11.93248,52554
11.94060,61443
11.94873,56607
11.95685,56490
11.96497,47535
11.97310,45761
11.98122,50731
11.98933,57247
11.99747,66438
12.00558,87121
12.01372,101777
12.02183,114734
12.02995,103546
12.03808,89498
12.04620,79243
12.05433,65075
12.06245,63472
12.07057,57256
12.07870,53865
12.08682,52167
12.09495,57516
12.10307,61887
12.11118,73138
12.11932,92774
12.12743,122622
12.13555,150878
12.14368,163408
12.15180,149061
12.15993,128784
12.16805,95336
12.17617,71371
12.18430,61853
12.19242,60692
12.20055,58838
12.20867,60412
12.21678,63839
12.22492,59765
12.23303,61717
12.24115,60351
12.24928,57317
12.25740,61379
12.26553,61139
12.27365,53241
12.28177,53962
12.28990,54998
12.29802,49269
12.30615,50813
12.31427,51313
12.32238,50508
12.33052,50532
12.33863,49390
12.34677,51917
12.35488,50621
12.36300,54328
12.37113,49238
12.37925,46032
12.38737,51842
12.39550,51006
12.40362,56833
12.41175,66290
12.41987,76230
12.42798,91780
12.43612,97032
12.44423,95454
12.45237,86542
12.46048,76563
12.46860,71270
12.47673,64525
12.48485,66041
12.49297,58471
12.50110,56497
12.50922,52130
12.51735,52042
12.52547,55095
12.53358,60186
12.54172,62475
12.54983,71601
12.55797,79944
12.56608,83114
12.57420,92911
12.58233,86836
12.59045,81181
12.59858,67598
12.60670,64248
12.61482,61576
12.62295,57471
12.63107,56909
12.63918,59787
12.64732,55541
12.65543,51889
12.66357,53537
12.67168,50270
12.67980,49211
12.68793,45562
12.69605,52561
12.70418,50437
12.71230,49099
12.72042,51679
12.72855,53544
12.73667,63421
12.74480,64832
12.75292,63013
12.76103,61556
12.76917,51533
12.77728,50756
12.78540,45762
12.79353,43146
12.80165,45375
12.80978,44085
12.81790,43325
12.82602,41968
12.83415,41791
12.84227,41500
12.85040,39832
12.85852,39022
12.86663,35357
12.87477,39590
12.88288,33336
12.89102,34383
12.89913,33198
12.90725,36678
12.91538,36732
12.92350,34737
12.93162,36456
12.93975,36784
12.94787,35408
12.95600,38246
12.96412,48144
12.97223,60445
12.98037,76981
12.98848,90759
12.99662,97896
13.00473,85576
13.01285,79527
13.02098,64121
13.02910,52604
13.03722,47233
13.04535,45220
13.05347,42032
13.06160,45117
13.06972,38876
13.07783,43628
13.08597,43163
13.09408,41557
13.10222,43732
13.11033,40644
13.11845,41473
13.12658,39128
13.13470,39811
13.14283,39533
13.15095,40087
13.15907,41319
13.16720,40286
13.17532,42007
13.18343,46032
13.19157,43340
13.19968,43587
13.20782,44020
13.21593,51264
13.22405,49366
13.23218,49387
13.24030,46588
13.24843,39694
13.25655,47118
13.26467,44843
13.27280,36811
13.28092,42029
13.28903,38621
13.29717,38517
13.30528,38859
13.31342,35044
13.32153,37137
13.32965,32068
13.33778,35351
13.34590,42412
13.35403,40584
13.36215,38609
13.37027,34947
13.37840,37783
13.38652,35454
13.39465,36523
13.40277,33659
13.41088,38746
13.41902,36460
13.42713,34083
13.43525,35417
13.44338,31634
13.45150,36360
13.45963,35326
13.46775,36257
13.47587,35715
13.48400,36667
13.49212,38749
13.50025,35335
13.50837,37863
13.51648,38738
13.52462,39678
13.53273,39970
13.54087,41387
13.54898,36645
13.55710,39672
13.56523,37769
13.57335,36720
13.58147,38243
13.58960,42968
13.59772,40541
13.60585,44655
13.61397,43819
13.62208,46669
13.63022,49131
13.63833,52053
13.64647,44803
13.65458,44920
13.66270,38406
13.67083,40235
13.67895,38480
13.68707,34268
13.69520,34917
13.70332,33935
13.71145,34289
13.71957,35191
13.72768,36767
13.73582,37133
13.74393,45384
13.75207,69568
13.76018,118203
13.76830,183455
13.77643,285353
13.78455,357328
13.79268,387684
13.80080,369677
13.80892,329896
13.81705,284388
13.82517,291892
13.83328,289450
13.84142,288339
13.84953,280701
13.85767,244445
13.86578,201449
13.87390,165635
13.88203,130023
13.89015,112719
13.89828,95700
13.90640,92911
13.91452,78868
13.92265,78254
13.93077,70396
13.93890,71750
13.94702,65800
13.95513,73388
13.96327,66264
13.97138,70372
13.97950,75986
13.98763,75516
13.99575,76794
14.00388,71621
14.01200,69563
14.02012,70672
14.02825,67916
14.03637,62470
14.04450,61663
14.05262,60648
14.06073,64041
14.06887,67947
14.07698,61383
14.08510,57894
14.09323,58253
14.10135,60202
14.10948,55362
14.11760,52634
14.12572,54222
14.13385,55537
14.14197,56001
14.15010,61250
14.15822,64206
14.16633,66237
14.17447,69748
14.18258,74921
14.19072,97646
14.19883,133558
14.20695,180464
14.21508,211148
14.22320,229860
14.23132,216776
14.23945,197110
14.24757,199535
14.25570,186139
14.26382,178770
14.27193,168470
14.28007,146805
14.28818,136525
14.29632,118639
14.30443,107526
14.31255,97818
14.32068,96295
14.32880,85869
14.33692,88618
14.34505,83194
14.35317,77355
14.36130,75154
14.36942,66830
14.37753,59414
14.38567,58058
14.39378,56759
14.40192,56972
14.41003,56088
14.41815,60214
14.42628,66603
14.43440,64902
14.44253,63771
14.45065,61481
14.45877,58534
14.46690,55569
14.47502,56372
14.48313,57466
14.49127,54578
14.49938,50490
14.50752,56217
14.51563,51099
14.52375,52541
14.53188,48507
14.54000,53660
14.54813,56358
14.55625,48547
14.56437,47561
14.57250,44501
14.58062,44718
14.58875,43785
14.59687,40557
14.60498,40002
14.61312,43782
14.62123,40730
14.62935,39262
14.63748,39009
14.64560,38965
14.65373,36446
14.66185,35770
14.66997,36911
14.67810,42065
14.68622,37801
14.69435,41703
14.70247,38931
14.71058,39536
14.71872,39041
14.72683,40320
14.73495,43529
14.74308,40140
14.75120,43645
14.75933,42177
14.76745,45920
14.77557,45592
14.78370,49276
14.79182,81732
14.79995,196312
14.80807,514782
14.81618,1255529
14.82432,2555775
14.83243,3863731
14.84057,4669964
14.84868,4609323
14.85680,3711849
14.86493,2456870
14.87305,1496444
14.88117,902322
14.88930,581970
14.89742,433739
14.90555,347709
14.91367,305665
14.92178,276392
14.92992,241961
14.93803,220355
14.94617,202111
14.95428,184921
14.96240,170486
14.97053,160709
14.97865,152217
14.98678,148970
14.99490,142888
15.00302,136906
15.01115,131611
15.01927,123800
15.02738,117229
15.03552,116547
15.04363,108979
15.05177,101536
15.05988,102775
15.06800,105157
15.07613,96526
15.08425,90467
15.09238,89906
15.10050,88205
15.10862,89652
15.11675,91046
15.12487,89664
15.13298,94232
15.14112,99534
15.14923,106538
15.15737,106696
15.16548,93633
15.17360,83315
15.18173,70135
15.18985,60867
15.19798,54368
15.20610,56305
15.21422,53130
15.22235,50085
15.23047,51413
15.23860,48580
15.24672,53666
15.25483,47265
15.26297,45081
15.27108,42802
15.27920,45952
15.28733,46354
15.29545,43682
15.30358,43501
15.31170,40583
15.31982,38289
15.32795,40853
15.33607,40541
15.34420,41495
15.35232,43131
15.36043,40358
15.36857,41678
15.37668,41147
15.38480,41294
15.39293,42010
15.40105,41058
15.40918,41115
15.41730,40815
15.42542,37910
15.43355,41878
15.44167,36161
15.44980,41705
15.45792,39830
15.46603,45370
15.47417,57991
15.48228,72085
15.49042,88710
15.49853,113850
15.50665,128375
15.51478,130663
15.52290,122692
15.53102,118469
15.53915,112502
15.54727,111702
15.55540,104786
15.56352,95208
15.57163,86624
15.57977,70797
15.58788,58336
15.59602,53544
15.60413,53594
15.61225,49972
15.62038,50454
15.62850,44544
15.63663,43267
15.64475,45078
15.65287,47083
15.66100,46845
15.66912,42636
15.67723,41006
15.68537,41867
15.69348,43608
15.70162,38866
15.70973,37415
15.71785,41559
15.72598,38088
15.73410,39484
15.74223,40729
15.75035,42005
15.75847,55595
15.76660,81623
15.77472,142272
15.78283,212203
15.79097,289654
15.79908,324808
15.80722,305975
15.81533,252279
15.82345,180016
15.83158,134790
15.83970,99099
15.84783,80247
15.85595,71695
15.86407,69443
15.87220,60064
15.88032,59744
15.88845,59392
15.89657,54998
15.90468,58266
15.91282,50627
15.92093,50356
15.92905,48194
15.93718,52538
15.94530,50701
15.95343,49326
15.96155,56222
15.96967,49956
15.97780,57588
15.98592,56711
15.99405,61313
16.00217,57385
16.01028,65605
16.01842,69726
16.02653,79345
16.03467,74744
16.04278,77814
16.05090,68054
16.05903,63939
16.06715,56671
16.07527,53289
16.08340,50459
16.09152,48901
16.09965,47535
16.10777,49475
16.11588,40338
16.12402,47945
16.13213,51357
16.14027,50721
16.14838,51599
16.15650,55563
16.16463,56288
16.17275,49315
16.18087,46599
16.18900,49656
16.19712,44657
16.20525,42910
16.21337,48890
16.22148,44443
16.22962,43415
16.23773,43643
16.24587,40800
16.25398,41201
16.26210,42864
16.27023,40915
16.27835,41140
16.28648,41927
16.29460,49342
16.30272,52677
16.31085,51387
16.31897,49435
16.32708,49314
16.33522,48492
16.34333,47022
16.35147,47972
16.35958,52532
16.36770,63956
16.37583,63753
16.38395,78769
16.39208,79841
16.40020,69106
16.40832,63844
16.41645,54499
16.42457,49458
16.43270,49725
16.44082,55679
16.44893,79643
16.45707,139071
16.46518,283782
16.47330,528023
16.48143,799708
16.48955,1038891
16.49768,1035668
16.50580,818371
16.51392,564288
16.52205,363526
16.53017,231841
16.53830,158974
16.54642,124847
16.55453,108725
16.56267,95607
16.57078,89646
16.57890,88057
16.58703,77242
16.59515,77710
16.60328,76640
16.61140,77704
16.61952,80700
16.62765,77406
16.63577,71267
16.64390,65229
16.65202,62231
16.66013,58456
16.66827,58060
16.67638,56272
16.68452,55095
16.69263,54865
16.70075,49244
16.70888,54107
16.71700,53329
16.72512,51897
16.73325,48879
16.74137,47138
16.74950,52724
16.75762,57548
16.76573,57032
16.77387,60096
16.78198,57513
16.79012,57298
16.79823,55327
16.80635,49737
16.81448,42383
16.82260,45936
16.83072,41347
16.83885,43549
16.84697,42414
16.85510,41631
16.86322,41163
16.87133,38547
16.87947,38507
16.88758,41534
16.89572,39930
16.90383,38516
16.91195,36294
16.92008,38514
16.92820,43554
16.93633,38035
16.94445,37486
16.95257,36253
16.96070,39388
16.96882,38783
16.97693,40320
16.98507,39839
16.99318,39128
17.00132,39606
17.00943,40253
17.01755,39996
17.02568,38020
17.03380,39101
17.04193,44452
17.05005,45807
17.05817,44501
17.06630,46232
17.07442,43310
17.08255,46200
17.09067,42322
17.09878,44839
17.10692,41576
17.11503,42003
17.12315,43034
17.13128,43311
17.13940,42486
17.14753,41407
17.15565,43600
17.16377,43195
17.17190,44694
17.18002,44364
17.18815,41820
17.19627,37274
17.20438,40849
17.21252,35782
17.22063,34797
17.22875,37937
17.23688,39867
17.24500,39949
17.25313,40549
17.26125,37348
17.26937,41485
17.27750,40036
17.28562,37035
17.29375,37994
17.30187,43602
17.30998,42093
17.31812,45606
17.32623,46531
17.33437,59654
17.34248,59951
17.35060,67433
17.35873,67656
17.36685,63883
17.37497,63422
17.38310,61456
17.39122,57969
17.39935,61522
17.40747,57757
17.41558,56839
17.42372,51836
17.43183,52478
17.43997,50766
17.44808,52159
17.45620,50651
17.46433,50444
17.47245,47742
17.48058,45280
17.48870,45862
17.49682,43173
17.50495,42329
17.51307,40900
17.52118,45587
17.52932,41487
17.53743,42483
17.54557,45719
17.55368,45145
17.56180,54975
17.56993,68196
17.57805,101266
17.58618,154881
17.59430,233366
17.60242,339271
17.61055,446256
17.61867,475871
17.62678,447285
17.63492,357096
17.64303,268365
17.65117,204648
17.65928,158259
17.66740,135722
17.67553,115189
17.68365,111620
17.69178,96257
17.69990,88290
17.70802,83164
17.71615,82519
17.72427,72890
17.73240,68119
17.74052,67761
17.74863,62907
17.75677,62330
17.76488,59057
17.77300,55949
17.78113,55065
17.78925,60481
17.79738,69891
17.80550,96426
17.81362,145146
17.82175,212076
17.82987,264504
17.83800,298227
17.84612,300117
17.85423,255291
17.86237,208650
17.87048,174876
17.87860,139955
17.88673,120232
17.89485,103346
17.90298,94067
17.91110,83179
17.91922,69552
17.92735,64464
17.93547,60147
17.94360,63567
17.95172,61782
17.95983,59753
17.96797,58329
17.97608,56275
17.98422,54625
17.99233,53054
18.00045,54598
18.00858,54574
18.01670,59501
18.02482,65947
18.03295,84924
18.04107,96090
18.04920,117619
18.05732,145580
18.06543,235177
18.07357,467352
18.08168,886750
18.08982,1372628
18.09793,1781028
18.10605,1853798
18.11418,1636770
18.12230,1280826
18.13043,914048
18.13855,628722
18.14667,464211
18.15480,377048
18.16292,323977
18.17103,281359
18.17917,248479
18.18728,226557
18.19542,208442
18.20353,182189
18.21165,186516
18.21978,163165
18.22790,158875
18.23603,139023
18.24415,135767
18.25227,129327
18.26040,122064
18.26852,118510
18.27665,108418
18.28477,94630
18.29288,82189
18.30102,66827
18.30913,64749
18.31725,59079
18.32538,58232
18.33350,53930
18.34163,50109
18.34975,52390
18.35787,51963
18.36600,50836
18.37412,49564
18.38225,47097
18.39037,48226
18.39848,49071
18.40662,50158
18.41473,48313
18.42285,52947
18.43098,53259
18.43910,60673
18.44723,71312
18.45535,80813
18.46347,102172
18.47160,125551
18.47972,148745
18.48785,169036
18.49597,171574
18.50408,160638
18.51222,137068
18.52033,108708
18.52847,92496
18.53658,74155
18.54470,70571
18.55283,63619
18.56095,58488
18.56907,62158
18.57720,58072
18.58532,54843
18.59345,59623
18.60157,57074
18.60968,58281
18.61782,59250
18.62593,58152
18.63407,56894
18.64218,61966
18.65030,52579
18.65843,52295
18.66655,47891
18.67467,47604
18.68280,44852
18.69092,46917
18.69905,46667
18.70717,42935
18.71528,40583
18.72342,41772
18.73153,45872
18.73967,41703
18.74778,41443
18.75590,41341
18.76403,41901
18.77215,41181
18.78028,41230
18.78840,38177
18.79652,40330
18.80465,39450
18.81277,40899
18.82088,44592
18.82902,42433
18.83713,37757
18.84527,39832
18.85338,37638
18.86150,39633
18.86963,41515
18.87775,43310
18.88588,44308
18.89400,42208
18.90212,45967
18.91025,41189
18.91837,44202
18.92650,44353
18.93462,45839
18.94273,50008
18.95087,51363
18.95898,51409
18.96710,51157
18.97523,50042
18.98335,46283
18.99148,44942
18.99960,46810
19.00772,42625
19.01585,41279
19.02397,45690
19.03210,41282
19.04022,41503
19.04833,42887
19.05647,43725
19.06458,48931
19.07270,60493
19.08083,80127
19.08895,123507
19.09708,179035
19.10520,239519
19.11332,288637
19.12145,296907
19.12957,257681
19.13770,203676
19.14582,151176
19.15393,121749
19.16207,110427
19.17018,103427
19.17832,105765
19.18643,106475
19.19455,106416
19.20268,101686
19.21080,109458
19.21892,98046
19.22705,98391
19.23517,97496
19.24330,97391
19.25142,101727
19.25953,97584
19.26767,111099
19.27578,105679
19.28392,114812
19.29203,127173
19.30015,129666
19.30828,131114
19.31640,124255
19.32453,126089
19.33265,121754
19.34077,116663
19.34890,115004
19.35702,123542
19.36513,140949
19.37327,153790
19.38138,170164
19.38952,167176
19.39763,160929
19.40575,138302
19.41388,124897
19.42200,116300
19.43013,108412
19.43825,105605
19.44637,103211
19.45450,104735
19.46262,103595
19.47073,107309
19.47887,102842
19.48698,110150
19.49512,122305
19.50323,150927
19.51135,181280
19.51948,218564
19.52760,213001
19.53573,204580
19.54385,174979
19.55197,146130
19.56010,131152
19.56822,112196
19.57635,104891
19.58447,96575
19.59258,99480
19.60072,93543
19.60883,94446
19.61695,90012
19.62508,93816
19.63320,94634
19.64133,106214
19.64945,129138
19.65757,165603
19.66570,215942
19.67382,257126
19.68195,304951
19.69007,311179
19.69818,304368
19.70632,276891
19.71443,242286
19.72255,215696
19.73068,191162
19.73880,165760
19.74693,151331
19.75505,137551
19.76317,129681
19.77130,122138
19.77942,122358
19.78755,118444
19.79567,123208
19.80378,126237
19.81192,126818
19.82003,126644
19.82817,115291
19.83628,111134
19.84440,106511
19.85253,119778
19.86065,169257
19.86877,330182
19.87690,658951
19.88502,1269892
19.89315,2097722
19.90127,2783937
19.90938,3092987
19.91752,2940520
19.92563,2450219
19.93377,1822830
19.94188,1235949
19.95000,878548
19.95813,654307
19.96625,533432
19.97438,461743
19.98250,428151
19.99062,389723
19.99875,360050
20.00687,343166
20.01498,320298
20.02312,302713
20.03123,291121
20.03937,272060
20.04748,244439
20.05560,216399
20.06373,189406
20.07185,169645
20.07998,159374
20.08810,148361
20.09622,146590
20.10435,141531
20.11247,127414
20.12058,121511
20.12872,114508
20.13683,111093
20.14497,109507
20.15308,110286
20.16120,125257
20.16933,132080
20.17745,159831
20.18558,183900
20.19370,190558
20.20182,203367
20.20995,198811
20.21807,185892
20.22620,175145
20.23432,150870
20.24243,160219
20.25057,164732
20.25868,207408
20.26680,272146
20.27493,341609
20.28305,411060
20.29118,442751
20.29930,447091
20.30742,405679
20.31555,332183
20.32367,273727
20.33180,219764
20.33992,173850
20.34803,143741
20.35617,129993
20.36428,112907
20.37242,104538
20.38053,99095
20.38865,90921
20.39678,81289
20.40490,87306
20.41302,80838
20.42115,93396
20.42927,93063
20.43740,94709
20.44552,107920
20.45363,106902
20.46177,112632
20.46988,105032
20.47802,100720
20.48613,94681
20.49425,94261
20.50238,87101
20.51050,80682
20.51862,77177
20.52675,71207
20.53487,68414
20.54300,71878
20.55112,71740
20.55923,66599
20.56737,69106
20.57548,68546
20.58362,63864
20.59173,65483
20.59985,61014
20.60798,65407
20.61610,64791
20.62423,62798
20.63235,61358
20.64047,67117
20.64860,65060
20.65672,62508
20.66483,65783
20.67297,59015
20.68108,63794
20.68922,63325
20.69733,65214
20.70545,62616
20.71358,52782
20.72170,62470
20.72983,57812
20.73795,56849
20.74607,58249
20.75420,56596
20.76232,59409
20.77045,63459
20.77857,66618
20.78668,81971
20.79482,105927
20.80293,132981
20.81105,186765
20.81918,241925
20.82730,259168
20.83543,259195
20.84355,208187
20.85167,164085
20.85980,115034
20.86792,98029
20.87605,80196
20.88417,69743
20.89228,69210
20.90042,63950
20.90853,65725
20.91665,58680
20.92478,65345
20.93290,64518
20.94103,63028
20.94915,65536
20.95727,66382
20.96540,60630
20.97352,61027
20.98165,63944
20.98977,59110
20.99788,60975
21.00602,56085
21.01413,55715
21.02227,58815
21.03038,52868
21.03850,59460
21.04663,64774
21.05475,61248
21.06287,62753
21.07100,58933
21.07912,60574
21.08725,64734
21.09537,61297
21.10348,61246
21.11162,55640
21.11973,59531
21.12787,56359
21.13598,66713
21.14410,71225
21.15223,87399
21.16035,99020
21.16847,108259
21.17660,114377
21.18472,106076
21.19285,94532
21.20097,80623
21.20908,75184
21.21722,70584
21.22533,65812
21.23347,66320
21.24158,60078
21.24970,61101
21.25783,59964
21.26595,58064
21.27408,64986
21.28220,53821
21.29032,55375
21.29845,55999
21.30657,52506
21.31468,54339
21.32282,53096
21.33093,54964
21.33907,54272
21.34718,57139
21.35530,54954
21.36343,53170
21.37155,55802
21.37968,58058
21.38780,62917
21.39592,69980
21.40405,83214
21.41217,98323
21.42030,98959
21.42842,97781
21.43653,91642
21.44467,82622
21.45278,72856
21.46090,68721
21.46903,64965
21.47715,65580
21.48528,63369
21.49340,57474
21.50152,54680
21.50965,52848
21.51777,56423
21.52590,52687
21.53402,56721
21.54213,55727
21.55027,52341
21.55838,50685
21.56650,52224
21.57463,60039
21.58275,60765
21.59088,62670
21.59900,64706
21.60712,66400
21.61525,67943
21.62337,68817
21.63150,71050
21.63962,78502
21.64773,82316
21.65587,92354
21.66398,95284
21.67212,93734
21.68023,89546
21.68835,88619
21.69648,80106
21.70460,78260
21.71272,68418
21.72085,60225
21.72897,63219
21.73710,58964
21.74522,58203
21.75333,60292
21.76147,54094
21.76958,49773
21.77772,50229
21.78583,52763
21.79395,50214
21.80208,50259
21.81020,56217
21.81833,60851
21.82645,63023
21.83457,65507
21.84270,75977
21.85082,81966
21.85893,83161
21.86707,76339
21.87518,68127
21.88332,65463
21.89143,63493
21.89955,58744
21.90768,57209
21.91580,54226
21.92393,56618
21.93205,54168
21.94017,51094
21.94830,48507
21.95642,49455
21.96453,46908
21.97267,41519
21.98078,37633
21.98892,44164
21.99703,41120
22.00515,45462
22.01328,44489
22.02140,42943
22.02953,44153
22.03765,46172
22.04577,51194
22.05390,50536
22.06202,47401
22.07015,47322
22.07827,45316
22.08638,45875
22.09452,46296
22.10263,42136
22.11075,46394
22.11888,47263
22.12700,44109
22.13513,48300
22.14325,41565
22.15137,44651
22.15950,44709
22.16762,43270
22.17575,45732
22.18387,46167
22.19198,41679
22.20012,40879
22.20823,42227
22.21635,47106
22.22448,43581
22.23260,49521
22.24073,48427
22.24885,48522
22.25697,46642
22.26510,45312
22.27322,49802
22.28135,50695
22.28947,46611
22.29758,48166
22.30572,53008
22.31383,53243
22.32197,49487
22.33008,49222
22.33820,56116
22.34633,59253
22.35445,57093
22.36257,57485
22.37070,61002
22.37882,65973
22.38695,69821
22.39507,79814
22.40318,88830
22.41132,113516
22.41943,123483
22.42757,136907
22.43568,135282
22.44380,126947
22.45193,119897
22.46005,98972
22.46818,87294
22.47630,83797
22.48442,85324
22.49255,88921
22.50067,91903
22.50878,101278
22.51692,97931
22.52503,93343
22.53317,90085
22.54128,85104
22.54940,79128
22.55753,77539
22.56565,72184
22.57378,68180
22.58190,61157
22.59002,55813
22.59815,51874
22.60627,53175
22.61438,57459
22.62252,51224
22.63063,48141
22.63877,50579
22.64688,48519
22.65500,51044
22.66313,48868
22.67125,51512
22.67938,50755
22.68750,51467
22.69562,55213
22.70375,59957
22.71187,61070
22.72000,67840
22.72812,65062
22.73623,60912
22.74437,63420
22.75248,55610
22.76060,55140
22.76873,55125
22.77685,56587
22.78498,61618
22.79310,68673
22.80122,76313
22.80935,84921
22.81747,91131
22.82560,91997
22.83372,86592
22.84183,77835
22.84997,76456
22.85808,80024
22.86622,87926
22.87433,96832
22.88245,103443
22.89058,115771
22.89870,118110
22.90682,129403
22.91495,142070
22.92307,160823
22.93120,167681
22.93932,169104
22.94743,164894
22.95557,158160
22.96368,141796
22.97182,125713
22.97993,118940
22.98805,116846
22.99618,114159
23.00430,109499
23.01242,111554
23.02055,103937
23.02867,100180
23.03680,102365
23.04492,97801
23.05303,103290
23.06117,103027
23.06928,104770
23.07742,98904
23.08553,100121
23.09365,105166
23.10178,96914
23.10990,92965
23.11803,95223
23.12615,92518
23.13427,94445
23.14240,95920
23.15052,90576
23.15863,94103
23.16677,91703
23.17488,87416
23.18302,87207
23.19113,83770
23.19925,82297
23.20738,86245
23.21550,81958
23.22363,83749
23.23175,83044
23.23987,87155
23.24800,89108
23.25612,84754
23.26425,89388
23.27237,98028
23.28048,92974
23.28862,93329
23.29673,93862
23.30485,84542
23.31298,87171
23.32110,90038
23.32923,84112
23.33735,95245
23.34547,111861
23.35360,136445
23.36172,185455
23.36985,239603
23.37797,319390
23.38608,407040
23.39422,504479
23.40233,596685
23.41045,654908
23.41858,686304
23.42670,716466
23.43483,713562
23.44295,702214
23.45107,671641
23.45920,649601
23.46732,599882
23.47545,552148
23.48357,512980
23.49168,468781
23.49982,443444
23.50793,414573
23.51607,368540
23.52418,343272
23.53230,322728
23.54043,298804
23.54855,286784
23.55667,279171
23.56480,278353
23.57292,274909
23.58105,288887
23.58917,299904
23.59728,325458
23.60542,344076
23.61353,343068
23.62167,317029
23.62978,284104
23.63790,246632
23.64603,221887
23.65415,207772
23.66228,191608
23.67040,186284
23.67852,176820
23.68665,169500
23.69477,166916
23.70288,157403
23.71102,151582
23.71913,136299
23.72727,136803
23.73538,124602
23.74350,126335
23.75163,151626
23.75975,217015
23.76788,380412
23.77600,715775
23.78412,1257717
23.79225,1805750
23.80037,2232701
23.80848,2329453
23.81662,2127274
23.82473,1729140
23.83287,1353675
23.84098,1061504
23.84910,828683
23.85723,662756
23.86535,528722
23.87348,470322
23.88160,406164
23.88972,365926
23.89785,335093
23.90597,305287
23.91410,295241
23.92222,274905
23.93033,253373
23.93847,237235
23.94658,219967
23.95470,209573
23.96283,195233
23.97095,191971
23.97908,175994
23.98720,173541
23.99532,155936
24.00345,161184
24.01157,157854
24.01970,161066
24.02782,166888
24.03593,167217
24.04407,176365
24.05218,170945
24.06030,163108
24.06843,145719
24.07655,139901
24.08468,121835
24.09280,121953
24.10092,117297
24.10905,107429
24.11717,111562
24.12530,110372
24.13342,109978
24.14153,116407
24.14967,120254
24.15778,117491
24.16592,116783
24.17403,118214
24.18215,120147
24.19028,114632
24.19840,114057
24.20652,107392
24.21465,112163
24.22277,104858
24.23090,105675
24.23902,104978
24.24713,95686
24.25527,93217
24.26338,89277
24.27152,89039
24.27963,91257
24.28775,83678
24.29588,83220
24.30400,85847
24.31213,85829
24.32025,80111
24.32837,81269
24.33650,77858
24.34462,82982
24.35273,79654
24.36087,80170
24.36898,80476
24.37712,77356
24.38523,82359
24.39335,101081
24.40148,111328
24.40960,125372
24.41773,125172
24.42585,115481
24.43397,106059
24.44210,91590
24.45022,87562
24.45833,77319
24.46647,90859
24.47458,99147
24.48272,112050
24.49083,120734
24.49895,125457
24.50708,121262
24.51520,115989
24.52333,115687
24.53145,109479
24.53957,105893
24.54770,107039
24.55582,105500
24.56395,100320
24.57207,97729
24.58018,96460
24.58832,99018
24.59643,104879
24.60455,117973
24.61268,118715
24.62080,116852
24.62893,124370
24.63705,121803
24.64517,126992
24.65330,127999
24.66142,120153
24.66955,127687
24.67767,134563
24.68578,129047
24.69392,134634
24.70203,131200
24.71017,132948
24.71828,129041
24.72640,130674
24.73453,131985
24.74265,140577
24.75077,137042
24.75890,133499
24.76702,132138
24.77515,138237
24.78327,141135
24.79138,141537
24.79952,140814
24.80763,139269
24.81577,139997
24.82388,143230
24.83200,141596
24.84013,149179
24.84825,174212
24.85637,204779
24.86450,262365
24.87262,325444
24.88075,412334
24.88887,493680
24.89698,551995
24.90512,551131
24.91323,489830
24.92137,406841
24.92948,313528
24.93760,244669
24.94573,182575
24.95385,158595
24.96198,144649
24.97010,136229
24.97822,130862
24.98635,121269
24.99447,118147
25.00258,118054
25.01072,123586
25.01883,121160
25.02697,122465
25.03508,110449
25.04320,111238
25.05133,111541
25.05945,110163
25.06758,109491
25.07570,113437
25.08382,106737
25.09195,120441
25.10007,140103
25.10818,214337
25.11632,373654
25.12443,682662
25.13257,1192304
25.14068,1749881
25.14880,2218963
25.15693,2365808
25.16505,2091806
25.17318,1625891
25.18130,1144485
25.18942,704706
25.19755,450390
25.20567,310386
25.21380,224906
25.22192,186297
25.23003,166683
25.23817,168520
25.24628,175938
25.25440,189005
25.26253,210906
25.27065,228834
25.27878,235143
25.28690,222666
25.29502,207900
25.30315,177262
25.31127,159064
25.31940,145014
25.32752,138916
25.33563,132455
25.34377,122205
25.35188,120978
25.36002,111712
25.36813,103467
25.37625,100428
25.38438,100873
25.39250,97800
25.40062,97865
25.40875,95262
25.41687,91387
25.42500,87156
25.43312,91197
25.44123,87256
25.44937,88218
25.45748,86897
25.46562,86626
25.47373,88956
25.48185,90488
25.48998,86421
25.49810,82606
25.50622,81404
25.51435,80351
25.52247,74022
25.53060,76992
25.53872,68403
25.54683,64036
25.55497,62291
25.56308,68383
25.57122,65033
25.57933,62945
25.58745,62918
25.59558,64188
25.60370,63039
25.61183,62338
25.61995,59572
25.62807,61199
25.63620,59704
25.64432,56924
25.65243,63650
25.66057,62181
25.66868,57806
25.67682,55450
25.68493,56344
25.69305,55620
25.70118,56746
25.70930,55638
25.71743,53819
25.72555,55256
25.73367,56678
25.74180,53354
25.74992,50518
25.75805,50946
25.76617,60140
25.77428,52941
25.78242,54044
25.79053,61013
25.79865,56074
25.80678,57253
25.81490,54398
25.82303,56305
25.83115,60837
25.83927,58677
25.84740,58087
25.85552,64497
25.86365,65360
25.87177,60716
25.87988,63384
25.88802,58293
25.89613,62299
25.90425,69802
25.91238,81088
25.92050,90265
25.92863,98527
25.93675,98712
25.94487,101986
25.95300,105009
25.96112,103367
25.96925,108203
25.97737,112844
25.98548,108782
25.99362,108250
26.00173,112121
26.00987,109875
26.01798,115999
26.02610,106976
26.03423,112495
26.04235,118349
26.05047,112748
26.05860,114316
26.06672,114845
26.07485,113754
26.08297,114327
26.09108,115580
26.09922,116709
26.10733,113798
26.11547,117999
26.12358,116181
26.13170,114789
26.13983,122036
26.14795,120465
26.15608,123779
26.16420,116667
26.17232,120212
26.18045,112406
26.18857,116875
26.19668,108813
26.20482,108772
26.21293,112511
26.22107,108908
26.22918,103489
26.23730,103435
26.24543,105633
26.25355,101706
26.26168,97602
26.26980,97237
26.27792,92965
26.28605,98647
26.29417,96201
26.30228,99704
26.31042,93562
26.31853,94211
26.32667,88569
26.33478,87948
26.34290,86045
26.35103,84472
26.35915,88949
26.36728,96144
26.37540,98694
26.38352,104993
26.39165,110583
26.39977,123371
26.40790,132250
26.41602,138096
26.42413,126566
26.43227,113564
26.44038,109137
26.44850,103976
26.45663,94939
26.46475,95165
26.47288,88289
26.48100,83502
26.48912,85192
26.49725,81886
26.50537,86528
26.51350,80923
26.52162,82668
26.52973,79507
26.53787,74537
26.54598,77459
26.55410,70916
26.56223,66977
26.57035,68440
26.57848,72443
26.58660,70202
26.59472,68155
26.60285,69093
26.61097,59435
26.61910,68151
26.62722,63086
26.63533,59063
26.64347,65221
26.65158,66129
26.65972,63946
26.66783,67101
26.67595,71211
26.68408,70872
26.69220,66806
26.70032,66058
26.70845,66232
26.71657,65632
26.72470,58809
26.73282,64884
26.74093,59575
26.74907,60234
26.75718,58750
26.76532,60079
26.77343,58718
26.78155,59069
26.78968,55090
26.79780,64937
26.80593,59779
26.81405,61513
26.82217,63240
26.83030,60199
26.83842,57332
26.84653,61346
26.85467,60671
26.86278,60281
26.87092,60104
26.87903,55456
26.88715,53869
26.89528,53865
26.90340,55327
26.91153,53036
26.91965,52178
26.92777,55151
26.93590,51668
26.94402,51946
26.95213,54083
26.96027,55547
26.96838,56784
26.97652,63418
26.98463,79798
26.99275,109412
27.00088,146254
27.00900,203779
27.01713,269136
27.02525,339347
27.03337,380587
27.04150,387051
27.04962,372526
27.05775,319700
27.06587,281587
27.07398,229525
27.08212,199681
27.09023,179997
27.09835,156068
27.10648,138759
27.11460,130056
27.12273,120967
27.13085,120612
27.13897,111044
27.14710,113862
27.15522,100938
27.16335,100212
27.17147,102710
27.17958,103108
27.18772,107909
27.19583,116231
27.20397,107377
27.21208,106019
27.22020,97535
27.22833,91030
27.23645,88641
27.24457,86661
27.25270,84799
27.26082,74279
27.26895,79475
27.27707,78304
27.28518,70966
27.29332,73053
27.30143,71537
27.30957,66162
27.31768,70905
27.32580,61222
27.33393,65492
27.34205,65315
27.35017,70117
27.35830,66604
27.36642,67627
27.37455,65957
27.38267,60979
27.39078,62819
27.39892,61178
27.40703,58437
27.41517,60340
27.42328,57376
27.43140,65578
27.43953,60339
27.44765,58185
27.45578,59285
27.46390,59015
27.47202,56826
27.48015,52964
27.48827,53086
27.49638,54042
27.50452,54575
27.51263,57765
27.52077,52271
27.52888,60554
27.53700,53826
27.54513,58162
27.55325,56209
27.56138,53766
27.56950,58540
27.57762,61268
27.58575,61704
27.59387,72005
27.60198,72369
27.61012,74072
27.61823,78693
27.62637,69593
27.63448,62393
27.64260,62918
27.65073,58849
27.65885,56463
27.66698,57280
27.67510,54654
27.68322,59574
27.69135,51861
27.69947,54037
27.70760,56754
27.71572,49494
27.72383,49074
27.73197,47398
27.74008,47869
27.74820,50944
27.75633,48693
27.76445,50840
27.77258,47760
27.78070,50233
27.78882,56038
27.79695,57085
27.80507,51757
27.81320,51534
27.82132,51129
27.82943,51993
27.83757,56129
27.84568,51826
27.85382,50241
27.86193,50748
27.87005,49155
27.87818,49468
27.88630,45933
27.89442,47182
27.90255,47462
27.91067,45922
27.91880,49455
27.92692,48353
27.93503,46651
27.94317,44147
27.95128,47152
27.95942,50680
27.96753,45363
27.97565,47087
27.98378,46971
27.99190,46453
28.00003,47862
28.00815,44871
28.01627,45097
28.02440,47262
28.03252,52086
28.04063,58935
28.04877,57493
28.05688,64094
28.06502,61792
28.07313,60294
28.08125,59087
28.08938,58566
28.09750,55508
28.10563,54077
28.11375,54600
28.12187,58800
28.13000,49698
28.13812,52270
28.14623,45656
28.15437,40852
28.16248,48696
28.17062,39989
28.17873,42721
28.18685,45212
28.19498,51885
28.20310,60721
28.21123,70645
28.21935,78515
28.22747,76519
28.23560,76079
28.24372,76788
28.25185,66198
28.25997,61925
28.26808,50200
28.27622,48786
28.28433,54581
28.29245,50289
28.30058,52296
28.30870,55621
28.31683,63381
28.32495,69816
28.33307,73153
28.34120,75923
28.34932,79778
28.35745,90908
28.36557,99726
28.37368,107138
28.38182,111690
28.38993,120384
28.39805,129228
28.40618,120563
28.41430,123547
28.42243,119761
28.43055,112773
28.43867,103706
28.44680,105277
28.45492,98174
28.46305,94424
28.47117,87256
28.47928,84233
28.48742,83889
28.49553,80685
28.50367,73655
28.51178,70175
28.51990,73381
28.52803,70661
28.53615,68802
28.54427,69686
28.55240,64297
28.56052,64859
28.56865,62807
28.57677,63185
28.58488,58003
28.59302,56900
28.60113,60524
28.60927,60237
28.61738,60205
28.62550,61522
28.63363,57434
28.64175,65351
28.64988,62398
28.65800,63396
28.66612,68323
28.67425,66515
28.68237,62890
28.69048,63758
28.69862,59331
28.70673,60603
28.71487,57557
28.72298,51640
28.73110,48695
28.73923,52235
28.74735,51665
28.75548,55051
28.76360,60906
28.77172,59808
28.77985,75130
28.78797,79184
28.79608,77239
28.80422,74521
28.81233,71204
28.82047,63002
28.82858,59899
28.83670,58578
28.84483,55613
28.85295,55032
28.86108,52778
28.86920,54448
28.87732,57350
28.88545,61235
28.89357,61009
28.90170,65599
28.90982,58493
28.91793,63235
28.92607,58752
28.93418,55927
28.94230,53792
28.95043,55571
28.95855,57693
28.96668,55614
28.97480,57901
28.98292,55522
28.99105,54737
28.99917,48247
29.00730,51088
29.01542,46084
29.02353,47174
29.03167,52526
29.03978,45193
29.04792,51339
29.05603,45216
29.06415,48297
29.07228,49130
29.08040,50764
29.08852,48028
29.09665,49292
29.10477,52498
29.11290,49957
29.12102,56148
29.12913,48285
29.13727,45615
29.14538,46628
29.15352,45990
29.16163,45029
29.16975,47737
29.17788,52249
29.18600,54989
29.19412,53671
29.20225,65721
29.21037,70766
29.21850,78327
29.22662,80712
29.23473,74044
29.24287,82878
29.25098,77385
29.25912,79697
29.26723,90059
29.27535,94755
29.28348,89855
29.29160,86185
29.29973,72247
29.30785,68353
29.31597,55957
29.32410,55310
29.33222,52161
29.34033,45714
29.34847,41616
29.35658,47628
29.36472,43501
29.37283,44397
29.38095,41083
29.38908,47330
29.39720,39877
29.40533,43996
29.41345,41877
29.42157,44300
29.42970,47014
29.43782,49389
29.44593,45080
29.45407,48600
29.46218,47952
29.47032,48791
29.47843,47913
29.48655,47203
29.49468,48070
29.50280,48889
29.51093,56124
29.51905,50962
29.52717,53881
29.53530,50895
29.54342,50765
29.55155,47084
29.55967,46188
29.56778,43112
29.57592,40264
29.58403,42603
29.59215,44346
29.60028,43664
29.60840,40996
29.61653,41277
29.62465,42944
29.63277,44140
29.64090,42765
29.64902,41101
29.65715,47185
29.66527,39378
29.67338,45788
29.68152,43508
29.68963,42245
29.69777,48796
29.70588,43759
29.71400,43413
29.72213,45543
29.73025,42544
29.73837,44533
29.74650,43451
29.75462,42334
29.76275,40522
29.77087,41544
29.77898,41179
29.78712,38719
29.79523,38648
29.80337,38324
29.81148,38290
29.81960,40214
29.82773,40200
29.83585,42242
29.84397,39282
29.85210,37749
29.86022,39073
29.86835,45349
29.87647,46849
29.88458,53972
29.89272,58930
29.90083,68192
29.90897,74475
29.91708,67960
29.92520,62246
29.93333,59732
29.94145,52899
29.94958,50869
29.95770,49394
29.96582,48268
29.97395,50051
29.98207,50935
29.99018,59127
29.99832,63039
30.00643,68479
30.01457,70967
30.02268,70488
30.03080,76700
30.03893,74455
30.04705,78922
30.05518,76545
30.06330,79635
30.07142,80922
30.07955,77279
30.08767,75892
30.09580,77599
30.10392,76046
30.11203,75184
30.12017,69287
30.12828,70722
30.13640,75667
30.14453,66116
30.15265,61369
30.16078,71763
30.16890,63590
30.17702,63142
30.18515,65718
30.19327,61371
30.20140,59255
30.20952,59565
30.21763,56958
30.22577,56265
30.23388,53223
30.24200,48746
30.25013,49857
30.25825,48941
30.26638,53671
30.27450,50152
30.28262,46503
30.29075,49205
30.29887,49856
30.30700,48624
30.31512,48268
30.32323,47972
30.33137,44051
30.33948,46640
30.34762,47158
30.35573,44707
30.36385,46284
30.37198,44004
30.38010,45006
30.38822,45408
30.39635,46599
30.40447,45858
30.41260,44847
30.42072,45785
30.42883,39374
30.43697,41454
30.44508,41884
30.45322,43253
30.46133,46554
30.46945,45808
30.47758,40549
30.48570,41870
30.49382,43546
30.50195,43078
30.51007,38466
30.51820,46433
30.52632,40411
30.53443,42326
30.54257,41659
30.55068,41856
30.55882,41432
30.56693,39755
30.57505,41133
30.58318,42470
30.59130,43058
30.59943,44325
30.60755,41145
30.61567,41398
30.62380,44291
30.63192,41866
30.64003,41175
30.64817,44139
30.65628,38613
30.66442,41037
30.67253,38201
30.68065,41072
30.68878,40384
30.69690,38089
30.70503,38763
30.71315,35676
30.72127,42318
30.72940,40372
30.73752,39473
30.74565,37617
30.75377,37988
30.76188,40744
30.77002,43773
30.77813,45959
30.78625,49467
30.79438,60686
30.80250,72417
30.81063,73471
30.81875,85579
30.82687,78844
30.83500,73394
30.84312,63020
30.85125,54649
30.85937,51445
30.86748,44553
30.87562,46834
30.88373,46179
30.89185,40259
30.89998,44327
30.90810,35806
30.91623,43276
30.92435,41062
30.93247,38425
30.94060,41179
30.94872,40628
30.95685,36526
30.96497,35147
30.97308,41153
30.98122,39922
30.98933,38452
30.99747,37835
31.00558,40115
31.01370,39929
31.02183,41234
31.02995,37884
31.03807,38949
31.04620,39807
31.05432,43391
31.06245,42173
31.07057,43008
31.07868,47673
31.08682,48722
31.09493,52455
31.10307,58860
31.11118,58886
31.11930,64295
31.12743,57631
31.13555,57351
31.14368,58608
31.15180,55411
31.15992,57601
31.16805,57364
31.17617,55229
31.18428,60919
31.19242,69951
31.20053,83243
31.20867,96637
31.21678,109441
31.22490,118434
31.23303,118894
31.24115,116888
31.24928,108625
31.25740,91460
31.26552,80266
31.27365,65401
31.28177,61755
31.28988,54787
31.29802,53080
31.30613,55158
31.31427,54330
31.32238,56106
31.33050,55450
31.33863,55080
31.34675,56482
31.35488,56678
31.36300,55605
31.37112,55315
31.37925,54982
31.38737,57418
31.39550,55099
31.40362,53151
31.41173,57059
31.41987,53623
31.42798,53026
31.43610,53357
31.44423,50424
31.45235,48788
31.46048,50913
31.46860,52189
31.47672,50371
31.48485,51041
31.49297,50715
31.50110,54792
31.50922,59121
31.51733,51507
31.52547,51273
31.53358,53855
31.54172,51256
31.54983,52467
31.55795,55087
31.56608,49587
31.57420,51344
31.58232,47892
31.59045,48391
31.59857,49413
31.60670,50059
31.61482,47488
31.62293,50503
31.63107,48955
31.63918,51012
31.64732,49841
31.65543,44796
31.66355,49255
31.67168,50075
31.67980,51199
31.68792,48380
31.69605,46749
31.70417,51999
31.71230,54978
31.72042,48628
31.72853,44817
31.73667,46434
31.74478,47513
31.75292,43946
31.76103,45541
31.76915,45195
31.77728,46851
31.78540,41391
31.79353,45166
31.80165,54885
31.80977,47923
31.81790,48499
31.82602,45399
31.83413,46920
31.84227,46306
31.85038,44773
31.85852,47133
31.86663,47007
31.87475,50083
31.88288,50015
31.89100,49145
31.89913,52181
31.90725,49489
31.91537,55568
31.92350,55326
31.93162,53911
31.93973,62864
31.94787,60841
31.95598,64832
31.96412,67408
31.97223,70672
31.98035,81857
31.98848,77353
31.99660,79717
32.00473,78107
32.01285,80787
32.02097,78264
32.02910,79268
32.03722,73494
32.04535,72087
32.05347,65624
32.06158,64912
32.06972,67891
32.07783,65381
32.08595,63498
32.09408,66179
32.10220,61872
32.11033,59424
32.11845,56545
32.12657,56890
32.13470,51988
32.14282,53145
32.15095,53508
32.15907,52726
32.16718,51048
32.17532,51112
32.18343,56708
32.19157,52288
32.19968,49297
32.20780,55607
32.21593,52458
32.22405,51479
32.23217,50868
32.24030,50133
32.24842,47396
32.25655,51971
32.26467,53159
32.27278,48771
32.28092,50320
32.28903,52156
32.29717,52257
32.30528,50432
32.31340,45354
32.32153,45820
32.32965,48018
32.33777,49728
32.34590,45404
32.35402,45729
32.36215,48551
32.37027,47172
32.37838,48626
32.38652,50962
32.39463,44833
32.40277,44241
32.41088,39933
32.41900,41163
32.42713,47859
32.43525,43779
32.44338,45014
32.45150,41851
32.45962,46919
32.46775,42572
32.47587,49651
32.48398,44685
32.49212,45784
32.50023,43424
32.50837,44037
32.51648,46039
32.52460,44425
32.53273,42217
32.54085,43915
32.54898,42032
32.55710,43262
32.56522,45068
32.57335,45140
32.58147,46965
32.58960,45723
32.59772,47210
32.60583,41132
32.61397,41645
32.62208,41095
32.63020,41474
32.63833,42359
32.64645,47699
32.65458,48770
32.66270,49922
32.67082,54691
32.67895,56405
32.68707,58742
32.69520,55420
32.70332,54117
32.71143,54683
32.71957,49115
32.72768,54930
32.73580,47094
32.74393,46239
32.75205,44605
32.76018,43952
32.76830,44589
32.77642,45168
32.78455,44819
32.79267,43914
32.80080,41196
32.80892,42295
32.81703,45276
32.82517,42009
32.83328,44200
32.84142,41527
32.84953,45510
32.85765,41180
32.86578,41399
32.87390,41642
32.88202,43844
32.89015,44766
32.89827,44615
32.90640,43079
32.91452,42824
32.92263,43363
32.93077,42442
32.93888,44416
32.94702,43035
32.95513,41172
32.96325,43260
32.97138,47237
32.97950,51998
32.98762,55510
32.99575,58715
33.00387,65543
33.01200,66812
33.02012,62599
33.02823,63658
33.03637,58043
33.04448,50665
33.05262,47388
33.06073,50173
33.06885,51732
33.07698,54133
33.08510,56201
33.09323,60985
33.10135,64379
33.10947,64801
33.11760,71207
33.12572,68549
33.13383,64447
33.14197,64159
33.15008,57768
33.15822,52458
33.16633,48552
33.17445,48719
33.18258,46093
33.19070,49684
33.19883,52249
33.20695,48399
33.21507,43841
33.22320,46092
33.23132,46703
33.23945,44009
33.24757,42785
33.25568,47999
33.26382,45381
33.27193,46656
33.28005,45206
33.28818,44586
33.29630,43471
33.30443,46268
33.31255,46046
33.32067,47444
33.32880,44196
33.33692,46829
33.34505,49137
33.35317,47909
33.36128,51439
33.36942,51425
33.37753,49456
33.38565,51489
33.39378,47834
33.40190,46042
33.41003,48688
33.41815,46555
33.42627,44798
33.43440,44228
33.44252,42111
33.45065,45358
33.45877,44677
33.46688,42605
33.47502,45692
33.48313,45932
33.49127,42785
33.49938,45219
33.50750,45061
33.51563,46679
33.52375,44214
33.53187,47255
33.54000,49177
33.54812,47513
33.55625,49722
33.56437,50531
33.57248,54168
33.58062,46375
33.58873,51044
33.59687,46343
33.60498,46095
33.61310,45722
33.62123,46951
33.62935,45996
33.63748,46323
33.64560,48209
33.65372,44106
33.66185,49589
33.66997,50502
33.67808,45472
33.68622,44199
33.69433,45607
33.70247,45630
33.71058,42339
33.71870,45849
33.72683,44546
33.73495,43411
33.74308,44690
33.75120,45693
33.75932,44422
33.76745,41375
33.77557,41650
33.78368,43285
33.79182,41052
33.79993,45420
33.80807,44849
33.81618,42896
33.82430,47894
33.83243,45924
33.84055,44448
33.84868,40746
33.85680,47786
33.86492,45062
33.87305,44010
33.88117,46026
33.88930,50967
33.89742,48427
33.90553,45032
33.91367,51395
33.92178,46563
33.92990,45652
33.93803,47032
33.94615,46956
33.95428,49239
33.96240,44461
33.97052,46011
33.97865,46355
33.98677,46419
33.99490,44087
34.00302,46755
34.01113,45856
34.01927,46883
34.02738,46488
34.03550,45097
34.04363,47851
34.05175,45100
34.05988,47353
34.06800,46722
34.07612,49191
34.08425,46991
34.09237,45736
34.10050,48566
34.10862,49107
34.11673,48228
34.12487,48781
34.13298,49968
34.14112,46465
34.14923,45532
34.15735,44104
34.16548,45991
34.17360,44523
34.18172,45283
34.18985,46585
34.19797,47066
34.20610,45303
34.21422,45649
34.22233,47758
34.23047,47420
34.23858,47190
34.24672,44660
34.25483,44106
34.26295,43401
34.27108,45179
34.27920,46107
34.28733,44396
34.29545,45068
34.30357,42828
34.31170,48505
34.31982,46474
34.32793,41351
34.33607,46386
34.34418,44539
34.35232,46565
34.36043,45169
34.36855,45207
34.37668,50835
34.38480,47448
34.39293,50126
34.40105,49043
34.40917,46464
34.41730,46924
34.42542,45482
34.43355,46219
34.44167,43732
34.44978,44257
34.45792,47220
34.46603,43490
34.47415,42991
34.48228,44710
34.49040,42362
34.49853,46526
34.50665,49115
34.51477,48154
34.52290,54800
34.53102,57219
34.53915,63629
34.54727,68325
34.55538,73116
34.56352,73688
34.57163,73919
34.57975,75178
34.58788,70424
34.59600,71455
34.60413,68050
34.61225,63683
34.62037,64493
34.62850,61029
34.63662,63039
34.64475,54176
34.65287,54405
34.66098,55877
34.66912,57900
34.67723,55192
34.68537,53791
34.69348,52948
34.70160,53223
34.70973,50906
34.71785,54089
34.72597,51704
34.73410,50794
34.74222,51581
34.75035,48042
34.75847,54761
34.76658,54957
34.77472,51481
34.78283,51737
34.79097,54071
34.79908,50169
34.80720,50609
34.81533,49976
34.82345,50180
34.83157,51331
34.83970,52563
34.84782,50360
34.85595,52665
34.86407,53484
34.87218,47314
34.88032,50227
34.88843,49939
34.89657,46641
34.90468,49805
34.91280,54168
34.92093,48928
34.92905,49551
34.93718,52858
34.94530,50278
34.95342,55389
34.96155,51062
34.96967,55902
34.97778,55965
34.98592,60247
34.99403,55204
35.00217,53428
35.01028,49411
35.01840,49439
35.02653,48963
35.03465,48966
35.04278,52122
35.05090,48000
35.05902,51804
35.06715,46518
35.07527,49945
35.08340,48019
35.09152,50980
35.09963,46752
35.10777,51465
35.11588,48427
35.12400,50911
35.13213,48219
35.14025,47664
35.14838,49164
35.15650,47850
35.16462,51288
35.17275,52527
35.18087,51402
35.18900,50177
35.19712,49151
35.20523,48493
35.21337,48551
35.22148,48364
35.22960,47084
35.23773,48541
35.24585,49875
35.25398,47051
35.26210,48295
35.27022,52257
35.27835,54071
35.28647,51257
35.29460,54075
35.30272,48247
35.31083,48589
35.31897,48289
35.32708,44312
35.33522,47742
35.34333,44419
35.35145,46893
35.35958,48549
35.36770,49178
35.37582,45330
35.38395,48296
35.39207,48058
35.40020,45744
35.40832,46609
35.41643,52109
35.42457,49765
35.43268,47389
35.44082,54197
35.44893,50714
35.45705,56298
35.46518,57477
35.47330,59068
35.48143,53439
35.48955,56576
35.49767,54455
35.50580,48864
35.51392,49397
35.52203,52327
35.53017,48839
35.53828,51322
35.54642,53354
35.55453,50620
35.56265,54227
35.57078,54265
35.57890,53276
35.58703,46826
35.59515,46173
35.60327,49397
35.61140,50216
35.61952,50976
35.62763,46286
35.63577,46411
35.64388,46353
35.65202,54802
35.66013,49030
35.66825,52463
35.67638,50158
35.68450,54735
35.69263,55505
35.70075,53409
35.70887,53812
35.71700,56249
35.72512,51949
35.73325,52666
35.74137,54301
35.74948,57849
35.75762,60050
35.76573,61095
35.77385,67153
35.78198,59302
35.79010,61213
35.79823,56286
35.80635,55563
35.81447,54971
35.82260,54362
35.83072,51186
35.83885,49151
35.84697,52742
35.85508,50479
35.86322,51403
35.87133,49777
35.87945,50068
35.88758,53777
35.89570,53372
35.90383,49977
35.91195,47994
35.92007,50850
35.92820,51137
35.93632,52970
35.94445,46222
35.95257,51678
35.96068,52899
35.96882,52313
35.97693,49993
35.98507,52105
35.99318,51260
36.00130,51631
36.00943,57698
36.01755,57000
36.02567,55347
36.03380,53550
36.04192,54963
36.05005,56999
36.05817,52411
36.06628,52351
36.07442,53677
36.08253,55701
36.09067,53681
36.09878,55026
36.10690,53106
36.11503,50799
36.12315,57665
36.13128,59216
36.13940,56500
36.14752,58498
36.15565,57160
36.16377,58665
36.17188,57314
36.18002,52720
36.18813,52719
36.19627,55328
36.20438,54567
36.21250,50473
36.22063,45526
36.22875,54229
36.23688,52481
36.24500,54426
36.25312,53186
36.26125,50094
36.26937,52091
36.27748,48701
36.28562,52504
36.29373,53657
36.30187,53531
36.30998,60134
36.31810,63710
36.32623,62648
36.33435,62657
36.34248,64139
36.35060,60057
36.35872,55339
36.36685,57800
36.37497,54249
36.38310,55439
36.39122,57968
36.39933,56309
36.40747,59893
36.41558,58063
36.42370,55790
36.43183,56268
36.43995,54631
36.44808,51089
36.45620,56272
36.46432,52065
36.47245,55882
36.48057,53619
36.48870,52093
36.49682,51167
36.50493,50101
36.51307,55575
36.52118,57746
36.52932,54870
36.53743,56105
36.54555,54788
36.55368,51627
36.56180,54820
36.56992,53499
36.57805,52136
36.58617,51424
36.59430,50085
36.60242,54245
36.61053,51825
36.61867,52294
36.62678,55773
36.63492,55285
36.64303,56259
36.65115,56860
36.65928,53774
36.66740,54372
36.67552,57481
36.68365,56527
36.69177,54419
36.69990,55164
36.70802,59072
36.71613,55686
36.72427,58449
36.73238,62402
36.74052,55345
36.74863,55305
36.75675,59902
36.76488,62778
36.77300,60079
36.78113,59322
36.78925,54993
36.79737,55080
36.80550,52639
36.81362,56267
36.82173,52994
36.82987,55260
36.83798,60539
36.84612,56497
36.85423,55707
36.86235,57337
36.87048,56991
36.87860,56046
36.88673,56848
36.89485,57535
36.90297,60291
36.91110,58523
36.91922,54298
36.92735,56747
36.93547,60199
36.94358,58682
36.95172,67290
36.95983,69962
36.96795,66450
36.97608,68553
36.98420,70891
36.99233,64700
37.00045,60890
37.00857,63342
37.01670,59831
37.02482,58388
37.03295,60824
37.04107,57493
37.04918,61306
37.05732,59383
37.06543,56534
37.07355,58519
37.08168,59719
37.08980,61478
37.09793,62345
37.10605,61665
37.11417,61154
37.12230,59928
37.13042,58801
37.13855,60773
37.14667,58811
37.15478,56460
37.16292,62488
37.17103,65505
37.17917,57557
37.18728,62451
37.19540,59863
37.20353,63707
37.21165,64809
37.21977,58178
37.22790,62178
37.23602,60116
37.24415,55848
37.25227,63646
37.26038,62799
37.26852,60860
37.27663,61949
37.28477,59920
37.29288,60341
37.30100,60028
37.30913,59281
37.31725,60647
37.32537,63854
37.33350,65263
37.34162,69055
37.34975,71130
37.35787,73434
37.36598,74347
37.37412,81667
37.38223,80804
37.39037,82902
37.39848,81009
37.40660,71424
37.41473,74730
37.42285,69212
37.43098,69860
37.43910,71446
37.44722,70933
37.45535,71192
37.46347,68868
37.47158,67256
37.47972,64100
37.48783,67092
