Z:\data\JTB-E02\BACandBLUE\JTB-E02-203-15.D Fri Mar 08 16:00:23 2019
Start of data points
2.09512,73050
2.10323,73051
2.11137,70106
2.11948,71960
2.12760,71646
2.13573,77243
2.14385,75646
2.15198,71762
2.16010,72831
2.16822,68286
2.17635,66844
2.18447,68684
2.19260,62568
2.20072,66792
2.20883,65651
2.21697,62391
2.22508,61753
2.23322,59304
2.24133,59617
2.24945,63070
2.25758,80824
2.26570,487939
2.27382,1505927
2.28195,1798463
2.29007,1048533
2.29820,573401
2.30632,427980
2.31443,365216
2.32257,334968
2.33068,302430
2.33882,261422
2.34693,239591
2.35505,211792
2.36318,210759
2.37130,188355
2.37942,173624
2.38755,178442
2.39567,170305
2.40380,165567
2.41192,164188
2.42003,177917
2.42817,162824
2.43628,159722
2.44442,150427
2.45253,148148
2.46065,145768
2.46878,139146
2.47690,138403
2.48503,134447
2.49315,137299
2.50127,138423
2.50940,123687
2.51752,129911
2.52563,122910
2.53377,124219
2.54188,129517
2.55002,225462
2.55813,562013
2.56625,850038
2.57438,645654
2.58250,447414
2.59063,370867
2.59875,349779
2.60687,424693
2.61500,522965
2.62312,447501
2.63125,351833
2.63937,290395
2.64748,255862
2.65562,228697
2.66373,223380
2.67185,207754
2.67998,194694
2.68810,188267
2.69623,185919
2.70435,177614
2.71247,176978
2.72060,164877
2.72872,164099
2.73685,164316
2.74497,154593
2.75308,150668
2.76122,144150
2.76933,246498
2.77745,976470
2.78558,2434052
2.79370,2747931
2.80183,1746120
2.80995,1097700
2.81807,872478
2.82620,743612
2.83432,616145
2.84245,516366
2.85057,427711
2.85868,384168
2.86682,338729
2.87493,313083
2.88307,284833
2.89118,270414
2.89930,248038
2.90743,237984
2.91555,218950
2.92367,210698
2.93180,201748
2.93992,195974
2.94805,190394
2.95617,179478
2.96428,176827
2.97242,173056
2.98053,167852
2.98867,172449
2.99678,175685
3.00490,178560
3.01303,175149
3.02115,163842
3.02928,162546
3.03740,150370
3.04552,145536
3.05365,140349
3.06177,139893
3.06988,155092
3.07802,248164
3.08613,701159
3.09427,1656127
3.10238,3284882
3.11050,5082212
3.11863,4988517
3.12675,3418665
3.13488,2367590
3.14300,1856311
3.15112,1457583
3.15925,1187378
3.16737,1031514
3.17548,985985
3.18362,1180312
3.19173,1856891
3.19987,2269875
3.20798,1856965
3.21610,1370941
3.22423,1114188
3.23235,944046
3.24048,791903
3.24860,712967
3.25672,629858
3.26485,543745
3.27297,507750
3.28110,510685
3.28922,804920
3.29733,2019904
3.30547,4406064
3.31358,6165836
3.32170,5804877
3.32983,4245368
3.33795,2951737
3.34608,2148406
3.35420,1688572
3.36232,1393331
3.37045,1186555
3.37857,1020480
3.38670,907084
3.39482,830173
3.40293,746797
3.41107,689029
3.41918,641788
3.42730,608047
3.43543,590460
3.44355,562938
3.45168,549296
3.45980,501989
3.46792,515274
3.47605,503096
3.48417,504280
3.49230,460622
3.50042,434221
3.50853,412037
3.51667,400759
3.52478,390117
3.53292,394709
3.54103,408690
3.54915,407226
3.55728,374572
3.56540,346229
3.57352,341108
3.58165,332034
3.58977,330106
3.59790,307100
3.60602,301900
3.61413,315929
3.62227,312435
3.63038,321335
3.63852,338592
3.64663,338663
3.65475,466339
3.66288,1987693
3.67100,8114826
3.67913,1.674315E+07
3.68725,1.935672E+07
3.69537,1.459303E+07
3.70350,9232066
3.71162,6576409
3.71973,5292272
3.72787,4475762
3.73598,3882549
3.74412,3426163
3.75223,3060340
3.76035,2766315
3.76848,2507928
3.77660,2357296
3.78473,2132337
3.79285,2043742
3.80097,2212318
3.80910,3105215
3.81722,4383308
3.82535,4571607
3.83347,3610608
3.84158,2780289
3.84972,2332180
3.85783,2062872
3.86595,1864381
3.87408,1709355
3.88220,1602047
3.89033,1483389
3.89845,1398410
3.90657,1330719
3.91470,1305233
3.92282,1405771
3.93095,1510593
3.93907,1513304
3.94718,1483261
3.95532,1942201
3.96343,2886170
3.97155,3418603
3.97968,2908687
3.98780,2139137
3.99593,1870776
4.00405,2713761
4.01217,4381835
4.02030,5172477
4.02842,4268625
4.03655,2824315
4.04467,1891665
4.05278,1447100
4.06092,1188171
4.06903,1038675
4.07717,939631
4.08528,849446
4.09340,808189
4.10153,765643
4.10965,722276
4.11777,694728
4.12590,649787
4.13402,627736
4.14215,633394
4.15027,655998
4.15838,657666
4.16652,635573
4.17463,654473
4.18277,668004
4.19088,610540
4.19900,590702
4.20713,854606
4.21525,2435100
4.22337,6935041
4.23150,1.311645E+07
4.23962,1.707447E+07
4.24775,1.664835E+07
4.25587,1.227892E+07
4.26398,7797354
4.27212,5189267
4.28023,3687197
4.28837,2698622
4.29648,2130982
4.30460,1723446
4.31273,1424281
4.32085,1211007
4.32898,1083786
4.33710,963272
4.34522,878953
4.35335,874944
4.36147,952024
4.36958,992814
4.37772,942356
4.38583,822967
4.39397,706982
4.40208,608426
4.41020,561113
4.41833,536184
4.42645,509228
4.43458,489178
4.44270,472881
4.45082,450269
4.45895,424916
4.46707,409490
4.47520,403681
4.48332,385995
4.49143,375316
4.49957,377790
4.50768,371024
4.51580,359725
4.52393,365029
4.53205,362360
4.54018,372902
4.54830,385498
4.55642,380903
4.56455,369577
4.57267,347177
4.58080,327621
4.58892,327839
4.59703,305704
4.60517,306597
4.61328,327962
4.62140,386684
4.62953,553572
4.63765,860235
4.64578,1072185
4.65390,1031508
4.66202,818287
4.67015,622865
4.67827,548159
4.68640,488931
4.69452,446158
4.70263,395980
4.71077,358146
4.71888,338024
4.72702,327917
4.73513,312432
4.74325,300304
4.75138,287244
4.75950,274507
4.76762,272551
4.77575,263903
4.78387,290248
4.79200,377887
4.80012,619809
4.80823,886486
4.81637,951375
4.82448,787952
4.83262,616168
4.84073,574682
4.84885,553534
4.85698,526499
4.86510,480050
4.87323,409226
4.88135,364996
4.88947,340625
4.89760,330407
4.90572,311314
4.91383,290199
4.92197,298295
4.93008,302088
4.93822,329397
4.94633,458241
4.95445,764078
4.96258,1222830
4.97070,1550364
4.97883,1622895
4.98695,1443518
4.99507,1166155
5.00320,955053
5.01132,788452
5.01943,720306
5.02757,698453
5.03568,771261
5.04382,858619
5.05193,839340
5.06005,759222
5.06818,656983
5.07630,588081
5.08443,545620
5.09255,515979
5.10067,493113
5.10880,474065
5.11692,443656
5.12505,426818
5.13317,409603
5.14128,424921
5.14942,445626
5.15753,509258
5.16565,614924
5.17378,677789
5.18190,655272
5.19003,581892
5.19815,571316
5.20627,622364
5.21440,681264
5.22252,646242
5.23065,582457
5.23877,515304
5.24688,469251
5.25502,423951
5.26313,377988
5.27125,333624
5.27938,319864
5.28750,297757
5.29563,289543
5.30375,277843
5.31187,271998
5.32000,283872
5.32812,303109
5.33625,343966
5.34437,393616
5.35248,403124
5.36062,357898
5.36873,310152
5.37687,295263
5.38498,297319
5.39310,325247
5.40123,370079
5.40935,362110
5.41747,342780
5.42560,296154
5.43372,281145
5.44185,274358
5.44997,289634
5.45808,320265
5.46622,316220
5.47433,307012
5.48247,273394
5.49058,248073
5.49870,234534
5.50683,238726
5.51495,251051
5.52308,253150
5.53120,247915
5.53932,261787
5.54745,253505
5.55557,335585
5.56368,538413
5.57182,840115
5.57993,1085001
5.58807,1086413
5.59618,918157
5.60430,683770
5.61243,499058
5.62055,389270
5.62868,329328
5.63680,309694
5.64492,278645
5.65305,264212
5.66117,263606
5.66928,253634
5.67742,246628
5.68553,279333
5.69367,334910
5.70178,360285
5.70990,357487
5.71803,338196
5.72615,292543
5.73428,257444
5.74240,238210
5.75052,218352
5.75865,213093
5.76677,203848
5.77490,208251
5.78302,198616
5.79113,194631
5.79927,184488
5.80738,195323
5.81550,191992
5.82363,184616
5.83175,186601
5.83988,192129
5.84800,184991
5.85612,182326
5.86425,177509
5.87237,182494
5.88050,176360
5.88862,170607
5.89673,169944
5.90487,183132
5.91298,190913
5.92112,197166
5.92923,206630
5.93735,199651
5.94548,184777
5.95360,188097
5.96172,238938
5.96985,347707
5.97797,534439
5.98610,727292
5.99422,783033
6.00233,677332
6.01047,522173
6.01858,399729
6.02672,318651
6.03483,259029
6.04295,229630
6.05108,215038
6.05920,200436
6.06732,188147
6.07545,189201
6.08357,188900
6.09170,195394
6.09982,182974
6.10793,198881
6.11607,213700
6.12418,250974
6.13232,334879
6.14043,480079
6.14855,652895
6.15668,683890
6.16480,576893
6.17293,431980
6.18105,334703
6.18917,278497
6.19730,258589
6.20542,250048
6.21353,238216
6.22167,234168
6.22978,224228
6.23792,226166
6.24603,239879
6.25415,257945
6.26228,304931
6.27040,315396
6.27853,297290
6.28665,260145
6.29477,243679
6.30290,215346
6.31102,224443
6.31913,220108
6.32727,214762
6.33538,237384
6.34352,251072
6.35163,246536
6.35975,230543
6.36788,224056
6.37600,211322
6.38413,214106
6.39225,222938
6.40037,216365
6.40850,218195
6.41662,207868
6.42475,209476
6.43287,213738
6.44098,199803
6.44912,206590
6.45723,219799
6.46535,225824
6.47348,220422
6.48160,215067
6.48973,216768
6.49785,215477
6.50597,217446
6.51410,231811
6.52222,231617
6.53035,230518
6.53847,232247
6.54658,224661
6.55472,239204
6.56283,305676
6.57097,452892
6.57908,725529
6.58720,951287
6.59533,894172
6.60345,695752
6.61157,495284
6.61970,353458
6.62782,306786
6.63595,304033
6.64407,450142
6.65218,1177038
6.66032,3352355
6.66843,6715690
6.67657,9110369
6.68468,8592048
6.69280,6059843
6.70093,3585103
6.70905,2522337
6.71717,1794591
6.72530,1390281
6.73342,1152168
6.74155,979093
6.74967,851022
6.75778,763945
6.76592,699172
6.77403,617385
6.78217,575168
6.79028,520400
6.79840,479694
6.80653,427009
6.81465,419386
6.82278,383486
6.83090,365877
6.83902,354314
6.84715,338668
6.85527,330303
6.86338,334585
6.87152,298104
6.87963,284555
6.88777,258273
6.89588,245008
6.90400,225764
6.91213,209457
6.92025,195945
6.92838,191257
6.93650,194557
6.94462,170736
6.95275,169450
6.96087,168849
6.96900,186238
6.97712,223176
6.98523,261214
6.99337,293377
7.00148,287906
7.00960,284119
7.01773,248696
7.02585,236680
7.03398,230981
7.04210,229321
7.05022,251881
7.05835,277738
7.06647,344957
7.07460,383680
7.08272,372951
7.09083,348377
7.09897,299629
7.10708,254027
7.11520,220927
7.12333,199575
7.13145,195252
7.13958,195049
7.14770,212027
7.15582,235006
7.16395,284262
7.17207,313747
7.18020,287964
7.18832,246167
7.19643,244069
7.20457,364127
7.21268,815778
7.22082,1632882
7.22893,2483052
7.23705,2847986
7.24518,2377124
7.25330,1542511
7.26142,884920
7.26955,510339
7.27767,335126
7.28580,228726
7.29392,175347
7.30203,158865
7.31017,156176
7.31828,164168
7.32642,167043
7.33453,186669
7.34265,186662
7.35078,189626
7.35890,170741
7.36703,160028
7.37515,149612
7.38327,150299
7.39140,136498
7.39952,132887
7.40763,136630
7.41577,127487
7.42388,123476
7.43202,119420
7.44013,124734
7.44825,125688
7.45638,128784
7.46450,126497
7.47263,127462
7.48075,124374
7.48887,116582
7.49700,112876
7.50512,116787
7.51323,132979
7.52137,211508
7.52948,421040
7.53762,918536
7.54573,1740758
7.55385,2987934
7.56198,4227085
7.57010,4921542
7.57823,4744560
7.58635,3975825
7.59447,2814010
7.60260,1834924
7.61072,1130055
7.61885,689288
7.62697,484083
7.63508,362494
7.64322,291686
7.65133,251848
7.65945,197168
7.66758,172553
7.67570,164833
7.68383,146019
7.69195,135633
7.70007,126664
7.70820,132574
7.71632,134042
7.72445,135942
7.73257,133845
7.74068,140393
7.74882,148641
7.75693,150007
7.76505,158711
7.77318,165852
7.78130,159946
7.78943,166007
7.79755,165675
7.80567,174720
7.81380,187304
7.82192,194344
7.83005,176843
7.83817,155732
7.84628,142231
7.85442,140418
7.86253,148076
7.87067,151090
7.87878,167793
7.88690,194902
7.89503,208888
7.90315,206309
7.91127,192487
7.91940,179950
7.92752,207389
7.93565,300718
7.94377,429622
7.95188,543126
7.96002,524946
7.96813,440237
7.97627,320011
7.98438,239003
7.99250,168272
8.00063,146674
8.00875,113518
8.01688,111789
8.02500,112111
8.03312,108118
8.04125,101351
8.04937,100971
8.05748,104078
8.06562,102926
8.07373,99182
8.08187,105394
8.08998,99625
8.09810,94529
8.10623,82264
8.11435,94595
8.12248,87564
8.13060,95961
8.13872,106149
8.14685,132407
8.15497,158295
8.16308,162701
8.17122,150700
8.17933,138198
8.18747,120311
8.19558,108747
8.20370,97390
8.21183,93270
8.21995,96509
8.22808,91297
8.23620,92077
8.24432,93152
8.25245,93064
8.26057,89403
8.26870,84020
8.27682,79601
8.28493,82694
8.29307,78091
8.30118,83488
8.30930,83980
8.31743,93342
8.32555,109501
8.33368,111368
8.34180,111303
8.34992,100647
8.35805,93459
8.36617,85792
8.37430,84632
8.38242,96573
8.39053,103681
8.39867,95311
8.40678,94099
8.41492,82552
8.42303,81068
8.43115,74229
8.43928,67595
8.44740,73989
8.45552,79569
8.46365,85942
8.47177,84836
8.47990,91213
8.48802,86630
8.49613,84650
8.50427,82535
8.51238,85936
8.52052,115699
8.52863,230245
8.53675,448769
8.54488,733545
8.55300,932083
8.56112,872534
8.56925,643154
8.57737,399483
8.58550,236972
8.59362,171787
8.60173,153015
8.60987,146322
8.61798,139325
8.62612,125419
8.63423,119869
8.64235,119689
8.65048,105613
8.65860,101168
8.66673,102300
8.67485,90586
8.68297,93308
8.69110,100913
8.69922,96910
8.70733,97975
8.71547,91615
8.72358,93197
8.73172,82985
8.73983,82661
8.74795,78488
8.75608,80048
8.76420,95044
8.77233,131869
8.78045,201103
8.78857,333986
8.79670,441677
8.80482,490080
8.81293,458630
8.82107,372428
8.82918,281764
8.83732,228998
8.84543,196433
8.85355,187879
8.86168,185608
8.86980,180514
8.87793,159342
8.88605,158432
8.89417,148022
8.90230,143685
8.91042,148137
8.91855,142551
8.92667,146755
8.93478,159974
8.94292,174028
8.95103,193040
8.95915,180829
8.96728,173452
8.97540,169314
8.98353,176963
8.99165,198453
8.99977,190711
9.00790,179392
9.01602,166749
9.02415,140016
9.03227,127140
9.04038,119968
9.04852,112706
9.05663,108476
9.06477,106333
9.07288,101099
9.08100,115539
9.08913,114112
9.09725,133033
9.10537,166997
9.11350,211665
9.12162,252972
9.12975,262738
9.13787,240099
9.14598,202628
9.15412,163094
9.16223,135282
9.17037,117046
9.17848,114260
9.18660,110950
9.19473,107467
9.20285,106760
9.21098,104259
9.21910,102500
9.22722,97762
9.23535,102486
9.24347,115290
9.25158,116660
9.25972,120850
9.26783,115959
9.27597,116855
9.28408,114599
9.29220,104290
9.30033,100936
9.30845,98715
9.31658,95425
9.32470,92935
9.33282,88890
9.34095,89040
9.34907,86476
9.35718,94116
9.36532,86438
9.37343,88714
9.38157,100521
9.38968,107613
9.39780,126621
9.40593,146311
9.41405,174597
9.42218,217139
9.43030,256477
9.43842,312807
9.44655,362739
9.45467,356765
9.46280,309050
9.47092,247989
9.47903,190241
9.48717,142594
9.49528,119275
9.50340,111726
9.51153,127117
9.51965,151173
9.52778,179027
9.53590,202291
9.54402,194709
9.55215,180886
9.56027,154556
9.56840,129710
9.57652,105227
9.58463,98802
9.59277,92135
9.60088,93770
9.60900,82784
9.61713,85548
9.62525,82776
9.63338,73284
9.64150,68996
9.64962,71407
9.65775,77061
9.66587,69276
9.67400,82641
9.68212,75775
9.69023,69927
9.69837,68302
9.70648,67186
9.71462,65034
9.72273,61135
9.73085,65878
9.73898,68655
9.74710,58652
9.75522,61443
9.76335,58120
9.77147,60388
9.77960,66134
9.78772,56760
9.79583,65246
9.80397,58846
9.81208,61819
9.82022,62599
9.82833,55649
9.83645,63039
9.84458,64815
9.85270,59100
9.86083,58472
9.86895,61203
9.87707,67530
9.88520,61611
9.89332,60571
9.90143,56872
9.90957,58113
9.91768,59488
9.92582,66373
9.93393,86117
9.94205,123960
9.95018,175887
9.95830,233693
9.96643,256348
9.97455,256172
9.98267,219888
9.99080,170081
9.99892,127431
10.00703,103180
10.01517,89229
10.02328,85413
10.03142,87149
10.03953,84662
10.04765,77459
10.05578,76533
10.06390,80470
10.07203,78718
10.08015,86346
10.08827,85271
10.09640,88689
10.10452,86398
10.11265,94945
10.12077,84932
10.12888,81228
10.13702,75959
10.14513,71550
10.15325,70474
10.16138,72781
10.16950,68196
10.17763,69356
10.18575,62689
10.19387,69080
10.20200,65608
10.21012,62685
10.21825,62329
10.22637,68181
10.23448,74331
10.24262,80270
10.25073,92592
10.25887,122425
10.26698,233839
10.27510,565288
10.28323,1350845
10.29135,2690285
10.29947,4569797
10.30760,6808149
10.31572,9843548
10.32385,1.462493E+07
10.33197,2.144414E+07
10.34008,2.916731E+07
10.34822,3.467675E+07
10.35633,3.469987E+07
10.36447,2.821088E+07
10.37258,1.758386E+07
10.38070,9957060
10.38883,6077400
10.39695,4122648
10.40507,2781089
10.41320,1834096
10.42132,1264136
10.42945,955515
10.43757,829476
10.44568,810832
10.45382,809144
10.46193,826357
10.47007,797449
10.47818,727757
10.48630,647863
10.49443,559840
10.50255,493683
10.51068,450492
10.51880,416701
10.52692,410787
10.53505,389773
10.54317,375602
10.55128,375244
10.55942,364250
10.56753,331064
10.57567,305016
10.58378,280670
10.59190,269627
10.60003,256442
10.60815,239062
10.61628,230519
10.62440,231225
10.63252,209475
10.64065,202847
10.64877,199865
10.65688,193972
10.66502,185506
10.67313,176562
10.68127,178410
10.68938,180234
10.69750,185553
10.70563,191300
10.71375,191738
10.72188,183103
10.73000,181447
10.73812,164553
10.74625,153006
10.75437,152350
10.76250,151160
10.77062,141505
10.77873,138437
10.78687,138372
10.79498,144839
10.80310,147407
10.81123,159224
10.81935,167393
10.82748,170822
10.83560,158910
10.84372,160164
10.85185,135555
10.85997,124098
10.86810,116219
10.87622,111654
10.88433,103886
10.89247,103563
10.90058,101698
10.90872,97321
10.91683,100583
10.92495,98796
10.93308,93358
10.94120,98001
10.94932,100139
10.95745,91858
10.96557,104050
10.97370,96079
10.98182,97857
10.98993,105814
10.99807,115116
11.00618,123468
11.01432,125356
11.02243,133369
11.03055,126360
11.03868,121883
11.04680,109518
11.05492,97442
11.06305,97024
11.07117,104087
11.07930,106042
11.08742,125474
11.09553,131569
11.10367,140079
11.11178,140619
11.11992,128723
11.12803,118375
11.13615,108081
11.14428,98303
11.15240,83693
11.16053,89069
11.16865,89666
11.17677,91811
11.18490,89569
11.19302,97469
11.20113,84363
11.20927,82094
11.21738,77792
11.22552,76426
11.23363,70385
11.24175,66230
11.24988,66494
11.25800,60118
11.26613,62671
11.27425,56518
11.28237,61070
11.29050,65906
11.29862,94597
11.30675,155630
11.31487,344489
11.32298,773056
11.33112,1518409
11.33923,2463829
11.34735,3349186
11.35548,3673416
11.36360,3327403
11.37173,2545874
11.37985,1738582
11.38797,1147537
11.39610,815988
11.40422,683850
11.41235,615425
11.42047,552196
11.42858,497223
11.43672,435742
11.44483,378615
11.45295,333836
11.46108,288732
11.46920,260217
11.47733,244079
11.48545,262297
11.49357,273852
11.50170,312593
11.50982,346733
11.51795,325233
11.52607,295037
11.53418,265221
11.54232,236498
11.55043,211631
11.55857,197486
11.56668,188194
11.57480,188664
11.58293,175529
11.59105,168793
11.59917,170252
11.60730,179796
11.61542,211465
11.62355,220925
11.63167,236194
11.63978,222555
11.64792,188951
11.65603,160392
11.66417,132362
11.67228,124505
11.68040,123978
11.68853,122177
11.69665,135941
11.70478,145681
11.71290,138499
11.72102,145534
11.72915,126445
11.73727,109206
11.74538,94943
11.75352,91963
11.76163,94902
11.76977,89970
11.77788,83738
11.78600,78292
11.79413,79118
11.80225,80199
11.81038,68150
11.81850,76440
11.82662,75683
11.83475,69953
11.84287,69967
11.85098,73226
11.85912,73519
11.86723,72580
11.87537,67832
11.88348,69748
11.89160,70115
11.89973,64980
11.90785,66235
11.91598,68952
11.92410,71631
11.93222,74772
11.94035,75914
11.94847,70001
11.95660,67111
11.96472,64439
11.97283,60492
11.98097,59434
11.98908,62234
11.99720,77861
12.00533,86335
12.01345,96113
12.02158,105294
12.02970,103730
12.03782,98730
12.04595,82975
12.05407,70205
12.06220,68050
12.07032,69828
12.07843,74357
12.08657,77507
12.09468,103094
12.10280,147406
12.11093,259265
12.11905,473430
12.12718,780515
12.13530,1143571
12.14342,1341063
12.15155,1339210
12.15967,1098480
12.16780,761229
12.17592,484402
12.18403,310142
12.19217,234747
12.20028,216614
12.20842,213032
12.21653,206310
12.22465,200161
12.23278,183763
12.24090,170965
12.24902,162798
12.25715,147331
12.26527,143522
12.27340,133532
12.28152,131470
12.28963,124296
12.29777,125883
12.30588,117941
12.31402,112287
12.32213,105231
12.33025,100984
12.33838,107160
12.34650,103121
12.35463,102407
12.36275,114621
12.37087,117484
12.37900,109874
12.38712,109639
12.39523,103567
12.40337,107640
12.41148,116069
12.41962,131339
12.42773,145886
12.43585,164943
12.44398,156391
12.45210,150092
12.46023,135296
12.46835,122441
12.47647,110503
12.48460,104862
12.49272,104267
12.50083,101927
12.50897,102577
12.51708,96872
12.52522,92898
12.53333,99772
12.54145,122028
12.54958,173982
12.55770,246513
12.56583,328353
12.57395,384735
12.58207,362065
12.59020,300146
12.59832,231422
12.60645,170386
12.61457,135634
12.62268,123905
12.63082,114792
12.63893,108911
12.64705,101870
12.65518,99101
12.66330,94208
12.67143,83351
12.67955,81340
12.68767,82226
12.69580,78580
12.70392,77088
12.71205,73251
12.72017,77333
12.72828,88991
12.73642,82018
12.74453,86335
12.75267,91575
12.76078,81422
12.76890,75723
12.77703,79457
12.78515,74881
12.79327,74136
12.80140,73523
12.80952,69108
12.81765,59540
12.82577,58896
12.83388,60379
12.84202,52970
12.85013,52388
12.85827,51425
12.86638,59856
12.87450,48768
12.88263,52344
12.89075,51640
12.89887,47851
12.90700,58241
12.91512,51773
12.92325,51883
12.93137,47523
12.93948,53719
12.94762,49868
12.95573,51715
12.96387,52782
12.97198,50011
12.98010,53451
12.98823,51583
12.99635,57719
13.00448,53930
13.01260,52938
13.02072,49273
13.02885,52081
13.03697,49261
13.04508,46033
13.05322,48061
13.06133,53132
13.06947,48557
13.07758,54080
13.08570,50130
13.09383,51230
13.10195,55499
13.11008,52163
13.11820,48753
13.12632,50241
13.13445,46851
13.14257,48391
13.15068,50604
13.15882,51390
13.16693,55602
13.17507,50854
13.18318,55633
13.19130,52096
13.19943,56214
13.20755,63781
13.21568,63835
13.22380,64137
13.23192,67391
13.24005,67244
13.24817,63351
13.25630,58252
13.26442,57045
13.27253,58911
13.28067,54236
13.28878,53059
13.29690,51843
13.30503,47757
13.31315,48978
13.32128,47581
13.32940,47593
13.33752,43520
13.34565,45643
13.35377,47120
13.36190,42567
13.37002,45393
13.37813,48347
13.38627,46568
13.39438,47422
13.40252,47406
13.41063,41208
13.41875,41538
13.42688,41834
13.43500,41909
13.44312,44714
13.45125,44781
13.45937,48370
13.46750,55339
13.47562,59261
13.48373,52070
13.49187,59146
13.49998,57024
13.50812,49179
13.51623,51022
13.52435,48873
13.53248,50448
13.54060,54874
13.54872,56792
13.55685,52443
13.56497,57260
13.57310,63796
13.58122,70303
13.58933,70818
13.59747,75955
13.60558,77790
13.61372,73893
13.62183,81498
13.62995,79096
13.63808,69216
13.64620,64822
13.65433,60884
13.66245,50845
13.67057,48809
13.67870,47248
13.68682,45351
13.69493,43405
13.70307,43793
13.71118,47339
13.71932,47303
13.72743,50515
13.73555,49140
13.74368,55904
13.75180,61871
13.75993,76324
13.76805,112918
13.77617,153402
13.78430,203120
13.79242,255647
13.80055,287948
13.80867,299532
13.81678,337925
13.82492,419305
13.83303,497205
13.84115,573356
13.84928,603401
13.85740,558590
13.86553,480825
13.87365,383672
13.88177,292868
13.88990,224177
13.89802,170766
13.90615,130631
13.91427,113260
13.92238,101125
13.93052,85426
13.93863,81125
13.94675,80159
13.95488,81577
13.96300,94302
13.97113,115177
13.97925,166921
13.98737,191746
13.99550,205541
14.00362,191250
14.01175,164877
14.01987,137335
14.02798,118298
14.03612,100016
14.04423,90598
14.05237,87029
14.06048,80178
14.06860,83018
14.07673,76759
14.08485,78909
14.09297,74801
14.10110,66808
14.10922,71139
14.11735,65254
14.12547,59286
14.13358,62254
14.14172,66615
14.14983,71978
14.15797,78987
14.16608,89369
14.17420,94272
14.18233,94367
14.19045,96609
14.19857,102698
14.20670,118834
14.21482,141003
14.22295,166454
14.23107,195338
14.23918,188388
14.24732,196721
14.25543,198089
14.26357,197322
14.27168,182901
14.27980,172094
14.28793,147831
14.29605,117444
14.30418,106384
14.31230,97172
14.32042,88755
14.32855,92156
14.33667,83790
14.34478,80633
14.35292,81795
14.36103,79247
14.36917,73875
14.37728,77448
14.38540,68833
14.39353,71431
14.40165,68451
14.40978,69355
14.41790,76815
14.42602,82421
14.43415,80951
14.44227,77380
14.45040,75333
14.45852,69319
14.46663,63805
14.47477,65997
14.48288,65792
14.49100,66531
14.49913,64869
14.50725,61791
14.51538,62786
14.52350,58664
14.53162,61026
14.53975,61864
14.54787,64789
14.55600,62860
14.56412,64755
14.57223,66672
14.58037,63257
14.58848,54019
14.59662,53261
14.60473,54817
14.61285,51040
14.62098,48139
14.62910,51764
14.63722,47898
14.64535,43249
14.65347,44735
14.66160,44287
14.66972,42974
14.67783,44129
14.68597,43198
14.69408,42055
14.70222,44910
14.71033,43923
14.71845,47104
14.72658,46727
14.73470,48250
14.74282,49891
14.75095,50858
14.75907,53428
14.76720,55849
14.77532,63779
14.78343,61069
14.79157,76901
14.79968,149815
14.80782,372974
14.81593,961592
14.82405,2079434
14.83218,3558992
14.84030,4811795
14.84843,5249108
14.85655,4606966
14.86467,3325132
14.87280,2093301
14.88092,1263511
14.88903,829093
14.89717,595708
14.90528,489279
14.91342,419449
14.92153,364660
14.92965,323219
14.93778,309353
14.94590,282952
14.95403,266109
14.96215,248569
14.97027,247317
14.97840,207941
14.98652,206163
14.99463,185945
15.00277,181360
15.01088,176363
15.01902,166357
15.02713,162409
15.03525,166170
15.04338,152236
15.05150,157371
15.05963,147082
15.06775,143585
15.07587,130933
15.08400,124207
15.09212,119615
15.10025,118463
15.10837,110015
15.11648,111283
15.12462,113186
15.13273,117282
15.14085,122875
15.14898,124974
15.15710,132141
15.16523,117781
15.17335,110158
15.18147,92714
15.18960,84150
15.19772,71808
15.20585,68242
15.21397,71298
15.22208,72283
15.23022,67171
15.23833,63608
15.24647,58120
15.25458,61708
15.26270,63094
15.27083,58202
15.27895,56720
15.28707,54444
15.29520,55658
15.30332,52769
15.31145,60287
15.31957,54220
15.32768,50125
15.33582,50991
15.34393,55022
15.35207,48450
15.36018,52915
15.36830,49650
15.37643,53591
15.38455,54982
15.39267,51590
15.40080,53742
15.40892,50508
15.41705,56797
15.42517,52872
15.43328,53691
15.44142,50275
15.44953,54381
15.45767,56595
15.46578,68047
15.47390,99248
15.48203,153628
15.49015,243870
15.49828,352834
15.50640,456771
15.51452,515628
15.52265,530988
15.53077,500966
15.53888,434798
15.54702,406773
15.55513,368837
15.56327,322353
15.57138,274254
15.57950,211286
15.58763,162441
15.59575,129010
15.60388,109352
15.61200,97177
15.62012,93716
15.62825,84854
15.63637,81586
15.64450,74223
15.65262,74602
15.66073,74394
15.66887,70850
15.67698,64392
15.68510,61383
15.69323,66984
15.70135,63143
15.70948,69421
15.71760,55502
15.72572,58216
15.73385,55770
15.74197,52976
15.75010,63644
15.75822,67239
15.76633,91130
15.77447,137313
15.78258,208844
15.79070,300066
15.79883,348283
15.80695,365815
15.81508,323164
15.82320,245437
15.83132,175306
15.83945,124623
15.84757,106012
15.85570,103219
15.86382,92511
15.87193,89779
15.88007,82952
15.88818,84206
15.89632,82588
15.90443,80251
15.91255,87079
15.92068,75979
15.92880,81963
15.93692,79197
15.94505,72245
15.95317,72771
15.96130,72854
15.96942,77651
15.97753,87987
15.98567,100520
15.99378,108924
16.00192,103446
16.01003,92523
16.01815,98387
16.02628,98183
16.03440,101253
16.04252,98635
16.05065,97615
16.05877,84118
16.06690,79320
16.07502,72203
16.08313,71397
16.09127,68726
16.09938,62703
16.10752,62737
16.11563,62673
16.12375,62087
16.13188,61852
16.14000,75272
16.14813,76476
16.15625,80192
16.16437,79970
16.17250,82398
16.18062,77274
16.18873,72856
16.19687,67296
16.20498,61686
16.21312,60923
16.22123,59127
16.22935,61305
16.23748,60527
16.24560,56240
16.25373,54388
16.26185,60995
16.26997,61923
16.27810,58366
16.28622,65026
16.29435,69216
16.30247,78445
16.31058,82000
16.31872,83685
16.32683,86337
16.33495,84090
16.34308,71007
16.35120,69671
16.35933,79640
16.36745,93294
16.37557,101289
16.38370,108464
16.39182,111410
16.39995,111028
16.40807,99033
16.41618,81699
16.42432,75650
16.43243,71859
16.44055,67827
16.44868,77048
16.45680,110007
16.46493,199859
16.47305,364792
16.48117,619652
16.48930,866607
16.49742,937357
16.50555,856503
16.51367,643847
16.52178,426850
16.52992,270952
16.53803,188065
16.54617,154611
16.55428,128346
16.56240,122079
16.57053,111317
16.57865,103265
16.58677,98135
16.59490,97419
16.60302,96924
16.61115,106210
16.61927,113757
16.62738,116373
16.63552,109866
16.64363,97019
16.65177,89095
16.65988,85837
16.66800,78716
16.67613,76398
16.68425,66599
16.69238,71524
16.70050,64264
16.70862,66526
16.71675,59122
16.72487,61201
16.73298,60118
16.74112,57947
16.74923,55677
16.75737,64244
16.76548,63476
16.77360,73854
16.78173,65953
16.78985,65929
16.79798,60024
16.80610,62928
16.81422,54547
16.82235,51069
16.83047,50919
16.83858,54859
16.84672,50991
16.85483,54781
16.86297,53423
16.87108,48390
16.87920,49113
16.88733,48575
16.89545,47983
16.90358,46757
16.91170,45198
16.91982,44978
16.92795,47941
16.93607,47190
16.94420,46512
16.95232,48660
16.96043,41860
16.96857,48545
16.97668,47122
16.98480,47803
16.99293,46223
17.00105,45976
17.00918,48658
17.01730,45532
17.02542,43874
17.03355,49394
17.04167,50158
17.04980,51685
17.05792,57777
17.06603,64111
17.07417,59656
17.08228,59803
17.09040,53210
17.09853,59531
17.10665,61115
17.11478,60929
17.12290,65689
17.13102,66739
17.13915,68332
17.14727,68302
17.15540,62224
17.16352,61737
17.17163,62925
17.17977,56994
17.18788,55191
17.19602,48172
17.20413,49527
17.21225,50604
17.22038,48930
17.22850,45354
17.23662,46303
17.24475,47204
17.25287,47533
17.26100,49607
17.26912,45318
17.27723,51514
17.28537,47047
17.29348,47596
17.30162,52398
17.30973,45760
17.31785,50048
17.32598,50216
17.33410,55775
17.34223,66730
17.35035,72040
17.35847,74471
17.36660,78755
17.37472,74750
17.38283,78377
17.39097,80549
17.39908,74045
17.40722,75613
17.41533,75441
17.42345,83986
17.43158,77986
17.43970,79481
17.44783,81254
17.45595,75863
17.46407,67972
17.47220,68269
17.48032,69518
17.48843,59133
17.49657,56188
17.50468,56420
17.51282,47991
17.52093,54188
17.52905,51407
17.53718,56281
17.54530,49325
17.55343,61352
17.56155,55342
17.56967,74377
17.57780,109506
17.58592,163537
17.59405,272451
17.60217,412328
17.61028,551516
17.61842,623402
17.62653,626521
17.63465,536888
17.64278,415672
17.65090,347286
17.65903,304531
17.66715,315317
17.67527,346606
17.68340,347057
17.69152,322571
17.69965,260262
17.70777,215443
17.71588,171665
17.72402,144783
17.73213,130416
17.74027,126965
17.74838,115621
17.75650,114552
17.76463,107906
17.77275,98614
17.78087,99127
17.78900,85127
17.79712,82841
17.80525,80557
17.81337,78936
17.82148,80867
17.82962,81926
17.83773,83940
17.84587,90391
17.85398,97971
17.86210,104056
17.87023,120410
17.87835,120823
17.88647,119403
17.89460,103072
17.90272,95217
17.91085,77202
17.91897,65856
17.92708,64453
17.93522,60909
17.94333,59945
17.95147,63579
17.95958,57332
17.96770,58600
17.97583,55854
17.98395,58538
17.99208,53805
18.00020,54112
18.00832,57043
18.01645,58291
18.02457,66977
18.03268,85886
18.04082,103699
18.04893,113448
18.05707,117662
18.06518,114444
18.07330,103446
18.08143,91552
18.08955,98217
18.09768,106449
18.10580,116113
18.11392,138302
18.12205,157342
18.13017,187765
18.13830,191702
18.14642,181928
18.15453,163761
18.16267,142068
18.17078,128177
18.17890,121094
18.18703,107614
18.19515,97692
18.20328,104186
18.21140,91271
18.21952,82114
18.22765,80846
18.23577,72841
18.24390,74153
18.25202,72332
18.26013,65854
18.26827,74460
18.27638,66981
18.28450,68125
18.29263,59247
18.30075,60819
18.30888,55880
18.31700,54982
18.32512,56161
18.33325,52164
18.34137,50253
18.34950,50944
18.35762,50045
18.36573,49543
18.37387,51566
18.38198,52245
18.39012,49733
18.39823,51881
18.40635,54840
18.41448,58246
18.42260,64200
18.43072,83691
18.43885,102277
18.44697,125324
18.45510,144636
18.46322,168902
18.47133,189997
18.47947,214361
18.48758,235662
18.49572,251525
18.50383,230996
18.51195,198155
18.52008,153273
18.52820,122314
18.53632,101006
18.54445,87423
18.55257,76537
18.56070,62619
18.56882,75455
18.57693,56635
18.58507,70818
18.59318,67396
18.60132,74937
18.60943,78082
18.61755,88538
18.62568,91550
18.63380,93158
18.64193,100144
18.65005,91957
18.65817,92143
18.66630,80966
18.67442,71583
18.68253,69351
18.69067,61733
18.69878,59616
18.70692,60849
18.71503,64236
18.72315,57069
18.73128,57349
18.73940,58675
18.74753,57533
18.75565,53664
18.76377,50534
18.77190,52169
18.78002,49076
18.78815,47705
18.79627,48224
18.80438,51828
18.81252,48936
18.82063,48608
18.82875,48501
18.83688,51426
18.84500,51656
18.85313,49385
18.86125,57125
18.86937,56279
18.87750,65743
18.88562,71906
18.89375,73793
18.90187,70758
18.90998,67674
18.91812,63556
18.92623,65863
18.93435,67214
18.94248,69140
18.95060,68037
18.95873,73338
18.96685,70501
18.97497,77138
18.98310,83848
18.99122,73943
18.99935,67982
19.00747,61519
19.01558,58173
19.02372,50337
19.03183,53769
19.03997,55000
19.04808,54845
19.05620,55339
19.06433,50528
19.07245,51403
19.08057,55356
19.08870,64629
19.09682,78183
19.10495,98258
19.11307,118552
19.12118,127720
19.12932,126319
19.13743,119424
19.14557,106882
19.15368,97028
19.16180,95966
19.16993,97524
19.17805,108384
19.18618,126662
19.19430,151365
19.20242,164469
19.21055,169443
19.21867,170253
19.22678,173082
19.23492,160367
19.24303,160633
19.25117,157886
19.25928,159399
19.26740,156674
19.27553,160035
19.28365,163504
19.29178,174572
19.29990,177876
19.30802,192620
19.31615,190644
19.32427,198967
19.33238,184814
19.34052,179168
19.34863,176127
19.35677,189529
19.36488,193445
19.37300,210746
19.38113,218209
19.38925,221553
19.39738,221921
19.40550,212571
19.41362,197956
19.42175,180003
19.42987,170565
19.43800,163120
19.44612,160777
19.45423,155496
19.46237,155575
19.47048,154141
19.47860,146837
19.48673,158771
19.49485,157329
19.50298,169350
19.51110,183746
19.51922,211279
19.52735,240568
19.53547,245070
19.54360,244272
19.55172,230799
19.55983,212153
19.56797,192388
19.57608,179483
19.58420,170479
19.59233,151431
19.60045,150339
19.60858,145408
19.61670,147417
19.62482,135333
19.63295,143221
19.64107,165420
19.64920,206298
19.65732,284769
19.66543,397200
19.67357,521975
19.68168,649278
19.68982,699242
19.69793,670206
19.70605,575780
19.71418,463726
19.72230,383307
19.73042,321144
19.73855,273402
19.74667,246419
19.75480,211909
19.76292,201788
19.77103,196165
19.77917,193190
19.78728,212832
19.79542,242866
19.80353,253204
19.81165,273920
19.81978,269626
19.82790,257827
19.83603,235954
19.84415,202604
19.85227,183093
19.86040,172008
19.86852,178180
19.87663,204482
19.88477,277322
19.89288,432337
19.90102,645508
19.90913,919914
19.91725,1177785
19.92538,1395554
19.93350,1493680
19.94163,1504142
19.94975,1464938
19.95787,1404278
19.96600,1343310
19.97412,1269622
19.98225,1169203
19.99037,1121273
19.99848,1061492
20.00662,1011242
20.01473,980562
20.02285,949023
20.03098,908961
20.03910,851366
20.04723,775543
20.05535,689867
20.06347,618039
20.07160,567379
20.07972,519020
20.08785,512310
20.09597,493561
20.10408,472172
20.11222,445557
20.12033,387385
20.12845,346883
20.13658,319110
20.14470,322036
20.15283,346718
20.16095,473843
20.16907,681199
20.17720,1021235
20.18532,1403720
20.19345,1800374
20.20157,2075240
20.20968,2174156
20.21782,2060198
20.22593,1778890
20.23407,1423917
20.24218,1166137
20.25030,1046094
20.25843,1083691
20.26655,1241434
20.27467,1419825
20.28280,1591677
20.29092,1704375
20.29905,1621674
20.30717,1434383
20.31528,1143285
20.32342,868887
20.33153,642740
20.33967,481638
20.34778,371402
20.35590,280773
20.36403,231797
20.37215,198947
20.38027,167831
20.38840,153661
20.39652,146263
20.40465,138885
20.41277,130754
20.42088,131533
20.42902,137675
20.43713,145176
20.44527,160542
20.45338,179599
20.46150,177393
20.46963,191246
20.47775,181056
20.48588,163228
20.49400,156971
20.50212,140413
20.51025,123814
20.51837,118882
20.52648,115080
20.53462,114554
20.54273,108694
20.55087,104451
20.55898,100352
20.56710,103532
20.57523,106580
20.58335,102194
20.59148,101403
20.59960,99132
20.60772,99065
20.61585,97281
20.62397,93237
20.63210,94878
20.64022,103942
20.64833,100071
20.65647,105655
20.66458,105706
20.67270,109473
20.68083,99525
20.68895,101169
20.69708,98941
20.70520,96321
20.71332,86329
20.72145,87261
20.72957,83935
20.73770,90325
20.74582,81436
20.75393,89312
20.76207,92509
20.77018,94582
20.77830,92562
20.78643,112211
20.79455,144205
20.80268,212309
20.81080,314570
20.81892,449320
20.82705,571886
20.83517,595003
20.84330,532546
20.85142,429893
20.85953,307226
20.86767,204294
20.87578,154462
20.88392,129688
20.89203,118158
20.90015,113421
20.90828,113859
20.91640,127115
20.92452,132716
20.93265,141259
20.94077,138531
20.94890,144276
20.95702,150873
20.96513,130180
20.97327,118689
20.98138,110434
20.98952,105018
20.99763,100557
21.00575,93018
21.01388,88522
21.02200,92393
21.03013,87805
21.03825,93596
21.04637,91941
21.05450,88560
21.06262,87076
21.07073,91066
21.07887,79712
21.08698,74069
21.09512,79585
21.10323,83038
21.11135,78245
21.11948,78343
21.12760,83739
21.13573,87873
21.14385,112399
21.15197,138751
21.16010,167629
21.16822,210984
21.17633,228465
21.18447,234110
21.19258,200074
21.20072,165777
21.20883,131105
21.21695,117590
21.22508,96316
21.23320,93461
21.24133,89696
21.24945,85152
21.25757,87326
21.26570,87096
21.27382,87017
21.28195,83697
21.29007,83167
21.29818,80254
21.30632,79264
21.31443,80402
21.32255,81465
21.33068,74075
21.33880,72507
21.34693,72293
21.35505,74302
21.36317,73644
21.37130,79252
21.37942,75229
21.38755,76947
21.39567,79543
21.40378,84090
21.41192,95015
21.42003,106721
21.42815,127324
21.43628,135046
21.44440,141055
21.45253,125186
21.46065,122175
21.46877,98427
21.47690,92943
21.48502,87817
21.49315,89922
21.50127,77284
21.50938,74041
21.51752,76152
21.52563,71363
21.53377,72141
21.54188,77298
21.55000,71815
21.55813,74094
21.56625,74009
21.57437,73860
21.58250,75912
21.59062,80873
21.59875,86855
21.60687,92203
21.61498,88487
21.62312,86336
21.63123,91899
21.63937,98776
21.64748,108121
21.65560,128137
21.66373,138794
21.67185,131246
21.67998,133987
21.68810,134221
21.69622,126939
21.70435,116311
21.71247,101538
21.72058,93437
21.72872,85399
21.73683,83380
21.74497,76735
21.75308,79013
21.76120,72665
21.76933,76247
21.77745,73225
21.78558,76878
21.79370,78394
21.80182,75837
21.80995,78750
21.81807,73752
21.82618,81318
21.83432,89874
21.84243,99111
21.85057,110139
21.85868,122440
21.86680,128205
21.87493,116921
21.88305,117392
21.89118,100766
21.89930,94652
21.90742,83667
21.91555,85503
21.92367,73214
21.93180,71497
21.93992,67153
21.94803,66726
21.95617,63257
21.96428,63729
21.97240,58264
21.98053,57915
21.98865,51510
21.99678,57722
22.00490,51952
22.01302,56572
22.02115,57851
22.02927,59246
22.03740,61369
22.04552,62318
22.05363,65305
22.06177,62890
22.06988,56710
22.07802,63817
22.08613,61278
22.09425,68065
22.10238,64074
22.11050,62985
22.11862,60162
22.12675,54427
22.13487,54375
22.14300,56488
22.15112,61538
22.15923,55784
22.16737,54558
22.17548,58497
22.18362,60286
22.19173,54869
22.19985,59009
22.20798,58332
22.21610,56301
22.22422,61236
22.23235,62266
22.24047,59627
22.24860,71339
22.25672,66984
22.26483,61622
22.27297,73426
22.28108,68268
22.28922,70483
22.29733,76498
22.30545,94859
22.31358,110327
22.32170,139583
22.32983,177010
22.33795,227027
22.34607,258615
22.35420,254707
22.36232,237526
22.37043,189622
22.37857,151576
22.38668,122099
22.39482,120518
22.40293,125322
22.41105,145757
22.41918,172574
22.42730,197172
22.43543,198602
22.44355,188114
22.45167,158503
22.45980,141620
22.46792,109301
22.47605,102425
22.48417,90046
22.49228,91029
22.50042,89833
22.50853,106718
22.51665,117701
22.52478,119420
22.53290,122958
22.54103,123353
22.54915,115051
22.55727,101582
22.56540,91703
22.57352,79143
22.58165,82029
22.58977,72985
22.59788,70399
22.60602,62854
22.61413,65491
22.62225,63554
22.63038,68246
22.63850,72429
22.64663,75084
22.65475,83458
22.66287,88108
22.67100,91608
22.67912,98714
22.68725,108379
22.69537,117908
22.70348,119147
22.71162,124118
22.71973,122443
22.72787,116147
22.73598,106389
22.74410,101543
22.75223,102415
22.76035,96992
22.76847,94328
22.77660,95673
22.78472,92890
22.79285,92803
22.80097,100224
22.80908,103519
22.81722,106574
22.82533,110255
22.83347,106802
22.84158,103453
22.84970,103019
22.85783,100456
22.86595,115057
22.87407,123973
22.88220,142535
22.89032,180957
22.89845,197911
22.90657,215347
22.91468,225123
22.92282,214948
22.93093,224301
22.93907,226350
22.94718,222606
22.95530,210537
22.96343,206463
22.97155,184730
22.97968,164586
22.98780,150736
22.99592,138738
23.00405,132650
23.01217,122362
23.02028,111795
23.02842,101157
23.03653,100456
23.04467,93605
23.05278,82647
23.06090,87506
23.06903,83343
23.07715,78113
23.08528,86801
23.09340,75467
23.10152,81085
23.10965,77107
23.11777,70469
23.12590,69877
23.13402,64493
23.14213,64564
23.15027,64749
23.15838,57770
23.16650,64343
23.17463,61418
23.18275,61035
23.19088,59321
23.19900,55928
23.20712,57885
23.21525,59842
23.22337,56114
23.23150,55170
23.23962,56943
23.24773,72005
23.25587,81437
23.26398,91946
23.27210,99373
23.28023,106839
23.28835,94642
23.29648,93567
23.30460,91800
23.31272,86996
23.32085,99381
23.32897,101078
23.33710,119551
23.34522,136060
23.35333,155039
23.36147,175639
23.36958,204616
23.37772,226268
23.38583,222830
23.39395,206100
23.40208,180455
23.41020,170690
23.41832,160030
23.42645,145416
23.43457,143525
23.44270,127259
23.45082,122034
23.45893,121609
23.46707,123125
23.47518,121146
23.48332,121871
23.49143,121431
23.49955,116084
23.50768,118738
23.51580,118913
23.52393,121929
23.53205,129768
23.54017,118649
23.54830,121346
23.55642,124151
23.56453,133316
23.57267,142637
23.58078,176608
23.58892,208904
23.59703,268488
23.60515,310462
23.61328,357709
23.62140,344927
23.62953,335128
23.63765,320888
23.64577,347842
23.65390,458263
23.66202,605311
23.67013,764793
23.67827,876294
23.68638,874401
23.69452,754717
23.70263,571026
23.71075,403490
23.71888,306553
23.72700,236251
23.73513,191769
23.74325,170951
23.75137,165660
23.75950,205946
23.76762,315492
23.77575,641721
23.78387,1255813
23.79198,1989237
23.80012,2710804
23.80823,3104348
23.81635,3042406
23.82448,2553059
23.83260,2008476
23.84073,1470901
23.84885,1105020
23.85697,835695
23.86510,664783
23.87322,549959
23.88135,466107
23.88947,414949
23.89758,382624
23.90572,354993
23.91383,342797
23.92195,320283
23.93008,300370
23.93820,286351
23.94633,275667
23.95445,251898
23.96257,231157
23.97070,219977
23.97882,215808
23.98695,204138
23.99507,202814
24.00318,199564
24.01132,194431
24.01943,217742
24.02757,269947
24.03568,333301
24.04380,384173
24.05193,395594
24.06005,378517
24.06817,332912
24.07630,280566
24.08442,235606
24.09255,208761
24.10067,177691
24.10878,157120
24.11692,150801
24.12503,151023
24.13317,149799
24.14128,152699
24.14940,171543
24.15753,178562
24.16565,184873
24.17378,190209
24.18190,180415
24.19002,177665
24.19815,176042
24.20627,174888
24.21438,169460
24.22252,170515
24.23063,154294
24.23877,145728
24.24688,137886
24.25500,135298
24.26313,131385
24.27125,115109
24.27938,110289
24.28750,114781
24.29562,118501
24.30375,108263
24.31187,106044
24.32000,109309
24.32812,113871
24.33623,110082
24.34437,113039
24.35248,107946
24.36060,102798
24.36873,104833
24.37685,99115
24.38498,98390
24.39310,103202
24.40122,114687
24.40935,117653
24.41747,125671
24.42560,126565
24.43372,122469
24.44183,116556
24.44997,107075
24.45808,106227
24.46620,98630
24.47433,93101
24.48245,89488
24.49058,98594
24.49870,99321
24.50682,107491
24.51495,106856
24.52307,119858
24.53120,123959
24.53932,135286
24.54743,140448
24.55557,153054
24.56368,148270
24.57182,153876
24.57993,146622
24.58805,137833
24.59618,125100
24.60430,119442
24.61242,106301
24.62055,98670
24.62867,97179
24.63680,90729
24.64492,85981
24.65303,88706
24.66117,94541
24.66928,90703
24.67742,85404
24.68553,88513
24.69365,85104
24.70178,78446
24.70990,80246
24.71802,76979
24.72615,73754
24.73427,75317
24.74240,70018
24.75052,75319
24.75863,71814
24.76677,71323
24.77488,75560
24.78302,81107
24.79113,80470
24.79925,78167
24.80738,76729
24.81550,83711
24.82363,82674
24.83175,82883
24.83987,94807
24.84800,104932
24.85612,123115
24.86423,163154
24.87237,209865
24.88048,275700
24.88862,368409
24.89673,450689
24.90485,522058
24.91298,512183
24.92110,444786
24.92923,345372
24.93735,243833
24.94547,168239
24.95360,128612
24.96172,105661
24.96983,88199
24.97797,81086
24.98608,71674
24.99422,70457
25.00233,68822
25.01045,67680
25.01858,69541
25.02670,67572
25.03483,64564
25.04295,68101
25.05107,77251
25.05920,89590
25.06732,107903
25.07545,122159
25.08357,134009
25.09168,148505
25.09982,159314
25.10793,203014
25.11605,311518
25.12418,543107
25.13230,1036692
25.14043,1794560
25.14855,2636093
25.15667,3206149
25.16480,3309303
25.17292,2888180
25.18105,2174308
25.18917,1487630
25.19728,964891
25.20542,618825
25.21353,434943
25.22167,336934
25.22978,273039
25.23790,249376
25.24603,256128
25.25415,269768
25.26227,296794
25.27040,324585
25.27852,346649
25.28665,337348
25.29477,328855
25.30288,309382
25.31102,273945
25.31913,247349
25.32727,225188
25.33538,224053
25.34350,215505
25.35163,203101
25.35975,200403
25.36788,184179
25.37600,193483
25.38412,170492
25.39225,169939
25.40037,168650
25.40848,167822
25.41662,172743
25.42473,163142
25.43287,155554
25.44098,157128
25.44910,150088
25.45723,159061
25.46535,153528
25.47348,158484
25.48160,157480
25.48972,161063
25.49785,163252
25.50597,158090
25.51408,152291
25.52222,149626
25.53033,140002
25.53847,141317
25.54658,133866
25.55470,128330
25.56283,112178
25.57095,103357
25.57908,97929
25.58720,87195
25.59532,86065
25.60345,85948
25.61157,78583
25.61970,82287
25.62782,83438
25.63593,86037
25.64407,85623
25.65218,89155
25.66030,99999
25.66843,93643
25.67655,97621
25.68468,93260
25.69280,85533
25.70092,76931
25.70905,73099
25.71717,73706
25.72530,76107
25.73342,70439
25.74153,73692
25.74967,82968
25.75778,77294
25.76590,90876
25.77403,80928
25.78215,81343
25.79028,74126
25.79840,73996
25.80652,77408
25.81465,78171
25.82277,71567
25.83090,82248
25.83902,80813
25.84713,77922
25.85527,74858
25.86338,79396
25.87152,70500
25.87963,72767
25.88775,74798
25.89588,67279
25.90400,68907
25.91212,63765
25.92025,67693
25.92837,76403
25.93650,73268
25.94462,88482
25.95273,117526
25.96087,164558
25.96898,187881
25.97712,213263
25.98523,233505
25.99335,228988
26.00148,248604
26.00960,239360
26.01773,244330
26.02585,239671
26.03397,238081
26.04210,237409
26.05022,238459
26.05833,240852
26.06647,260168
26.07458,242249
26.08272,249794
26.09083,254987
26.09895,250133
26.10708,251741
26.11520,242650
26.12333,245525
26.13145,253191
26.13957,252578
26.14770,249248
26.15582,260785
26.16393,261016
26.17207,256230
26.18018,251301
26.18832,256393
26.19643,252832
26.20455,239277
26.21268,236613
26.22080,225993
26.22893,220873
26.23705,228376
26.24517,209631
26.25330,207634
26.26142,209546
26.26955,209073
26.27767,206972
26.28578,207540
26.29392,197828
26.30203,204313
26.31015,195366
26.31828,193528
26.32640,199148
26.33453,197799
26.34265,194589
26.35077,202006
26.35890,214715
26.36702,258182
26.37515,339119
26.38327,439621
26.39138,567668
26.39952,712544
26.40763,789896
26.41577,797571
26.42388,736658
26.43200,645780
26.44013,509354
26.44825,402122
26.45637,321659
26.46450,258248
26.47262,220722
26.48075,220037
26.48887,206221
26.49698,189862
26.50512,189226
26.51323,181468
26.52137,170839
26.52948,174724
26.53760,165088
26.54573,162890
26.55385,159418
26.56197,152477
26.57010,161630
26.57822,157162
26.58635,154200
26.59447,153871
26.60258,154630
26.61072,154654
26.61883,150458
26.62697,145655
26.63508,146696
26.64320,149466
26.65133,149516
26.65945,149317
26.66758,152030
26.67570,154813
26.68382,151654
26.69195,155465
26.70007,152103
26.70818,147369
26.71632,146774
26.72443,136440
26.73257,145701
26.74068,131118
26.74880,132880
26.75693,127442
26.76505,128221
26.77318,124024
26.78130,124775
26.78942,116605
26.79755,124321
26.80567,115949
26.81378,129280
26.82192,120442
26.83003,127462
26.83817,118983
26.84628,128858
26.85440,114689
26.86253,106888
26.87065,114264
26.87878,116022
26.88690,104188
26.89502,106415
26.90315,107956
26.91127,106196
26.91940,102397
26.92752,109115
26.93563,98394
26.94377,100882
26.95188,97431
26.96000,95437
26.96813,100506
26.97625,115294
26.98438,144372
26.99250,203665
27.00062,313861
27.00875,500444
27.01687,754676
27.02500,1027659
27.03312,1215825
27.04123,1270830
27.04937,1191520
27.05748,1019434
27.06562,805083
27.07373,623756
27.08185,502534
27.08998,405227
27.09810,337085
27.10622,298771
27.11435,257861
27.12247,238630
27.13060,216507
27.13872,205955
27.14683,202258
27.15497,200053
27.16308,189292
27.17122,201378
27.17933,198030
27.18745,206081
27.19558,228706
27.20370,214504
27.21182,208845
27.21995,193835
27.22807,176237
27.23620,168044
27.24432,155071
27.25243,141555
27.26057,130870
27.26868,126558
27.27682,125354
27.28493,118641
27.29305,117275
27.30118,115273
27.30930,110294
27.31743,114123
27.32555,108000
27.33367,113114
27.34180,117109
27.34992,107420
27.35803,108992
27.36617,108803
27.37428,115317
27.38242,113643
27.39053,102472
27.39865,103349
27.40678,98385
27.41490,98117
27.42303,100023
27.43115,94013
27.43927,99913
27.44740,94051
27.45552,95663
27.46365,89890
27.47177,88363
27.47988,86445
27.48802,83701
27.49613,80979
27.50425,84523
27.51238,86141
27.52050,85058
27.52863,85547
27.53675,86543
27.54487,93002
27.55300,90581
27.56112,88584
27.56925,94023
27.57737,96509
27.58548,98641
27.59362,105246
27.60173,107768
27.60985,110849
27.61798,118863
27.62610,108068
27.63423,102781
27.64235,95579
27.65047,93767
27.65860,87153
27.66672,86174
27.67485,84663
27.68297,87825
27.69108,85941
27.69922,93193
27.70733,84110
27.71547,85784
27.72358,86530
27.73170,78477
27.73983,73067
27.74795,69104
27.75607,72699
27.76420,71837
27.77232,68678
27.78045,69717
27.78857,71845
27.79668,70781
27.80482,77177
27.81293,73789
27.82107,75168
27.82918,80478
27.83730,79223
27.84543,78588
27.85355,78884
27.86167,77826
27.86980,75476
27.87792,77466
27.88605,73540
27.89417,62443
27.90228,70094
27.91042,74364
27.91853,66501
27.92667,68332
27.93478,68145
27.94290,64574
27.95103,65380
27.95915,69708
27.96728,65769
27.97540,64332
27.98352,65891
27.99165,61690
27.99977,68774
28.00788,68222
28.01602,72435
28.02413,78108
28.03227,85410
28.04038,96657
28.04850,108892
28.05663,118899
28.06475,117170
28.07288,123036
28.08100,102674
28.08912,87605
28.09725,82918
28.10537,75350
28.11350,68787
28.12162,68552
28.12973,69634
28.13787,68243
28.14598,64703
28.15410,65238
28.16223,56706
28.17035,65598
28.17848,61174
28.18660,64113
28.19472,66568
28.20285,79178
28.21097,85990
28.21910,92519
28.22722,104749
28.23533,102002
28.24347,103168
28.25158,97486
28.25970,89311
28.26783,78440
28.27595,70286
28.28408,67126
28.29220,67094
28.30032,65014
28.30845,67906
28.31657,81624
28.32470,85325
28.33282,96861
28.34093,117879
28.34907,121441
28.35718,138992
28.36532,145978
28.37343,172189
28.38155,188072
28.38968,201696
28.39780,202215
28.40592,194655
28.41405,187812
28.42217,180183
28.43030,163797
28.43842,160092
28.44653,147033
28.45467,135667
28.46278,124217
28.47092,121640
28.47903,113273
28.48715,114837
28.49528,119245
28.50340,111298
28.51153,112663
28.51965,118613
28.52777,109406
28.53590,107320
28.54402,94578
28.55213,92065
28.56027,79335
28.56838,78890
28.57652,73601
28.58463,76794
28.59275,80041
28.60088,77306
28.60900,72148
28.61713,79645
28.62525,79333
28.63337,79634
28.64150,86894
28.64962,85790
28.65773,89840
28.66587,89840
28.67398,93585
28.68212,87908
28.69023,86953
28.69835,81379
28.70648,77537
28.71460,78279
28.72273,68733
28.73085,67016
28.73897,64750
28.74710,68269
28.75522,62497
28.76335,62250
28.77147,70544
28.77958,70605
28.78772,77361
28.79583,80611
28.80395,81522
28.81208,82481
28.82020,82336
28.82833,78137
28.83645,76706
28.84457,67441
28.85270,70569
28.86082,67567
28.86895,65232
28.87707,66922
28.88518,71023
28.89332,72353
28.90143,76291
28.90957,81482
28.91768,81812
28.92580,86012
28.93393,78179
28.94205,81542
28.95017,75491
28.95830,76318
28.96642,85026
28.97455,92751
28.98267,86631
28.99078,80981
28.99892,72591
29.00703,68531
29.01517,66098
29.02328,69015
29.03140,64945
29.03953,65179
29.04765,60647
29.05577,62644
29.06390,63485
29.07202,64063
29.08015,62722
29.08827,67613
29.09638,60112
29.10452,68495
29.11263,65472
29.12077,69590
29.12888,66050
29.13700,62231
29.14513,60916
29.15325,63532
29.16138,63410
29.16950,64369
29.17762,60490
29.18575,71807
29.19387,73316
29.20198,81331
29.21012,94205
29.21823,93379
29.22637,113970
29.23448,111114
29.24260,106092
29.25073,100099
29.25885,97487
29.26698,96124
29.27510,95455
29.28322,91979
29.29135,85617
29.29947,77816
29.30758,74072
29.31572,64175
29.32383,58703
29.33197,58844
29.34008,63573
29.34820,55386
29.35633,58601
29.36445,60587
29.37258,58211
29.38070,57347
29.38882,61374
29.39695,56274
29.40507,67368
29.41320,62864
29.42132,63103
29.42943,67497
29.43757,65792
29.44568,68296
29.45380,61424
29.46193,58964
29.47005,59236
29.47818,59711
29.48630,57402
29.49442,58757
29.50255,65974
29.51067,68421
29.51880,66043
29.52692,68673
29.53503,65691
29.54317,61835
29.55128,59597
29.55942,57752
29.56753,56296
29.57565,57737
29.58378,59713
29.59190,60358
29.60002,51086
29.60815,59261
29.61627,56593
29.62440,61579
29.63252,54637
29.64063,57095
29.64877,54109
29.65688,53749
29.66502,58665
29.67313,53786
29.68125,52788
29.68938,56007
29.69750,59268
29.70562,60815
29.71375,66371
29.72187,57043
29.73000,61812
29.73812,61078
29.74623,57336
29.75437,53889
29.76248,56796
29.77062,51928
29.77873,57590
29.78685,50639
29.79498,54018
29.80310,56404
29.81123,55341
29.81935,47637
29.82747,48093
29.83560,52105
29.84372,53946
29.85183,56098
29.85997,60747
29.86808,83994
29.87622,131582
29.88433,251501
29.89245,426012
29.90058,668329
29.90870,884804
29.91683,943682
29.92495,839977
29.93307,625603
29.94120,426382
29.94932,244405
29.95745,157321
29.96557,113881
29.97368,94881
29.98182,95856
29.98993,96982
29.99805,108126
30.00618,121248
30.01430,127417
30.02243,135360
30.03055,138103
30.03867,136720
30.04680,132418
30.05492,130247
30.06305,126807
30.07117,115622
30.07928,117004
30.08742,111269
30.09553,113275
30.10365,102228
30.11178,107634
30.11990,103739
30.12803,98932
30.13615,88537
30.14427,87361
30.15240,87599
30.16052,85832
30.16865,80857
30.17677,88426
30.18488,83570
30.19302,83623
30.20113,85333
30.20927,91310
30.21738,89389
30.22550,88232
30.23363,82368
30.24175,79990
30.24987,73105
30.25800,67426
30.26612,68788
30.27425,60902
30.28237,62912
30.29048,61796
30.29862,64548
30.30673,61314
30.31487,62612
30.32298,62621
30.33110,66090
30.33923,61088
30.34735,64057
30.35547,65628
30.36360,64835
30.37172,64577
30.37985,59719
30.38797,70696
30.39608,57670
30.40422,57054
30.41233,59452
30.42047,51638
30.42858,59531
30.43670,55554
30.44483,63517
30.45295,53109
30.46108,60867
30.46920,54749
30.47732,57168
30.48545,57070
30.49357,56127
30.50168,54202
30.50982,57405
30.51793,58646
30.52607,57228
30.53418,55804
30.54230,55769
30.55043,58938
30.55855,52297
30.56668,55665
30.57480,54062
30.58292,56898
30.59105,55068
30.59917,57351
30.60730,54361
30.61542,56685
30.62353,53908
30.63167,55889
30.63978,57745
30.64790,55292
30.65603,55078
30.66415,59994
30.67228,53303
30.68040,53560
30.68852,59156
30.69665,52299
30.70477,56136
30.71290,51892
30.72102,53418
30.72913,58295
30.73727,52733
30.74538,58342
30.75352,59594
30.76163,59381
30.76975,53307
30.77788,63414
30.78600,66302
30.79412,82744
30.80225,102825
30.81037,133051
30.81850,148143
30.82662,152008
30.83473,144506
30.84287,125304
30.85098,103854
30.85912,82855
30.86723,73876
30.87535,68959
30.88348,69445
30.89160,67909
30.89972,67451
30.90785,65792
30.91597,63386
30.92410,66610
30.93222,58814
30.94033,55981
30.94847,57080
30.95658,59399
30.96472,57885
30.97283,64939
30.98095,58865
30.98908,64648
30.99720,60571
31.00533,64445
31.01345,65111
31.02157,76248
31.02970,77005
31.03782,85706
31.04593,90972
31.05407,96633
31.06218,90687
31.07032,88822
31.07843,89172
31.08655,91636
31.09468,119467
31.10280,171703
31.11093,218646
31.11905,246470
31.12717,247380
31.13530,215362
31.14342,178683
31.15153,123640
31.15967,103075
31.16778,85597
31.17592,74470
31.18403,72973
31.19215,80660
31.20028,78232
31.20840,84195
31.21653,102109
31.22465,107465
31.23277,114003
31.24090,127347
31.24902,110944
31.25715,92265
31.26527,81175
31.27338,68938
31.28152,64240
31.28963,57816
31.29775,60587
31.30588,52841
31.31400,62706
31.32213,51978
31.33025,52701
31.33837,55875
31.34650,57414
31.35462,60751
31.36275,62914
31.37087,63968
31.37898,61459
31.38712,69130
31.39523,75490
31.40337,77397
31.41148,74153
31.41960,68714
31.42773,66389
31.43585,70267
31.44397,64226
31.45210,58239
31.46022,53246
31.46835,58792
31.47647,58151
31.48458,59083
31.49272,57119
31.50083,56400
31.50897,58060
31.51708,63489
31.52520,58157
31.53333,56977
31.54145,65193
31.54957,63799
31.55770,67311
31.56582,65286
31.57395,60750
31.58207,66175
31.59018,63147
31.59832,70431
31.60643,68863
31.61457,64299
31.62268,67478
31.63080,69141
31.63893,71565
31.64705,67979
31.65518,72168
31.66330,71314
31.67142,75440
31.67955,79818
31.68767,79638
31.69578,76416
31.70392,75821
31.71203,72071
31.72017,70817
31.72828,67601
31.73640,71048
31.74453,69664
31.75265,68305
31.76078,68636
31.76890,67727
31.77702,69272
31.78515,70968
31.79327,71827
31.80140,73736
31.80952,74161
31.81763,72329
31.82577,73573
31.83388,73311
31.84200,67804
31.85013,75163
31.85825,76027
31.86638,81402
31.87450,80348
31.88262,80542
31.89075,79611
31.89887,80152
31.90700,76676
31.91512,90777
31.92323,83816
31.93137,91101
31.93948,87545
31.94760,89616
31.95573,90529
31.96385,93986
31.97198,103724
31.98010,99066
31.98822,106456
31.99635,97155
32.00447,110325
32.01260,106627
32.02072,103261
32.02883,99296
32.03697,100639
32.04508,97914
32.05322,92389
32.06133,83645
32.06945,84282
32.07758,82487
32.08570,83656
32.09382,79026
32.10195,78186
32.11007,74301
32.11820,74113
32.12632,72535
32.13443,74397
32.14257,67948
32.15068,64568
32.15882,64426
32.16693,63139
32.17505,60731
32.18318,63994
32.19130,63554
32.19942,62662
32.20755,66576
32.21567,57963
32.22380,62720
32.23192,64647
32.24003,58150
32.24817,58301
32.25628,60456
32.26442,64480
32.27253,62667
32.28065,67389
32.28878,68542
32.29690,68409
32.30503,62401
32.31315,60122
32.32127,56355
32.32940,60180
32.33752,59458
32.34563,64761
32.35377,64317
32.36188,69164
32.37002,62787
32.37813,65875
32.38625,67908
32.39438,59856
32.40250,63753
32.41063,59519
32.41875,58503
32.42687,57527
32.43500,56477
32.44312,62144
32.45125,55715
32.45937,56553
32.46748,59768
32.47562,55648
32.48373,56313
32.49185,56982
32.49998,53590
32.50810,55785
32.51623,56401
32.52435,54967
32.53247,57122
32.54060,50625
32.54872,53718
32.55685,55192
32.56497,51124
32.57308,54466
32.58122,49829
32.58933,55340
32.59745,54033
32.60558,52199
32.61370,53288
32.62183,53623
32.62995,50341
32.63807,52280
32.64620,53048
32.65432,55271
32.66245,57156
32.67057,59218
32.67868,59463
32.68682,62818
32.69493,63177
32.70307,65761
32.71118,63256
32.71930,63151
32.72743,61754
32.73555,62114
32.74367,60301
32.75180,57798
32.75992,53463
32.76805,52956
32.77617,53119
32.78428,54906
32.79242,53473
32.80053,50908
32.80867,51975
32.81678,51399
32.82490,49903
32.83303,49909
32.84115,54817
32.84928,54161
32.85740,49437
32.86552,53913
32.87365,52730
32.88177,55018
32.88988,56368
32.89802,56628
32.90613,61097
32.91427,63836
32.92238,61090
32.93050,65231
32.93863,55140
32.94675,51450
32.95488,54904
32.96300,58107
32.97112,52245
32.97925,53029
32.98737,59790
32.99548,59046
33.00362,71992
33.01173,70211
33.01987,71036
33.02798,71023
33.03610,66675
33.04423,60667
33.05235,63830
33.06048,61559
33.06860,66331
33.07672,63920
33.08485,76853
33.09297,91473
33.10110,99405
33.10922,110751
33.11733,118786
33.12547,131337
33.13358,124658
33.14170,120279
33.14983,110939
33.15795,92106
33.16608,76761
33.17420,68606
33.18232,70349
33.19045,61921
33.19857,55239
33.20670,58326
33.21482,55269
33.22293,58633
33.23107,62148
33.23918,59337
33.24732,57636
33.25543,58998
33.26355,60848
33.27168,61885
33.27980,56314
33.28792,54177
33.29605,59188
33.30417,58706
33.31230,61044
33.32042,60446
33.32853,57389
33.33667,60307
33.34478,60536
33.35292,59715
33.36103,58171
33.36915,57766
33.37728,61684
33.38540,60671
33.39352,54950
33.40165,58824
33.40977,55395
33.41790,54639
33.42602,52164
33.43413,56253
33.44227,51190
33.45038,49964
33.45852,52561
33.46663,48594
33.47475,50677
33.48288,55695
33.49100,52305
33.49913,54129
33.50725,55844
33.51537,51954
33.52350,51960
33.53162,51996
33.53973,53059
33.54787,56321
33.55598,62078
33.56412,60166
33.57223,56699
33.58035,59311
33.58848,59064
33.59660,51888
33.60473,57126
33.61285,51498
33.62097,55704
33.62910,57034
33.63722,57911
33.64533,53998
33.65347,59026
33.66158,55142
33.66972,59537
33.67783,64889
33.68595,61541
33.69408,60760
33.70220,57557
33.71033,49722
33.71845,56526
33.72657,51882
33.73470,50522
33.74282,53772
33.75095,50153
33.75907,51405
33.76718,53771
33.77532,48394
33.78343,56902
33.79155,49366
33.79968,54582
33.80780,52766
33.81593,47366
33.82405,51239
33.83217,49605
33.84030,53633
33.84842,54515
33.85655,55000
33.86467,57544
33.87278,53395
33.88092,53762
33.88903,57419
33.89717,55769
33.90528,55924
33.91340,52206
33.92153,56205
33.92965,53101
33.93777,52304
33.94590,52583
33.95402,54617
33.96215,51902
33.97027,52176
33.97838,49739
33.98652,52630
33.99463,48738
34.00277,53900
34.01088,50607
34.01900,49378
34.02713,50118
34.03525,51464
34.04337,55867
34.05150,54611
34.05962,56753
34.06775,50644
34.07587,53983
34.08398,55903
34.09212,56040
34.10023,51447
34.10837,58679
34.11648,55013
34.12460,56210
34.13273,56416
34.14085,55631
34.14898,55142
34.15710,58996
34.16522,54973
34.17335,56339
34.18147,55155
34.18958,51583
34.19772,53045
34.20583,53948
34.21397,53696
34.22208,54402
34.23020,49087
34.23833,48908
34.24645,52366
34.25458,56669
34.26270,54603
34.27082,56562
34.27895,53218
34.28707,56963
34.29520,48151
34.30332,48225
34.31143,53162
34.31957,50387
34.32768,51254
34.33580,48577
34.34393,49503
34.35205,52843
34.36018,52145
34.36830,54825
34.37642,53496
34.38455,54016
34.39267,53104
34.40080,59092
34.40892,50330
34.41703,51697
34.42517,50653
34.43328,54272
34.44140,52266
34.44953,49823
34.45765,50189
34.46578,53587
34.47390,55178
34.48202,53106
34.49015,50026
34.49827,51524
34.50640,47617
34.51452,53310
34.52263,52552
34.53077,57685
34.53888,54821
34.54702,62958
34.55513,70243
34.56325,81414
34.57138,76909
34.57950,81679
34.58762,77547
34.59575,70379
34.60387,75168
34.61200,68415
34.62012,67413
34.62823,63802
34.63637,62591
34.64448,61278
34.65262,58293
34.66073,57842
34.66885,57943
34.67698,58657
34.68510,57211
34.69322,57948
34.70135,59925
34.70947,61660
34.71760,57238
34.72572,58311
34.73383,59785
34.74197,55412
34.75008,58759
34.75822,57585
34.76633,60609
34.77445,57127
34.78258,58140
34.79070,61539
34.79883,57063
34.80695,56073
34.81507,59893
34.82320,62228
34.83132,56470
34.83943,52653
34.84757,52664
34.85568,60582
34.86382,55678
34.87193,55385
34.88005,58996
34.88818,56678
34.89630,57096
34.90443,53743
34.91255,56792
34.92067,54286
34.92880,62548
34.93692,62635
34.94505,67625
34.95317,87773
34.96128,121061
34.96942,182042
34.97753,274511
34.98565,354388
34.99378,393463
35.00190,353522
35.01003,269412
35.01815,187604
35.02627,125232
35.03440,92083
35.04252,82377
35.05065,68045
35.05877,68749
35.06688,66881
35.07502,63032
35.08313,63662
35.09125,65534
35.09938,64234
35.10750,61908
35.11563,63237
35.12375,63595
35.13187,59508
35.14000,59895
35.14812,60420
35.15625,60211
35.16437,63006
35.17248,64102
35.18062,64443
35.18873,60211
35.19687,63173
35.20498,61542
35.21310,58135
35.22123,57491
35.22935,53713
35.23747,63354
35.24560,66672
35.25372,64092
35.26185,62617
35.26997,60055
35.27808,65741
35.28622,68807
35.29433,64909
35.30247,68779
35.31058,66660
35.31870,65688
35.32683,60847
35.33495,55209
35.34308,57760
35.35120,53610
35.35932,62477
35.36745,58281
35.37557,55366
35.38368,55894
35.39182,59186
35.39993,57821
35.40807,61714
35.41618,62079
35.42430,59210
35.43243,69569
35.44055,73483
35.44868,66913
35.45680,65568
35.46492,69257
35.47305,66255
35.48117,70273
35.48928,70109
35.49742,71233
35.50553,65177
35.51367,63594
35.52178,66478
35.52990,61909
35.53803,58262
35.54615,61117
35.55428,62564
35.56240,61016
35.57052,63593
35.57865,61056
35.58677,61432
35.59490,61615
35.60302,64131
35.61113,61155
35.61927,58571
35.62738,59320
35.63550,61229
35.64363,61669
35.65175,57464
35.65988,54560
35.66800,58721
35.67612,62565
35.68425,61933
35.69237,59003
35.70050,64923
35.70862,57615
35.71673,59190
35.72487,64960
35.73298,56058
35.74110,61004
35.74923,70336
35.75735,64319
35.76548,67182
35.77360,71473
35.78172,72291
35.78985,76111
35.79797,70624
35.80610,64271
35.81422,62724
35.82233,63509
35.83047,61393
35.83858,57089
35.84672,55493
35.85483,57878
35.86295,60164
35.87108,59310
35.87920,61028
35.88732,59219
35.89545,57935
35.90357,60476
35.91170,60154
35.91982,62451
35.92793,61290
35.93607,53570
35.94418,60374
35.95232,56544
35.96043,57637
35.96855,62439
35.97668,60862
35.98480,61974
35.99293,65012
36.00105,57902
36.00917,61105
36.01730,66988
36.02542,57832
36.03353,67928
36.04167,66918
36.04978,64759
36.05792,67988
36.06603,60230
36.07415,61857
36.08228,60857
36.09040,65877
36.09853,61959
36.10665,61885
36.11477,57306
36.12290,61815
36.13102,62246
36.13915,65072
36.14727,69624
36.15538,70915
36.16352,67609
36.17163,73552
36.17975,71491
36.18788,64178
36.19600,65265
36.20413,70564
36.21225,57613
36.22037,60050
36.22850,58374
36.23662,57960
36.24475,61404
36.25287,59940
36.26098,59696
36.26912,58158
36.27723,58742
36.28535,60008
36.29348,58733
36.30160,62410
36.30973,61220
36.31785,64761
36.32597,66101
36.33410,65896
36.34222,66485
36.35035,64481
36.35847,63389
36.36658,67705
36.37472,65153
36.38283,63204
36.39097,59197
36.39908,61500
36.40720,66202
36.41533,62662
36.42345,61073
36.43157,65891
36.43970,72514
36.44782,66665
36.45595,60748
36.46407,60990
36.47218,57406
36.48032,59790
36.48843,59377
36.49657,56354
36.50468,60906
36.51280,59165
36.52093,60548
36.52905,68508
36.53717,58652
36.54530,55916
36.55342,59856
36.56155,59006
36.56967,60055
36.57778,56427
36.58592,61872
36.59403,59458
36.60217,62691
36.61028,59940
36.61840,56435
36.62653,62489
36.63465,61456
36.64278,65192
36.65090,60916
36.65902,57402
36.66715,59768
36.67527,57559
36.68338,60495
36.69152,60704
36.69963,64456
36.70777,66717
36.71588,55861
36.72400,60088
36.73213,63901
36.74025,62465
36.74838,61688
36.75650,68950
36.76462,61475
36.77275,61074
36.78087,63366
36.78900,63558
36.79712,61785
36.80523,66167
36.81337,70067
36.82148,58392
36.82960,61722
36.83773,61469
36.84585,59014
36.85398,60784
36.86210,62129
36.87022,58562
36.87835,60792
36.88647,64427
36.89460,61706
36.90272,60987
36.91083,65567
36.91897,62589
36.92708,60042
36.93520,61204
36.94333,72087
36.95145,70879
36.95958,71720
36.96770,74589
36.97582,84775
36.98395,86672
36.99207,84233
37.00020,83642
37.00832,84801
37.01643,74312
37.02457,80417
37.03268,76164
37.04082,72884
37.04893,78946
37.05705,75303
37.06518,77724
37.07330,77243
37.08142,82052
37.08955,81130
37.09767,80645
37.10580,78557
37.11392,86426
37.12203,80574
37.13017,78249
37.13828,83591
37.14642,77609
37.15453,77818
37.16265,78154
37.17078,78747
37.17890,77926
37.18703,83991
37.19515,79683
37.20327,79501
37.21140,86429
37.21952,79944
37.22763,80848
37.23577,80457
37.24388,80210
37.25202,81122
37.26013,77325
37.26825,75685
37.27638,77221
37.28450,76012
37.29263,75933
37.30075,76901
37.30887,73416
37.31700,76450
37.32512,75810
37.33323,77554
37.34137,81053
37.34948,79454
37.35762,80090
37.36573,83925
37.37385,79933
37.38198,85639
37.39010,82808
37.39823,82756
37.40635,83618
37.41447,84545
37.42260,79642
37.43072,78600
37.43885,87107
37.44697,78419
37.45508,77793
37.46322,80963
37.47133,81638
37.47945,78684
37.48758,78529
