C:\MassHunter\GCMS\1\data\JTB-E18\JTB-E18-027-10.D Wed Sep 18 16:06:24 2019
Start of data points
2.09520	104551
2.10332	105190
2.11143	109503
2.11957	110485
2.12768	109152
2.13582	106440
2.14393	102547
2.15205	102852
2.16018	100417
2.16830	98983
2.17643	92751
2.18455	92513
2.19267	94995
2.20080	91282
2.20892	88433
2.21703	88495
2.22517	87670
2.23328	87154
2.24142	88124
2.24953	89192
2.25765	160716
2.26578	731701
2.27390	947061
2.28203	1008384
2.29015	863815
2.29827	526899
2.30640	368301
2.31452	299564
2.32263	260441
2.33077	241927
2.33888	220493
2.34702	195493
2.35513	188691
2.36325	175546
2.37138	209505
2.37950	213602
2.38763	208700
2.39575	192544
2.40387	165200
2.41200	164945
2.42012	166723
2.42825	164940
2.43637	168382
2.44448	163703
2.45262	159852
2.46073	146117
2.46885	137330
2.47698	141660
2.48510	164465
2.49323	177659
2.50135	177166
2.50947	149822
2.51760	145335
2.52572	135388
2.53385	140157
2.54197	138948
2.55008	138113
2.55822	136845
2.56633	129812
2.57447	127627
2.58258	122580
2.59070	122710
2.59883	129295
2.60695	137575
2.61507	150159
2.62320	137554
2.63132	133771
2.63945	132850
2.64757	126589
2.65568	125128
2.66382	139555
2.67193	165620
2.68007	161604
2.68818	145157
2.69630	136828
2.70443	122006
2.71255	124776
2.72067	125003
2.72880	124307
2.73692	119223
2.74505	113176
2.75317	112965
2.76128	120218
2.76942	119700
2.77753	115459
2.78567	120498
2.79378	120595
2.80190	125168
2.81003	144709
2.81815	291193
2.82628	486806
2.83440	557768
2.84252	461645
2.85065	302261
2.85877	234177
2.86688	214171
2.87502	188897
2.88313	164119
2.89127	149002
2.89938	141568
2.90750	128069
2.91563	126327
2.92375	128666
2.93188	122334
2.94000	117882
2.94812	113794
2.95625	114238
2.96437	113661
2.97250	121153
2.98062	126165
2.98873	125935
2.99687	130825
3.00498	142462
3.01310	174411
3.02123	320367
3.02935	545769
3.03748	943206
3.04560	2497202
3.05372	5095726
3.06185	6558921
3.06997	5595852
3.07810	3335973
3.08622	1782422
3.09433	1119941
3.10247	831541
3.11058	648912
3.11870	552371
3.12683	457419
3.13495	406176
3.14308	368502
3.15120	333011
3.15932	314090
3.16745	293395
3.17557	281837
3.18370	261813
3.19182	242229
3.19993	232617
3.20807	220200
3.21618	220984
3.22432	227866
3.23243	214027
3.24055	206106
3.24868	188521
3.25680	182881
3.26492	192253
3.27305	308753
3.28117	998245
3.28930	3063481
3.29742	6129036
3.30553	8123347
3.31367	7471559
3.32178	5406754
3.32992	3621794
3.33803	2557973
3.34615	1959752
3.35428	1643576
3.36240	1450113
3.37053	1474963
3.37865	1477322
3.38677	1422484
3.39490	1502134
3.40302	2169496
3.41113	3221498
3.41927	3510665
3.42738	2744502
3.43552	1764128
3.44363	1187994
3.45175	929849
3.45988	790409
3.46800	709184
3.47613	628253
3.48425	586047
3.49237	553113
3.50050	497350
3.50862	474903
3.51673	454791
3.52487	430096
3.53298	409362
3.54112	397943
3.54923	386034
3.55735	379903
3.56548	361726
3.57360	342906
3.58173	342299
3.58985	324217
3.59797	329333
3.60610	369645
3.61422	611499
3.62235	1145957
3.63047	1826826
3.63858	1970182
3.64672	1551900
3.65483	987796
3.66295	670077
3.67108	505249
3.67920	444277
3.68733	402849
3.69545	370992
3.70357	341542
3.71170	323268
3.71982	314316
3.72795	317729
3.73607	305752
3.74418	303101
3.75232	301487
3.76043	296531
3.76855	285123
3.77668	280034
3.78480	250796
3.79293	260151
3.80105	251024
3.80917	255341
3.81730	246887
3.82542	252407
3.83355	240177
3.84167	241217
3.84978	233204
3.85792	218915
3.86603	215482
3.87417	215228
3.88228	210960
3.89040	220978
3.89853	214352
3.90665	205742
3.91477	214427
3.92290	206969
3.93102	202371
3.93915	201444
3.94727	191477
3.95538	190385
3.96352	193678
3.97163	186754
3.97977	189542
3.98788	187150
3.99600	188492
4.00413	181330
4.01225	181035
4.02038	181651
4.02850	180344
4.03662	183310
4.04475	184837
4.05287	186737
4.06098	188418
4.06912	190047
4.07723	189399
4.08537	180658
4.09348	177093
4.10160	179564
4.10973	178054
4.11785	173530
4.12598	183488
4.13410	200601
4.14222	225289
4.15035	237182
4.15847	232699
4.16658	212000
4.17472	200040
4.18283	181371
4.19097	179158
4.19908	174802
4.20720	173684
4.21533	186772
4.22345	211638
4.23158	236856
4.23970	252316
4.24782	234771
4.25595	215809
4.26407	190710
4.27220	179511
4.28032	169164
4.28843	165293
4.29657	168780
4.30468	166516
4.31280	164425
4.32093	156736
4.32905	167805
4.33718	161965
4.34530	157510
4.35342	158377
4.36155	161186
4.36967	151238
4.37780	158530
4.38592	152948
4.39403	152621
4.40217	153181
4.41028	148992
4.41842	152888
4.42653	154252
4.43465	152494
4.44278	159993
4.45090	170443
4.45902	179074
4.46715	175155
4.47527	166882
4.48340	153150
4.49152	153219
4.49963	150328
4.50777	148852
4.51588	149926
4.52402	149135
4.53213	150959
4.54025	140072
4.54838	148842
4.55650	141459
4.56462	144289
4.57275	141055
4.58087	140395
4.58900	139775
4.59712	139014
4.60523	135157
4.61337	139019
4.62148	133067
4.62962	134661
4.63773	132853
4.64585	132062
4.65398	134046
4.66210	139261
4.67023	130585
4.67835	136390
4.68647	136819
4.69460	136252
4.70272	140647
4.71083	133278
4.71897	135265
4.72708	135195
4.73522	132540
4.74333	133168
4.75145	131945
4.75958	133681
4.76770	131117
4.77583	129820
4.78395	125390
4.79207	128155
4.80020	132368
4.80832	131917
4.81643	136860
4.82457	135006
4.83268	137159
4.84082	135238
4.84893	134383
4.85705	140098
4.86518	136326
4.87330	141433
4.88143	135132
4.88955	134862
4.89767	137497
4.90580	153930
4.91392	228295
4.92205	521847
4.93017	1275636
4.93828	2469841
4.94642	3523799
4.95453	3805302
4.96265	3165753
4.97078	2248173
4.97890	1581166
4.98703	1135531
4.99515	905508
5.00327	739079
5.01140	633697
5.01952	554152
5.02765	511948
5.03577	448552
5.04388	432984
5.05202	385501
5.06013	359692
5.06827	344343
5.07638	326593
5.08450	309998
5.09263	323016
5.10075	345103
5.10887	370332
5.11700	383200
5.12512	374183
5.13325	325817
5.14137	291533
5.14948	271540
5.15762	260495
5.16573	282984
5.17387	314581
5.18198	349961
5.19010	346766
5.19823	326940
5.20635	276973
5.21448	261688
5.22260	259255
5.23072	290592
5.23885	333827
5.24697	368866
5.25508	346332
5.26322	299028
5.27133	264464
5.27947	260612
5.28758	227939
5.29570	208806
5.30383	198840
5.31195	191943
5.32008	193665
5.32820	192354
5.33632	193479
5.34445	190293
5.35257	188138
5.36068	180106
5.36882	181137
5.37693	170627
5.38507	163824
5.39318	165393
5.40130	158459
5.40943	155202
5.41755	152856
5.42568	158314
5.43380	159821
5.44192	158772
5.45005	162113
5.45817	152979
5.46630	163157
5.47442	158045
5.48253	150144
5.49067	156604
5.49878	145418
5.50690	152126
5.51503	153438
5.52315	153858
5.53128	148705
5.53940	148664
5.54752	151282
5.55565	152236
5.56377	161692
5.57190	154779
5.58002	157746
5.58813	159528
5.59627	164865
5.60438	159862
5.61250	157708
5.62063	169009
5.62875	179731
5.63688	188039
5.64500	180118
5.65312	170215
5.66125	170389
5.66937	166061
5.67750	169236
5.68562	169546
5.69373	180186
5.70187	180411
5.70998	186030
5.71812	199543
5.72623	205449
5.73435	200494
5.74248	194523
5.75060	188470
5.75872	203146
5.76685	207427
5.77497	211347
5.78310	197101
5.79122	182274
5.79933	218343
5.80747	337646
5.81558	546398
5.82372	801513
5.83183	975830
5.83995	925237
5.84808	723918
5.85620	504474
5.86433	355022
5.87245	282403
5.88057	236984
5.88870	218262
5.89682	220937
5.90493	243852
5.91307	298641
5.92118	399292
5.92932	472784
5.93743	466525
5.94555	383933
5.95368	297043
5.96180	235499
5.96993	207676
5.97805	197599
5.98617	181404
5.99430	167678
6.00242	150490
6.01053	138695
6.01867	135573
6.02678	131653
6.03492	125350
6.04303	126150
6.05115	120194
6.05928	115047
6.06740	115262
6.07553	118179
6.08365	114311
6.09177	106156
6.09990	106147
6.10802	113450
6.11615	107169
6.12427	109468
6.13238	114486
6.14052	111850
6.14863	107639
6.15675	117714
6.16488	118105
6.17300	120532
6.18113	133023
6.18925	141116
6.19737	163521
6.20550	164181
6.21362	154134
6.22175	147896
6.22987	131695
6.23798	142022
6.24612	139300
6.25423	137940
6.26237	140200
6.27048	141271
6.27860	143356
6.28673	139492
6.29485	145173
6.30297	144553
6.31110	144008
6.31922	155957
6.32735	150057
6.33547	157853
6.34358	154139
6.35172	168774
6.35983	171232
6.36797	176796
6.37608	176014
6.38420	172471
6.39233	172319
6.40045	172929
6.40857	174344
6.41670	175992
6.42482	183488
6.43295	181465
6.44107	184273
6.44918	182203
6.45732	186939
6.46543	192934
6.47357	194576
6.48168	201398
6.48980	191707
6.49793	189871
6.50605	154531
6.51418	136092
6.52230	126506
6.53042	120525
6.53855	116920
6.54667	119594
6.55478	119415
6.56292	117567
6.57103	110901
6.57917	109071
6.58728	111171
6.59540	109793
6.60353	104997
6.61165	100335
6.61978	101538
6.62790	102768
6.63602	99368
6.64415	100876
6.65227	98764
6.66038	99838
6.66852	99300
6.67663	99432
6.68477	98320
6.69288	100673
6.70100	96000
6.70913	95457
6.71725	105355
6.72538	113880
6.73350	131761
6.74162	154297
6.74975	168494
6.75787	161875
6.76600	154118
6.77412	129924
6.78223	115107
6.79037	100136
6.79848	96249
6.80660	92222
6.81473	89522
6.82285	88888
6.83098	87996
6.83910	87042
6.84722	102425
6.85535	118606
6.86347	166482
6.87160	264433
6.87972	392511
6.88783	503421
6.89597	557284
6.90408	518054
6.91222	411841
6.92033	276147
6.92845	182237
6.93658	129204
6.94470	107110
6.95282	90642
6.96095	79054
6.96907	76841
6.97720	71997
6.98532	75363
6.99343	69250
7.00157	71780
7.00968	78595
7.01782	87587
7.02593	114645
7.03405	164496
7.04218	209422
7.05030	249788
7.05842	251139
7.06655	227000
7.07467	196205
7.08280	154434
7.09092	122591
7.09903	106192
7.10717	99667
7.11528	90442
7.12342	86005
7.13153	88154
7.13965	86995
7.14778	88141
7.15590	80852
7.16403	79694
7.17215	76440
7.18027	74593
7.18840	74587
7.19652	78670
7.20463	80874
7.21277	80523
7.22088	82344
7.22902	80519
7.23713	79167
7.24525	82797
7.25338	85759
7.26150	90632
7.26963	93798
7.27775	105005
7.28587	110150
7.29400	125279
7.30212	120618
7.31025	110618
7.31837	97950
7.32648	91252
7.33462	88198
7.34273	98018
7.35085	97669
7.35898	99120
7.36710	91744
7.37523	87348
7.38335	93305
7.39147	112938
7.39960	142994
7.40772	174131
7.41585	193391
7.42397	198317
7.43208	174870
7.44022	151398
7.44833	126401
7.45645	109026
7.46458	98511
7.47270	93114
7.48083	87077
7.48895	87619
7.49707	101211
7.50520	113210
7.51332	125682
7.52145	142376
7.52957	147132
7.53768	141949
7.54582	124474
7.55393	103595
7.56207	88954
7.57018	80701
7.57830	76998
7.58643	72933
7.59455	70608
7.60267	71190
7.61080	70840
7.61892	71860
7.62705	71893
7.63517	73587
7.64328	71285
7.65142	70346
7.65953	65303
7.66767	69557
7.67578	67944
7.68390	67979
7.69203	65483
7.70015	67113
7.70828	62446
7.71640	59199
7.72452	68360
7.73265	62867
7.74077	61121
7.74888	59833
7.75702	59281
7.76513	58931
7.77327	54262
7.78138	58138
7.78950	59001
7.79763	58180
7.80575	65576
7.81388	65141
7.82200	67005
7.83012	58660
7.83825	61153
7.84637	58236
7.85448	57615
7.86262	59216
7.87073	57347
7.87887	58096
7.88698	56723
7.89510	59303
7.90323	59381
7.91135	63617
7.91948	56618
7.92760	59244
7.93572	56598
7.94385	55409
7.95197	57343
7.96010	58019
7.96822	58748
7.97633	59328
7.98447	61624
7.99258	57054
8.00070	56205
8.00883	54152
8.01695	53617
8.02508	55787
8.03320	55992
8.04132	64917
8.04945	57504
8.05757	57485
8.06570	55474
8.07382	54348
8.08193	55424
8.09007	57975
8.09818	53735
8.10630	55423
8.11443	53670
8.12255	51795
8.13068	55028
8.13880	53905
8.14692	57354
8.15505	59058
8.16317	59852
8.17130	60176
8.17942	66508
8.18753	61949
8.19567	59476
8.20378	59674
8.21192	54067
8.22003	56004
8.22815	52259
8.23628	57450
8.24440	51375
8.25252	52129
8.26065	55448
8.26877	55474
8.27690	52080
8.28502	58166
8.29313	55733
8.30127	52757
8.30938	55796
8.31752	53884
8.32563	58809
8.33375	60491
8.34188	66872
8.35000	70451
8.35813	77704
8.36625	69582
8.37437	64119
8.38250	56766
8.39062	58776
8.39873	58136
8.40687	57028
8.41498	51234
8.42312	55382
8.43123	54823
8.43935	54503
8.44748	53214
8.45560	56672
8.46373	51507
8.47185	51340
8.47997	54591
8.48810	53821
8.49622	57843
8.50433	63975
8.51247	64940
8.52058	65450
8.52872	62468
8.53683	59504
8.54495	57245
8.55308	56424
8.56120	60431
8.56933	59280
8.57745	56224
8.58557	53675
8.59370	55932
8.60182	57886
8.60995	52945
8.61807	56562
8.62618	52741
8.63432	61716
8.64243	52351
8.65055	53090
8.65868	54339
8.66680	53545
8.67493	52923
8.68305	54992
8.69117	51072
8.69930	49928
8.70742	52569
8.71555	54071
8.72367	57604
8.73178	89028
8.73992	177933
8.74803	382579
8.75617	710717
8.76428	1012572
8.77240	1118797
8.78053	1013179
8.78865	762423
8.79677	536842
8.80490	394597
8.81302	301238
8.82115	238842
8.82927	204360
8.83738	176324
8.84552	159182
8.85363	137056
8.86177	130504
8.86988	120535
8.87800	105454
8.88613	108323
8.89425	100958
8.90237	92871
8.91050	87239
8.91862	87954
8.92675	82728
8.93487	84866
8.94298	80295
8.95112	79212
8.95923	77362
8.96737	72257
8.97548	78474
8.98360	73401
8.99173	77166
8.99985	72120
9.00798	70237
9.01610	68499
9.02422	70305
9.03235	66364
9.04047	71475
9.04858	66335
9.05672	68743
9.06483	68013
9.07297	67543
9.08108	67203
9.08920	66405
9.09733	58307
9.10545	64555
9.11358	67003
9.12170	62928
9.12982	65693
9.13795	64012
9.14607	63203
9.15418	64586
9.16232	64260
9.17043	60666
9.17857	57212
9.18668	64381
9.19480	57630
9.20293	60555
9.21105	58954
9.21918	57916
9.22730	60617
9.23542	53796
9.24355	57141
9.25167	55160
9.25980	60109
9.26792	64632
9.27603	60791
9.28417	62825
9.29228	57749
9.30040	62525
9.30853	57867
9.31665	58433
9.32478	55516
9.33290	60481
9.34102	59395
9.34915	62003
9.35727	59307
9.36540	59773
9.37352	58620
9.38163	57430
9.38977	56421
9.39788	54348
9.40602	56194
9.41413	47409
9.42225	58728
9.43038	55530
9.43850	57406
9.44662	53631
9.45475	51609
9.46287	48854
9.47100	48802
9.47912	48792
9.48723	49821
9.49537	50518
9.50348	53734
9.51162	49784
9.51973	52912
9.52785	54332
9.53598	49379
9.54410	52913
9.55223	51964
9.56035	48962
9.56847	48988
9.57660	45142
9.58472	47897
9.59283	44329
9.60097	44994
9.60908	48765
9.61722	44836
9.62533	41727
9.63345	42618
9.64158	42927
9.64970	42015
9.65783	41939
9.66595	46356
9.67407	41826
9.68220	39273
9.69032	42913
9.69843	40191
9.70657	36942
9.71468	38439
9.72282	37451
9.73093	35911
9.73905	39737
9.74718	39379
9.75530	37059
9.76343	34970
9.77155	34415
9.77967	38008
9.78780	34752
9.79592	36110
9.80405	35047
9.81217	35060
9.82028	32830
9.82842	37384
9.83653	38961
9.84465	39544
9.85278	36249
9.86090	36017
9.86903	35475
9.87715	37586
9.88527	36509
9.89340	38645
9.90152	36199
9.90965	36180
9.91777	35604
9.92588	37723
9.93402	34679
9.94213	36402
9.95025	37870
9.95838	42456
9.96650	46435
9.97463	51997
9.98275	63524
9.99087	63616
9.99900	58910
10.00712	59163
10.01525	52733
10.02337	48500
10.03148	49949
10.03962	47924
10.04773	45187
10.05587	43180
10.06398	41649
10.07210	38829
10.08023	38890
10.08835	37639
10.09647	36592
10.10460	34916
10.11272	34780
10.12085	36452
10.12897	34086
10.13708	37584
10.14522	38123
10.15333	34256
10.16147	35394
10.16958	38037
10.17770	37496
10.18583	34312
10.19395	34431
10.20208	36490
10.21020	34066
10.21832	38496
10.22645	40770
10.23457	41168
10.24268	43303
10.25082	42891
10.25893	41870
10.26707	42364
10.27518	41611
10.28330	42041
10.29143	38400
10.29955	43007
10.30768	41681
10.31580	40727
10.32392	41856
10.33205	40956
10.34017	38445
10.34828	41436
10.35642	37457
10.36453	36520
10.37267	42947
10.38078	42145
10.38890	42450
10.39703	45014
10.40515	44506
10.41328	44284
10.42140	46311
10.42952	43091
10.43765	39085
10.44577	38599
10.45390	39319
10.46202	35595
10.47013	36493
10.47827	33763
10.48638	36463
10.49450	35778
10.50263	35420
10.51075	35090
10.51888	36736
10.52700	38647
10.53512	35584
10.54325	41091
10.55137	37388
10.55950	37933
10.56762	35868
10.57573	38829
10.58387	36472
10.59198	33852
10.60012	36421
10.60823	34782
10.61635	38448
10.62448	35588
10.63260	35299
10.64072	35629
10.64885	32933
10.65697	36145
10.66510	38509
10.67322	38825
10.68133	36544
10.68947	36615
10.69758	38120
10.70572	40308
10.71383	38976
10.72195	41619
10.73008	39380
10.73820	40285
10.74632	42783
10.75445	38853
10.76257	38203
10.77070	42373
10.77882	45645
10.78693	38147
10.79507	40202
10.80318	41096
10.81132	36033
10.81943	35423
10.82755	37140
10.83568	35242
10.84380	35948
10.85193	40661
10.86005	33323
10.86817	32948
10.87630	33656
10.88442	33657
10.89253	33742
10.90067	35226
10.90878	34181
10.91692	32908
10.92503	36742
10.93315	35228
10.94128	32701
10.94940	31996
10.95753	30787
10.96565	34550
10.97377	33458
10.98190	38082
10.99002	38332
10.99813	35530
11.00627	36258
11.01438	34816
11.02252	33780
11.03063	34110
11.03875	35971
11.04688	32160
11.05500	31712
11.06313	33550
11.07125	32916
11.07937	34852
11.08750	35071
11.09562	31342
11.10375	32166
11.11187	31574
11.11998	33780
11.12812	30829
11.13623	33021
11.14435	36616
11.15248	38019
11.16060	36959
11.16873	37546
11.17685	40682
11.18497	36591
11.19310	37149
11.20122	34085
11.20935	38017
11.21747	38341
11.22558	34071
11.23372	36001
11.24183	33381
11.24997	34372
11.25808	34801
11.26620	34927
11.27433	33376
11.28245	40265
11.29057	45832
11.29870	55510
11.30682	61292
11.31495	72687
11.32307	79002
11.33118	76305
11.33932	78131
11.34743	71613
11.35557	71701
11.36368	64278
11.37180	57606
11.37993	49106
11.38805	48405
11.39617	44894
11.40430	45946
11.41242	42962
11.42055	40543
11.42867	41112
11.43678	39782
11.44492	37616
11.45303	35524
11.46117	35603
11.46928	34056
11.47740	36401
11.48553	34724
11.49365	33784
11.50178	35137
11.50990	33488
11.51802	39457
11.52615	36152
11.53427	40653
11.54238	43218
11.55052	45568
11.55863	43940
11.56677	42822
11.57488	46020
11.58300	43781
11.59113	44971
11.59925	46817
11.60738	43339
11.61550	40545
11.62362	38734
11.63175	36269
11.63987	36041
11.64800	33112
11.65612	34888
11.66423	37152
11.67237	35130
11.68048	37781
11.68860	37582
11.69673	47966
11.70485	45157
11.71298	50209
11.72110	48279
11.72922	50511
11.73735	55692
11.74547	49173
11.75360	47480
11.76172	50378
11.76983	48671
11.77797	52392
11.78608	44926
11.79420	49614
11.80233	46173
11.81045	41527
11.81858	39369
11.82670	37369
11.83482	40637
11.84295	43925
11.85107	45864
11.85920	42088
11.86732	39887
11.87543	40194
11.88357	39930
11.89168	37536
11.89982	37545
11.90793	36487
11.91605	33431
11.92418	35686
11.93230	37733
11.94042	36799
11.94855	39622
11.95667	46101
11.96480	44856
11.97292	45524
11.98103	48861
11.98917	48825
11.99728	48501
12.00542	41997
12.01353	41753
12.02165	41837
12.02978	34917
12.03790	36255
12.04602	31754
12.05415	33491
12.06227	34901
12.07040	39088
12.07852	36705
12.08663	34999
12.09477	32749
12.10288	37111
12.11102	33894
12.11913	34512
12.12725	32520
12.13538	36154
12.14350	32691
12.15163	32925
12.15975	36428
12.16787	34171
12.17600	30608
12.18412	35237
12.19223	33809
12.20037	34213
12.20848	32843
12.21662	36321
12.22473	31858
12.23285	33741
12.24098	31762
12.24910	33714
12.25723	32581
12.26535	32264
12.27347	34043
12.28160	32358
12.28972	34020
12.29785	34092
12.30597	32930
12.31408	35342
12.32222	35380
12.33033	31369
12.33845	30631
12.34658	32964
12.35470	34216
12.36283	29448
12.37095	31873
12.37907	30205
12.38720	30202
12.39532	31059
12.40345	32012
12.41157	32254
12.41968	33974
12.42782	31423
12.43593	32192
12.44405	34020
12.45218	35353
12.46030	34445
12.46843	34215
12.47655	39095
12.48467	33476
12.49280	35885
12.50092	32201
12.50905	32704
12.51717	31475
12.52528	30247
12.53342	30932
12.54153	31786
12.54967	34773
12.55778	32433
12.56590	32866
12.57403	32295
12.58215	33530
12.59027	32013
12.59840	30836
12.60652	29190
12.61465	29442
12.62277	29995
12.63088	29212
12.63902	30507
12.64713	32131
12.65527	31701
12.66338	31814
12.67150	31108
12.67963	30097
12.68775	32258
12.69588	30056
12.70400	30843
12.71212	31273
12.72025	30075
12.72837	30344
12.73648	31359
12.74462	35896
12.75273	33753
12.76087	33308
12.76898	35570
12.77710	30770
12.78523	32992
12.79335	31186
12.80148	36899
12.80960	33360
12.81772	34447
12.82585	36398
12.83397	40562
12.84208	37177
12.85022	33829
12.85833	34789
12.86647	34201
12.87458	34994
12.88270	33043
12.89083	32448
12.89895	33921
12.90708	33193
12.91520	32669
12.92332	29320
12.93145	30377
12.93957	28047
12.94770	30731
12.95582	32537
12.96393	39176
12.97207	48879
12.98018	57650
12.98830	62958
12.99643	70436
13.00455	74091
13.01268	77163
13.02080	71611
13.02892	60654
13.03705	56420
13.04517	49749
13.05330	45844
13.06142	39004
13.06953	34948
13.07767	41429
13.08578	38897
13.09392	37193
13.10203	36721
13.11015	35623
13.11828	35807
13.12640	32926
13.13452	34409
13.14265	33303
13.15077	35394
13.15890	39659
13.16702	33888
13.17513	34032
13.18327	33746
13.19138	37297
13.19952	36432
13.20763	35642
13.21575	37619
13.22388	36549
13.23200	33800
13.24012	32151
13.24825	34770
13.25637	37640
13.26450	39553
13.27262	36152
13.28073	39774
13.28887	43542
13.29698	44281
13.30512	43796
13.31323	41263
13.32135	44301
13.32948	42143
13.33760	41624
13.34573	41230
13.35385	44955
13.36197	42369
13.37010	39396
13.37822	40240
13.38633	44553
13.39447	34464
13.40258	35393
13.41072	36738
13.41883	37668
13.42695	34043
13.43508	35671
13.44320	32473
13.45133	32471
13.45945	32737
13.46757	31393
13.47570	31212
13.48382	32468
13.49193	32808
13.50007	30679
13.50818	32521
13.51632	30361
13.52443	33778
13.53255	32548
13.54068	31532
13.54880	33741
13.55693	32743
13.56505	34305
13.57317	36011
13.58130	38400
13.58942	39875
13.59755	41822
13.60567	37870
13.61378	42576
13.62192	43933
13.63003	42279
13.63815	41321
13.64628	46866
13.65440	48447
13.66253	49728
13.67065	47997
13.67877	45099
13.68690	45077
13.69502	43997
13.70315	39326
13.71127	36328
13.71938	37011
13.72752	35910
13.73563	38963
13.74377	34146
13.75188	39622
13.76000	38129
13.76813	37300
13.77625	40156
13.78437	35100
13.79250	36642
13.80062	37404
13.80875	32502
13.81687	32824
13.82498	31810
13.83312	35345
13.84123	37914
13.84937	36946
13.85748	38134
13.86560	40677
13.87373	35995
13.88185	34417
13.88997	36311
13.89810	36264
13.90622	37942
13.91435	39016
13.92247	38381
13.93058	43008
13.93872	40880
13.94683	44215
13.95497	39130
13.96308	44054
13.97120	39786
13.97933	41095
13.98745	40142
13.99558	36234
14.00370	37454
14.01182	39710
14.01995	40647
14.02807	41339
14.03618	43723
14.04432	38789
14.05243	42199
14.06057	43481
14.06868	37724
14.07680	38213
14.08493	40430
14.09305	37841
14.10118	41950
14.10930	38701
14.11742	39453
14.12555	42103
14.13367	50641
14.14180	78389
14.14992	128123
14.15803	214047
14.16617	301673
14.17428	348333
14.18240	330279
14.19053	258850
14.19865	195137
14.20678	140552
14.21490	101519
14.22302	87526
14.23115	77484
14.23927	77236
14.24740	68796
14.25552	66006
14.26363	62477
14.27177	58358
14.27988	55671
14.28800	56287
14.29613	53904
14.30425	50808
14.31238	48180
14.32050	45244
14.32862	40818
14.33675	40778
14.34487	38876
14.35300	35638
14.36112	36347
14.36923	34576
14.37737	33234
14.38548	33760
14.39362	31584
14.40173	30764
14.40985	36260
14.41798	37051
14.42610	31418
14.43422	33823
14.44235	31006
14.45047	31773
14.45860	31651
14.46672	31497
14.47483	33850
14.48297	31232
14.49108	33033
14.49922	31450
14.50733	28760
14.51545	32796
14.52358	32842
14.53170	31887
14.53982	31482
14.54795	27674
14.55607	28546
14.56420	31567
14.57232	29400
14.58043	30336
14.58857	34514
14.59668	29872
14.60482	29803
14.61293	28977
14.62105	28754
14.62918	28447
14.63730	31594
14.64543	28928
14.65355	30255
14.66167	29349
14.66980	32543
14.67792	28124
14.68603	28308
14.69417	29116
14.70228	29608
14.71042	29444
14.71853	27359
14.72665	26693
14.73478	30005
14.74290	29188
14.75103	30359
14.75915	32489
14.76727	33600
14.77540	30608
14.78352	28914
14.79165	34104
14.79977	28564
14.80788	30949
14.81602	33359
14.82413	31020
14.83225	30504
14.84038	35757
14.84850	29478
14.85663	32554
14.86475	31122
14.87287	32200
14.88100	30511
14.88912	28890
14.89725	34533
14.90537	31029
14.91348	31586
14.92162	30698
14.92973	30761
14.93787	30647
14.94598	34684
14.95410	29811
14.96223	31133
14.97035	31099
14.97847	31522
14.98660	30447
14.99472	30136
15.00285	31309
15.01097	30489
15.01908	30577
15.02722	28872
15.03533	31349
15.04347	33386
15.05158	31764
15.05970	28677
15.06783	28482
15.07595	28098
15.08407	31318
15.09220	30444
15.10032	30868
15.10845	27330
15.11657	29852
15.12468	29543
15.13282	34427
15.14093	29790
15.14907	28300
15.15718	29615
15.16530	27564
15.17343	30938
15.18155	30681
15.18968	27087
15.19780	30280
15.20592	28295
15.21405	26368
15.22217	28425
15.23028	30383
15.23842	29006
15.24653	31149
15.25467	28202
15.26278	27538
15.27090	30316
15.27903	26902
15.28715	29815
15.29528	29739
15.30340	27852
15.31152	30113
15.31965	33402
15.32777	27723
15.33588	29079
15.34402	27720
15.35213	29350
15.36027	29193
15.36838	30261
15.37650	30790
15.38463	28758
15.39275	30733
15.40088	27461
15.40900	26460
15.41712	28232
15.42525	26847
15.43337	31334
15.44150	26945
15.44962	28779
15.45773	28790
15.46587	28551
15.47398	27642
15.48210	28751
15.49023	27817
15.49835	27318
15.50648	28512
15.51460	26627
15.52272	29736
15.53085	28355
15.53897	28380
15.54710	30122
15.55522	28688
15.56333	28249
15.57147	28221
15.57958	28703
15.58772	25535
15.59583	30177
15.60395	26568
15.61208	28315
15.62020	31748
15.62832	28366
15.63645	27633
15.64457	29230
15.65270	28662
15.66082	27666
15.66893	28209
15.67707	28437
15.68518	28744
15.69332	30466
15.70143	29042
15.70955	29389
15.71768	29646
15.72580	27024
15.73392	25831
15.74205	29367
15.75017	29184
15.75830	30513
15.76642	29631
15.77453	29605
15.78267	30739
15.79078	33696
15.79892	30269
15.80703	28645
15.81515	26825
15.82328	31930
15.83140	27949
15.83953	28238
15.84765	28131
15.85577	29589
15.86390	26985
15.87202	28689
15.88013	28200
15.88827	27054
15.89638	26853
15.90452	26002
15.91263	29309
15.92075	28502
15.92888	29614
15.93700	30327
15.94513	28816
15.95325	31402
15.96137	28863
15.96950	27199
15.97762	28414
15.98575	29104
15.99387	32990
16.00198	31688
16.01012	33539
16.01823	32337
16.02635	34225
16.03448	39186
16.04260	32606
16.05073	38229
16.05885	31381
16.06697	32553
16.07510	32484
16.08322	33407
16.09135	31980
16.09947	31801
16.10758	32678
16.11572	31072
16.12383	29167
16.13195	32365
16.14008	29601
16.14820	30570
16.15633	30759
16.16445	32431
16.17257	27864
16.18070	27499
16.18882	32922
16.19695	29628
16.20507	32205
16.21318	32301
16.22132	33020
16.22943	28930
16.23757	31888
16.24568	30974
16.25380	32774
16.26193	27857
16.27005	31362
16.27817	29297
16.28630	32550
16.29442	29303
16.30255	30373
16.31067	30018
16.31878	33078
16.32692	32018
16.33503	33895
16.34317	30763
16.35128	31081
16.35940	30655
16.36753	32485
16.37565	32655
16.38377	28832
16.39190	33311
16.40002	29140
16.40815	31469
16.41627	27372
16.42438	34827
16.43252	31128
16.44063	29829
16.44877	29840
16.45688	30237
16.46500	31233
16.47313	31032
16.48125	32377
16.48938	32823
16.49750	33483
16.50562	30191
16.51375	32252
16.52187	32000
16.52998	29667
16.53812	30704
16.54623	30652
16.55437	30316
16.56248	32831
16.57060	32874
16.57873	33557
16.58685	35517
16.59498	32214
16.60310	31441
16.61122	33626
16.61935	33736
16.62747	31640
16.63560	30386
16.64372	32957
16.65183	29198
16.65997	27703
16.66808	29011
16.67620	33778
16.68433	33428
16.69245	29830
16.70058	30643
16.70870	34659
16.71682	34483
16.72495	31890
16.73307	31702
16.74120	30687
16.74932	29104
16.75743	31830
16.76557	35383
16.77368	27509
16.78180	29409
16.78993	32142
16.79805	29806
16.80618	31214
16.81430	30494
16.82242	30647
16.83055	28298
16.83867	30175
16.84680	29021
16.85492	29621
16.86303	30053
16.87117	32443
16.87928	29987
16.88742	28497
16.89553	30497
16.90365	27743
16.91178	31629
16.91990	30693
16.92802	29344
16.93615	28773
16.94427	34349
16.95240	29348
16.96052	29407
16.96863	31294
16.97677	30319
16.98488	28015
16.99302	28882
17.00113	30731
17.00925	33442
17.01738	28273
17.02550	29173
17.03363	31685
17.04175	30008
17.04987	31696
17.05800	28163
17.06612	34330
17.07423	33479
17.08237	31477
17.09048	30060
17.09862	31664
17.10673	31405
17.11485	31294
17.12298	30986
17.13110	30940
17.13923	31738
17.14735	31463
17.15547	29822
17.16360	29829
17.17172	34201
17.17983	33280
17.18797	29360
17.19608	30259
17.20422	30071
17.21233	30693
17.22045	30177
17.22858	29350
17.23670	28546
17.24483	34559
17.25295	29577
17.26107	29853
17.26920	34932
17.27732	30550
17.28545	29493
17.29357	30331
17.30168	32023
17.30982	28811
17.31793	30653
17.32605	30892
17.33418	29304
17.34230	34914
17.35043	34418
17.35855	36353
17.36667	40584
17.37480	41184
17.38292	38103
17.39105	37904
17.39917	34933
17.40728	34460
17.41542	34549
17.42353	35001
17.43165	37180
17.43978	34796
17.44790	36098
17.45603	31018
17.46415	31749
17.47227	34859
17.48040	35357
17.48852	34133
17.49665	32589
17.50477	30716
17.51288	34499
17.52102	38700
17.52913	38989
17.53727	43462
17.54538	45828
17.55350	48214
17.56163	51082
17.56975	46437
17.57787	46477
17.58600	44197
17.59412	40371
17.60225	35082
17.61037	36874
17.61848	34773
17.62662	36575
17.63473	34289
17.64287	33738
17.65098	32526
17.65910	30907
17.66723	33536
17.67535	36176
17.68348	36468
17.69160	37409
17.69972	31971
17.70785	35179
17.71597	35483
17.72408	31715
17.73222	33832
17.74033	33611
17.74847	33178
17.75658	34543
17.76470	34707
17.77283	31558
17.78095	37642
17.78908	33081
17.79720	32300
17.80532	31887
17.81345	30945
17.82157	31765
17.82968	33262
17.83782	33208
17.84593	34868
17.85407	34058
17.86218	34238
17.87030	35861
17.87843	31061
17.88655	34748
17.89468	35531
17.90280	31860
17.91092	32757
17.91905	30155
17.92717	32669
17.93530	30449
17.94342	31898
17.95153	34478
17.95967	31346
17.96778	31418
17.97590	31727
17.98403	29845
17.99215	31368
18.00028	29431
18.00840	32458
18.01652	29322
18.02465	31687
18.03277	33970
18.04090	34444
18.04902	37371
18.05713	36151
18.06527	35754
18.07338	36876
18.08152	35576
18.08963	39447
18.09775	40244
18.10588	34395
18.11400	35619
18.12212	35949
18.13025	39809
18.13837	36502
18.14650	40404
18.15462	34650
18.16273	35950
18.17087	34983
18.17898	34271
18.18712	34109
18.19523	32204
18.20335	36899
18.21148	37244
18.21960	36034
18.22772	36701
18.23585	37192
18.24397	40237
18.25210	33959
18.26022	35414
18.26833	37626
18.27647	34951
18.28458	36519
18.29272	32271
18.30083	32776
18.30895	33167
18.31708	34027
18.32520	31490
18.33333	31746
18.34145	31298
18.34957	32784
18.35770	32892
18.36582	35060
18.37393	39015
18.38207	45190
18.39018	45607
18.39832	56705
18.40643	57356
18.41455	55041
18.42268	57852
18.43080	57895
18.43893	57408
18.44705	59631
18.45517	60305
18.46330	65986
18.47142	61563
18.47955	61948
18.48767	63528
18.49578	61066
18.50392	58698
18.51203	60759
18.52015	61243
18.52828	62788
18.53640	56099
18.54453	55760
18.55265	55856
18.56077	61483
18.56890	64791
18.57702	59503
18.58515	60099
18.59327	59415
18.60138	63451
18.60952	62583
18.61763	60671
18.62575	56330
18.63388	56896
18.64200	57394
18.65013	55046
18.65825	53693
18.66637	53062
18.67450	56159
18.68262	54359
18.69075	52896
18.69887	51622
18.70698	52726
18.71512	50219
18.72323	50264
18.73137	48005
18.73948	49712
18.74760	45707
18.75573	47465
18.76385	44657
18.77197	46366
18.78010	44980
18.78822	45988
18.79635	45615
18.80447	44272
18.81258	45660
18.82072	45920
18.82883	42312
18.83697	43789
18.84508	41754
18.85320	42087
18.86133	41319
18.86945	45422
18.87757	43125
18.88570	42415
18.89382	39962
18.90195	45357
18.91007	39858
18.91818	42061
18.92632	40014
18.93443	43156
18.94257	42766
18.95068	40424
18.95880	40437
18.96693	40929
18.97505	40707
18.98318	39561
18.99130	41358
18.99942	41969
19.00755	39357
19.01567	41480
19.02378	41516
19.03192	44427
19.04003	40903
19.04817	40379
19.05628	37178
19.06440	39013
19.07253	41371
19.08065	43345
19.08878	43957
19.09690	45618
19.10502	47092
19.11315	47260
19.12127	47520
19.12940	46478
19.13752	45379
19.14563	45285
19.15377	55130
19.16188	50390
19.17000	51881
19.17813	46454
19.18625	49215
19.19438	46489
19.20250	41188
19.21062	39699
19.21875	43042
19.22687	38017
19.23500	37692
19.24312	39617
19.25123	37306
19.25937	36509
19.26748	42180
19.27560	39735
19.28373	39246
19.29185	42288
19.29998	39704
19.30810	42125
19.31622	44724
19.32435	39907
19.33247	39827
19.34060	38389
19.34872	34307
19.35683	37921
19.36497	38817
19.37308	37470
19.38122	36349
19.38933	38373
19.39745	34461
19.40558	36745
19.41370	39983
19.42182	36592
19.42995	39780
19.43807	56312
19.44620	73632
19.45432	106381
19.46243	140566
19.47057	171005
19.47868	168705
19.48682	137214
19.49493	103942
19.50305	73549
19.51118	58867
19.51930	48005
19.52743	38770
19.53555	41498
19.54367	41250
19.55180	35513
19.55992	38690
19.56803	40293
19.57617	36723
19.58428	34801
19.59242	36573
19.60053	36395
19.60865	40508
19.61678	38981
19.62490	43229
19.63303	52670
19.64115	60747
19.64927	75718
19.65740	86935
19.66552	87282
19.67363	83819
19.68177	77033
19.68988	66877
19.69802	61344
19.70613	53163
19.71425	51113
19.72238	44155
19.73050	44644
19.73863	40926
19.74675	38666
19.75487	39993
19.76300	39004
19.77112	38180
19.77925	37449
19.78737	36270
19.79548	36787
19.80362	39369
19.81173	36367
19.81985	42411
19.82798	40582
19.83610	38828
19.84423	36653
19.85235	35508
19.86047	38688
19.86860	48047
19.87672	46081
19.88485	58750
19.89297	70047
19.90108	84504
19.90922	94695
19.91733	108110
19.92545	111933
19.93358	103942
19.94170	104860
19.94983	103522
19.95795	99709
19.96607	101914
19.97420	89977
19.98232	93258
19.99045	89919
19.99857	86587
20.00668	85392
20.01482	83443
20.02293	80640
20.03107	75876
20.03918	71696
20.04730	70928
20.05543	61228
20.06355	54422
20.07167	52045
20.07980	50661
20.08792	45006
20.09605	41898
20.10417	46526
20.11228	43343
20.12042	46467
20.12853	45604
20.13667	38956
20.14478	44053
20.15290	43261
20.16103	45155
20.16915	44492
20.17728	41947
20.18540	42018
20.19352	44624
20.20165	44195
20.20977	42655
20.21788	50434
20.22602	46797
20.23413	49823
20.24227	57720
20.25038	65252
20.25850	75409
20.26663	79086
20.27475	81642
20.28288	78074
20.29100	66919
20.29912	61176
20.30725	55958
20.31537	51788
20.32350	49153
20.33162	44544
20.33973	40605
20.34787	38741
20.35598	38230
20.36410	37948
20.37223	37819
20.38035	41578
20.38848	42060
20.39660	40850
20.40472	43580
20.41285	43534
20.42097	46757
20.42910	45730
20.43722	43207
20.44533	45383
20.45347	45605
20.46158	43933
20.46970	43850
20.47783	43024
20.48595	38985
20.49408	40285
20.50220	37265
20.51032	37683
20.51845	39344
20.52657	36134
20.53470	38354
20.54282	34164
20.55093	33687
20.55907	35772
20.56718	34931
20.57532	36004
20.58343	33980
20.59155	34452
20.59968	37718
20.60780	35273
20.61592	32681
20.62405	38486
20.63217	33677
20.64030	32797
20.64842	40353
20.65653	36637
20.66467	37256
20.67278	33961
20.68092	33205
20.68903	39844
20.69715	36324
20.70528	37720
20.71340	32276
20.72152	34972
20.72965	39316
20.73777	31642
20.74590	37177
20.75402	41606
20.76213	37265
20.77027	38003
20.77838	35771
20.78652	36883
20.79463	37574
20.80275	37437
20.81088	35953
20.81900	35575
20.82713	37227
20.83525	34683
20.84337	34395
20.85150	33319
20.85962	35144
20.86773	34279
20.87587	35745
20.88398	35040
20.89212	35522
20.90023	34451
20.90835	33624
20.91648	35377
20.92460	33381
20.93273	33626
20.94085	33728
20.94897	33341
20.95710	37946
20.96522	37955
20.97335	36359
20.98147	31664
20.98958	35663
20.99772	33604
21.00583	37386
21.01395	33684
21.02208	30854
21.03020	38041
21.03833	37414
21.04645	33774
21.05457	34897
21.06270	34925
21.07082	36013
21.07895	38947
21.08707	36658
21.09518	31438
21.10332	37517
21.11143	36310
21.11955	36461
21.12768	35646
21.13580	35046
21.14393	36211
21.15205	33852
21.16017	38362
21.16830	32784
21.17642	37614
21.18455	40063
21.19267	35656
21.20078	36573
21.20892	34238
21.21703	35389
21.22517	35181
21.23328	35832
21.24140	36749
21.24953	39853
21.25765	40434
21.26577	38099
21.27390	36973
21.28202	40579
21.29015	38247
21.29827	41320
21.30638	36050
21.31452	37290
21.32263	36806
21.33077	35874
21.33888	37053
21.34700	39929
21.35513	39824
21.36325	36511
21.37138	36443
21.37950	35542
21.38762	32846
21.39575	32891
21.40387	35848
21.41198	34533
21.42012	36762
21.42823	36761
21.43637	37691
21.44448	35093
21.45260	37716
21.46073	38120
21.46885	40246
21.47698	33337
21.48510	34158
21.49322	35990
21.50135	33224
21.50947	33800
21.51758	33999
21.52572	38958
21.53383	37383
21.54197	33211
21.55008	34939
21.55820	34149
21.56633	35895
21.57445	36011
21.58258	38785
21.59070	40290
21.59882	48709
21.60695	47440
21.61507	48989
21.62320	49843
21.63132	45703
21.63943	45375
21.64757	42784
21.65568	40171
21.66380	38396
21.67193	38487
21.68005	34770
21.68818	35233
21.69630	35184
21.70442	32186
21.71255	34016
21.72067	32575
21.72880	35504
21.73692	34420
21.74503	34491
21.75317	36463
21.76128	35816
21.76940	38585
21.77753	38598
21.78565	37555
21.79378	43616
21.80190	43423
21.81002	42896
21.81815	39361
21.82627	40407
21.83440	36736
21.84252	37369
21.85063	34225
21.85877	32922
21.86688	35386
21.87502	34130
21.88313	34145
21.89125	38077
21.89938	34406
21.90750	31777
21.91562	34888
21.92375	35749
21.93187	32334
21.94000	34773
21.94812	34296
21.95623	31297
21.96437	32873
21.97248	30731
21.98062	34422
21.98873	33725
21.99685	30962
22.00498	32340
22.01310	30053
22.02123	32745
22.02935	36879
22.03747	32011
22.04560	34146
22.05372	33410
22.06183	35261
22.06997	33607
22.07808	36970
22.08622	34383
22.09433	32444
22.10245	39354
22.11058	33826
22.11870	37191
22.12683	37808
22.13495	34605
22.14307	35103
22.15120	32987
22.15932	31852
22.16743	33280
22.17557	34301
22.18368	32244
22.19182	34715
22.19993	34433
22.20805	38155
22.21618	39438
22.22430	31947
22.23243	34083
22.24055	31051
22.24867	31083
22.25680	30823
22.26492	28252
22.27305	29220
22.28117	29696
22.28928	29637
22.29742	29838
22.30553	30720
22.31365	32781
22.32178	31650
22.32990	30771
22.33803	35650
22.34615	33702
22.35427	34096
22.36240	32601
22.37052	29954
22.37865	33938
22.38677	31348
22.39488	29998
22.40302	33239
22.41113	31563
22.41927	34066
22.42738	29517
22.43550	30738
22.44363	30858
22.45175	29584
22.45987	32349
22.46800	33308
22.47612	32211
22.48425	27465
22.49237	30856
22.50048	28309
22.50862	31274
22.51673	33100
22.52487	32850
22.53298	31972
22.54110	30481
22.54923	28130
22.55735	30907
22.56547	32864
22.57360	31823
22.58172	31068
22.58985	29710
22.59797	29784
22.60608	28470
22.61422	26708
22.62233	28830
22.63047	28422
22.63858	27727
22.64670	31845
22.65483	29067
22.66295	28813
22.67108	29685
22.67920	27671
22.68732	28581
22.69545	29300
22.70357	30327
22.71168	30292
22.71982	32771
22.72793	29585
22.73607	29747
22.74418	33171
22.75230	30297
22.76043	29797
22.76855	28845
22.77668	33774
22.78480	29190
22.79292	30590
22.80105	31731
22.80917	31232
22.81728	29771
22.82542	29583
22.83353	33694
22.84167	31089
22.84978	30454
22.85790	30568
22.86603	31194
22.87415	33826
22.88228	32688
22.89040	34985
22.89852	32919
22.90665	38590
22.91477	40322
22.92290	42646
22.93102	41817
22.93913	43056
22.94727	45590
22.95538	41097
22.96350	45309
22.97163	42241
22.97975	39716
22.98788	41505
22.99600	37347
23.00412	36993
23.01225	40578
23.02037	36418
23.02850	38379
23.03662	37520
23.04473	32391
23.05287	31835
23.06098	32799
23.06912	29531
23.07723	34120
23.08535	30536
23.09348	30083
23.10160	29254
23.10972	31989
23.11785	31438
23.12597	29814
23.13410	33183
23.14222	30179
23.15033	30802
23.15847	30552
23.16658	32836
23.17472	33101
23.18283	31614
23.19095	32461
23.19908	31553
23.20720	31954
23.21532	30130
23.22345	31393
23.23157	30886
23.23970	30263
23.24782	30822
23.25593	30246
23.26407	31043
23.27218	34711
23.28032	31160
23.28843	31346
23.29655	32818
23.30468	34793
23.31280	33470
23.32093	29995
23.32905	33231
23.33717	32713
23.34530	30896
23.35342	31635
23.36153	32088
23.36967	35435
23.37778	33470
23.38592	34409
23.39403	33354
23.40215	36056
23.41028	39434
23.41840	32489
23.42653	34798
23.43465	31265
23.44277	30152
23.45090	30190
23.45902	33182
23.46715	32663
23.47527	32275
23.48338	32286
23.49152	32230
23.49963	31855
23.50775	33949
23.51588	31544
23.52400	30404
23.53213	29255
23.54025	32586
23.54837	32677
23.55650	33613
23.56462	32089
23.57275	34797
23.58087	35077
23.58898	33172
23.59712	29989
23.60523	32700
23.61335	34073
23.62148	38035
23.62960	36166
23.63773	31589
23.64585	36803
23.65397	36216
23.66210	40538
23.67022	41102
23.67835	39675
23.68647	39429
23.69458	43515
23.70272	42428
23.71083	40747
23.71897	44543
23.72708	46740
23.73520	61158
23.74333	107914
23.75145	235518
23.75957	489517
23.76770	956462
23.77582	1625673
23.78395	2072381
23.79207	2212718
23.80018	2004661
23.80832	1633476
23.81643	1245123
23.82457	898808
23.83268	695059
23.84080	528162
23.84893	433656
23.85705	367345
23.86518	297910
23.87330	251960
23.88142	226419
23.88955	204790
23.89767	180399
23.90578	164652
23.91392	157202
23.92203	153774
23.93017	136980
23.93828	127848
23.94640	119156
23.95453	118035
23.96265	112234
23.97078	101989
23.97890	98634
23.98702	100760
23.99515	93308
24.00327	95503
24.01138	82883
24.01952	86845
24.02763	87056
24.03577	76232
24.04388	79386
24.05200	75664
24.06013	77202
24.06825	67455
24.07638	72482
24.08450	74318
24.09262	74490
24.10075	72005
24.10887	70773
24.11700	70621
24.12512	66691
24.13323	65687
24.14137	60198
24.14948	62566
24.15760	62868
24.16573	63584
24.17385	66385
24.18198	69488
24.19010	65180
24.19822	64929
24.20635	67175
24.21447	64765
24.22260	62478
24.23072	58108
24.23883	52602
24.24697	53354
24.25508	55987
24.26320	54166
24.27133	52952
24.27945	52820
24.28758	47639
24.29570	50222
24.30382	51814
24.31195	50553
24.32007	54773
24.32820	61230
24.33632	77775
24.34443	95008
24.35257	114991
24.36068	131681
24.36882	119862
24.37693	103542
24.38505	78784
24.39318	61671
24.40130	52179
24.40942	47798
24.41755	47528
24.42567	44806
24.43380	48439
24.44192	48132
24.45003	52154
24.45817	51269
24.46628	55657
24.47442	48172
24.48253	48466
24.49065	54222
24.49878	50026
24.50690	46606
24.51503	46110
24.52315	42568
24.53127	44256
24.53940	39243
24.54752	40221
24.55563	42014
24.56377	45492
24.57188	44140
24.58002	43970
24.58813	45705
24.59625	42839
24.60438	40761
24.61250	39224
24.62063	40975
24.62875	38934
24.63687	39432
24.64500	45018
24.65312	41811
24.66123	44268
24.66937	41393
24.67748	40325
24.68562	36914
24.69373	36364
24.70185	38079
24.70998	40976
24.71810	37880
24.72623	39352
24.73435	37321
24.74247	37038
24.75060	39296
24.75872	35633
24.76685	38601
24.77497	35728
24.78308	40485
24.79122	39138
24.79933	37169
24.80745	34552
24.81558	37838
24.82370	43018
24.83183	36894
24.83995	38623
24.84807	35639
24.85620	36353
24.86432	37464
24.87245	38132
24.88057	35829
24.88868	37479
24.89682	34717
24.90493	40255
24.91307	34091
24.92118	34075
24.92930	34269
24.93743	38049
24.94555	34441
24.95367	37764
24.96180	34320
24.96992	34224
24.97805	34892
24.98617	34722
24.99428	38527
25.00242	36925
25.01053	38450
25.01867	35477
25.02678	34549
25.03490	34580
25.04303	37085
25.05115	33757
25.05927	36971
25.06740	35305
25.07552	35112
25.08365	39597
25.09177	36845
25.09988	34986
25.10802	37036
25.11613	37118
25.12427	38187
25.13238	41073
25.14050	40318
25.14863	42506
25.15675	38525
25.16488	40066
25.17300	37212
25.18112	42420
25.18925	35895
25.19737	38005
25.20548	34297
25.21362	37677
25.22173	32154
25.22987	35350
25.23798	30739
25.24610	32906
25.25423	35805
25.26235	31956
25.27048	35044
25.27860	34314
25.28672	33321
25.29485	42939
25.30297	40710
25.31108	44589
25.31922	43001
25.32733	45071
25.33547	41476
25.34358	41131
25.35170	37733
25.35983	38253
25.36795	37062
25.37608	34662
25.38420	33854
25.39232	33381
25.40045	33526
25.40857	31259
25.41670	33843
25.42482	34400
25.43293	36270
25.44107	34294
25.44918	33538
25.45730	35238
25.46543	33320
25.47355	34670
25.48168	34814
25.48980	30989
25.49792	32556
25.50605	33591
25.51417	31172
25.52230	32172
25.53042	32420
25.53853	30851
25.54667	30287
25.55478	36289
25.56292	33227
25.57103	27976
25.57915	28449
25.58728	34454
25.59540	32794
25.60352	33283
25.61165	30082
25.61977	28080
25.62790	30257
25.63602	32693
25.64413	29727
25.65227	28871
25.66038	27869
25.66852	27487
25.67663	28268
25.68475	30485
25.69288	30292
25.70100	29478
25.70912	28109
25.71725	30985
25.72537	30385
25.73350	30283
25.74162	33653
25.74973	34038
25.75787	30628
25.76598	29617
25.77412	30555
25.78223	29453
25.79035	29980
25.79848	30942
25.80660	31076
25.81473	29748
25.82285	28955
25.83097	30861
25.83910	27597
25.84722	31020
25.85533	28393
25.86347	27324
25.87158	30685
25.87972	29130
25.88783	29328
25.89595	32284
25.90408	28100
25.91220	35103
25.92033	31548
25.92845	27892
25.93657	29623
25.94470	28623
25.95282	29507
25.96095	28020
25.96907	28036
25.97718	28751
25.98532	29928
25.99343	24709
26.00155	30622
26.00968	32060
26.01780	30851
26.02593	31297
26.03405	26922
26.04217	30204
26.05030	29988
26.05842	27310
26.06655	27944
26.07467	29232
26.08278	29904
26.09092	29823
26.09903	34064
26.10715	31824
26.11528	35243
26.12340	34811
26.13153	35882
26.13965	35434
26.14777	37441
26.15590	40480
26.16402	36921
26.17215	36812
26.18027	33069
26.18838	32995
26.19652	33567
26.20463	31110
26.21277	31474
26.22088	31468
26.22900	30920
26.23713	30011
26.24525	30766
26.25337	30601
26.26150	30822
26.26962	28910
26.27775	28856
26.28587	28341
26.29398	28795
26.30212	28724
26.31023	31004
26.31837	30849
26.32648	28003
26.33460	29462
26.34273	32004
26.35085	29395
26.35897	28644
26.36710	27426
26.37522	32081
26.38335	29091
26.39147	30130
26.39958	32394
26.40772	24847
26.41583	27933
26.42397	30394
26.43208	25721
26.44020	27541
26.44833	27178
26.45645	27477
26.46458	26043
26.47270	29805
26.48082	30985
26.48895	27417
26.49707	27863
26.50518	28447
26.51332	30591
26.52143	27331
26.52957	27370
26.53768	28811
26.54580	28625
26.55393	29235
26.56205	28312
26.57018	28119
26.57830	31572
26.58642	28924
26.59455	29414
26.60267	28335
26.61080	28735
26.61892	29975
26.62703	28197
26.63517	28247
26.64328	27465
26.65140	27614
26.65953	27359
26.66765	29057
26.67578	31429
26.68390	28253
26.69202	28198
26.70015	30364
26.70827	31300
26.71640	31636
26.72452	30214
26.73263	29221
26.74077	28558
26.74888	30642
26.75702	29841
26.76513	30562
26.77325	30046
26.78138	34795
26.78950	28234
26.79762	31597
26.80575	30445
26.81387	28338
26.82200	31802
26.83012	29481
26.83823	29204
26.84637	29853
26.85448	31389
26.86262	34197
26.87073	27474
26.87885	27621
26.88698	27155
26.89510	32260
26.90322	30261
26.91135	32826
26.91947	31794
26.92760	31521
26.93572	33865
26.94383	35254
26.95197	58902
26.96008	83362
26.96822	140691
26.97633	224973
26.98445	318520
26.99258	436299
27.00070	531332
27.00883	576645
27.01695	548891
27.02507	485308
27.03320	407047
27.04132	327430
27.04943	257151
27.05757	208208
27.06568	170746
27.07382	141480
27.08193	124826
27.09005	108757
27.09818	93410
27.10630	87795
27.11443	80317
27.12255	78245
27.13067	72897
27.13880	67687
27.14692	65479
27.15503	64157
27.16317	61812
27.17128	55902
27.17942	59080
27.18753	57406
27.19565	54087
27.20378	50630
27.21190	47813
27.22003	51997
27.22815	50467
27.23627	48276
27.24440	48025
27.25252	44544
27.26065	46430
27.26877	49315
27.27688	46066
27.28502	43278
27.29313	40347
27.30125	42207
27.30938	41486
27.31750	40840
27.32563	41980
27.33375	37432
27.34187	42516
27.35000	41903
27.35812	39314
27.36625	36596
27.37437	44287
27.38248	38690
27.39062	36577
27.39873	39814
27.40687	36726
27.41498	37276
27.42310	38965
27.43123	35819
27.43935	40164
27.44747	34993
27.45560	36902
27.46372	38833
27.47185	38118
27.47997	40659
27.48808	37930
27.49622	35797
27.50433	35250
27.51247	32226
27.52058	37598
27.52870	34069
27.53683	34277
27.54495	32501
27.55307	36989
27.56120	33116
27.56932	35333
27.57745	35165
27.58557	36483
27.59368	35505
27.60182	34087
27.60993	32871
27.61807	33468
27.62618	33960
27.63430	33303
27.64243	32177
27.65055	32093
27.65868	33158
27.66680	31327
27.67492	32007
27.68305	33567
27.69117	36485
27.69928	36513
27.70742	29650
27.71553	31000
27.72367	33861
27.73178	39174
27.73990	36167
27.74803	38323
27.75615	41602
27.76428	41037
27.77240	44520
27.78052	35182
27.78865	34402
27.79677	34092
27.80490	34047
27.81302	31816
27.82113	34607
27.82927	30635
27.83738	32506
27.84550	32369
27.85363	35874
27.86175	31588
27.86988	30886
27.87800	33219
27.88612	31767
27.89425	33523
27.90237	32826
27.91050	31123
27.91862	30588
27.92673	33114
27.93487	33347
27.94298	29966
27.95110	32696
27.95923	29755
27.96735	32000
27.97548	34755
27.98360	35840
27.99172	30083
27.99985	33801
28.00797	35255
28.01610	32681
28.02422	28408
28.03233	29106
28.04047	32991
28.04858	34022
28.05672	33015
28.06483	33317
28.07295	32745
28.08108	38583
28.08920	40255
28.09732	48135
28.10545	49692
28.11357	53091
28.12170	53502
28.12982	50318
28.13793	44370
28.14607	41248
28.15418	39687
28.16232	41341
28.17043	35997
28.17855	31922
28.18668	32179
28.19480	32510
28.20292	30928
28.21105	31337
28.21917	33051
28.22730	31793
28.23542	33247
28.24353	38218
28.25167	43586
28.25978	54435
28.26792	75085
28.27603	105923
28.28415	136471
28.29228	183334
28.30040	230497
28.30853	266331
28.31665	290079
28.32477	298297
28.33290	304453
28.34102	283781
28.34913	273727
28.35727	253374
28.36538	224414
28.37352	202503
28.38163	184264
28.38975	165500
28.39788	146051
28.40600	124661
28.41413	112582
28.42225	112071
28.43037	99971
28.43850	94322
28.44662	84939
28.45475	74726
28.46287	71616
28.47098	69563
28.47912	66913
28.48723	66024
28.49535	62433
28.50348	59082
28.51160	56730
28.51973	56434
28.52785	53993
28.53597	55709
28.54410	52485
28.55222	52751
28.56035	51347
28.56847	51575
28.57658	48825
28.58472	48566
28.59283	49135
28.60095	48180
28.60908	47820
28.61720	45270
28.62533	43479
28.63345	43753
28.64157	49282
28.64970	48762
28.65782	49359
28.66595	49630
28.67407	54272
28.68218	51168
28.69032	48884
28.69843	54698
28.70657	60117
28.71468	70242
28.72280	77100
28.73093	81165
28.73905	79246
28.74717	64194
28.75530	52633
28.76342	47257
28.77155	43057
28.77967	40979
28.78778	41134
28.79592	38598
28.80403	40724
28.81217	38587
28.82028	38574
28.82840	41543
28.83653	37986
28.84465	39078
28.85278	38262
28.86090	41460
28.86902	39436
28.87715	40247
28.88527	38641
28.89338	40116
28.90152	35282
28.90963	37014
28.91777	40163
28.92588	36467
28.93400	36225
28.94213	37220
28.95025	38531
28.95838	36787
28.96650	39973
28.97462	33777
28.98275	37073
28.99087	37444
28.99898	39739
29.00712	36416
29.01523	34965
29.02337	37461
29.03148	38910
29.03960	36159
29.04773	39478
29.05585	38499
29.06398	36692
29.07210	35812
29.08022	35302
29.08835	35804
29.09647	35884
29.10460	34654
29.11272	34155
29.12083	31104
29.12897	35474
29.13708	35042
29.14520	33855
29.15333	38421
29.16145	37165
29.16958	36019
29.17770	34380
29.18582	30914
29.19395	34666
29.20207	40620
29.21020	32746
29.21832	35338
29.22643	35669
29.23457	36456
29.24268	38784
29.25080	32002
29.25893	38690
29.26705	37764
29.27518	35579
29.28330	39206
29.29142	35919
29.29955	36470
29.30767	34569
29.31580	33220
29.32392	32297
29.33203	35489
29.34017	34649
29.34828	33571
29.35642	35725
29.36453	33675
29.37265	34700
29.38078	33304
29.38890	33992
29.39702	33237
29.40515	31638
29.41327	32734
29.42140	36836
29.42952	32807
29.43763	37680
29.44577	35645
29.45388	34954
29.46202	36333
29.47013	35399
29.47825	37658
29.48638	38948
29.49450	39998
29.50263	34410
29.51075	36144
29.51887	37265
29.52700	35119
29.53512	34938
29.54323	34536
29.55137	32834
29.55948	35143
29.56762	35246
29.57573	37784
29.58385	37620
29.59198	45731
29.60010	43909
29.60823	41355
29.61635	40217
29.62447	39563
29.63260	38029
29.64072	36922
29.64883	36600
29.65697	33530
29.66508	32962
29.67322	31631
29.68133	33333
29.68945	33432
29.69758	34151
29.70570	35842
29.71383	31382
29.72195	31708
29.73007	33169
29.73820	36359
29.74632	33082
29.75445	34440
29.76257	31920
29.77068	29932
29.77882	30821
29.78693	30217
29.79505	31496
29.80318	33411
29.81130	33043
29.81943	29295
29.82755	31596
29.83567	32670
29.84380	35118
29.85192	35587
29.86005	34185
29.86817	32675
29.87628	37283
29.88442	43749
29.89253	59673
29.90067	65817
29.90878	75197
29.91690	94407
29.92503	107082
29.93315	122819
29.94127	126005
29.94940	142824
29.95752	144594
29.96565	150314
29.97377	150125
29.98188	148554
29.99002	141407
29.99813	132556
30.00627	129378
30.01438	113623
30.02250	117600
30.03063	104876
30.03875	95230
30.04687	90750
30.05500	81248
30.06312	77805
30.07125	75777
30.07937	72430
30.08748	68797
30.09562	66963
30.10373	62759
30.11187	60520
30.11998	61292
30.12810	55995
30.13623	54554
30.14435	50111
30.15248	58140
30.16060	50336
30.16872	47797
30.17685	51728
30.18497	48109
30.19308	42620
30.20122	51331
30.20933	45544
30.21747	45064
30.22558	43386
30.23370	39550
30.24183	40377
30.24995	44975
30.25808	42801
30.26620	43897
30.27432	40322
30.28245	41522
30.29057	42162
30.29870	37491
30.30682	39949
30.31493	41316
30.32307	38280
30.33118	40648
30.33930	38392
30.34743	40002
30.35555	34977
30.36368	36897
30.37180	37168
30.37992	39515
30.38805	40902
30.39617	38748
30.40430	39678
30.41242	37231
30.42053	34548
30.42867	37839
30.43678	35079
30.44490	35418
30.45303	37854
30.46115	36901
30.46928	39685
30.47740	34299
30.48552	40182
30.49365	37153
30.50177	33643
30.50990	35909
30.51802	39070
30.52613	35126
30.53427	33725
30.54238	35828
30.55052	35148
30.55863	33732
30.56675	34211
30.57488	32271
30.58300	34673
30.59112	34754
30.59925	31491
30.60737	35387
30.61550	35441
30.62362	36349
30.63173	36197
30.63987	35493
30.64798	31317
30.65612	36199
30.66423	33650
30.67235	36253
30.68048	33918
30.68860	34103
30.69672	34309
30.70485	33868
30.71297	35560
30.72110	34303
30.72922	31170
30.73733	34036
30.74547	38672
30.75358	33329
30.76172	35490
30.76983	37056
30.77795	34176
30.78608	37382
30.79420	39015
30.80233	37983
30.81045	37926
30.81857	36604
30.82670	35041
30.83482	34756
30.84293	31337
30.85107	34432
30.85918	35541
30.86732	35563
30.87543	30813
30.88355	36666
30.89168	35284
30.89980	35293
30.90793	33781
30.91605	35117
30.92417	33374
30.93230	34158
30.94042	29827
30.94855	35138
30.95667	31338
30.96478	33879
30.97292	33324
30.98103	34900
30.98915	32591
30.99728	32593
31.00540	34986
31.01353	41113
31.02165	34863
31.02977	33072
31.03790	34299
31.04602	32697
31.05415	34455
31.06227	34461
31.07038	37806
31.07852	35068
31.08663	34963
31.09475	39566
31.10288	38034
31.11100	40994
31.11913	39155
31.12725	37412
31.13537	34227
31.14350	38701
31.15162	38167
31.15975	35767
31.16787	40178
31.17598	47614
31.18412	59876
31.19223	80650
31.20037	97027
31.20848	100705
31.21660	109447
31.22473	105469
31.23285	91712
31.24097	69859
31.24910	58637
31.25722	41545
31.26535	40540
31.27347	37721
31.28158	38885
31.28972	34453
31.29783	38334
31.30597	36206
31.31408	32979
31.32220	35683
31.33033	32660
31.33845	39215
31.34658	37755
31.35470	39392
31.36282	37784
31.37095	38549
31.37907	33738
31.38718	34053
31.39532	36667
31.40343	31900
31.41157	34400
31.41968	35467
31.42780	33903
31.43593	33324
31.44405	30538
31.45218	32742
31.46030	35010
31.46842	34167
31.47655	35650
31.48467	32362
31.49278	35555
31.50092	31824
31.50903	35510
31.51717	37534
31.52528	33229
31.53340	36227
31.54153	34111
31.54965	35362
31.55778	37009
31.56590	32251
31.57402	34682
31.58215	35331
31.59027	32215
31.59840	35431
31.60652	33176
31.61463	32641
31.62277	36273
31.63088	34177
31.63900	34727
31.64713	31104
31.65525	36847
31.66338	33510
31.67150	40275
31.67962	38848
31.68775	37424
31.69587	40347
31.70400	38104
31.71212	39446
31.72023	39859
31.72837	37912
31.73648	35368
31.74460	36941
31.75273	36491
31.76085	33411
31.76898	34424
31.77710	34565
31.78522	38755
31.79335	39023
31.80147	36756
31.80960	37569
31.81772	39534
31.82583	40994
31.83397	44471
31.84208	48048
31.85022	56578
31.85833	64449
31.86645	72426
31.87458	80844
31.88270	91792
31.89082	89136
31.89895	95098
31.90707	97036
31.91520	97952
31.92332	91560
31.93143	88182
31.93957	83352
31.94768	79497
31.95582	81608
31.96393	74516
31.97205	71420
31.98018	70284
31.98830	65924
31.99643	63363
32.00455	63316
32.01267	56358
32.02080	60120
32.02892	61191
32.03703	53486
32.04517	54998
32.05328	52121
32.06142	48142
32.06953	51209
32.07765	47343
32.08578	41084
32.09390	44767
32.10203	41816
32.11015	44754
32.11827	41862
32.12640	41463
32.13452	39057
32.14265	42759
32.15077	42811
32.15888	41184
32.16702	42903
32.17513	39735
32.18325	39287
32.19138	39431
32.19950	40425
32.20763	37608
32.21575	36719
32.22387	40342
32.23200	39270
32.24012	38598
32.24825	41697
32.25637	39932
32.26448	38326
32.27262	41639
32.28073	38465
32.28885	38048
32.29698	40242
32.30510	41739
32.31323	37471
32.32135	39997
32.32947	34317
32.33760	39109
32.34572	40434
32.35385	40701
32.36197	39243
32.37008	41945
32.37822	37622
32.38633	38155
32.39447	37887
32.40258	39028
32.41070	38313
32.41883	37386
32.42695	44581
32.43507	38089
32.44320	36743
32.45132	39616
32.45945	34503
32.46757	37748
32.47568	36239
32.48382	34926
32.49193	36689
32.50007	39865
32.50818	36962
32.51630	37431
32.52443	38067
32.53255	40281
32.54067	38624
32.54880	37819
32.55692	37872
32.56505	37014
32.57317	39808
32.58128	37645
32.58942	44770
32.59753	49173
32.60567	52779
32.61378	61768
32.62190	63413
32.63003	60350
32.63815	54925
32.64628	46818
32.65440	37596
32.66252	36637
32.67065	38703
32.67877	41250
32.68688	40091
32.69502	43314
32.70313	38182
32.71127	37938
32.71938	37798
32.72750	36440
32.73563	38273
32.74375	38416
32.75188	40716
32.76000	37802
32.76812	35360
32.77625	36510
32.78437	34057
32.79250	33659
32.80062	37793
32.80873	36276
32.81687	37856
32.82498	39821
32.83310	36450
32.84123	35601
32.84935	38810
32.85748	35120
32.86560	36529
32.87372	34130
32.88185	36838
32.88997	35174
32.89810	36746
32.90622	39677
32.91433	39610
32.92247	34672
32.93058	37449
32.93870	34981
32.94683	35942
32.95495	37884
32.96308	37191
32.97120	36293
32.97932	38839
32.98745	36416
32.99557	35759
33.00370	39293
33.01182	34401
33.01993	37941
33.02807	36410
33.03618	34738
33.04432	36443
33.05243	36122
33.06055	36522
33.06868	37349
33.07680	38387
33.08492	38785
33.09305	44659
33.10117	49625
33.10930	52927
33.11742	49271
33.12553	48789
33.13367	48222
33.14178	50151
33.14992	45908
33.15803	39335
33.16615	36667
33.17428	41431
33.18240	39064
33.19053	34812
33.19865	37130
33.20677	37738
33.21490	36039
33.22302	36095
33.23113	35326
33.23927	38037
33.24738	33426
33.25552	37377
33.26363	38588
33.27175	37459
33.27988	35481
33.28800	36845
33.29613	35916
33.30425	36509
33.31237	39065
33.32050	35323
33.32862	36264
33.33673	39930
33.34487	35419
33.35298	39329
33.36112	37162
33.36923	36674
33.37735	34249
33.38548	39950
33.39360	39636
33.40173	37813
33.40985	40084
33.41797	38845
33.42610	37391
33.43422	39211
33.44235	36771
33.45047	37250
33.45858	38054
33.46672	39186
33.47483	35875
33.48295	37725
33.49108	37291
33.49920	33642
33.50733	38398
33.51545	36846
33.52357	37309
33.53170	39848
33.53982	37897
33.54795	38015
33.55607	39503
33.56418	35416
33.57232	38894
33.58043	36360
33.58855	35021
33.59668	37024
33.60480	37622
33.61293	36235
33.62105	37539
33.62917	39239
33.63730	37640
33.64542	38080
33.65355	37184
33.66167	39950
33.66978	34928
33.67792	41829
33.68603	43508
33.69417	39682
33.70228	38196
33.71040	44006
33.71853	46613
33.72665	39303
33.73477	45664
33.74290	40086
33.75102	46057
33.75915	39944
33.76727	40676
33.77538	44174
33.78352	43346
33.79163	45734
33.79977	43231
33.80788	44469
33.81600	48536
33.82413	47983
33.83225	42524
33.84038	43763
33.84850	44076
33.85662	46336
33.86475	46469
33.87287	47858
33.88098	50366
33.88912	47158
33.89723	47213
33.90537	48678
33.91348	50434
33.92160	52625
33.92973	50692
33.93785	50889
33.94598	54880
33.95410	54089
33.96222	56600
33.97035	53837
33.97847	51828
33.98658	54063
33.99472	53249
34.00283	51146
34.01097	50273
34.01908	48307
34.02720	46701
34.03533	48060
34.04345	50639
34.05158	45070
34.05970	49000
34.06782	49234
34.07595	45934
34.08407	47592
34.09220	42907
34.10032	42385
34.10843	44469
34.11657	41273
34.12468	42838
34.13280	41372
34.14093	45055
34.14905	44369
34.15718	44885
34.16530	42454
34.17342	44477
34.18155	40729
34.18967	43652
34.19780	41484
34.20592	41697
34.21403	40019
34.22217	42866
34.23028	38554
34.23842	40151
34.24653	41907
34.25465	42852
34.26278	44455
34.27090	41638
34.27902	45050
34.28715	45975
34.29527	42169
34.30340	44982
34.31152	45036
34.31963	42699
34.32777	43257
34.33588	45307
34.34402	43499
34.35213	40892
34.36025	42278
34.36838	41670
34.37650	41856
34.38462	42223
34.39275	40868
34.40087	42715
34.40900	44487
34.41712	41026
34.42523	41147
34.43337	39135
34.44148	43510
34.44962	52025
34.45773	57405
34.46585	66317
34.47398	73961
34.48210	83469
34.49023	95445
34.49835	98874
34.50647	101382
34.51460	99453
34.52272	93916
34.53083	87672
34.53897	81695
34.54708	77977
34.55522	69088
34.56333	69041
34.57145	61607
34.57958	68093
34.58770	60116
34.59583	57360
34.60395	56771
34.61207	54177
34.62020	58545
34.62832	61943
34.63643	61172
34.64457	55918
34.65268	61211
34.66082	57577
34.66893	57129
34.67705	56665
34.68518	56870
34.69330	56178
34.70143	53028
34.70955	52853
34.71767	56817
34.72580	53156
34.73392	53108
34.74205	56697
34.75017	52786
34.75828	54854
34.76642	51679
34.77453	48865
34.78265	47808
34.79078	49481
34.79890	52534
34.80703	48576
34.81515	49403
34.82327	50325
34.83140	47913
34.83952	46751
34.84765	48661
34.85577	44146
34.86388	45253
34.87202	47028
34.88013	49429
34.88827	47841
34.89638	49145
34.90450	48161
34.91263	48689
34.92075	49145
34.92887	48340
34.93700	51610
34.94512	47982
34.95325	49307
34.96137	47187
34.96948	49158
34.97762	43076
34.98573	48443
34.99387	46179
35.00198	47316
35.01010	47209
35.01823	46796
35.02635	44098
35.03447	43672
35.04260	43441
35.05072	44536
35.05885	46362
35.06697	45380
35.07508	49306
35.08322	44901
35.09133	49000
35.09947	49428
35.10758	48874
35.11570	47311
35.12383	47246
35.13195	46051
35.14008	47753
35.14820	46534
35.15632	46981
35.16445	51459
35.17257	44343
35.18068	48664
35.18882	48020
35.19693	47745
35.20507	46942
35.21318	49524
35.22130	48248
35.22943	43150
35.23755	45590
35.24568	45849
35.25380	46175
35.26192	47374
35.27005	46563
35.27817	46037
35.28630	43709
35.29442	47580
35.30253	47037
35.31067	46239
35.31878	47785
35.32690	48427
35.33503	48714
35.34315	50181
35.35128	47750
35.35940	48144
35.36752	50406
35.37565	47291
35.38377	47416
35.39190	47623
35.40002	48357
35.40813	45426
35.41627	46227
35.42438	50707
35.43250	51359
35.44063	51415
35.44875	50310
35.45688	51512
35.46500	52650
35.47312	54669
35.48125	54058
35.48937	47966
35.49750	47939
35.50562	49906
35.51373	48445
35.52187	46396
35.52998	49070
35.53812	48913
35.54623	47673
35.55435	47108
35.56248	46662
35.57060	48666
35.57872	50660
35.58685	48932
35.59497	51548
35.60310	49566
35.61122	52951
35.61933	48835
35.62747	53444
35.63558	52137
35.64372	51013
35.65183	50575
35.65995	48110
35.66808	46957
35.67620	49538
35.68433	54396
35.69245	50466
35.70057	47454
35.70870	53531
35.71682	48352
35.72493	49055
35.73307	48156
35.74118	49274
35.74932	45399
35.75743	49168
35.76555	53720
35.77368	49285
35.78180	48253
35.78993	46359
35.79805	46950
35.80617	49632
35.81430	49352
35.82242	50894
35.83053	47549
35.83867	51676
35.84678	49404
35.85492	52766
35.86303	47677
35.87115	49809
35.87928	54010
35.88740	48818
35.89553	49791
35.90365	47480
35.91177	46764
35.91990	48230
35.92802	51682
35.93615	51559
35.94427	51629
35.95238	51151
35.96052	49145
35.96863	53839
35.97675	50125
35.98488	51166
35.99300	51530
36.00113	54414
36.00925	55017
36.01737	56440
36.02550	53078
36.03362	50501
36.04175	53890
36.04987	54139
36.05798	50865
36.06612	50664
36.07423	52284
36.08235	53119
36.09048	50950
36.09860	49458
36.10673	53144
36.11485	50361
36.12297	52712
36.13110	52303
36.13922	50610
36.14735	49372
36.15547	53155
36.16358	54692
36.17172	56361
36.17983	49902
36.18797	51439
36.19608	50662
36.20420	49477
36.21233	50883
36.22045	54199
36.22857	56753
36.23670	58512
36.24482	61659
36.25295	76291
36.26107	77364
36.26918	78941
36.27732	70667
36.28543	66286
36.29357	62305
36.30168	55288
36.30980	59009
36.31793	52468
36.32605	52958
36.33418	51706
36.34230	53429
36.35042	51064
36.35855	52646
36.36667	52032
36.37478	48978
36.38292	54607
36.39103	52931
36.39917	56060
36.40728	54818
36.41540	58304
36.42353	53908
36.43165	52551
36.43978	56471
36.44790	52888
36.45602	54252
36.46415	51435
36.47227	56108
36.48038	54533
36.48852	53311
36.49663	49565
36.50477	52481
36.51288	52691
36.52100	54381
36.52913	48128
36.53725	50317
36.54538	52255
36.55350	54479
36.56162	53727
36.56975	52335
36.57787	59260
36.58600	53667
36.59412	54527
36.60223	58538
36.61037	57475
36.61848	52322
36.62660	56515
36.63473	54052
36.64285	56560
36.65098	54091
36.65910	56454
36.66722	54589
36.67535	54983
36.68347	55067
36.69160	54509
36.69972	55193
36.70783	54723
36.71597	55329
36.72408	53604
36.73222	55263
36.74033	54434
36.74845	54512
36.75658	56094
36.76470	56391
36.77282	55744
36.78095	56029
36.78907	53887
36.79720	57195
36.80532	60870
36.81343	56297
36.82157	56352
36.82968	54475
36.83782	54650
36.84593	60671
36.85405	55767
36.86218	56371
36.87030	56748
36.87842	58402
36.88655	57084
36.89467	57366
36.90280	57511
36.91092	55651
36.91903	56402
36.92717	54879
36.93528	58285
36.94342	58317
36.95153	58634
36.95965	55927
36.96778	53779
36.97590	58061
36.98403	63613
36.99215	73678
37.00027	83548
37.00840	95078
37.01652	103131
37.02463	122741
37.03277	123347
37.04088	114513
37.04902	104140
37.05713	92122
37.06525	76169
37.07338	71342
37.08150	68453
37.08963	62717
37.09775	56720
37.10587	66493
37.11400	66875
37.12212	62680
37.13023	62346
37.13837	61300
37.14648	63362
37.15462	63144
37.16273	60018
37.17085	60558
37.17898	58603
37.18710	58722
37.19523	61937
37.20335	61468
37.21147	59500
37.21960	61707
37.22772	59407
37.23585	61072
37.24397	62407
37.25208	64031
37.26022	72072
37.26833	78248
37.27645	91099
37.28458	97609
37.29270	106296
37.30083	111028
37.30895	111069
37.31707	109756
37.32520	99871
37.33332	95779
37.34145	82535
37.34957	88027
37.35768	80742
37.36582	78834
37.37393	71368
37.38207	78651
37.39018	70791
37.39830	71330
37.40643	72463
37.41455	71905
37.42267	72145
37.43080	76679
37.43892	72921
37.44705	72437
37.45517	71163
37.46328	64840
37.47142	65389
37.47953	70753
37.48767	67733
