C:\MassHunter\GCMS\1\data\JTB-E02\BACandBLUE\JTB-E18-018-07.D Thu Jul 04 09:33:07 2019
Start of data points
2.09532	67775
2.10345	68976
2.11157	64303
2.11970	63086
2.12782	62609
2.13593	65843
2.14407	62417
2.15218	68834
2.16032	67941
2.16843	62784
2.17655	60232
2.18468	62620
2.19280	62537
2.20092	60471
2.20905	57526
2.21717	57993
2.22530	58351
2.23342	56751
2.24153	57226
2.24967	57972
2.25778	53697
2.26592	60763
2.27403	223778
2.28215	1223737
2.29028	1336222
2.29840	522627
2.30653	296994
2.31465	241391
2.32277	210815
2.33090	185686
2.33902	170638
2.34713	163080
2.35527	143530
2.36338	137025
2.37152	126404
2.37963	126305
2.38775	128256
2.39588	119215
2.40400	118907
2.41213	117655
2.42025	111316
2.42837	112587
2.43650	109519
2.44462	104922
2.45273	106155
2.46087	108803
2.46898	112246
2.47712	115513
2.48523	112518
2.49335	104227
2.50148	122074
2.50960	106725
2.51773	102419
2.52585	103305
2.53397	103037
2.54210	98077
2.55022	106805
2.55835	136892
2.56647	203831
2.57458	209698
2.58272	151190
2.59083	127503
2.59895	124868
2.60708	206637
2.61520	940522
2.62333	1416352
2.63145	803554
2.63957	433906
2.64770	311874
2.65582	245840
2.66395	201011
2.67207	174761
2.68018	161333
2.68832	155452
2.69643	141474
2.70457	134323
2.71268	126899
2.72080	121667
2.72893	116918
2.73705	115958
2.74517	114465
2.75330	109070
2.76142	103654
2.76955	103789
2.77767	105370
2.78578	146978
2.79392	260926
2.80203	239457
2.81017	165857
2.81828	164849
2.82640	171654
2.83453	156884
2.84265	132664
2.85077	123597
2.85890	115908
2.86702	115502
2.87515	115455
2.88327	103258
2.89138	103450
2.89952	107943
2.90763	102295
2.91577	102479
2.92388	98411
2.93200	97292
2.94013	94238
2.94825	92598
2.95638	92299
2.96450	100775
2.97262	122094
2.98075	120412
2.98887	102372
2.99698	103283
3.00512	103694
3.01323	103505
3.02137	98833
3.02948	96849
3.03760	92648
3.04573	90884
3.05385	96277
3.06198	86410
3.07010	88006
3.07822	105956
3.08635	420940
3.09447	2278080
3.10260	4885796
3.11072	5926913
3.11883	6526032
3.12697	4835913
3.13508	2852269
3.14320	2011769
3.15133	1558310
3.15945	1230096
3.16758	1012862
3.17570	910771
3.18382	831622
3.19195	1011434
3.20007	1673283
3.20820	1836361
3.21632	1318570
3.22443	964049
3.23257	807472
3.24068	703439
3.24880	617515
3.25693	533661
3.26505	486857
3.27318	439070
3.28130	402913
3.28942	398409
3.29755	614737
3.30567	1536228
3.31380	3077364
3.32192	3864334
3.33003	3185153
3.33817	2137120
3.34628	1474358
3.35442	1154132
3.36253	944498
3.37065	816205
3.37878	723069
3.38690	646077
3.39502	587019
3.40315	549020
3.41127	505702
3.41940	478948
3.42752	460185
3.43563	446067
3.44377	416821
3.45188	394527
3.46002	383104
3.46813	386588
3.47625	405275
3.48438	419838
3.49250	396041
3.50062	372394
3.50875	343526
3.51687	340629
3.52500	322508
3.53312	333502
3.54123	335244
3.54937	339959
3.55748	335681
3.56562	322302
3.57373	344716
3.58185	428761
3.58998	457525
3.59810	400700
3.60623	348442
3.61435	324059
3.62247	335212
3.63060	326067
3.63872	317420
3.64683	300711
3.65497	299250
3.66308	328401
3.67122	784535
3.67933	2893394
3.68745	6132051
3.69558	6322046
3.70370	3967845
3.71183	2394074
3.71995	1785860
3.72807	1460555
3.73620	1278759
3.74432	1121765
3.75245	1021002
3.76057	909347
3.76868	852448
3.77682	780553
3.78493	736755
3.79305	714127
3.80118	690712
3.80930	857539
3.81743	1512725
3.82555	2259885
3.83367	2082779
3.84180	1463096
3.84992	1112022
3.85805	936268
3.86617	820769
3.87428	755586
3.88242	679298
3.89053	651418
3.89865	625697
3.90678	571654
3.91490	562848
3.92303	595829
3.93115	749790
3.93927	841737
3.94740	886674
3.95552	1600619
3.96365	4795523
3.97177	1.015189E+07
3.97988	1.241663E+07
3.98802	9391749
3.99613	5417942
4.00427	6454441
4.01238	1.764307E+07
4.02050	3.537874E+07
4.02863	4.298769E+07
4.03675	3.440905E+07
4.04487	1.818013E+07
4.05300	8510980
4.06112	5076503
4.06925	3612190
4.07737	2846051
4.08548	2305508
4.09362	1956886
4.10173	1697955
4.10987	1498020
4.11798	1338806
4.12610	1219051
4.13423	1130139
4.14235	1083774
4.15048	1106952
4.15860	1201744
4.16672	1197975
4.17485	1086686
4.18297	994588
4.19108	938418
4.19922	849840
4.20733	808817
4.21547	1155367
4.22358	3171249
4.23170	8582383
4.23983	1.478931E+07
4.24795	1.701793E+07
4.25608	1.367559E+07
4.26420	8220736
4.27232	5235229
4.28045	3770223
4.28857	2861612
4.29668	2263481
4.30482	1875464
4.31293	1643772
4.32107	1432407
4.32918	1281942
4.33730	1167744
4.34543	1091583
4.35355	1050495
4.36168	1011506
4.36980	1031519
4.37792	968434
4.38605	912678
4.39417	842440
4.40230	788356
4.41042	732061
4.41853	704765
4.42667	679086
4.43478	668673
4.44290	639464
4.45103	616032
4.45915	599401
4.46728	585784
4.47540	578204
4.48352	558728
4.49165	534400
4.49977	539876
4.50790	522474
4.51602	506169
4.52413	495385
4.53227	486831
4.54038	472462
4.54850	478178
4.55663	461073
4.56475	471743
4.57288	456455
4.58100	444049
4.58912	425188
4.59725	414601
4.60537	410148
4.61350	415861
4.62162	411595
4.62973	455878
4.63787	613616
4.64598	850312
4.65412	992224
4.66223	903603
4.67035	708413
4.67848	548236
4.68660	484401
4.69472	452921
4.70285	429696
4.71097	410203
4.71910	386339
4.72722	372789
4.73533	365061
4.74347	354750
4.75158	354421
4.75972	340471
4.76783	348789
4.77595	337647
4.78408	332930
4.79220	347942
4.80033	405586
4.80845	548003
4.81657	703268
4.82470	698310
4.83282	581830
4.84093	501898
4.84907	477606
4.85718	454045
4.86532	450459
4.87343	431513
4.88155	413436
4.88968	398329
4.89780	373822
4.90593	351739
4.91405	338859
4.92217	331687
4.93030	331161
4.93842	356304
4.94655	467735
4.95467	781638
4.96278	1280309
4.97092	1737911
4.97903	1845728
4.98715	1554556
4.99528	1187723
5.00340	917996
5.01153	746463
5.01965	659372
5.02777	636706
5.03590	776775
5.04402	1075565
5.05215	1331869
5.06027	1304540
5.06838	1072683
5.07652	865773
5.08463	759192
5.09275	668421
5.10088	641951
5.10900	603273
5.11713	573779
5.12525	537704
5.13337	511964
5.14150	490341
5.14962	480279
5.15775	485037
5.16587	518483
5.17398	560091
5.18212	571396
5.19023	543832
5.19837	511427
5.20648	514806
5.21460	530164
5.22273	547025
5.23085	517380
5.23897	478733
5.24710	446133
5.25522	435115
5.26335	395504
5.27147	378182
5.27958	362682
5.28772	348062
5.29583	335376
5.30397	331407
5.31208	316939
5.32020	318473
5.32833	323075
5.33645	340629
5.34457	373281
5.35270	397808
5.36082	402555
5.36895	373575
5.37707	328530
5.38518	327618
5.39332	323038
5.40143	325761
5.40957	337607
5.41768	331850
5.42580	321804
5.43393	301659
5.44205	301054
5.45018	297481
5.45830	300629
5.46642	314637
5.47455	298458
5.48267	292463
5.49078	278931
5.49892	280634
5.50703	265541
5.51517	271158
5.52328	281906
5.53140	277977
5.53953	282054
5.54765	271458
5.55578	266001
5.56390	276268
5.57202	298010
5.58015	326044
5.58827	352641
5.59640	335662
5.60452	309211
5.61263	275231
5.62077	276723
5.62888	272451
5.63700	295814
5.64513	318228
5.65325	342640
5.66138	335954
5.66950	317448
5.67762	301576
5.68575	298640
5.69387	309761
5.70200	331086
5.71012	337340
5.71823	312718
5.72637	293830
5.73448	266194
5.74260	252009
5.75073	247855
5.75885	238244
5.76698	239881
5.77510	237644
5.78322	233552
5.79135	231189
5.79947	231029
5.80760	224820
5.81572	231132
5.82383	227858
5.83197	224575
5.84008	222868
5.84822	230304
5.85633	224542
5.86445	223119
5.87258	224744
5.88070	223765
5.88882	214525
5.89695	213218
5.90507	207311
5.91320	182197
5.92132	161862
5.92943	164908
5.93757	158801
5.94568	159492
5.95382	169474
5.96193	196092
5.97005	213105
5.97818	251053
5.98630	289241
5.99443	320567
6.00255	337246
6.01067	312812
6.01880	271579
6.02692	246243
6.03503	213691
6.04317	189476
6.05128	179889
6.05942	176375
6.06753	165568
6.07565	162712
6.08378	159767
6.09190	156932
6.10003	152183
6.10815	151922
6.11627	144665
6.12440	157378
6.13252	191487
6.14063	275351
6.14877	422149
6.15688	535903
6.16502	540691
6.17313	457926
6.18125	340448
6.18938	278103
6.19750	239272
6.20563	223608
6.21375	215043
6.22187	207383
6.23000	199614
6.23812	205511
6.24625	206956
6.25437	203640
6.26248	204090
6.27062	207192
6.27873	211107
6.28685	210567
6.29498	203578
6.30310	200165
6.31123	193157
6.31935	195945
6.32747	195221
6.33560	204726
6.34372	218521
6.35185	227916
6.35997	227074
6.36808	222482
6.37622	208551
6.38433	201217
6.39245	205446
6.40058	204331
6.40870	203811
6.41683	195304
6.42495	194933
6.43307	201390
6.44120	195287
6.44932	193799
6.45745	187321
6.46557	188582
6.47368	188537
6.48182	197189
6.48993	193775
6.49807	204683
6.50618	204141
6.51430	204864
6.52243	203794
6.53055	206376
6.53867	206703
6.54680	205856
6.55492	200920
6.56305	205108
6.57117	210899
6.57928	227814
6.58742	251874
6.59553	261715
6.60367	254224
6.61178	249895
6.61990	229428
6.62803	217502
6.63615	211815
6.64428	215191
6.65240	226815
6.66052	282779
6.66865	431031
6.67677	632767
6.68488	785797
6.69302	735401
6.70113	552844
6.70927	411976
6.71738	332298
6.72550	299876
6.73363	280760
6.74175	266652
6.74988	262261
6.75800	248565
6.76612	248610
6.77425	245509
6.78237	233576
6.79048	197815
6.79862	186038
6.80673	172968
6.81487	165205
6.82298	164970
6.83110	160034
6.83923	162542
6.84735	166333
6.85548	185879
6.86360	223599
6.87172	261530
6.87985	264008
6.88797	231985
6.89610	181055
6.90422	140792
6.91233	120850
6.92047	109155
6.92858	111476
6.93670	100137
6.94483	105016
6.95295	100134
6.96108	104668
6.96920	108853
6.97732	124923
6.98545	143643
6.99357	148065
7.00170	145367
7.00982	127336
7.01793	107153
7.02607	101323
7.03418	97350
7.04232	96631
7.05043	98709
7.05855	98769
7.06668	101931
7.07480	95978
7.08292	98287
7.09105	91002
7.09917	83379
7.10730	87875
7.11542	85857
7.12353	86228
7.13167	87366
7.13978	90882
7.14792	111740
7.15603	154819
7.16415	255653
7.17228	328395
7.18040	359708
7.18852	310989
7.19665	223972
7.20477	169615
7.21290	144375
7.22102	148551
7.22913	236769
7.23727	500147
7.24538	961150
7.25352	1391894
7.26163	1431212
7.26975	1048116
7.27788	631153
7.28600	387521
7.29413	286946
7.30225	231819
7.31037	195119
7.31850	153100
7.32662	134706
7.33473	126660
7.34287	122161
7.35098	115836
7.35912	108929
7.36723	112666
7.37535	114509
7.38348	119836
7.39160	125635
7.39973	132636
7.40785	131669
7.41597	130611
7.42410	113686
7.43222	104499
7.44035	97099
7.44847	91141
7.45658	91660
7.46472	90775
7.47283	91608
7.48095	85746
7.48908	91108
7.49720	85265
7.50533	87953
7.51345	91101
7.52157	104385
7.52970	140380
7.53782	205040
7.54595	286464
7.55407	406809
7.56218	466121
7.57032	461049
7.57843	388212
7.58655	308135
7.59468	225793
7.60280	159515
7.61093	126816
7.61905	105683
7.62717	103024
7.63530	93521
7.64342	90272
7.65155	88620
7.65967	79323
7.66778	82064
7.67592	77821
7.68403	77792
7.69217	81415
7.70028	81140
7.70840	82119
7.71653	78683
7.72465	82380
7.73277	79201
7.74090	79439
7.74902	75618
7.75715	79881
7.76527	80967
7.77338	84233
7.78152	80624
7.78963	88118
7.79777	87910
7.80588	98363
7.81400	104589
7.82213	98742
7.83025	99169
7.83837	89420
7.84650	80210
7.85462	79092
7.86275	82995
7.87087	82862
7.87898	85833
7.88712	91534
7.89523	99049
7.90337	95522
7.91148	87116
7.91960	83694
7.92773	83647
7.93585	93746
7.94398	108798
7.95210	137853
7.96022	147215
7.96835	138834
7.97647	120932
7.98458	103948
7.99272	91078
8.00083	80966
8.00897	75501
8.01708	69983
8.02520	73069
8.03333	68641
8.04145	71913
8.04958	67348
8.05770	69308
8.06582	65347
8.07395	72195
8.08207	67704
8.09020	63842
8.09832	67616
8.10643	61864
8.11457	63080
8.12268	65953
8.13080	63742
8.13893	77314
8.14705	88274
8.15518	103100
8.16330	107075
8.17142	107737
8.17955	100907
8.18767	84915
8.19580	73041
8.20392	68917
8.21203	69990
8.22017	67156
8.22828	65650
8.23640	63960
8.24453	64268
8.25265	63875
8.26078	58682
8.26890	61174
8.27702	58266
8.28515	61564
8.29327	62946
8.30140	67804
8.30952	76493
8.31763	76958
8.32577	85061
8.33388	88430
8.34202	77055
8.35013	76996
8.35825	64825
8.36638	64976
8.37450	66903
8.38262	69230
8.39075	71875
8.39887	73868
8.40700	67516
8.41512	66164
8.42323	63462
8.43137	60846
8.43948	60731
8.44762	60277
8.45573	60936
8.46385	62343
8.47198	59065
8.48010	57288
8.48823	63857
8.49635	58863
8.50447	56466
8.51260	61202
8.52072	64913
8.52883	66826
8.53697	88299
8.54508	148968
8.55322	255845
8.56133	364761
8.56945	414729
8.57758	363026
8.58570	259875
8.59383	180165
8.60195	128858
8.61007	114117
8.61820	104680
8.62632	97763
8.63443	90329
8.64257	81161
8.65068	77290
8.65882	73447
8.66693	72405
8.67505	70012
8.68318	72239
8.69130	74393
8.69943	77646
8.70755	70063
8.71567	72733
8.72380	74576
8.73192	68064
8.74005	67339
8.74817	68885
8.75628	83364
8.76442	125912
8.77253	214787
8.78065	344849
8.78878	430525
8.79690	459493
8.80503	401603
8.81315	308133
8.82127	218906
8.82940	168856
8.83752	143428
8.84565	134360
8.85377	139188
8.86188	146668
8.87002	150474
8.87813	146994
8.88625	142201
8.89438	136932
8.90250	130669
8.91063	127186
8.91875	128397
8.92687	127296
8.93500	124265
8.94312	130728
8.95125	142498
8.95937	150871
8.96748	154236
8.97562	148886
8.98373	137672
8.99187	131399
8.99998	128589
9.00810	124185
9.01623	121528
9.02435	112038
9.03247	110162
9.04060	107864
9.04872	105525
9.05685	106390
9.06497	105670
9.07308	103267
9.08122	103703
9.08933	105154
9.09747	105012
9.10558	121552
9.11370	122407
9.12183	140140
9.12995	147950
9.13808	136101
9.14620	124340
9.15432	112707
9.16245	106603
9.17057	97584
9.17868	101124
9.18682	95940
9.19493	92851
9.20307	93088
9.21118	89948
9.21930	97929
9.22743	90397
9.23555	90781
9.24368	84239
9.25180	98062
9.25992	90428
9.26805	90885
9.27617	97096
9.28428	88634
9.29242	81833
9.30053	86594
9.30867	86818
9.31678	79502
9.32490	83259
9.33303	84093
9.34115	85364
9.34928	84300
9.35740	80089
9.36552	76976
9.37365	79094
9.38177	80983
9.38990	79531
9.39802	86706
9.40613	88795
9.41427	91978
9.42238	103935
9.43050	120840
9.43863	138381
9.44675	150293
9.45488	148276
9.46300	131816
9.47112	113227
9.47925	101452
9.48737	85664
9.49550	85221
9.50362	84508
9.51173	85177
9.51987	97748
9.52798	110430
9.53612	116223
9.54423	112634
9.55235	103667
9.56048	92104
9.56860	74606
9.57672	70593
9.58485	70771
9.59297	73659
9.60110	73629
9.60922	72615
9.61733	63669
9.62547	58503
9.63358	55813
9.64172	53830
9.64983	52674
9.65795	52235
9.66608	50307
9.67420	53352
9.68232	50024
9.69045	48751
9.69857	48960
9.70670	51431
9.71482	47069
9.72293	47479
9.73107	50697
9.73918	48120
9.74732	43073
9.75543	45791
9.76355	47884
9.77168	43998
9.77980	46766
9.78793	46028
9.79605	45133
9.80417	44776
9.81230	44555
9.82042	47554
9.82853	45027
9.83667	43670
9.84478	43567
9.85292	50819
9.86103	49099
9.86915	48408
9.87728	45644
9.88540	49456
9.89353	53028
9.90165	54363
9.90977	51214
9.91790	51400
9.92602	54300
9.93413	59547
9.94227	83915
9.95038	109158
9.95852	145638
9.96663	168397
9.97475	181119
9.98288	167964
9.99100	127806
9.99913	104137
10.00725	85484
10.01537	76490
10.02350	66556
10.03162	65817
10.03975	62181
10.04787	60414
10.05598	61704
10.06412	57324
10.07223	54064
10.08035	59628
10.08848	55972
10.09660	62251
10.10473	62135
10.11285	59905
10.12097	62407
10.12910	59628
10.13722	59069
10.14535	55784
10.15347	59052
10.16158	56039
10.16972	50759
10.17783	54511
10.18597	49678
10.19408	51003
10.20220	48874
10.21033	50780
10.21845	50729
10.22657	50355
10.23470	52490
10.24282	60736
10.25095	57956
10.25907	60017
10.26718	84020
10.27532	146654
10.28343	319744
10.29157	675128
10.29968	1215373
10.30780	1898542
10.31593	2578386
10.32405	3657389
10.33218	5347289
10.34030	7242344
10.34842	8293683
10.35655	7770295
10.36467	6255008
10.37278	4444279
10.38092	3256176
10.38903	2437447
10.39717	1773114
10.40528	1249736
10.41340	854107
10.42153	632935
10.42965	489118
10.43778	391839
10.44590	363091
10.45402	343744
10.46215	319369
10.47027	300851
10.47838	283710
10.48652	259462
10.49463	239884
10.50277	231359
10.51088	215749
10.51900	208109
10.52713	193331
10.53525	182532
10.54338	179160
10.55150	178241
10.55962	167975
10.56775	164383
10.57587	160432
10.58400	158781
10.59212	155223
10.60023	146904
10.60837	136312
10.61648	135101
10.62460	123443
10.63273	118905
10.64085	118504
10.64898	117723
10.65710	117130
10.66522	111660
10.67335	112293
10.68147	111519
10.68960	109154
10.69772	111231
10.70583	104174
10.71397	102755
10.72208	102026
10.73020	101508
10.73833	105531
10.74645	107706
10.75458	105999
10.76270	103956
10.77082	99941
10.77895	103707
10.78707	94624
10.79520	86699
10.80332	87050
10.81143	93644
10.81957	88052
10.82768	86048
10.83582	82767
10.84393	84973
10.85205	80162
10.86018	77573
10.86830	76360
10.87642	73898
10.88455	72693
10.89267	73502
10.90080	70164
10.90892	70771
10.91703	72385
10.92517	70428
10.93328	64403
10.94142	66250
10.94953	67847
10.95765	68693
10.96578	66723
10.97390	67477
10.98203	72100
10.99015	68613
10.99827	65886
11.00640	71229
11.01452	71169
11.02263	65414
11.03077	62618
11.03888	65554
11.04702	62527
11.05513	59114
11.06325	61747
11.07138	62845
11.07950	64325
11.08763	68663
11.09575	71373
11.10387	65415
11.11200	62312
11.12012	62557
11.12823	58264
11.13637	56983
11.14448	56910
11.15262	50207
11.16073	52208
11.16885	50397
11.17698	49880
11.18510	52184
11.19323	61066
11.20135	56421
11.20947	57276
11.21760	53959
11.22572	51257
11.23385	50524
11.24197	48662
11.25008	47236
11.25822	44304
11.26633	47923
11.27445	42709
11.28258	43653
11.29070	45502
11.29883	53383
11.30695	72768
11.31507	111701
11.32320	186427
11.33132	308000
11.33945	467478
11.34757	618519
11.35568	679703
11.36382	612614
11.37193	477955
11.38007	344629
11.38818	221010
11.39630	154984
11.40443	125727
11.41255	105832
11.42067	100585
11.42880	92468
11.43692	89885
11.44505	84675
11.45317	79438
11.46128	74434
11.46942	68297
11.47753	66504
11.48567	76183
11.49378	86102
11.50190	99482
11.51003	120489
11.51815	117045
11.52627	107752
11.53440	99259
11.54252	85258
11.55065	76467
11.55877	72575
11.56688	73643
11.57502	77245
11.58313	73051
11.59127	71898
11.59938	73197
11.60750	81712
11.61563	98536
11.62375	112990
11.63188	124238
11.64000	122561
11.64812	105782
11.65625	86362
11.66437	76306
11.67248	70233
11.68062	61163
11.68873	65977
11.69687	69016
11.70498	70004
11.71310	65408
11.72123	63406
11.72935	63808
11.73748	57801
11.74560	53585
11.75372	54575
11.76185	50794
11.76997	49991
11.77808	53568
11.78622	52364
11.79433	51088
11.80247	53812
11.81058	53809
11.81870	50291
11.82683	51275
11.83495	55048
11.84308	54801
11.85120	56270
11.85932	55455
11.86745	54038
11.87557	52724
11.88370	47969
11.89182	48756
11.89993	44465
11.90807	42347
11.91618	46824
11.92430	47075
11.93243	54619
11.94055	55781
11.94868	56162
11.95680	53896
11.96492	49288
11.97305	51513
11.98117	67895
11.98930	119824
11.99742	239661
12.00553	471931
12.01367	712090
12.02178	875479
12.02992	883904
12.03803	720399
12.04615	505560
12.05428	345752
12.06240	219824
12.07052	167160
12.07865	144875
12.08677	131153
12.09490	122269
12.10302	112776
12.11113	113275
12.11927	110220
12.12738	103945
12.13552	108884
12.14363	109249
12.15175	103987
12.15988	95285
12.16800	94480
12.17612	92302
12.18425	81268
12.19237	78446
12.20050	81888
12.20862	72791
12.21673	76621
12.22487	71743
12.23298	71100
12.24112	75307
12.24923	70948
12.25735	73646
12.26548	69947
12.27360	71181
12.28173	65569
12.28985	61366
12.29797	62919
12.30610	64577
12.31422	64397
12.32233	57633
12.33047	66398
12.33858	60899
12.34672	59987
12.35483	60963
12.36295	55592
12.37108	59974
12.37920	57775
12.38733	56381
12.39545	57863
12.40357	63426
12.41170	66813
12.41982	72085
12.42795	79679
12.43607	84721
12.44418	89626
12.45232	88345
12.46043	81005
12.46855	77127
12.47668	72015
12.48480	69168
12.49293	70160
12.50105	63572
12.50917	60735
12.51730	60243
12.52542	59059
12.53355	60903
12.54167	65637
12.54978	74424
12.55792	93434
12.56603	119364
12.57415	138625
12.58228	150392
12.59040	136078
12.59853	117915
12.60665	89295
12.61477	75206
12.62290	70322
12.63102	64169
12.63915	65692
12.64727	63001
12.65538	61704
12.66352	53563
12.67163	53358
12.67977	47560
12.68788	45956
12.69600	50842
12.70413	47631
12.71225	44334
12.72037	43092
12.72850	51662
12.73662	57603
12.74475	62988
12.75287	63489
12.76098	58678
12.76912	54243
12.77723	49747
12.78537	47361
12.79348	44725
12.80160	45909
12.80973	43503
12.81785	43284
12.82598	44010
12.83410	40734
12.84222	37022
12.85035	37051
12.85847	38568
12.86658	38209
12.87472	36832
12.88283	37202
12.89097	40364
12.89908	42982
12.90720	37180
12.91533	37978
12.92345	39446
12.93158	36084
12.93970	38271
12.94782	37818
12.95595	46174
12.96407	67141
12.97218	111564
12.98032	191920
12.98843	282686
12.99657	336323
13.00468	327335
13.01280	260467
13.02093	178199
13.02905	120295
13.03718	84990
13.04530	71180
13.05342	68223
13.06155	60424
13.06967	57560
13.07780	60320
13.08592	57379
13.09403	59348
13.10217	57347
13.11028	50921
13.11840	50266
13.12653	48813
13.13465	46301
13.14278	47390
13.15090	50697
13.15902	49781
13.16715	46429
13.17527	44090
13.18340	48186
13.19152	49801
13.19963	44232
13.20777	50066
13.21588	49605
13.22400	49736
13.23213	49687
13.24025	47781
13.24838	44876
13.25650	42938
13.26462	49205
13.27275	43818
13.28087	42435
13.28900	42383
13.29712	41941
13.30523	39050
13.31337	38849
13.32148	39774
13.32962	36278
13.33773	37325
13.34585	39338
13.35398	41119
13.36210	40113
13.37022	40691
13.37835	38871
13.38647	35853
13.39460	40802
13.40272	37881
13.41083	32600
13.41897	33832
13.42708	36573
13.43522	36109
13.44333	36248
13.45145	34684
13.45958	35130
13.46770	37938
13.47583	39900
13.48395	35263
13.49207	34528
13.50020	37872
13.50832	37020
13.51643	35099
13.52457	41958
13.53268	39702
13.54082	36199
13.54893	38591
13.55705	37468
13.56518	33899
13.57330	38439
13.58143	39789
13.58955	39730
13.59767	46037
13.60580	54498
13.61392	84606
13.62203	110442
13.63017	138828
13.63828	148392
13.64642	135251
13.65453	110382
13.66265	76893
13.67078	62706
13.67890	53595
13.68703	44176
13.69515	40510
13.70327	42771
13.71140	39410
13.71952	41719
13.72765	43460
13.73577	64417
13.74388	127576
13.75202	305200
13.76013	786549
13.76825	1708745
13.77638	2895357
13.78450	3913746
13.79263	4276518
13.80075	3796867
13.80887	2834268
13.81700	1851400
13.82512	1212314
13.83325	922210
13.84137	767929
13.84948	680920
13.85762	600722
13.86573	524329
13.87387	445959
13.88198	366219
13.89010	335676
13.89823	280963
13.90635	257920
13.91447	243304
13.92260	237112
13.93072	214856
13.93885	215014
13.94697	201681
13.95508	200812
13.96322	214025
13.97133	238965
13.97947	296832
13.98758	340440
13.99570	344276
14.00383	322338
14.01195	288234
14.02007	228524
14.02820	206647
14.03632	176862
14.04445	160391
14.05257	159455
14.06068	153130
14.06882	157602
14.07693	148043
14.08507	144645
14.09318	140551
14.10130	136209
14.10943	131339
14.11755	130874
14.12568	132139
14.13380	142473
14.14192	152418
14.15005	177551
14.15817	204311
14.16628	214600
14.17442	222333
14.18253	232613
14.19067	241010
14.19878	275390
14.20690	286528
14.21503	304737
14.22315	277212
14.23128	252673
14.23940	236749
14.24752	211660
14.25565	193168
14.26377	178702
14.27188	156899
14.28002	140394
14.28813	123340
14.29627	118069
14.30438	110885
14.31250	109416
14.32063	99101
14.32875	94851
14.33688	91235
14.34500	92903
14.35312	84205
14.36125	75333
14.36937	69275
14.37750	67899
14.38562	64763
14.39373	76751
14.40187	101632
14.40998	147101
14.41810	245112
14.42623	347954
14.43435	416135
14.44248	383931
14.45060	303334
14.45872	226570
14.46685	153887
14.47497	117004
14.48310	98908
14.49122	86999
14.49933	89240
14.50747	82784
14.51558	82846
14.52372	93546
14.53183	90983
14.53995	91330
14.54808	89445
14.55620	78773
14.56432	69157
14.57245	67441
14.58057	59062
14.58870	57425
14.59682	57171
14.60493	56857
14.61307	56879
14.62118	54598
14.62932	54474
14.63743	49548
14.64555	57470
14.65368	49726
14.66180	51180
14.66993	48536
14.67805	49163
14.68617	49249
14.69430	47758
14.70242	52499
14.71053	48701
14.71867	49845
14.72678	48414
14.73492	52728
14.74303	56305
14.75115	59792
14.75928	59793
14.76740	56933
14.77553	57832
14.78365	61313
14.79177	68798
14.79990	109150
14.80802	236040
14.81613	555028
14.82427	1144220
14.83238	1825375
14.84052	2410146
14.84863	2398351
14.85675	2045212
14.86488	1422069
14.87300	891645
14.88113	558168
14.88925	375156
14.89737	283743
14.90550	216454
14.91362	190107
14.92175	161552
14.92987	146221
14.93798	133903
14.94612	126468
14.95423	119221
14.96235	114583
14.97048	103291
14.97860	103968
14.98673	99683
14.99485	94366
15.00297	88266
15.01110	93164
15.01922	84724
15.02735	80687
15.03547	82244
15.04358	76877
15.05172	72714
15.05983	75874
15.06795	75338
15.07608	71369
15.08420	69855
15.09233	65329
15.10045	63250
15.10857	64407
15.11670	64684
15.12482	63711
15.13295	68396
15.14107	74949
15.14918	76512
15.15732	76122
15.16543	73140
15.17357	68766
15.18168	65901
15.18980	56052
15.19793	56618
15.20605	51080
15.21417	53198
15.22230	52129
15.23042	47319
15.23855	46461
15.24667	45716
15.25478	44874
15.26292	46159
15.27103	41091
15.27917	44752
15.28728	43203
15.29540	39599
15.30353	45001
15.31165	42102
15.31977	39315
15.32790	38163
15.33602	40638
15.34415	38431
15.35227	38783
15.36038	39057
15.36852	41311
15.37663	36926
15.38477	38742
15.39288	38746
15.40100	41075
15.40913	39068
15.41725	43931
15.42538	41937
15.43350	40578
15.44162	37846
15.44975	40849
15.45787	38194
15.46598	42117
15.47412	49954
15.48223	66585
15.49037	84962
15.49848	110977
15.50660	131174
15.51473	141945
15.52285	143367
15.53098	143533
15.53910	146379
15.54722	163671
15.55535	168922
15.56347	160153
15.57160	134453
15.57972	109872
15.58783	81711
15.59597	64889
15.60408	56741
15.61220	51651
15.62033	47977
15.62845	41195
15.63658	42949
15.64470	41520
15.65282	42822
15.66095	42962
15.66907	41341
15.67720	45971
15.68532	45028
15.69343	39634
15.70157	38452
15.70968	35475
15.71782	39792
15.72593	40740
15.73405	38655
15.74218	39067
15.75030	41812
15.75842	50926
15.76655	68349
15.77467	105853
15.78280	160968
15.79092	223185
15.79903	252901
15.80717	249857
15.81528	216857
15.82342	164522
15.83153	123673
15.83965	93152
15.84778	74418
15.85590	69961
15.86402	63964
15.87215	60705
15.88027	57272
15.88840	52766
15.89652	55465
15.90463	53561
15.91277	56588
15.92088	48667
15.92902	47573
15.93713	52414
15.94525	54026
15.95338	77623
15.96150	101959
15.96963	148345
15.97775	189226
15.98587	225841
15.99400	235184
16.00212	216694
16.01023	172644
16.01837	141196
16.02648	112615
16.03462	94250
16.04273	86871
16.05085	79425
16.05898	71071
16.06710	66017
16.07523	63594
16.08335	57931
16.09147	60483
16.09960	51250
16.10772	50132
16.11583	57421
16.12397	59513
16.13208	57576
16.14022	61003
16.14833	62305
16.15645	61335
16.16458	62498
16.17270	63545
16.18083	55339
16.18895	51760
16.19707	51556
16.20520	50713
16.21332	47928
16.22145	49022
16.22957	53597
16.23768	50320
16.24582	48144
16.25393	47706
16.26205	45565
16.27018	45679
16.27830	51431
16.28643	47939
16.29455	54302
16.30267	52513
16.31080	55855
16.31892	56021
16.32705	49282
16.33517	51664
16.34328	55645
16.35142	62895
16.35953	88867
16.36767	127527
16.37578	174667
16.38390	221994
16.39203	226132
16.40015	205316
16.40827	165808
16.41640	128746
16.42452	94119
16.43265	81712
16.44077	71070
16.44888	72314
16.45702	85542
16.46513	125839
16.47327	204170
16.48138	278808
16.48950	356865
16.49763	368396
16.50575	313060
16.51387	233572
16.52200	163749
16.53012	122996
16.53825	95888
16.54637	74042
16.55448	77240
16.56262	69564
16.57073	64927
16.57887	65980
16.58698	69690
16.59510	78372
16.60323	86250
16.61135	105087
16.61948	121695
16.62760	127140
16.63572	120066
16.64385	104444
16.65197	91175
16.66008	78202
16.66822	67220
16.67633	58761
16.68447	59301
16.69258	55847
16.70070	53810
16.70883	52053
16.71695	51118
16.72508	49996
16.73320	47234
16.74132	49150
16.74945	47406
16.75757	49489
16.76570	47385
16.77382	49469
16.78193	49015
16.79007	48322
16.79818	46079
16.80630	43202
16.81443	41097
16.82255	39840
16.83068	43240
16.83880	41134
16.84692	39086
16.85505	38972
16.86317	38978
16.87130	41080
16.87942	40777
16.88753	37759
16.89567	37604
16.90378	35215
16.91190	39294
16.92003	37413
16.92815	37386
16.93628	33189
16.94440	37556
16.95252	43186
16.96065	38137
16.96877	38778
16.97690	38520
16.98502	39025
16.99313	35847
17.00127	39550
17.00938	41186
17.01752	37049
17.02563	34768
17.03375	39353
17.04188	41657
17.05000	46135
17.05812	45253
17.06625	50277
17.07437	49875
17.08250	44873
17.09062	44744
17.09873	42007
17.10687	43852
17.11498	43185
17.12312	38245
17.13123	43812
17.13935	41775
17.14748	43073
17.15560	43269
17.16372	42767
17.17185	42029
17.17997	45618
17.18810	40474
17.19622	41158
17.20433	40744
17.21247	36179
17.22058	37088
17.22872	37438
17.23683	36730
17.24495	36551
17.25308	37959
17.26120	38828
17.26933	39569
17.27745	39953
17.28557	40003
17.29370	36173
17.30182	36826
17.30993	41971
17.31807	42975
17.32618	45100
17.33432	54737
17.34243	62743
17.35055	64648
17.35868	64844
17.36680	61385
17.37493	55537
17.38305	54331
17.39117	52191
17.39930	48515
17.40742	48634
17.41555	48062
17.42367	50304
17.43178	53295
17.43992	49646
17.44803	52496
17.45615	47195
17.46428	47763
17.47240	45683
17.48053	42553
17.48865	46534
17.49677	42054
17.50490	43117
17.51302	44286
17.52115	43625
17.52927	46556
17.53738	42145
17.54552	43163
17.55363	44396
17.56175	55431
17.56988	74912
17.57800	126204
17.58613	221530
17.59425	371635
17.60237	579703
17.61050	796998
17.61862	913184
17.62675	850622
17.63487	681119
17.64298	494810
17.65112	364363
17.65923	300311
17.66737	286089
17.67548	282537
17.68360	264245
17.69173	234827
17.69985	196279
17.70797	159882
17.71610	125947
17.72422	111071
17.73235	98672
17.74047	89064
17.74858	85499
17.75672	77219
17.76483	73954
17.77297	68380
17.78108	72163
17.78920	78452
17.79733	99626
17.80545	159296
17.81358	281696
17.82170	458281
17.82982	625892
17.83795	733384
17.84607	701733
17.85418	601595
17.86232	458440
17.87043	330313
17.87857	237052
17.88668	187710
17.89480	154444
17.90293	136472
17.91105	117326
17.91918	112320
17.92730	103830
17.93542	96332
17.94355	89730
17.95167	84743
17.95978	80385
17.96792	79816
17.97603	71207
17.98417	76317
17.99228	69059
18.00040	72230
18.00853	72227
18.01665	73342
18.02478	77688
18.03290	84442
18.04102	97491
18.04915	108278
18.05727	137614
18.06540	228604
18.07352	454728
18.08163	881168
18.08977	1449486
18.09788	1953042
18.10600	2226363
18.11413	2012911
18.12225	1618417
18.13038	1190652
18.13850	820180
18.14662	615480
18.15475	532709
18.16287	507725
18.17100	576808
18.17912	649656
18.18723	692620
18.19537	709638
18.20348	687045
18.21162	660187
18.21973	663452
18.22785	642231
18.23598	643913
18.24410	627074
18.25222	622889
18.26035	597749
18.26847	570906
18.27660	562294
18.28472	541440
18.29283	505717
18.30097	494445
18.30908	472753
18.31722	465396
18.32533	460588
18.33345	461197
18.34158	432163
18.34970	432422
18.35782	418624
18.36595	417909
18.37407	423618
18.38220	400407
18.39032	403428
18.39843	394007
18.40657	407292
18.41468	395857
18.42282	393551
18.43093	376849
18.43905	378481
18.44718	399906
18.45530	413309
18.46343	460029
18.47155	525572
18.47967	583271
18.48780	642852
18.49592	649471
18.50403	608632
18.51217	537888
18.52028	459712
18.52842	407874
18.53653	375258
18.54465	354031
18.55278	343434
18.56090	327977
18.56903	325960
18.57715	315708
18.58527	302548
18.59340	311191
18.60152	304925
18.60963	299544
18.61777	301796
18.62588	300616
18.63402	302832
18.64213	299324
18.65025	291983
18.65838	284780
18.66650	280133
18.67463	281590
18.68275	266482
18.69087	258257
18.69900	252694
18.70712	252700
18.71525	254173
18.72337	241711
18.73148	242648
18.73962	238348
18.74773	240536
18.75585	235121
18.76398	229493
18.77210	226488
18.78023	218353
18.78835	224902
18.79647	220234
18.80460	223629
18.81272	215932
18.82085	215231
18.82897	211497
18.83708	216591
18.84522	208476
18.85333	208488
18.86147	205983
18.86958	198747
18.87770	205390
18.88583	210785
18.89395	194175
18.90207	192050
18.91020	194577
18.91832	187560
18.92645	196449
18.93457	188929
18.94268	193375
18.95082	200575
18.95893	192266
18.96707	200212
18.97518	200060
18.98330	194999
18.99143	185404
18.99955	179926
19.00767	174539
19.01580	177498
19.02392	167912
19.03205	170022
19.04017	164615
19.04828	170680
19.05642	162705
19.06453	161267
19.07267	170735
19.08078	184606
19.08890	207000
19.09703	252811
19.10515	295289
19.11328	311329
19.12140	313554
19.12952	289168
19.13765	246571
19.14577	224451
19.15388	196743
19.16202	189616
19.17013	178207
19.17827	172415
19.18638	173245
19.19450	162235
19.20263	162294
19.21075	150766
19.21888	150586
19.22700	151018
19.23512	145056
19.24325	144958
19.25137	146947
19.25950	134725
19.26762	142221
19.27573	138165
19.28387	146764
19.29198	145497
19.30010	144520
19.30823	141818
19.31635	140900
19.32448	137758
19.33260	135369
19.34072	139296
19.34885	143082
19.35697	153274
19.36510	180448
19.37322	209324
19.38133	227058
19.38947	222687
19.39758	209524
19.40570	189667
19.41383	162126
19.42195	150587
19.43008	138475
19.43820	135916
19.44632	130012
19.45445	129595
19.46257	127164
19.47070	129096
19.47882	138067
19.48693	162295
19.49507	192652
19.50318	223365
19.51132	243707
19.51943	249944
19.52755	208842
19.53568	184541
19.54380	155981
19.55192	139945
19.56005	129877
19.56817	126269
19.57630	118040
19.58442	117862
19.59253	112891
19.60067	108450
19.60878	107075
19.61692	108947
19.62503	109506
19.63315	108468
19.64128	115070
19.64940	123543
19.65752	157589
19.66565	190141
19.67377	212217
19.68190	231293
19.69002	248961
19.69813	252488
19.70627	227396
19.71438	219122
19.72252	194654
19.73063	179974
19.73875	165147
19.74688	152894
19.75500	138500
19.76313	132921
19.77125	126396
19.77937	129159
19.78750	136812
19.79562	143055
19.80373	138686
19.81187	149835
19.81998	147575
19.82812	141316
19.83623	127073
19.84435	124097
19.85248	153494
19.86060	258888
19.86873	570290
19.87685	1303375
19.88497	2701960
19.89310	4532186
19.90122	6379644
19.90935	7374563
19.91747	7274950
19.92558	6002399
19.93372	4417613
19.94183	2896114
19.94995	1917411
19.95808	1377687
19.96620	1091592
19.97433	952833
19.98245	825617
19.99057	752897
19.99870	720957
20.00682	668721
20.01495	634376
20.02307	591751
20.03118	541726
20.03932	496778
20.04743	446162
20.05557	386023
20.06368	335780
20.07180	275249
20.07993	235650
20.08805	216603
20.09617	201543
20.10430	188944
20.11242	181141
20.12055	161167
20.12867	155520
20.13678	149649
20.14492	143053
20.15303	138640
20.16117	135598
20.16928	147401
20.17740	165627
20.18553	168534
20.19365	185380
20.20177	183726
20.20990	180683
20.21802	179986
20.22615	169585
20.23427	153335
20.24238	144120
20.25052	149584
20.25863	162822
20.26677	183024
20.27488	214823
20.28300	224451
20.29113	236165
20.29925	231543
20.30738	211508
20.31550	190960
20.32362	169094
20.33175	152985
20.33987	136150
20.34798	122818
20.35612	116998
20.36423	107526
20.37237	102358
20.38048	98017
20.38860	97409
20.39673	90531
20.40485	94978
20.41298	82354
20.42110	82495
20.42922	87801
20.43735	88744
20.44547	94465
20.45358	99629
20.46172	103901
20.46983	112911
20.47797	109795
20.48608	105542
20.49420	104705
20.50233	96910
20.51045	92747
20.51858	85282
20.52670	80560
20.53482	75835
20.54295	74760
20.55107	76393
20.55920	77246
20.56732	73006
20.57543	70988
20.58357	72273
20.59168	72092
20.59980	68816
20.60793	68963
20.61605	66022
20.62418	66849
20.63230	70255
20.64042	66053
20.64855	71825
20.65667	70541
20.66480	75123
20.67292	70652
20.68103	74753
20.68917	66491
20.69728	68538
20.70542	66863
20.71353	63395
20.72165	62055
20.72978	65111
20.73790	65445
20.74602	64681
20.75415	66255
20.76227	66005
20.77040	72901
20.77852	76286
20.78663	95825
20.79477	123294
20.80288	178634
20.81102	250348
20.81913	332201
20.82725	374296
20.83538	356849
20.84350	288029
20.85162	206696
20.85975	151659
20.86787	113084
20.87600	87980
20.88412	82771
20.89223	76361
20.90037	68461
20.90848	73325
20.91662	70220
20.92473	73853
20.93285	68773
20.94098	71306
20.94910	67271
20.95723	68043
20.96535	69492
20.97347	66480
20.98160	67822
20.98972	64667
20.99783	60865
21.00597	63109
21.01408	60375
21.02222	64400
21.03033	62668
21.03845	66212
21.04658	65177
21.05470	64587
21.06283	64560
21.07095	68820
21.07907	61995
21.08720	65335
21.09532	63767
21.10345	62503
21.11157	61653
21.11968	59184
21.12782	61600
21.13593	61628
21.14405	70775
21.15218	85071
21.16030	93411
21.16843	98800
21.17655	101632
21.18467	91562
21.19280	92260
21.20092	78395
21.20905	70558
21.21717	67521
21.22528	67929
21.23342	63478
21.24153	61790
21.24965	63301
21.25778	61979
21.26590	59215
21.27403	63308
21.28215	63506
21.29027	59108
21.29840	58964
21.30652	55155
21.31465	60232
21.32277	60506
21.33088	55332
21.33902	52150
21.34713	55306
21.35527	59681
21.36338	58008
21.37150	62064
21.37963	59743
21.38775	63088
21.39587	74885
21.40400	83720
21.41212	95725
21.42025	91911
21.42837	96777
21.43648	92012
21.44462	77772
21.45273	73648
21.46087	68983
21.46898	67303
21.47710	61120
21.48523	62398
21.49335	58900
21.50147	56146
21.50960	60356
21.51772	57450
21.52585	55664
21.53397	53033
21.54208	55418
21.55022	56488
21.55833	52803
21.56647	56849
21.57458	61834
21.58270	59468
21.59083	68102
21.59895	76372
21.60708	78820
21.61520	73570
21.62332	79196
21.63145	82003
21.63957	83648
21.64768	87700
21.65582	86495
21.66393	88253
21.67207	88864
21.68018	87735
21.68830	91650
21.69643	88087
21.70455	81738
21.71268	76240
21.72080	79385
21.72892	68790
21.73705	63946
21.74517	62465
21.75330	59861
21.76142	62764
21.76953	63230
21.77767	61897
21.78578	61990
21.79390	67535
21.80203	70311
21.81015	69920
21.81828	70572
21.82640	73407
21.83452	75261
21.84265	76286
21.85077	76920
21.85890	72437
21.86702	70099
21.87513	64969
21.88327	63958
21.89138	61157
21.89950	57105
21.90763	56864
21.91575	54196
21.92388	56592
21.93200	52443
21.94012	53539
21.94825	52810
21.95637	50540
21.96450	54041
21.97262	45353
21.98073	48054
21.98887	47367
21.99698	47731
22.00512	45616
22.01323	46639
22.02135	49634
22.02948	50737
22.03760	48932
22.04572	49813
22.05385	50318
22.06197	50280
22.07010	49983
22.07822	49124
22.08633	45563
22.09447	43870
22.10258	46807
22.11072	42337
22.11883	44333
22.12695	48232
22.13508	51680
22.14320	46348
22.15133	47477
22.15945	46129
22.16757	46383
22.17570	54723
22.18382	47851
22.19193	44739
22.20007	45022
22.20818	43666
22.21632	44714
22.22443	46122
22.23255	44890
22.24068	46505
22.24880	49694
22.25693	46255
22.26505	50791
22.27317	49270
22.28130	53520
22.28942	55917
22.29753	55727
22.30567	59861
22.31378	61167
22.32192	58514
22.33003	59152
22.33815	61268
22.34628	57652
22.35440	56332
22.36253	51615
22.37065	53102
22.37877	53363
22.38690	60315
22.39502	66170
22.40315	83985
22.41127	104257
22.41938	126544
22.42752	136647
22.43563	128945
22.44375	127036
22.45188	108655
22.46000	92181
22.46813	77471
22.47625	82136
22.48437	84215
22.49250	92759
22.50062	101558
22.50875	111073
22.51687	111776
22.52498	103919
22.53312	94467
22.54123	88143
22.54935	82260
22.55748	76997
22.56560	70108
22.57373	67501
22.58185	63261
22.58997	62180
22.59810	61827
22.60622	59664
22.61435	58646
22.62247	56011
22.63058	57586
22.63872	57024
22.64683	54278
22.65497	56903
22.66308	54783
22.67120	54558
22.67933	59393
22.68745	59353
22.69557	61146
22.70370	63037
22.71182	66414
22.71995	71653
22.72807	76808
22.73618	77780
22.74432	65387
22.75243	63558
22.76057	59556
22.76868	58946
22.77680	57550
22.78493	61218
22.79305	68289
22.80118	81568
22.80930	91968
22.81742	97590
22.82555	97759
22.83367	91753
22.84178	82438
22.84992	74135
22.85803	67641
22.86617	67217
22.87428	69580
22.88240	74645
22.89053	81636
22.89865	97767
22.90678	112359
22.91490	140677
22.92302	173806
22.93115	188138
22.93927	194195
22.94738	173405
22.95552	146358
22.96363	118163
22.97177	99029
22.97988	85119
22.98800	75572
22.99613	77415
23.00425	67981
23.01238	70806
23.02050	69165
23.02862	68857
23.03675	68306
23.04487	71483
23.05300	70046
23.06112	75997
23.06923	71652
23.07737	76765
23.08548	74156
23.09360	71261
23.10173	75588
23.10985	73697
23.11798	72226
23.12610	77181
23.13422	72880
23.14235	71821
23.15047	65348
23.15860	69002
23.16672	68190
23.17483	70009
23.18297	67506
23.19108	71791
23.19922	68371
23.20733	73046
23.21545	66066
23.22358	68494
23.23170	66209
23.23982	75120
23.24795	73706
23.25607	75703
23.26420	80713
23.27232	80451
23.28043	85069
23.28857	81097
23.29668	74633
23.30482	72751
23.31293	70496
23.32105	73629
23.32918	79086
23.33730	86540
23.34542	106072
23.35355	138856
23.36167	191211
23.36980	262005
23.37792	350746
23.38603	453452
23.39417	560340
23.40228	642965
23.41042	729090
23.41853	783136
23.42665	794308
23.43478	777893
23.44290	765567
23.45103	726450
23.45915	684850
23.46727	646843
23.47540	599728
23.48352	554952
23.49163	513795
23.49977	453836
23.50788	427745
23.51602	390920
23.52413	355147
23.53225	343518
23.54038	310934
23.54850	300242
23.55663	275262
23.56475	268980
23.57287	262314
23.58100	258840
23.58912	271246
23.59725	296081
23.60537	299385
23.61348	303280
23.62162	291580
23.62973	249878
23.63785	237516
23.64598	227800
23.65410	231919
23.66223	243332
23.67035	242094
23.67847	245639
23.68660	227809
23.69472	203916
23.70285	185077
23.71097	155392
23.71908	142274
23.72722	132696
23.73533	132215
23.74345	134681
23.75158	159536
23.75970	235543
23.76783	408746
23.77595	714579
23.78407	1163257
23.79220	1651959
23.80032	1930148
23.80845	1907946
23.81657	1716825
23.82468	1456075
23.83282	1173238
23.84093	902746
23.84907	707472
23.85718	577564
23.86530	491031
23.87343	407215
23.88155	363553
23.88967	320939
23.89780	297308
23.90592	280269
23.91405	276044
23.92217	253876
23.93028	234632
23.93842	216973
23.94653	200610
23.95467	188378
23.96278	181564
23.97090	168153
23.97903	162111
23.98715	155087
23.99527	156083
24.00340	194648
24.01152	268165
24.01965	433600
24.02777	663985
24.03588	874685
24.04402	964858
24.05213	878000
24.06027	674921
24.06838	462090
24.07650	311941
24.08463	223871
24.09275	176150
24.10088	146384
24.10900	134658
24.11712	126521
24.12525	119194
24.13337	116695
24.14148	116567
24.14962	117670
24.15773	116602
24.16587	120045
24.17398	113539
24.18210	113271
24.19023	112497
24.19835	106243
24.20648	110053
24.21460	107202
24.22272	108636
24.23085	99547
24.23897	96586
24.24710	93675
24.25522	90410
24.26333	85842
24.27147	79999
24.27958	82875
24.28770	79018
24.29583	80739
24.30395	81793
24.31208	84296
24.32020	77049
24.32832	74464
24.33645	79418
24.34457	78833
24.35270	76388
24.36082	74019
24.36893	83168
24.37707	98695
24.38518	113501
24.39330	121288
24.40143	130995
24.40955	120353
24.41768	116126
24.42580	114008
24.43392	123438
24.44205	125880
24.45017	129523
24.45830	142504
24.46642	157894
24.47453	166661
24.48267	174181
24.49078	197520
24.49892	199323
24.50703	198125
24.51515	198098
24.52328	203984
24.53140	208179
24.53952	215773
24.54765	229959
24.55577	249298
24.56390	247205
24.57202	244477
24.58013	242704
24.58827	213635
24.59638	195086
24.60452	181876
24.61263	173481
24.62075	166816
24.62888	163657
24.63700	158380
24.64513	161941
24.65325	157858
24.66137	156982
24.66950	159264
24.67762	167953
24.68573	157749
24.69387	160092
24.70198	148565
24.71012	156017
24.71823	150409
24.72635	156646
24.73448	158507
24.74260	154122
24.75073	146956
24.75885	155253
24.76697	157075
24.77510	171294
24.78322	170285
24.79133	171851
24.79947	169732
24.80758	167650
24.81572	172140
24.82383	176047
24.83195	186976
24.84008	198882
24.84820	236863
24.85633	280436
24.86445	348935
24.87257	440406
24.88070	531766
24.88882	643190
24.89695	701113
24.90507	680786
24.91318	583598
24.92132	466381
24.92943	367655
24.93755	276255
24.94568	226239
24.95380	191274
24.96193	169863
24.97005	164126
24.97817	163550
24.98630	153111
24.99442	156554
25.00255	148567
25.01067	142395
25.01878	145475
25.02692	141086
25.03503	142715
25.04315	133241
25.05128	137760
25.05940	129202
25.06753	129666
25.07565	128245
25.08377	138261
25.09190	145618
25.10002	172598
25.10815	262987
25.11627	502049
25.12438	953923
25.13252	1629005
25.14063	2442757
25.14877	3068507
25.15688	3152585
25.16500	2724294
25.17313	1960562
25.18125	1205205
25.18937	694413
25.19750	395359
25.20562	246710
25.21375	177221
25.22187	140416
25.22998	127809
25.23812	134504
25.24623	150255
25.25437	194856
25.26248	221368
25.27060	258915
25.27873	281673
25.28685	269722
25.29498	241630
25.30310	202288
25.31122	162328
25.31935	131253
25.32747	106598
25.33558	103302
25.34372	93975
25.35183	81746
25.35997	77743
25.36808	76136
25.37620	76582
25.38433	72486
25.39245	69227
25.40058	72402
25.40870	68515
25.41682	69530
25.42495	70859
25.43307	68282
25.44120	64027
25.44932	67444
25.45743	69754
25.46557	66382
25.47368	63823
25.48180	64307
25.48993	65348
25.49805	65967
25.50618	65791
25.51430	62050
25.52242	58845
25.53055	61539
25.53867	58586
25.54680	62732
25.55492	63194
25.56303	74238
25.57117	98632
25.57928	124967
25.58740	143874
25.59553	161778
25.60365	171662
25.61178	180566
25.61990	181351
25.62802	192865
25.63615	188215
25.64427	190770
25.65240	188416
25.66052	190747
25.66863	199055
25.67677	193786
25.68488	194509
25.69302	200393
25.70113	195264
25.70925	190771
25.71738	193173
25.72550	197286
25.73362	184129
25.74175	188303
25.74987	197944
25.75800	193916
25.76612	188520
25.77423	191338
25.78237	188256
25.79048	193398
25.79862	195690
25.80673	190261
25.81485	190847
25.82298	195975
25.83110	207686
25.83922	211858
25.84735	225874
25.85547	232859
25.86360	226055
25.87172	206584
25.87983	205148
25.88797	192915
25.89608	171282
25.90422	171795
25.91233	164240
25.92045	165864
25.92858	153389
25.93670	160769
25.94483	153397
25.95295	155077
25.96107	155019
25.96920	151257
25.97732	152089
25.98543	145600
25.99357	144981
26.00168	137956
26.00982	144824
26.01793	136878
26.02605	128711
26.03418	140543
26.04230	134847
26.05043	125126
26.05855	133817
26.06667	131002
26.07480	128329
26.08292	129846
26.09105	124169
26.09917	134423
26.10728	125465
26.11542	125145
26.12353	125624
26.13165	126027
26.13978	126190
26.14790	120945
26.15603	125344
26.16415	127036
26.17227	126051
26.18040	120911
26.18852	117395
26.19665	115809
26.20477	115890
26.21288	112792
26.22102	100640
26.22913	107437
26.23725	99436
26.24538	105405
26.25350	101883
26.26163	101024
26.26975	104350
26.27787	98056
26.28600	100785
26.29412	96645
26.30225	93423
26.31037	95660
26.31848	96971
26.32662	89751
26.33473	89437
26.34287	91499
26.35098	90769
26.35910	86153
26.36723	88951
26.37535	94510
26.38347	95951
26.39160	98707
26.39972	92363
26.40785	100723
26.41597	99295
26.42408	92732
26.43222	91822
26.44033	87238
26.44847	85703
26.45658	81631
26.46470	89009
26.47283	90099
26.48095	90185
26.48908	80496
26.49720	82320
26.50532	85072
26.51345	80729
26.52157	76744
26.52968	75625
26.53782	77334
26.54593	72619
26.55407	68094
26.56218	73844
26.57030	69463
26.57843	75889
26.58655	67587
26.59468	69917
26.60280	72214
26.61092	66400
26.61905	71756
26.62717	69627
26.63528	67927
26.64342	63919
26.65153	74561
26.65967	68467
26.66778	71409
26.67590	76030
26.68403	75108
26.69215	70113
26.70028	69551
26.70840	66061
26.71652	65117
26.72465	64873
26.73277	62604
26.74090	64731
26.74902	58489
26.75713	59732
26.76527	62184
26.77338	61629
26.78150	65937
26.78963	66806
26.79775	67552
26.80588	69073
26.81400	75426
26.82212	73566
26.83025	63670
26.83837	63383
26.84650	64239
26.85462	62961
26.86273	59215
26.87087	58611
26.87898	56971
26.88710	57900
26.89523	57270
26.90335	56883
26.91148	52988
26.91960	51574
26.92772	56934
26.93585	54508
26.94397	58478
26.95210	56284
26.96022	58542
26.96833	61072
26.97647	69845
26.98458	82422
26.99272	101495
27.00083	138581
27.00895	172444
27.01708	206995
27.02520	240280
27.03332	255941
27.04145	254523
27.04957	230846
27.05770	220461
27.06582	198907
27.07393	170161
27.08207	153355
27.09018	136500
27.09832	124784
27.10643	114238
27.11455	110895
27.12268	111373
27.13080	101735
27.13893	105759
27.14705	97026
27.15517	94897
27.16330	92952
27.17142	98806
27.17953	91452
27.18767	90708
27.19578	95124
27.20392	90954
27.21203	88246
27.22015	85043
27.22828	82826
27.23640	80027
27.24453	81484
27.25265	75697
27.26077	80148
27.26890	75589
27.27702	74117
27.28513	66604
27.29327	70203
27.30138	65166
27.30952	62180
27.31763	61343
27.32575	62377
27.33388	63285
27.34200	61529
27.35013	61182
27.35825	66058
27.36637	64674
27.37450	62210
27.38262	65099
27.39075	63495
27.39887	60029
27.40698	59358
27.41512	58631
27.42323	57298
27.43135	57416
27.43948	55276
27.44760	55833
27.45573	53854
27.46385	56487
27.47197	55424
27.48010	54389
27.48822	48793
27.49635	51435
27.50447	51564
27.51258	54074
27.52072	60913
27.52883	60064
27.53697	65002
27.54508	56874
27.55320	60474
27.56133	59419
27.56945	58285
27.57757	60253
27.58570	70296
27.59382	74925
27.60195	79972
27.61007	83293
27.61818	75587
27.62632	70480
27.63443	65509
27.64257	62143
27.65068	56182
27.65880	55186
27.66693	57815
27.67505	55520
27.68317	58666
27.69130	62157
27.69942	65142
27.70755	62596
27.71567	60329
27.72378	56956
27.73192	54026
27.74003	50756
27.74817	52450
27.75628	47211
27.76440	48754
27.77253	49078
27.78065	57374
27.78878	48846
27.79690	51551
27.80502	51122
27.81315	52449
27.82127	52192
27.82938	47641
27.83752	52451
27.84563	48695
27.85377	54946
27.86188	48414
27.87000	48183
27.87813	50530
27.88625	49570
27.89438	47190
27.90250	44324
27.91062	44800
27.91875	44860
27.92687	47877
27.93498	44707
27.94312	45533
27.95123	43535
27.95937	43616
27.96748	46184
27.97560	45686
27.98373	51303
27.99185	43552
27.99998	46740
28.00810	46857
28.01622	51198
28.02435	57052
28.03247	70086
28.04060	74978
28.04872	83399
28.05683	85109
28.06497	89327
28.07308	83250
28.08120	79271
28.08933	64475
28.09745	68995
28.10558	62998
28.11370	62228
28.12182	56042
28.12995	52025
28.13807	50160
28.14620	47166
28.15432	42152
28.16243	44220
28.17057	48323
28.17868	48349
28.18682	52440
28.19493	59648
28.20305	66854
28.21118	73609
28.21930	80318
28.22742	79456
28.23555	78068
28.24367	73127
28.25180	66451
28.25992	61594
28.26803	51736
28.27617	52586
28.28428	48669
28.29242	54666
28.30053	49152
28.30865	56174
28.31678	58835
28.32490	65023
28.33302	69935
28.34115	69969
28.34927	76295
28.35740	74278
28.36552	77605
28.37363	84970
28.38177	91361
28.38988	93837
28.39802	95421
28.40613	98382
28.41425	98455
28.42238	100749
28.43050	90683
28.43863	87292
28.44675	84424
28.45487	82228
28.46300	78844
28.47112	72480
28.47923	74048
28.48737	77136
28.49548	74348
28.50362	65589
28.51173	68438
28.51985	66511
28.52798	61385
28.53610	58356
28.54423	61950
28.55235	60182
28.56047	57005
28.56860	55401
28.57672	53956
28.58485	50051
28.59297	52383
28.60108	49992
28.60922	53773
28.61733	55232
28.62545	58252
28.63358	53567
28.64170	55164
28.64983	59157
28.65795	60422
28.66607	61071
28.67420	61669
28.68232	57136
28.69045	60257
28.69857	53792
28.70668	50978
28.71482	53217
28.72293	53592
28.73105	52658
28.73918	53539
28.74730	57078
28.75543	61244
28.76355	65419
28.77167	66364
28.77980	69641
28.78792	62691
28.79605	62169
28.80417	63685
28.81228	59525
28.82042	57694
28.82853	55384
28.83667	60665
28.84478	53711
28.85290	52667
28.86103	54811
28.86915	57108
28.87727	61540
28.88540	62010
28.89352	65853
28.90165	67971
28.90977	70655
28.91788	63548
28.92602	62335
28.93413	57646
28.94227	52710
28.95038	52865
28.95850	55778
28.96663	57307
28.97475	52982
28.98288	53863
28.99100	49602
28.99912	46235
29.00725	43717
29.01537	44738
29.02348	42579
29.03162	45663
29.03973	43155
29.04787	41798
29.05598	45140
29.06410	45864
29.07223	47527
29.08035	52440
29.08848	51079
29.09660	49440
29.10472	48043
29.11285	47322
29.12097	44877
29.12908	46846
29.13722	49776
29.14533	46956
29.15347	43897
29.16158	45357
29.16970	45506
29.17783	49392
29.18595	58034
29.19408	64739
29.20220	76546
29.21032	90191
29.21845	101992
29.22657	104343
29.23470	99184
29.24282	108229
29.25093	110011
29.25907	126469
29.26718	140427
29.27530	138940
29.28343	132434
29.29155	118504
29.29968	88686
29.30780	74946
29.31592	60956
29.32405	58208
29.33217	50979
29.34030	46321
29.34842	43598
29.35653	45402
29.36467	43112
29.37278	45525
29.38090	44342
29.38903	45031
29.39715	45647
29.40528	44774
29.41340	49567
29.42152	44997
29.42965	47495
29.43777	47836
29.44590	48020
29.45402	44951
29.46213	43777
29.47027	47104
29.47838	43199
29.48652	47585
29.49463	48340
29.50275	48119
29.51088	47275
29.51900	44696
29.52712	46807
29.53525	45137
29.54337	42577
29.55150	45722
29.55962	42286
29.56773	42941
29.57587	41610
29.58398	40704
29.59212	38393
29.60023	41144
29.60835	37781
29.61648	44453
29.62460	41536
29.63273	41327
29.64085	41163
29.64897	39429
29.65710	42092
29.66522	41664
29.67333	40686
29.68147	46052
29.68958	50513
29.69772	48115
29.70583	47557
29.71395	52302
29.72208	46543
29.73020	46911
29.73833	44430
29.74645	41583
29.75457	40898
29.76270	44968
29.77082	41480
29.77893	43827
29.78707	37209
29.79518	39887
29.80332	39518
29.81143	38889
29.81955	38398
29.82768	37325
29.83580	40651
29.84393	39842
29.85205	43671
29.86017	41100
29.86830	43849
29.87642	49002
29.88455	57989
29.89267	69615
29.90078	74722
29.90892	81747
29.91703	77295
29.92515	67603
29.93328	61369
29.94140	53959
29.94953	45829
29.95765	49616
29.96577	48164
29.97390	48230
29.98202	49151
29.99015	55741
29.99827	57012
30.00638	59156
30.01452	65885
30.02263	59053
30.03077	65715
30.03888	65140
30.04700	64870
30.05513	69800
30.06325	62561
30.07137	59752
30.07950	64025
30.08762	61759
30.09575	65157
30.10387	69917
30.11198	67347
30.12012	65718
30.12823	61713
30.13637	63669
30.14448	68106
30.15260	63187
30.16073	56987
30.16885	63467
30.17697	58945
30.18510	57677
30.19322	58684
30.20135	58306
30.20947	58004
30.21758	60983
30.22572	56203
30.23383	56151
30.24197	55897
30.25008	51196
30.25820	53074
30.26633	51504
30.27445	47579
30.28258	47521
30.29070	49419
30.29882	47042
30.30695	48367
30.31507	45914
30.32318	46587
30.33132	47916
30.33943	47441
30.34757	47141
30.35568	48627
30.36380	49692
30.37193	45671
30.38005	46099
30.38818	44659
30.39630	48097
30.40442	46544
30.41255	43363
30.42067	40880
30.42878	44718
30.43692	40688
30.44503	42436
30.45317	43550
30.46128	45373
30.46940	41995
30.47753	40280
30.48565	41471
30.49378	39558
30.50190	36729
30.51002	39169
30.51815	40439
30.52627	45046
30.53440	38293
30.54252	41501
30.55063	41053
30.55877	40180
30.56688	42731
30.57500	42443
30.58313	43325
30.59125	41788
30.59938	39727
30.60750	47770
30.61562	37799
30.62375	39584
30.63187	38574
30.64000	36622
30.64812	42892
30.65623	40274
30.66437	38880
30.67248	41776
30.68062	41200
30.68873	50836
30.69685	50586
30.70498	59763
30.71310	64600
30.72122	65679
30.72935	69662
30.73747	74517
30.74560	75286
30.75372	79953
30.76183	84148
30.76997	84128
30.77808	87295
30.78622	98493
30.79433	113729
30.80245	130828
30.81058	140512
30.81870	149484
30.82683	138607
30.83495	128542
30.84307	116138
30.85120	106547
30.85932	98858
30.86743	95284
30.87557	96090
30.88368	92375
30.89182	95688
30.89993	95355
30.90805	93621
30.91618	90988
30.92430	87914
30.93243	90402
30.94055	89144
30.94867	87986
30.95680	88405
30.96492	91093
30.97303	87536
30.98117	88058
30.98928	87329
30.99742	89574
31.00553	84709
31.01365	90852
31.02178	96141
31.02990	92617
31.03803	92043
31.04615	92365
31.05427	89291
31.06240	87486
31.07052	92541
31.07865	93860
31.08677	95761
31.09488	101818
31.10302	106141
31.11113	106755
31.11925	102058
31.12738	100374
31.13550	97436
31.14363	91426
31.15175	89204
31.15987	89622
31.16800	94379
31.17612	96130
31.18425	92825
31.19237	103914
31.20048	119692
31.20862	144899
31.21673	160410
31.22485	170950
31.23298	172915
31.24110	155997
31.24923	144999
31.25735	121530
31.26547	106386
31.27360	92887
31.28172	81946
31.28985	78267
31.29797	79238
31.30608	80565
31.31422	76701
31.32233	75312
31.33047	81387
31.33858	73858
31.34670	78650
31.35483	72646
31.36295	73812
31.37107	76951
31.37920	73181
31.38732	73008
31.39545	70770
31.40357	72399
31.41168	73000
31.41982	75511
31.42793	67603
31.43607	63041
31.44418	65643
31.45230	64557
31.46043	64985
31.46855	63910
31.47668	64639
31.48480	67001
31.49292	64567
31.50105	63829
31.50917	67458
31.51728	69780
31.52542	68421
31.53353	65676
31.54167	67721
31.54978	67078
31.55790	71604
31.56603	70123
31.57415	69909
31.58228	61372
31.59040	60679
31.59852	61740
31.60665	62300
31.61477	61517
31.62288	64286
31.63102	60105
31.63913	61835
31.64727	61666
31.65538	60808
31.66350	59458
31.67163	65822
31.67975	65150
31.68788	62685
31.69600	64894
31.70412	58618
31.71225	56700
31.72037	56836
31.72850	57284
31.73662	54144
31.74473	55858
31.75287	59278
31.76098	53706
31.76910	55323
31.77723	54460
31.78535	55353
31.79348	55273
31.80160	55647
31.80972	56399
31.81785	57577
31.82597	56580
31.83410	56968
31.84222	55667
31.85033	55343
31.85847	52764
31.86658	58518
31.87472	55284
31.88283	66009
31.89095	58255
31.89908	63856
31.90720	65260
31.91532	72703
31.92345	69086
31.93157	74615
31.93970	73178
31.94782	77035
31.95593	78745
31.96407	77376
31.97218	79124
31.98032	76985
31.98843	79831
31.99655	79474
32.00468	78055
32.01280	80969
32.02092	72683
32.02905	77238
32.03717	73038
32.04530	67458
32.05342	68784
32.06153	71073
32.06967	68118
32.07778	69576
32.08592	67505
32.09403	68464
32.10215	62264
32.11028	62632
32.11840	60129
32.12653	63406
32.13465	57397
32.14277	57035
32.15090	55726
32.15902	53574
32.16713	55979
32.17527	54321
32.18338	53564
32.19152	55343
32.19963	51074
32.20775	46717
32.21588	52671
32.22400	53018
32.23213	51917
32.24025	51427
32.24837	49771
32.25650	55952
32.26462	58086
32.27273	60048
32.28087	56076
32.28898	55702
32.29712	52408
32.30523	54591
32.31335	50591
32.32148	49409
32.32960	49442
32.33773	47267
32.34585	50482
32.35397	46187
32.36210	51659
32.37022	51168
32.37835	47679
32.38647	47897
32.39458	49832
32.40272	49268
32.41083	47199
32.41895	46295
32.42708	47664
32.43520	47665
32.44333	47373
32.45145	50061
32.45957	54447
32.46770	47765
32.47582	43380
32.48395	45106
32.49207	44398
32.50018	49956
32.50832	48303
32.51643	47072
32.52457	47320
32.53268	44353
32.54080	48365
32.54893	47112
32.55705	48086
32.56517	48116
32.57330	46433
32.58142	42615
32.58955	46009
32.59767	47251
32.60578	45975
32.61392	47617
32.62203	44327
32.63017	45803
32.63828	51020
32.64640	59123
32.65453	56395
32.66265	57259
32.67077	57819
32.67890	54732
32.68702	51811
32.69515	53206
32.70327	50054
32.71138	53356
32.71952	50353
32.72763	46702
32.73577	52099
32.74388	51819
32.75200	46902
32.76013	45168
32.76825	45300
32.77638	48085
32.78450	44710
32.79262	49711
32.80075	44347
32.80887	49752
32.81698	44401
32.82512	49505
32.83323	41078
32.84137	48478
32.84948	49424
32.85760	48569
32.86573	45562
32.87385	47677
32.88198	45457
32.89010	47570
32.89822	53851
32.90635	46341
32.91447	50382
32.92260	48073
32.93072	47238
32.93883	50458
32.94697	45119
32.95508	48511
32.96320	46968
32.97133	47217
32.97945	48694
32.98758	59954
32.99570	67358
33.00382	67854
33.01195	69779
33.02007	65476
33.02820	61130
33.03632	59443
33.04443	57803
33.05257	54951
33.06068	58126
33.06880	58296
33.07693	63260
33.08505	61879
33.09318	65679
33.10130	70860
33.10942	77651
33.11755	74808
33.12567	71652
33.13380	63913
33.14192	67681
33.15003	67753
33.15817	61201
33.16628	55737
33.17442	51488
33.18253	48078
33.19065	46994
33.19878	52260
33.20690	46799
33.21502	48491
33.22315	49843
33.23127	50367
33.23940	46265
33.24752	48586
33.25563	48359
33.26377	49889
33.27188	45488
33.28002	47998
33.28813	47163
33.29625	46447
33.30438	46246
33.31250	48256
33.32062	46328
33.32875	47454
33.33687	48176
33.34500	51685
33.35312	55041
33.36123	52266
33.36937	54698
33.37748	52371
33.38562	50711
33.39373	50836
33.40185	51177
33.40998	45940
33.41810	44880
33.42623	46284
33.43435	43442
33.44247	47495
33.45060	44378
33.45872	46973
33.46683	46422
33.47497	46271
33.48308	46703
33.49122	39974
33.49933	45876
33.50745	46370
33.51558	45559
33.52370	48693
33.53183	49487
33.53995	45947
33.54807	50031
33.55620	52577
33.56432	53108
33.57245	53707
33.58057	57251
33.58868	51142
33.59682	43425
33.60493	50716
33.61305	44554
33.62118	43358
33.62930	45768
33.63743	46803
33.64555	51688
33.65367	50932
33.66180	50690
33.66992	51593
33.67805	46357
33.68617	47999
33.69428	48271
33.70242	49049
33.71053	45253
33.71865	45866
33.72678	47653
33.73490	47244
33.74303	42875
33.75115	47139
33.75927	47618
33.76740	46626
33.77552	42916
33.78365	47184
33.79177	42138
33.79988	46275
33.80802	43001
33.81613	44822
33.82427	44312
33.83238	44773
33.84050	44481
33.84863	46588
33.85675	41592
33.86487	53061
33.87300	50150
33.88112	45673
33.88925	50465
33.89737	50247
33.90548	52049
33.91362	46450
33.92173	46953
33.92987	48452
33.93798	49360
33.94610	47209
33.95423	46769
33.96235	46349
33.97048	47603
33.97860	45143
33.98672	45767
33.99485	53063
34.00297	48101
34.01108	50999
34.01922	50857
34.02733	53084
34.03547	52852
34.04358	54119
34.05170	51643
34.05983	57719
34.06795	56690
34.07608	56815
34.08420	62054
34.09232	61348
34.10045	62884
34.10857	65501
34.11668	61618
34.12482	62802
34.13293	59307
34.14107	62598
34.14918	63572
34.15730	64091
34.16543	61921
34.17355	60167
34.18168	64911
34.18980	61791
34.19792	63797
34.20605	58924
34.21417	62905
34.22230	63679
34.23042	60236
34.23853	64228
34.24667	57563
34.25478	60983
34.26290	56047
34.27103	58867
34.27915	57874
34.28728	59603
34.29540	52991
34.30352	55634
34.31165	52468
34.31977	57664
34.32790	57189
34.33602	52839
34.34413	57032
34.35227	52231
34.36038	55625
34.36852	58957
34.37663	52353
34.38475	52623
34.39288	56877
34.40100	53150
34.40912	57675
34.41725	51981
34.42537	52993
34.43350	49893
34.44162	49300
34.44973	58613
34.45787	53193
34.46598	49964
34.47412	50150
34.48223	50483
34.49035	51547
34.49848	53790
34.50660	54331
34.51472	57323
34.52285	59945
34.53097	66215
34.53910	69803
34.54722	71432
34.55533	74095
34.56347	77323
34.57158	67425
34.57972	70164
34.58783	72489
34.59595	69012
34.60408	65015
34.61220	65740
34.62033	62038
34.62845	61886
34.63657	59731
34.64470	60906
34.65282	56548
34.66093	59153
34.66907	59759
34.67718	56422
34.68532	60216
34.69343	57620
34.70155	55724
34.70968	56866
34.71780	55077
34.72593	55667
34.73405	56154
34.74217	52625
34.75030	55946
34.75842	62014
34.76653	55398
34.77467	56897
34.78278	60110
34.79092	60211
34.79903	61426
34.80715	59967
34.81528	59314
34.82340	59120
34.83153	62615
34.83965	66172
34.84777	64421
34.85590	63500
34.86402	63237
34.87215	64651
34.88027	61526
34.88838	61802
34.89652	60646
34.90463	58189
34.91275	62608
34.92088	65310
34.92900	63232
34.93713	63469
34.94525	65124
34.95337	76052
34.96150	65151
34.96962	64618
34.97775	72468
34.98587	67601
34.99398	68972
35.00212	63377
35.01023	57955
35.01837	61098
35.02648	53433
35.03460	55827
35.04273	54189
35.05085	54390
35.05897	52959
35.06710	55663
35.07522	54903
35.08335	56470
35.09147	53950
35.09958	52303
35.10772	55026
35.11583	56074
35.12397	54103
35.13208	55385
35.14020	57033
35.14833	57192
35.15645	57090
35.16457	54346
35.17270	57000
35.18082	54984
35.18895	51961
35.19707	51879
35.20518	46841
35.21332	49684
35.22143	51828
35.22957	54794
35.23768	48387
35.24580	54931
35.25393	54502
35.26205	51955
35.27018	51515
35.27830	50900
35.28642	56393
35.29455	50673
35.30267	49642
35.31078	48711
35.31892	49875
35.32703	50509
35.33517	50658
35.34328	48808
35.35140	46597
35.35953	48562
35.36765	47388
35.37578	51984
35.38390	47765
35.39202	53549
35.40015	51734
35.40827	55516
35.41640	55012
35.42452	56358
35.43263	57430
35.44077	56378
35.44888	57851
35.45700	59360
35.46513	57575
35.47325	55797
35.48138	56075
35.48950	52296
35.49762	57783
35.50575	56870
35.51387	52205
35.52200	54161
35.53012	56328
35.53823	52386
35.54637	50239
35.55448	50276
35.56260	60250
35.57073	53351
35.57885	51459
35.58698	53699
35.59510	53224
35.60322	53293
35.61135	55103
35.61947	53860
35.62760	52662
35.63572	48156
35.64383	50931
35.65197	52957
35.66008	55120
35.66822	56275
35.67633	57299
35.68445	59285
35.69258	59216
35.70070	53677
35.70882	53116
35.71695	53542
35.72507	60339
35.73320	55104
35.74132	54545
35.74943	58891
35.75757	62826
35.76568	62359
35.77382	58503
35.78193	63326
35.79005	56246
35.79818	54378
35.80630	54863
35.81442	51661
35.82255	50150
35.83067	52030
35.83880	51815
35.84692	50419
35.85503	51132
35.86317	52705
35.87128	50915
35.87942	50287
35.88753	51825
35.89565	50985
35.90378	52453
35.91190	52043
35.92003	52392
35.92815	52746
35.93627	56110
35.94440	55454
35.95252	51624
35.96063	54902
35.96877	52467
35.97688	52621
35.98502	51629
35.99313	54016
36.00125	52023
36.00938	55343
36.01750	49365
36.02563	53666
36.03375	56632
36.04187	53961
36.05000	53381
36.05812	54591
36.06625	53175
36.07437	56043
36.08248	54741
36.09062	54734
36.09873	54610
36.10685	54286
36.11498	50108
36.12310	55363
36.13123	56821
36.13935	58290
36.14747	54841
36.15560	58420
36.16372	58310
36.17185	56480
36.17997	58768
36.18808	55407
36.19622	51366
36.20433	52622
36.21247	52286
36.22058	55109
36.22870	50867
36.23683	57146
36.24495	58215
36.25307	62531
36.26120	63696
36.26932	71125
36.27745	76524
36.28557	80928
36.29368	83345
36.30182	87857
36.30993	88516
36.31807	81600
36.32618	81473
36.33430	83068
36.34243	77687
36.35055	84022
36.35867	78705
36.36680	79128
36.37492	80559
36.38305	81012
36.39117	83012
36.39928	82635
36.40742	81101
36.41553	83214
36.42367	84438
36.43178	85918
36.43990	80139
36.44803	80541
36.45615	80641
36.46428	81038
36.47240	85297
36.48052	83117
36.48865	84255
36.49677	83696
36.50488	82718
36.51302	80068
36.52113	78149
36.52927	76472
36.53738	78098
36.54550	79686
36.55363	77747
36.56175	78545
36.56988	73046
36.57800	73269
36.58612	77935
36.59425	77361
36.60237	77298
36.61048	82400
36.61862	78508
36.62673	77197
36.63487	77613
36.64298	76498
36.65110	77524
36.65923	79751
36.66735	77508
36.67548	77286
36.68360	78933
36.69172	73674
36.69985	71032
36.70797	71251
36.71610	75096
36.72422	72764
36.73233	72539
36.74047	72974
36.74858	73414
36.75670	75722
36.76483	74872
36.77295	71924
36.78108	70949
36.78920	73443
36.79732	70343
36.80545	67970
36.81357	73219
36.82170	76011
36.82982	72573
36.83793	70221
36.84607	72794
36.85418	71678
36.86232	71992
36.87043	72292
36.87855	69315
36.88668	67434
36.89480	70482
36.90292	71586
36.91105	68386
36.91917	66601
36.92730	69256
36.93542	73038
36.94353	78927
36.95167	80695
36.95978	85137
36.96792	88755
36.97603	87292
36.98415	86932
36.99228	83170
37.00040	75050
37.00852	81784
37.01665	71967
37.02477	77124
37.03290	74902
37.04102	68684
37.04913	70068
37.05727	66874
37.06538	72549
37.07352	67563
37.08163	66271
37.08975	67535
37.09788	71993
37.10600	71461
37.11413	67688
37.12225	68069
37.13037	69316
37.13850	68713
37.14662	72022
37.15473	69143
37.16287	66891
37.17098	70356
37.17912	70016
37.18723	75728
37.19535	72403
37.20348	71374
37.21160	71367
37.21973	66066
37.22785	67639
37.23597	72739
37.24410	68622
37.25222	68501
37.26035	70995
37.26847	67093
37.27658	66761
37.28472	67065
37.29283	64544
37.30095	70564
37.30908	67971
37.31720	72253
37.32533	75748
37.33345	82882
37.34157	82567
37.34970	87979
37.35782	85364
37.36595	86277
37.37407	81935
37.38218	80082
37.39032	85624
37.39843	79891
37.40655	74836
37.41468	77228
37.42280	76543
37.43093	78844
37.43905	76198
37.44717	76756
37.45530	78503
37.46342	71086
37.47155	75756
37.47967	74669
37.48778	73389
