Z:\data\JTB-E02\BACandBLUE\JTB-E02-204-07.D Sat Mar 09 08:36:27 2019
Start of data points
2.09523,70423
2.10335,65232
2.11147,71378
2.11960,68702
2.12772,71348
2.13585,66885
2.14397,63368
2.15208,65352
2.16022,62947
2.16833,69490
2.17645,62474
2.18458,56826
2.19270,54121
2.20083,60197
2.20895,60714
2.21707,55973
2.22520,55336
2.23332,57495
2.24145,64355
2.24957,53425
2.25768,54213
2.26582,69698
2.27393,510792
2.28207,2925950
2.29018,3719769
2.29830,1789537
2.30643,874572
2.31455,612633
2.32267,524380
2.33080,472951
2.33892,410967
2.34705,381417
2.35517,309679
2.36328,282959
2.37142,263218
2.37953,244109
2.38767,252232
2.39578,231040
2.40390,220270
2.41203,233926
2.42015,215362
2.42827,272570
2.43640,256612
2.44452,211269
2.45265,201348
2.46077,196704
2.46888,177255
2.47702,164098
2.48513,149982
2.49327,138901
2.50138,137681
2.50950,131141
2.51763,132083
2.52575,130614
2.53388,127822
2.54200,132275
2.55012,140455
2.55825,156560
2.56637,153821
2.57448,155051
2.58262,133458
2.59073,129570
2.59887,127041
2.60698,129713
2.61510,146714
2.62323,156970
2.63135,156922
2.63948,143184
2.64760,133624
2.65572,133286
2.66385,131813
2.67197,124265
2.68010,125320
2.68822,115658
2.69633,110173
2.70447,113372
2.71258,117740
2.72070,111025
2.72883,108003
2.73695,105555
2.74508,105270
2.75320,103569
2.76132,108700
2.76945,104220
2.77757,99267
2.78570,101986
2.79382,106934
2.80193,105122
2.81007,114651
2.81818,108579
2.82632,111424
2.83443,103840
2.84255,105472
2.85068,104097
2.85880,102058
2.86692,106733
2.87505,105174
2.88317,104293
2.89130,104101
2.89942,100303
2.90753,96506
2.91567,105656
2.92378,95557
2.93192,95817
2.94003,96638
2.94815,99085
2.95628,96029
2.96440,94807
2.97252,96054
2.98065,100941
2.98877,94542
2.99690,97313
3.00502,95089
3.01313,94938
3.02127,91684
3.02938,97351
3.03752,91826
3.04563,95778
3.05375,91349
3.06188,88209
3.07000,90927
3.07813,91772
3.08625,89539
3.09437,84956
3.10250,91379
3.11062,99768
3.11873,130801
3.12687,133884
3.13498,122730
3.14312,114458
3.15123,105778
3.15935,94542
3.16748,95492
3.17560,94396
3.18373,91183
3.19185,88389
3.19997,89388
3.20810,90016
3.21622,86367
3.22433,87577
3.23247,86925
3.24058,87763
3.24872,84757
3.25683,88895
3.26495,86492
3.27308,82769
3.28120,84814
3.28933,81922
3.29745,153726
3.30557,601015
3.31370,2150893
3.32182,4899673
3.32995,6535689
3.33807,5979440
3.34618,4529241
3.35432,3299819
3.36243,2511850
3.37055,1990249
3.37868,1646730
3.38680,1404012
3.39493,1194012
3.40305,1043058
3.41117,923424
3.41930,858910
3.42742,763070
3.43555,710358
3.44367,657216
3.45178,621470
3.45992,554850
3.46803,516124
3.47617,489006
3.48428,459563
3.49240,422080
3.50053,391553
3.50865,374149
3.51677,368025
3.52490,348840
3.53302,344278
3.54115,334781
3.54927,345610
3.55738,347134
3.56552,345264
3.57363,357235
3.58177,345156
3.58988,345604
3.59800,364370
3.60613,340184
3.61425,338775
3.62237,311977
3.63050,306553
3.63862,303239
3.64675,289480
3.65487,281296
3.66298,263712
3.67112,272484
3.67923,260348
3.68737,252876
3.69548,241588
3.70360,250205
3.71173,241438
3.71985,246291
3.72798,244971
3.73610,243474
3.74422,233597
3.75235,246217
3.76047,232143
3.76858,232454
3.77672,236685
3.78483,229140
3.79297,217800
3.80108,218305
3.80920,217399
3.81733,214089
3.82545,218851
3.83358,225661
3.84170,213388
3.84982,213908
3.85795,213527
3.86607,210581
3.87420,200137
3.88232,203346
3.89043,194895
3.89857,192269
3.90668,191826
3.91480,190400
3.92293,192647
3.93105,188022
3.93918,191976
3.94730,183112
3.95542,184035
3.96355,177402
3.97167,175399
3.97980,177230
3.98792,182513
3.99603,179623
4.00417,178259
4.01228,176613
4.02040,179366
4.02853,181584
4.03665,175913
4.04478,178531
4.05290,175033
4.06102,176393
4.06915,167394
4.07727,173933
4.08540,172502
4.09352,170680
4.10163,164729
4.10977,160846
4.11788,166474
4.12602,160290
4.13413,159842
4.14225,164258
4.15038,163814
4.15850,179925
4.16662,193342
4.17475,193726
4.18287,177700
4.19100,169401
4.19912,156961
4.20723,164633
4.21537,159894
4.22348,161489
4.23162,154657
4.23973,176246
4.24785,192614
4.25598,203929
4.26410,189935
4.27222,177451
4.28035,171362
4.28847,169523
4.29660,157316
4.30472,152044
4.31283,154534
4.32097,150109
4.32908,154269
4.33722,169299
4.34533,171141
4.35345,174995
4.36158,166531
4.36970,161428
4.37783,159866
4.38595,157431
4.39407,161084
4.40220,161954
4.41032,156225
4.41843,152705
4.42657,143289
4.43468,148578
4.44282,146770
4.45093,146978
4.45905,151412
4.46718,140695
4.47530,141553
4.48343,143550
4.49155,142097
4.49967,143874
4.50780,147567
4.51592,141114
4.52405,136488
4.53217,137510
4.54028,140402
4.54842,139639
4.55653,140183
4.56465,138738
4.57278,132983
4.58090,129366
4.58903,133685
4.59715,136633
4.60527,131839
4.61340,138606
4.62152,138503
4.62965,134970
4.63777,133592
4.64588,132637
4.65402,132175
4.66213,128811
4.67025,134004
4.67838,129700
4.68650,126624
4.69463,135856
4.70275,130010
4.71087,131401
4.71900,131073
4.72712,124185
4.73525,126539
4.74337,126280
4.75148,126328
4.75962,128663
4.76773,131509
4.77587,122180
4.78398,124583
4.79210,119248
4.80023,121851
4.80835,124002
4.81647,123109
4.82460,123678
4.83272,125731
4.84085,123918
4.84897,120604
4.85708,126431
4.86522,120133
4.87333,120738
4.88147,122421
4.88958,126775
4.89770,126486
4.90583,126963
4.91395,122131
4.92208,118232
4.93020,119546
4.93832,121053
4.94645,130514
4.95457,166198
4.96268,327019
4.97082,721958
4.97893,1399140
4.98707,2031024
4.99518,2307303
5.00330,2101596
5.01143,1699997
5.01955,1315886
5.02768,1062140
5.03580,845500
5.04392,728609
5.05205,615370
5.06017,547507
5.06828,468016
5.07642,444094
5.08453,386853
5.09267,372592
5.10078,356014
5.10890,344677
5.11703,332383
5.12515,329721
5.13328,327942
5.14140,330630
5.14952,322328
5.15765,317541
5.16577,306354
5.17390,284511
5.18202,289921
5.19013,277115
5.19827,269385
5.20638,259287
5.21450,257857
5.22263,265845
5.23075,255471
5.23888,245387
5.24700,255899
5.25512,259926
5.26325,265016
5.27137,252106
5.27950,255462
5.28762,239775
5.29573,219750
5.30387,211589
5.31198,210644
5.32010,205299
5.32823,208878
5.33635,205690
5.34448,203784
5.35260,194493
5.36072,203950
5.36885,191426
5.37697,191726
5.38510,193630
5.39322,193839
5.40133,192435
5.40947,186171
5.41758,190831
5.42572,183432
5.43383,191018
5.44195,174210
5.45008,177190
5.45820,175261
5.46632,182124
5.47445,181834
5.48257,176719
5.49070,171339
5.49882,172719
5.50693,171163
5.51507,163593
5.52318,165720
5.53132,172497
5.53943,165901
5.54755,160501
5.55568,162748
5.56380,164594
5.57193,161933
5.58005,162984
5.58817,172723
5.59630,163987
5.60442,161961
5.61253,166553
5.62067,166894
5.62878,170672
5.63692,184196
5.64503,208728
5.65315,220291
5.66128,227451
5.66940,210949
5.67753,182754
5.68565,178997
5.69377,181402
5.70190,196071
5.71002,217324
5.71813,218147
5.72627,214445
5.73438,181821
5.74252,184121
5.75063,163302
5.75875,153282
5.76688,154296
5.77500,149427
5.78313,154033
5.79125,144363
5.79937,147388
5.80750,147369
5.81562,145215
5.82375,144445
5.83187,145198
5.83998,138286
5.84812,143951
5.85623,141852
5.86435,142357
5.87248,138993
5.88060,134897
5.88873,132019
5.89685,138686
5.90497,134538
5.91310,126423
5.92122,118979
5.92935,107464
5.93747,109912
5.94558,103555
5.95372,103202
5.96183,104725
5.96997,116510
5.97808,108040
5.98620,125210
5.99433,134832
6.00245,153597
6.01057,164614
6.01870,138466
6.02682,124933
6.03495,124376
6.04307,121287
6.05118,114942
6.05932,113371
6.06743,113278
6.07557,105024
6.08368,109532
6.09180,109157
6.09993,99528
6.10805,102465
6.11617,106825
6.12430,104737
6.13242,106652
6.14055,100530
6.14867,104943
6.15678,113326
6.16492,113224
6.17303,106705
6.18117,110728
6.18928,116404
6.19740,116756
6.20553,117124
6.21365,119923
6.22178,124025
6.22990,122022
6.23802,127169
6.24615,122622
6.25427,126368
6.26238,131528
6.27052,128312
6.27863,133697
6.28677,128115
6.29488,134475
6.30300,140830
6.31113,136885
6.31925,136233
6.32738,136009
6.33550,134007
6.34362,141085
6.35175,150089
6.35987,151773
6.36800,156031
6.37612,151319
6.38423,152264
6.39237,148450
6.40048,157670
6.40860,157938
6.41673,160672
6.42485,160560
6.43298,161314
6.44110,161376
6.44922,171579
6.45735,167388
6.46547,162432
6.47360,169020
6.48172,163797
6.48983,163406
6.49797,143820
6.50608,132226
6.51420,130844
6.52233,125014
6.53045,122346
6.53858,115346
6.54670,112618
6.55482,106995
6.56295,115746
6.57107,119456
6.57920,116691
6.58732,100385
6.59543,110496
6.60357,107655
6.61168,102292
6.61982,106394
6.62793,109199
6.63605,105902
6.64418,103357
6.65230,101039
6.66042,99940
6.66855,100800
6.67667,97629
6.68480,102335
6.69292,102581
6.70103,106488
6.70917,102652
6.71728,96597
6.72542,95448
6.73353,99679
6.74165,93147
6.74978,97333
6.75790,93554
6.76602,93455
6.77415,93897
6.78227,90439
6.79040,90330
6.79852,93114
6.80663,95537
6.81477,95384
6.82288,83580
6.83102,89252
6.83913,89692
6.84725,89560
6.85538,91376
6.86350,85470
6.87163,79460
6.87975,72431
6.88787,71662
6.89600,68432
6.90412,71471
6.91223,78073
6.92037,78764
6.92848,73374
6.93662,68560
6.94473,69267
6.95285,68260
6.96098,65183
6.96910,64122
6.97723,66073
6.98535,61699
6.99347,66263
7.00160,62549
7.00972,66566
7.01785,66961
7.02597,67296
7.03408,64404
7.04222,67651
7.05033,66054
7.05845,66001
7.06658,59857
7.07470,61746
7.08283,61695
7.09095,62897
7.09907,63880
7.10720,61996
7.11532,66680
7.12345,62548
7.13157,63097
7.13968,59092
7.14782,60630
7.15593,59557
7.16405,59031
7.17218,63896
7.18030,72380
7.18843,68066
7.19655,67711
7.20467,64356
7.21280,59646
7.22092,59342
7.22905,60158
7.23717,61870
7.24528,60428
7.25342,60935
7.26153,64865
7.26967,62819
7.27778,65223
7.28590,65071
7.29403,60912
7.30215,65375
7.31027,60349
7.31840,60293
7.32652,57775
7.33465,60433
7.34277,58267
7.35088,61786
7.35902,58314
7.36713,63666
7.37527,61132
7.38338,57712
7.39150,61073
7.39963,68567
7.40775,57759
7.41588,60159
7.42400,60479
7.43212,63292
7.44025,66112
7.44837,66978
7.45648,68766
7.46462,76866
7.47273,83320
7.48087,88683
7.48898,97900
7.49710,91902
7.50523,86717
7.51335,76033
7.52148,74837
7.52960,62872
7.53772,62837
7.54585,61844
7.55397,64885
7.56208,61081
7.57022,63084
7.57833,62531
7.58647,69781
7.59458,61763
7.60270,68582
7.61083,63952
7.61895,59254
7.62708,65593
7.63520,59652
7.64332,63338
7.65145,61062
7.65957,60554
7.66770,64439
7.67582,59111
7.68393,57209
7.69207,63791
7.70018,59823
7.70830,58766
7.71643,60252
7.72455,58642
7.73268,56495
7.74080,60636
7.74892,53368
7.75705,59421
7.76517,61462
7.77330,57532
7.78142,58134
7.78953,60288
7.79767,58259
7.80578,58075
7.81390,56380
7.82203,56768
7.83015,56291
7.83828,56800
7.84640,57786
7.85452,57211
7.86265,57394
7.87077,57169
7.87890,56684
7.88702,54540
7.89513,54951
7.90327,58090
7.91138,55258
7.91952,48499
7.92763,53249
7.93575,58076
7.94388,56404
7.95200,57073
7.96012,58133
7.96825,51109
7.97637,52648
7.98450,56573
7.99262,56003
8.00073,57192
8.00887,61291
8.01698,61436
8.02512,55414
8.03323,53852
8.04135,52841
8.04948,61490
8.05760,54492
8.06573,57871
8.07385,57356
8.08197,52572
8.09010,54129
8.09822,55742
8.10633,52902
8.11447,57392
8.12258,56768
8.13072,55750
8.13883,53898
8.14695,56054
8.15508,56805
8.16320,54658
8.17133,57870
8.17945,58350
8.18757,61886
8.19570,65449
8.20382,68630
8.21193,67681
8.22007,68667
8.22818,63549
8.23632,62516
8.24443,59427
8.25255,60371
8.26068,60117
8.26880,58306
8.27693,60413
8.28505,63387
8.29317,61797
8.30130,63776
8.30942,62855
8.31755,61977
8.32567,62458
8.33378,63632
8.34192,64508
8.35003,61475
8.35815,67666
8.36628,72047
8.37440,78768
8.38253,78007
8.39065,77920
8.39877,70177
8.40690,68197
8.41502,68814
8.42315,61121
8.43127,62163
8.43938,64873
8.44752,67158
8.45563,66440
8.46377,64164
8.47188,63877
8.48000,63173
8.48813,62831
8.49625,59412
8.50437,63855
8.51250,66750
8.52062,68921
8.52875,73283
8.53687,76040
8.54498,79831
8.55312,74431
8.56123,72917
8.56937,67814
8.57748,71425
8.58560,66449
8.59373,69996
8.60185,64092
8.60997,63908
8.61810,64432
8.62622,65209
8.63435,65458
8.64247,71927
8.65058,62391
8.65872,64509
8.66683,63689
8.67497,65868
8.68308,63991
8.69120,63848
8.69933,62509
8.70745,62813
8.71558,62902
8.72370,61466
8.73182,59111
8.73995,58349
8.74807,59677
8.75618,56478
8.76432,58878
8.77243,58329
8.78057,65093
8.78868,69547
8.79680,104913
8.80493,170838
8.81305,290522
8.82118,438438
8.82930,522268
8.83742,521182
8.84555,474926
8.85367,392684
8.86180,312278
8.86992,252885
8.87803,230313
8.88617,208236
8.89428,188831
8.90240,171279
8.91053,167713
8.91865,156092
8.92678,151280
8.93490,141537
8.94302,146509
8.95115,138835
8.95927,134161
8.96740,133245
8.97552,126480
8.98363,114172
8.99177,117561
8.99988,118201
9.00800,112601
9.01613,113738
9.02425,116968
9.03238,113927
9.04050,112505
9.04862,112656
9.05675,107444
9.06487,103406
9.07300,99004
9.08112,101533
9.08923,102494
9.09737,96722
9.10548,98340
9.11362,97864
9.12173,95689
9.12985,92520
9.13798,92703
9.14610,97566
9.15422,97820
9.16235,100084
9.17047,94389
9.17860,95349
9.18672,95482
9.19483,98091
9.20297,91355
9.21108,85355
9.21922,95175
9.22733,96042
9.23545,89622
9.24358,94586
9.25170,88832
9.25983,86592
9.26795,87733
9.27607,82669
9.28420,88350
9.29232,86351
9.30043,81772
9.30857,82779
9.31668,77529
9.32482,77515
9.33293,79103
9.34105,80265
9.34918,82941
9.35730,76036
9.36543,85666
9.37355,80249
9.38167,75473
9.38980,73388
9.39792,71891
9.40603,73249
9.41417,72086
9.42228,73667
9.43042,74172
9.43853,68983
9.44665,67639
9.45478,71677
9.46290,70667
9.47103,72046
9.47915,62157
9.48727,69774
9.49540,69721
9.50352,65755
9.51165,65438
9.51977,68864
9.52788,61045
9.53602,65903
9.54413,73252
9.55225,67300
9.56038,77902
9.56850,75213
9.57663,72006
9.58475,69866
9.59287,69043
9.60100,61513
9.60912,55807
9.61725,62203
9.62537,60611
9.63348,63509
9.64162,57139
9.64973,57816
9.65785,54908
9.66598,52728
9.67410,51702
9.68223,51466
9.69035,48147
9.69847,51907
9.70660,48359
9.71472,49392
9.72285,54363
9.73097,51191
9.73908,47010
9.74722,48647
9.75533,47322
9.76347,46552
9.77158,47441
9.77970,45515
9.78783,44978
9.79595,50004
9.80407,52045
9.81220,49014
9.82032,44121
9.82845,50073
9.83657,45860
9.84468,52492
9.85282,51782
9.86093,55383
9.86907,59117
9.87718,56604
9.88530,50231
9.89343,52933
9.90155,48158
9.90968,47657
9.91780,52023
9.92592,53876
9.93405,46715
9.94217,43095
9.95028,50687
9.95842,45962
9.96653,51308
9.97467,48109
9.98278,44062
9.99090,49381
9.99903,51608
10.00715,54312
10.01528,53986
10.02340,56006
10.03152,56619
10.03965,67272
10.04777,66423
10.05588,71646
10.06402,76144
10.07213,71954
10.08027,74283
10.08838,67311
10.09650,64351
10.10463,61308
10.11275,60496
10.12088,57891
10.12900,57587
10.13712,58869
10.14525,53630
10.15337,54377
10.16150,54489
10.16962,50657
10.17773,51902
10.18587,53882
10.19398,50291
10.20210,51587
10.21023,51916
10.21835,50897
10.22648,48027
10.23460,55043
10.24272,56522
10.25085,58844
10.25897,59053
10.26710,56893
10.27522,62435
10.28333,62045
10.29147,62030
10.29958,56245
10.30772,65510
10.31583,62592
10.32395,64620
10.33208,72061
10.34020,82002
10.34832,78810
10.35645,76633
10.36457,68182
10.37270,64950
10.38082,58849
10.38893,60499
10.39707,59668
10.40518,56381
10.41332,57371
10.42143,59139
10.42955,54759
10.43768,51446
10.44580,54204
10.45392,56994
10.46205,60766
10.47017,53971
10.47830,52200
10.48642,52978
10.49453,51814
10.50267,46082
10.51078,50273
10.51892,54955
10.52703,55821
10.53515,57747
10.54328,45215
10.55140,48830
10.55953,52974
10.56765,52684
10.57577,48033
10.58390,52285
10.59202,51608
10.60013,47685
10.60827,51061
10.61638,47484
10.62452,45320
10.63263,49283
10.64075,49191
10.64888,48573
10.65700,48388
10.66513,51298
10.67325,47706
10.68137,47535
10.68950,46650
10.69762,51499
10.70573,49481
10.71387,53103
10.72198,51960
10.73012,52641
10.73823,49846
10.74635,54558
10.75448,46854
10.76260,44415
10.77073,49781
10.77885,51024
10.78697,53048
10.79510,56502
10.80322,58232
10.81135,58462
10.81947,53609
10.82758,51278
10.83572,50167
10.84383,50256
10.85195,56832
10.86008,47631
10.86820,43486
10.87633,47005
10.88445,51547
10.89257,43519
10.90070,46354
10.90882,47930
10.91695,48771
10.92507,43680
10.93318,44417
10.94132,45185
10.94943,43952
10.95757,46230
10.96568,44408
10.97380,48964
10.98193,49189
10.99005,52608
10.99817,46966
11.00630,42243
11.01442,40783
11.02255,42512
11.03067,44381
11.03878,44353
11.04692,44521
11.05503,44278
11.06317,44063
11.07128,41561
11.07940,43140
11.08753,41847
11.09565,40658
11.10377,44419
11.11190,42286
11.12002,42035
11.12815,45820
11.13627,41024
11.14438,44146
11.15252,41011
11.16063,39550
11.16877,38013
11.17688,45014
11.18500,42329
11.19313,45087
11.20125,49262
11.20938,55522
11.21750,65411
11.22562,64854
11.23375,69999
11.24187,65919
11.24998,56153
11.25812,58482
11.26623,49713
11.27437,50009
11.28248,49365
11.29060,47010
11.29873,42239
11.30685,39207
11.31498,44448
11.32310,43791
11.33122,41849
11.33935,42529
11.34747,43619
11.35560,45915
11.36372,49685
11.37183,41711
11.37997,41656
11.38808,41363
11.39620,41488
11.40433,45150
11.41245,39826
11.42058,38993
11.42870,40650
11.43682,37793
11.44495,39540
11.45307,39117
11.46120,38698
11.46932,40126
11.47743,39032
11.48557,38402
11.49368,40116
11.50180,42994
11.50993,42896
11.51805,43259
11.52618,47343
11.53430,41828
11.54242,43581
11.55055,37603
11.55867,40306
11.56680,40813
11.57492,39578
11.58303,37257
11.59117,36249
11.59928,39658
11.60742,40161
11.61553,38082
11.62365,39416
11.63178,39655
11.63990,37973
11.64802,39833
11.65615,38517
11.66427,41482
11.67240,36744
11.68052,40416
11.68863,40138
11.69677,38586
11.70488,36018
11.71302,40183
11.72113,43137
11.72925,40247
11.73738,42487
11.74550,43015
11.75363,46208
11.76175,47017
11.76987,47608
11.77800,47218
11.78612,46702
11.79423,43884
11.80237,50682
11.81048,46493
11.81862,43997
11.82673,41576
11.83485,41728
11.84298,40679
11.85110,41774
11.85923,39549
11.86735,44893
11.87547,41873
11.88360,46509
11.89172,46175
11.89983,46810
11.90797,45839
11.91608,42894
11.92422,40841
11.93233,42319
11.94045,40625
11.94858,42561
11.95670,40064
11.96483,41920
11.97295,39247
11.98107,43117
11.98920,42755
11.99732,41092
12.00545,40387
12.01357,41111
12.02168,40213
12.02982,44162
12.03793,41161
12.04605,38779
12.05418,42593
12.06230,41513
12.07043,37875
12.07855,40739
12.08667,37675
12.09480,38695
12.10292,38908
12.11105,46547
12.11917,38414
12.12728,38271
12.13542,36649
12.14353,35009
12.15165,41004
12.15978,41652
12.16790,43049
12.17603,45011
12.18415,41111
12.19227,46449
12.20040,46152
12.20852,44689
12.21665,44960
12.22477,53180
12.23288,55580
12.24102,51731
12.24913,49965
12.25727,49036
12.26538,51612
12.27350,47233
12.28163,44360
12.28975,47958
12.29787,46372
12.30600,45276
12.31412,49940
12.32225,47616
12.33037,47012
12.33848,47190
12.34662,46319
12.35473,45542
12.36287,43578
12.37098,45320
12.37910,47381
12.38723,48242
12.39535,42165
12.40348,47575
12.41160,50912
12.41972,47858
12.42785,45240
12.43597,46186
12.44408,44019
12.45222,52129
12.46033,50574
12.46847,51015
12.47658,53869
12.48470,56342
12.49283,54783
12.50095,56367
12.50908,51572
12.51720,48588
12.52532,43927
12.53345,45854
12.54157,42318
12.54968,43623
12.55782,49122
12.56593,43519
12.57407,41470
12.58218,43439
12.59030,49380
12.59843,39702
12.60655,42965
12.61468,46815
12.62280,44063
12.63092,39557
12.63905,36629
12.64717,42620
12.65530,45707
12.66342,39160
12.67153,45784
12.67967,39994
12.68778,40987
12.69590,42547
12.70403,41412
12.71215,40336
12.72028,41797
12.72840,40537
12.73652,40410
12.74465,43277
12.75277,44440
12.76090,46808
12.76902,53361
12.77713,48095
12.78527,46241
12.79338,45781
12.80152,44157
12.80963,47063
12.81775,42959
12.82588,45322
12.83400,39091
12.84212,49391
12.85025,37381
12.85837,35756
12.86650,38183
12.87462,44009
12.88273,41881
12.89087,37241
12.89898,35877
12.90712,37843
12.91523,35448
12.92335,37361
12.93148,36960
12.93960,41800
12.94772,38331
12.95585,38655
12.96397,36115
12.97210,35219
12.98022,39206
12.98833,42028
12.99647,39110
13.00458,41069
13.01272,38643
13.02083,35840
13.02895,38236
13.03708,38554
13.04520,36024
13.05333,34694
13.06145,36186
13.06957,38464
13.07770,35113
13.08582,36955
13.09393,35405
13.10207,35055
13.11018,42112
13.11832,40321
13.12643,44262
13.13455,36210
13.14268,37451
13.15080,41035
13.15893,37410
13.16705,38498
13.17517,36389
13.18330,37201
13.19142,38315
13.19953,38395
13.20767,39015
13.21578,41441
13.22392,41911
13.23203,47481
13.24015,46275
13.24828,43532
13.25640,48484
13.26453,39157
13.27265,38784
13.28077,39504
13.28890,42948
13.29702,40041
13.30515,33419
13.31327,33124
13.32138,32686
13.32952,37029
13.33763,39015
13.34575,41392
13.35388,38802
13.36200,39706
13.37013,37518
13.37825,34387
13.38637,37089
13.39450,34346
13.40262,37924
13.41075,35190
13.41887,36283
13.42698,35512
13.43512,38796
13.44323,33386
13.45137,36476
13.45948,34184
13.46760,35505
13.47573,34116
13.48385,40004
13.49197,37022
13.50010,32798
13.50822,34693
13.51635,36147
13.52447,36709
13.53258,36300
13.54072,35723
13.54883,36976
13.55697,34243
13.56508,41183
13.57320,38839
13.58133,37168
13.58945,35403
13.59758,36342
13.60570,35171
13.61382,35681
13.62195,37821
13.63007,33919
13.63818,38202
13.64632,35374
13.65443,38322
13.66257,37963
13.67068,34849
13.67880,33919
13.68693,34622
13.69505,36740
13.70318,32945
13.71130,34626
13.71942,38018
13.72755,35977
13.73567,35498
13.74378,37155
13.75192,38583
13.76003,35944
13.76817,37279
13.77628,37212
13.78440,37760
13.79253,34655
13.80065,34387
13.80878,39092
13.81690,37307
13.82502,38116
13.83315,34078
13.84127,39719
13.84940,37924
13.85752,36967
13.86563,36312
13.87377,36625
13.88188,35889
13.89000,36348
13.89813,36919
13.90625,38724
13.91438,34834
13.92250,38955
13.93062,37971
13.93875,36549
13.94687,38731
13.95500,39559
13.96312,43426
13.97123,38417
13.97937,40432
13.98748,39358
13.99560,35420
14.00373,45084
14.01185,40295
14.01998,36366
14.02810,40562
14.03622,37795
14.04435,37546
14.05247,37802
14.06060,41686
14.06872,43452
14.07683,44772
14.08497,45740
14.09308,46456
14.10122,45823
14.10933,42861
14.11745,43993
14.12558,45094
14.13370,44658
14.14182,41449
14.14995,37417
14.15807,37822
14.16620,39756
14.17432,42503
14.18243,41785
14.19057,45094
14.19868,52473
14.20682,60192
14.21493,86534
14.22305,120489
14.23118,149941
14.23930,164073
14.24743,165199
14.25555,136855
14.26367,128891
14.27180,115898
14.27992,99972
14.28803,94401
14.29617,87139
14.30428,80576
14.31242,81357
14.32053,71523
14.32865,74727
14.33678,71129
14.34490,64756
14.35303,70146
14.36115,61645
14.36927,57382
14.37740,53981
14.38552,58014
14.39363,49156
14.40177,46272
14.40988,45232
14.41802,47502
14.42613,42361
14.43425,44313
14.44238,40893
14.45050,41455
14.45863,43892
14.46675,40093
14.47487,41430
14.48300,43642
14.49112,43546
14.49925,38106
14.50737,41407
14.51548,42645
14.52362,41681
14.53173,43327
14.53985,42143
14.54798,45506
14.55610,40154
14.56423,41261
14.57235,44382
14.58047,39352
14.58860,37721
14.59672,41907
14.60485,36670
14.61297,37565
14.62108,41211
14.62922,40218
14.63733,39309
14.64547,37377
14.65358,39584
14.66170,39778
14.66983,34823
14.67795,35520
14.68607,42927
14.69420,37692
14.70232,36737
14.71045,35821
14.71857,35430
14.72668,39887
14.73482,41388
14.74293,33741
14.75107,40267
14.75918,32594
14.76730,37118
14.77543,36782
14.78355,40100
14.79167,39592
14.79980,37273
14.80792,35912
14.81605,44563
14.82417,41872
14.83228,39074
14.84042,46280
14.84853,51122
14.85667,56388
14.86478,68359
14.87290,62163
14.88103,67883
14.88915,65283
14.89728,66033
14.90540,67856
14.91352,63831
14.92165,56662
14.92977,53764
14.93788,62037
14.94602,57512
14.95413,57070
14.96227,57413
14.97038,50968
14.97850,52226
14.98663,56369
14.99475,53402
15.00288,49927
15.01100,45316
15.01912,50490
15.02725,50345
15.03537,54504
15.04348,46282
15.05162,53157
15.05973,48274
15.06787,48308
15.07598,48850
15.08410,49203
15.09223,48973
15.10035,50610
15.10848,49221
15.11660,51970
15.12472,49773
15.13285,47561
15.14097,45569
15.14910,45950
15.15722,45840
15.16533,41961
15.17347,43695
15.18158,44999
15.18970,47019
15.19783,40912
15.20595,41991
15.21408,41293
15.22220,43316
15.23032,40640
15.23845,43429
15.24657,41288
15.25470,39399
15.26282,39651
15.27093,40203
15.27907,39312
15.28718,42497
15.29532,36735
15.30343,39427
15.31155,40305
15.31968,34685
15.32780,39106
15.33592,40039
15.34405,36522
15.35217,39925
15.36030,40541
15.36842,38951
15.37653,37602
15.38467,40918
15.39278,39260
15.40092,38963
15.40903,39882
15.41715,34189
15.42528,34643
15.43340,39392
15.44152,38257
15.44965,38405
15.45777,40763
15.46590,38474
15.47402,35082
15.48213,37828
15.49027,38194
15.49838,37902
15.50652,42670
15.51463,41319
15.52275,41757
15.53088,41781
15.53900,45372
15.54713,45116
15.55525,38021
15.56337,40573
15.57150,40271
15.57962,40933
15.58773,39941
15.59587,39343
15.60398,38370
15.61212,38764
15.62023,39292
15.62835,38459
15.63648,36671
15.64460,45103
15.65273,32572
15.66085,34840
15.66897,40235
15.67710,35807
15.68522,37371
15.69335,39047
15.70147,37748
15.70958,34863
15.71772,36404
15.72583,38876
15.73395,40623
15.74208,42622
15.75020,41928
15.75833,39328
15.76645,38264
15.77457,38941
15.78270,38995
15.79082,37922
15.79895,44119
15.80707,39307
15.81518,40512
15.82332,41384
15.83143,41401
15.83955,43828
15.84768,40657
15.85580,38887
15.86393,40806
15.87205,46583
15.88017,46767
15.88830,40995
15.89642,39217
15.90455,39607
15.91267,39563
15.92078,39943
15.92892,42948
15.93703,37467
15.94517,37964
15.95328,42998
15.96140,41405
15.96953,46123
15.97765,38994
15.98577,41103
15.99390,40400
16.00202,40911
16.01015,42685
16.01827,44375
16.02638,44078
16.03452,53006
16.04263,53393
16.05077,58056
16.05888,57074
16.06700,57788
16.07513,53051
16.08325,46977
16.09137,48112
16.09950,48182
16.10762,45433
16.11575,48976
16.12387,48165
16.13198,42701
16.14012,44256
16.14823,44714
16.15637,42388
16.16448,41917
16.17260,44574
16.18073,42140
16.18885,43743
16.19698,40210
16.20510,39906
16.21322,44728
16.22135,44691
16.22947,41204
16.23758,41394
16.24572,39201
16.25383,43668
16.26197,39143
16.27008,44355
16.27820,36721
16.28633,41972
16.29445,40961
16.30258,41656
16.31070,39048
16.31882,42687
16.32695,41825
16.33507,41452
16.34320,39673
16.35132,39519
16.35943,37736
16.36757,42763
16.37568,45438
16.38380,46191
16.39193,39698
16.40005,44662
16.40818,42148
16.41630,42878
16.42442,39428
16.43255,42910
16.44067,41185
16.44880,41379
16.45692,42314
16.46503,39933
16.47317,43034
16.48128,45132
16.48940,40592
16.49753,40971
16.50565,44274
16.51378,42068
16.52190,44446
16.53002,49347
16.53815,44122
16.54627,44176
16.55440,43082
16.56252,43967
16.57063,46285
16.57877,42646
16.58688,41807
16.59502,41741
16.60313,41495
16.61125,44427
16.61938,43873
16.62750,41794
16.63562,39384
16.64375,39682
16.65187,40966
16.66000,41655
16.66812,45329
16.67623,42166
16.68437,41298
16.69248,45060
16.70062,40674
16.70873,45283
16.71685,39030
16.72498,40342
16.73310,38083
16.74123,35846
16.74935,40300
16.75747,37082
16.76560,34486
16.77372,36622
16.78183,37457
16.78997,39274
16.79808,37574
16.80622,36766
16.81433,39869
16.82245,35663
16.83058,38155
16.83870,33677
16.84683,33443
16.85495,37651
16.86307,38821
16.87120,33850
16.87932,36526
16.88743,33922
16.89557,36172
16.90368,38408
16.91182,40359
16.91993,36236
16.92805,35063
16.93618,42030
16.94430,33562
16.95243,39256
16.96055,34808
16.96867,39623
16.97680,36425
16.98492,35545
16.99305,42503
17.00117,37456
17.00928,37098
17.01742,36557
17.02553,34332
17.03365,35004
17.04178,35788
17.04990,37245
17.05803,38522
17.06615,37966
17.07427,41311
17.08240,40692
17.09052,38340
17.09865,33063
17.10677,35562
17.11488,38617
17.12302,35023
17.13113,37068
17.13927,37206
17.14738,35273
17.15550,35592
17.16363,39480
17.17175,33572
17.17987,38378
17.18800,39395
17.19612,34114
17.20425,36843
17.21237,32157
17.22048,40187
17.22862,35929
17.23673,39144
17.24487,36651
17.25298,32109
17.26110,32401
17.26923,34975
17.27735,41433
17.28547,38769
17.29360,34602
17.30172,38794
17.30985,38925
17.31797,34014
17.32608,36196
17.33422,35130
17.34233,37917
17.35047,40288
17.35858,40686
17.36670,39494
17.37483,43422
17.38295,48032
17.39108,50840
17.39920,50632
17.40732,48312
17.41545,43236
17.42357,44346
17.43168,46201
17.43982,41726
17.44793,42715
17.45607,43117
17.46418,43177
17.47230,46218
17.48043,40017
17.48855,41989
17.49668,40210
17.50480,38883
17.51292,40615
17.52105,37812
17.52917,42082
17.53728,39199
17.54542,47874
17.55353,44240
17.56167,46077
17.56978,40975
17.57790,37155
17.58603,39135
17.59415,43341
17.60228,42045
17.61040,42310
17.61852,36906
17.62665,40272
17.63477,38352
17.64290,37476
17.65102,37654
17.65913,38505
17.66727,41661
17.67538,39193
17.68350,46399
17.69163,46204
17.69975,47438
17.70788,47147
17.71600,50746
17.72412,47344
17.73225,46017
17.74037,47990
17.74850,46692
17.75662,44453
17.76473,41699
17.77287,42308
17.78098,40325
17.78912,44733
17.79723,43275
17.80535,43831
17.81348,47176
17.82160,42536
17.82972,42831
17.83785,45530
17.84597,44225
17.85410,42019
17.86222,44694
17.87033,48549
17.87847,41454
17.88658,48236
17.89472,40898
17.90283,37556
17.91095,41892
17.91908,41489
17.92720,37059
17.93532,38091
17.94345,36244
17.95157,34153
17.95970,34509
17.96782,37007
17.97593,33955
17.98407,35601
17.99218,34493
18.00032,37260
18.00843,36584
18.01655,35957
18.02468,34533
18.03280,36559
18.04093,35146
18.04905,32196
18.05717,36018
18.06530,35670
18.07342,41934
18.08153,38697
18.08967,40486
18.09778,42921
18.10592,50322
18.11403,53416
18.12215,56316
18.13028,58235
18.13840,53210
18.14653,54261
18.15465,51439
18.16277,46398
18.17090,49043
18.17902,49230
18.18715,48206
18.19527,44201
18.20338,44426
18.21152,46243
18.21963,43400
18.22775,42877
18.23588,44416
18.24400,46337
18.25213,44944
18.26025,46978
18.26837,44823
18.27650,46545
18.28462,44788
18.29275,44686
18.30087,44766
18.30898,46011
18.31712,43550
18.32523,42750
18.33335,40273
18.34148,37118
18.34960,39433
18.35773,39858
18.36585,41562
18.37397,41233
18.38210,38332
18.39022,39516
18.39835,39184
18.40647,43801
18.41458,37247
18.42272,37197
18.43083,36663
18.43897,38287
18.44708,40807
18.45520,39497
18.46333,40226
18.47145,40081
18.47957,39689
18.48770,36084
18.49582,38112
18.50395,40787
18.51207,38469
18.52018,36848
18.52832,37843
18.53643,40001
18.54457,38489
18.55268,41768
18.56080,40870
18.56893,38237
18.57705,38848
18.58517,40225
18.59330,39485
18.60142,36554
18.60955,38637
18.61767,38759
18.62578,40800
18.63392,40553
18.64203,37569
18.65017,42601
18.65828,37865
18.66640,40521
18.67453,38699
18.68265,38248
18.69078,40615
18.69890,42682
18.70702,38380
18.71515,36170
18.72327,35651
18.73138,38462
18.73952,41248
18.74763,39309
18.75577,36951
18.76388,35909
18.77200,37285
18.78013,38998
18.78825,37328
18.79638,36307
18.80450,39397
18.81262,36989
18.82075,38399
18.82887,38015
18.83700,38882
18.84512,43812
18.85323,35063
18.86137,36023
18.86948,40054
18.87760,39595
18.88573,38302
18.89385,36067
18.90198,39012
18.91010,40503
18.91822,37168
18.92635,41682
18.93447,41368
18.94260,38411
18.95072,38824
18.95883,45042
18.96697,41507
18.97508,38466
18.98322,40099
18.99133,38254
18.99945,36016
19.00758,40338
19.01570,38555
19.02382,43092
19.03195,38662
19.04007,42159
19.04820,36066
19.05632,36717
19.06443,37334
19.07257,38898
19.08068,38475
19.08882,39926
19.09693,39377
19.10505,48372
19.11318,52132
19.12130,60992
19.12942,62680
19.13755,62151
19.14567,65944
19.15380,63193
19.16192,58992
19.17003,58536
19.17817,55624
19.18628,50866
19.19442,54752
19.20253,50767
19.21065,54159
19.21878,50086
19.22690,46523
19.23503,43900
19.24315,42319
19.25127,42264
19.25940,40975
19.26752,42787
19.27563,43210
19.28377,46771
19.29188,51427
19.30002,48986
19.30813,49949
19.31625,53818
19.32438,54651
19.33250,54454
19.34063,50862
19.34875,50134
19.35687,46891
19.36500,46483
19.37312,44374
19.38123,43865
19.38937,46901
19.39748,46749
19.40562,45560
19.41373,41927
19.42185,43044
19.42998,43432
19.43810,46688
19.44623,43432
19.45435,40009
19.46247,40523
19.47060,42507
19.47872,40188
19.48685,47124
19.49497,45016
19.50308,44263
19.51122,59271
19.51933,80121
19.52745,87263
19.53558,93832
19.54370,91384
19.55183,89095
19.55995,72903
19.56807,63699
19.57620,54290
19.58432,43784
19.59245,45333
19.60057,41313
19.60868,44372
19.61682,39713
19.62493,42435
19.63307,41661
19.64118,47754
19.64930,58264
19.65743,89683
19.66555,143962
19.67367,217060
19.68180,292016
19.68992,350222
19.69805,363697
19.70617,322825
19.71428,272599
19.72242,200980
19.73053,154139
19.73867,128742
19.74678,106324
19.75490,88980
19.76303,76973
19.77115,72108
19.77927,68849
19.78740,62083
19.79552,54701
19.80365,56514
19.81177,53432
19.81988,52485
19.82802,48568
19.83613,51499
19.84427,51647
19.85238,47743
19.86050,47669
19.86863,48801
19.87675,56910
19.88488,65228
19.89300,93955
19.90112,146672
19.90925,227111
19.91737,338675
19.92548,447885
19.93362,553787
19.94173,614090
19.94987,624179
19.95798,638479
19.96610,620184
19.97423,593848
19.98235,563365
19.99048,531362
19.99860,512149
20.00672,509928
20.01485,471005
20.02297,462719
20.03110,446061
20.03922,416090
20.04733,377341
20.05547,348101
20.06358,295188
20.07170,240067
20.07983,203419
20.08795,162748
20.09608,138121
20.10420,115121
20.11232,107877
20.12045,105013
20.12857,101378
20.13670,98796
20.14482,97901
20.15293,96635
20.16107,92748
20.16918,89584
20.17730,85994
20.18543,92767
20.19355,85620
20.20168,83526
20.20980,85164
20.21792,78268
20.22605,84724
20.23417,81528
20.24230,81793
20.25042,80662
20.25853,90974
20.26667,101177
20.27478,132650
20.28292,181845
20.29103,234047
20.29915,257602
20.30728,295958
20.31540,274421
20.32352,240868
20.33165,199432
20.33977,159492
20.34790,128792
20.35602,105760
20.36413,91763
20.37227,81841
20.38038,74486
20.38852,75414
20.39663,78777
20.40475,70151
20.41288,68307
20.42100,67789
20.42912,78026
20.43725,80732
20.44537,92242
20.45350,109482
20.46162,127623
20.46973,126378
20.47787,119743
20.48598,109541
20.49412,102558
20.50223,87631
20.51035,84006
20.51848,82520
20.52660,64937
20.53473,70295
20.54285,68177
20.55097,68283
20.55910,60690
20.56722,65313
20.57533,63061
20.58347,63795
20.59158,64704
20.59972,60094
20.60783,62670
20.61595,61728
20.62408,65867
20.63220,62079
20.64033,59969
20.64845,57148
20.65657,60426
20.66470,62591
20.67282,55657
20.68095,57468
20.68907,63928
20.69718,61150
20.70532,60411
20.71343,58147
20.72155,56443
20.72968,58144
20.73780,57948
20.74593,54719
20.75405,58241
20.76217,56042
20.77030,52980
20.77842,58935
20.78655,55855
20.79467,56311
20.80278,56267
20.81092,54893
20.81903,54344
20.82715,53400
20.83528,55976
20.84340,58166
20.85153,55714
20.85965,60528
20.86777,56382
20.87590,54251
20.88402,54174
20.89215,53713
20.90027,54591
20.90838,51156
20.91652,52578
20.92463,53617
20.93277,49661
20.94088,45770
20.94900,51134
20.95713,48241
20.96525,52759
20.97337,50220
20.98150,54569
20.98962,50988
20.99775,52991
21.00587,54043
21.01398,49190
21.02212,49657
21.03023,48005
21.03837,50287
21.04648,52420
21.05460,50816
21.06273,51987
21.07085,46693
21.07898,51158
21.08710,45159
21.09522,53779
21.10335,45540
21.11147,50191
21.11958,45860
21.12772,48964
21.13583,48704
21.14397,51940
21.15208,49055
21.16020,51339
21.16833,49269
21.17645,54161
21.18458,51305
21.19270,52689
21.20082,56272
21.20895,54475
21.21707,48050
21.22518,44658
21.23332,45481
21.24143,52605
21.24957,49388
21.25768,50109
21.26580,49634
21.27393,53732
21.28205,52177
21.29018,56268
21.29830,51360
21.30642,49503
21.31455,55062
21.32267,49885
21.33080,50868
21.33892,47597
21.34703,49602
21.35517,48241
21.36328,46478
21.37140,45515
21.37953,45599
21.38765,43993
21.39578,46115
21.40390,43260
21.41202,46679
21.42015,49285
21.42827,46537
21.43640,45934
21.44452,48497
21.45263,51918
21.46077,51136
21.46888,45434
21.47700,47399
21.48513,47198
21.49325,46390
21.50138,47382
21.50950,40965
21.51762,51292
21.52575,46251
21.53387,46496
21.54200,49451
21.55012,44193
21.55823,44014
21.56637,47637
21.57448,45119
21.58262,52124
21.59073,51561
21.59885,47176
21.60698,50625
21.61510,44118
21.62322,49484
21.63135,60937
21.63947,72322
21.64760,84462
21.65572,101026
21.66383,118901
21.67197,113382
21.68008,96309
21.68822,84748
21.69633,73705
21.70445,62087
21.71258,62507
21.72070,53731
21.72883,49292
21.73695,52365
21.74507,50826
21.75320,51452
21.76132,48275
21.76943,50186
21.77757,54952
21.78568,51476
21.79382,51799
21.80193,48469
21.81005,50376
21.81818,53886
21.82630,54215
21.83443,69733
21.84255,77812
21.85067,91224
21.85880,92928
21.86692,102956
21.87503,96198
21.88317,82963
21.89128,72344
21.89942,55023
21.90753,51199
21.91565,53153
21.92378,48770
21.93190,46531
21.94003,45580
21.94815,45228
21.95627,44398
21.96440,45972
21.97252,44906
21.98065,44054
21.98877,41715
21.99688,45953
22.00502,44579
22.01313,42614
22.02125,49775
22.02938,40650
22.03750,39559
22.04563,42276
22.05375,41257
22.06187,44871
22.07000,41714
22.07812,40647
22.08625,40350
22.09437,46424
22.10248,44290
22.11062,53940
22.11873,49345
22.12687,49517
22.13498,46194
22.14310,44795
22.15123,43029
22.15935,43097
22.16747,45881
22.17560,40819
22.18372,44754
22.19185,43980
22.19997,45799
22.20808,42963
22.21622,41877
22.22433,46560
22.23247,45394
22.24058,47506
22.24870,54161
22.25683,54551
22.26495,55471
22.27307,46084
22.28120,42854
22.28932,46194
22.29745,50813
22.30557,43783
22.31368,41951
22.32182,44476
22.32993,40359
22.33807,40068
22.34618,48243
22.35430,47476
22.36243,51827
22.37055,53856
22.37868,53557
22.38680,50379
22.39492,46526
22.40305,50169
22.41117,53993
22.41928,48773
22.42742,48880
22.43553,49012
22.44367,48812
22.45178,47452
22.45990,44448
22.46803,41560
22.47615,40788
22.48428,44905
22.49240,41344
22.50052,39617
22.50865,40127
22.51677,40745
22.52490,40147
22.53302,38065
22.54113,42957
22.54927,37193
22.55738,41566
22.56550,35376
22.57363,37664
22.58175,41943
22.58988,38471
22.59800,37464
22.60612,40778
22.61425,41817
22.62237,34888
22.63050,37558
22.63862,36987
22.64673,35971
22.65487,40201
22.66298,36899
22.67110,38229
22.67923,36244
22.68735,43015
22.69548,38124
22.70360,37169
22.71172,38932
22.71985,38287
22.72797,39964
22.73610,37437
22.74422,41368
22.75233,41819
22.76047,38966
22.76858,37108
22.77672,38597
22.78483,37207
22.79295,36914
22.80108,35881
22.80920,33396
22.81732,33950
22.82545,39165
22.83357,33207
22.84170,35892
22.84982,32760
22.85793,37895
22.86607,42779
22.87418,42136
22.88232,39844
22.89043,41662
22.89855,42594
22.90668,48462
22.91480,49901
22.92292,62582
22.93105,74630
22.93917,91327
22.94730,109281
22.95542,128914
22.96353,125813
22.97167,126048
22.97978,112611
22.98792,101595
22.99603,96724
23.00415,87232
23.01228,91262
23.02040,73483
23.02853,64830
23.03665,59832
23.04477,50713
23.05290,50357
23.06102,53408
23.06913,40884
23.07727,41897
23.08538,47954
23.09352,43428
23.10163,45163
23.10975,44103
23.11788,43872
23.12600,37111
23.13413,40509
23.14225,42752
23.15037,35521
23.15850,38671
23.16662,39522
23.17475,38791
23.18287,38661
23.19098,42702
23.19912,37217
23.20723,36822
23.21535,35216
23.22348,37650
23.23160,37327
23.23973,38932
23.24785,31923
23.25597,37742
23.26410,39969
23.27222,37786
23.28035,37556
23.28847,35692
23.29658,40595
23.30472,33977
23.31283,38591
23.32095,39240
23.32908,35112
23.33720,39623
23.34533,33107
23.35345,39160
23.36157,40002
23.36970,38384
23.37782,33114
23.38595,38331
23.39407,39405
23.40218,41794
23.41032,39422
23.41843,38679
23.42657,39290
23.43468,38920
23.44280,41764
23.45093,37605
23.45905,36915
23.46717,39081
23.47530,41128
23.48342,37239
23.49155,38753
23.49967,37228
23.50778,41389
23.51592,38522
23.52403,35794
23.53217,35141
23.54028,37582
23.54840,38943
23.55653,39330
23.56465,39052
23.57278,39773
23.58090,38422
23.58902,42433
23.59715,48246
23.60527,42744
23.61338,40285
23.62152,44315
23.62963,48876
23.63777,40035
23.64588,44768
23.65400,48250
23.66213,52878
23.67025,54609
23.67838,65143
23.68650,66020
23.69462,78509
23.70275,87062
23.71087,79664
23.71898,78325
23.72712,74919
23.73523,70078
23.74337,71837
23.75148,76430
23.75960,126157
23.76773,278574
23.77585,703525
23.78398,1652068
23.79210,2919711
23.80022,4079469
23.80835,4541014
23.81647,4434138
23.82460,3816644
23.83272,2837614
23.84083,2037499
23.84897,1446967
23.85708,1072815
23.86520,804648
23.87333,647412
23.88145,528503
23.88958,458193
23.89770,397535
23.90582,355453
23.91395,315430
23.92207,293193
23.93020,264259
23.93832,246334
23.94643,229069
23.95457,223532
23.96268,206305
23.97080,189012
23.97893,185953
23.98705,183191
23.99518,172595
24.00330,164998
24.01142,154361
24.01955,152290
24.02767,146294
24.03580,144996
24.04392,130483
24.05203,135883
24.06017,134212
24.06828,127104
24.07642,124550
24.08453,122919
24.09265,121078
24.10078,114068
24.10890,109296
24.11702,108119
24.12515,111460
24.13327,110311
24.14140,102081
24.14952,115345
24.15763,115692
24.16577,115395
24.17388,109231
24.18202,110654
24.19013,100807
24.19825,93776
24.20638,95998
24.21450,97512
24.22263,96367
24.23075,100281
24.23887,107526
24.24700,105663
24.25512,107407
24.26323,108147
24.27137,92395
24.27948,89563
24.28762,83532
24.29573,85842
24.30385,90840
24.31198,90992
24.32010,84306
24.32823,83213
24.33635,82915
24.34447,81089
24.35260,72750
24.36072,73214
24.36885,77240
24.37697,77794
24.38508,77600
24.39322,74151
24.40133,84597
24.40945,87329
24.41758,97473
24.42570,99285
24.43383,98915
24.44195,92181
24.45007,79528
24.45820,70906
24.46632,66251
24.47445,64220
24.48257,66304
24.49068,77535
24.49882,71904
24.50693,68498
24.51505,79448
24.52318,83266
24.53130,93977
24.53943,96085
24.54755,92754
24.55567,85526
24.56380,82241
24.57192,79772
24.58005,73668
24.58817,72819
24.59628,71999
24.60442,77087
24.61253,71053
24.62067,76051
24.62878,75291
24.63690,77998
24.64503,76668
24.65315,76947
24.66127,74901
24.66940,73564
24.67752,68406
24.68565,76202
24.69377,72640
24.70188,69109
24.71002,69319
24.71813,58777
24.72627,63647
24.73438,62920
24.74250,58972
24.75063,55680
24.75875,57668
24.76687,58193
24.77500,51009
24.78312,58374
24.79125,54491
24.79937,53467
24.80748,56651
24.81562,57433
24.82373,55851
24.83187,53140
24.83998,49034
24.84810,52306
24.85623,53379
24.86435,51860
24.87248,50757
24.88060,54153
24.88872,55871
24.89685,58448
24.90497,51701
24.91308,52584
24.92122,52590
24.92933,53687
24.93747,53916
24.94558,50265
24.95370,49891
24.96183,44004
24.96995,50866
24.97808,51994
24.98620,51852
24.99432,48360
25.00245,47871
25.01057,49975
25.01870,50707
25.02682,52106
25.03493,48812
25.04307,45874
25.05118,50418
25.05930,44946
25.06743,47343
25.07555,47119
25.08368,49833
25.09180,49584
25.09992,48048
25.10805,51236
25.11617,50858
25.12430,47911
25.13242,53628
25.14053,66633
25.14867,76959
25.15678,89845
25.16490,91455
25.17303,105561
25.18115,102033
25.18928,96015
25.19740,82726
25.20552,69773
25.21365,66294
25.22177,61583
25.22990,63687
25.23802,55057
25.24613,55221
25.25427,55728
25.26238,59708
25.27052,52473
25.27863,49214
25.28675,49952
25.29488,54584
25.30300,55634
25.31112,63754
25.31925,62650
25.32737,76004
25.33550,71027
25.34362,70038
25.35173,73587
25.35987,58957
25.36798,56032
25.37612,54475
25.38423,49958
25.39235,49220
25.40048,45385
25.40860,44633
25.41673,47834
25.42485,46357
25.43297,51951
25.44110,48983
25.44922,44598
25.45733,43604
25.46547,47932
25.47358,46013
25.48172,48170
25.48983,53099
25.49795,47215
25.50608,51762
25.51420,54393
25.52233,47450
25.53045,43261
25.53857,44788
25.54670,46176
25.55482,43373
25.56293,46295
25.57107,45653
25.57918,42974
25.58732,43868
25.59543,37510
25.60355,37561
25.61168,44295
25.61980,44518
25.62793,43595
25.63605,44745
25.64417,45249
25.65230,40773
25.66042,38518
25.66855,42395
25.67667,42046
25.68478,48435
25.69292,41925
25.70103,39790
25.70915,40400
25.71728,42983
25.72540,41367
25.73353,42359
25.74165,36771
25.74977,41102
25.75790,39945
25.76602,39763
25.77415,39691
25.78227,39453
25.79038,40858
25.79852,41382
25.80663,38606
25.81475,43067
25.82288,40880
25.83100,44935
25.83913,42461
25.84725,45613
25.85537,43279
25.86350,39232
25.87162,44520
25.87975,46513
25.88787,49879
25.89598,42527
25.90412,45683
25.91223,40184
25.92037,42970
25.92848,37734
25.93660,41891
25.94473,40534
25.95285,44095
25.96097,37262
25.96910,42043
25.97722,42104
25.98535,39824
25.99347,40826
26.00158,41838
26.00972,41074
26.01783,39288
26.02597,50544
26.03408,42104
26.04220,40118
26.05033,40235
26.05845,42524
26.06658,39252
26.07470,38764
26.08282,39551
26.09095,37820
26.09907,41110
26.10718,40118
26.11532,41339
26.12343,40426
26.13157,50488
26.13968,55747
26.14780,60920
26.15593,61220
26.16405,60678
26.17218,63035
26.18030,59471
26.18842,52912
26.19655,53301
26.20467,48349
26.21278,49697
26.22092,46893
26.22903,45530
26.23717,42460
26.24528,44704
26.25340,40756
26.26153,43234
26.26965,45515
26.27778,42753
26.28590,38175
26.29402,43006
26.30215,45264
26.31027,36647
26.31840,42798
26.32652,39240
26.33463,39211
26.34277,40713
26.35088,40543
26.35900,45310
26.36713,38761
26.37525,39607
26.38338,49268
26.39150,47203
26.39962,58440
26.40775,63205
26.41587,75086
26.42400,80094
26.43212,74872
26.44023,71556
26.44837,69728
26.45648,62512
26.46462,51903
26.47273,47720
26.48085,50246
26.48898,42484
26.49710,43717
26.50522,42758
26.51335,38756
26.52147,36678
26.52960,41766
26.53772,39700
26.54583,37075
26.55397,40387
26.56208,39149
26.57022,39650
26.57833,40722
26.58645,42473
26.59458,37802
26.60270,38685
26.61082,37126
26.61895,38627
26.62707,36610
26.63520,40504
26.64332,37108
26.65143,37867
26.65957,40282
26.66768,36568
26.67582,39395
26.68393,38996
26.69205,39464
26.70018,40210
26.70830,40866
26.71643,42455
26.72455,40225
26.73267,40793
26.74080,42067
26.74892,41396
26.75703,37251
26.76517,38467
26.77328,43220
26.78142,37089
26.78953,36894
26.79765,42575
26.80578,42511
26.81390,40634
26.82203,41655
26.83015,44838
26.83827,43951
26.84640,44897
26.85452,40494
26.86265,47356
26.87077,44694
26.87888,45677
26.88702,40774
26.89513,45490
26.90325,47020
26.91138,42179
26.91950,41294
26.92763,42368
26.93575,42492
26.94387,43000
26.95200,40706
26.96012,50499
26.96825,55702
26.97637,74721
26.98448,126214
26.99262,240254
27.00073,454895
27.00885,836785
27.01698,1404932
27.02510,2136964
27.03323,2645287
27.04135,2714166
27.04947,2543840
27.05760,2031635
27.06572,1555051
27.07385,1106550
27.08197,839745
27.09008,646309
27.09822,513566
27.10633,421104
27.11447,354650
27.12258,327964
27.13070,276529
27.13883,246562
27.14695,229303
27.15507,209296
27.16320,191566
27.17132,184601
27.17945,170269
27.18757,166498
27.19568,153900
27.20382,144649
27.21193,149697
27.22007,140911
27.22818,122264
27.23630,128898
27.24443,121029
27.25255,123215
27.26067,105831
27.26880,102864
27.27692,106717
27.28505,99392
27.29317,91642
27.30128,91518
27.30942,89483
27.31753,94474
27.32567,87318
27.33378,89197
27.34190,86216
27.35003,79613
27.35815,85386
27.36628,79342
27.37440,81282
27.38252,81698
27.39065,77622
27.39877,78536
27.40688,77974
27.41502,73755
27.42313,71710
27.43127,68606
27.43938,71283
27.44750,66347
27.45563,69259
27.46375,69422
27.47188,67829
27.48000,74198
27.48812,64813
27.49625,64974
27.50437,68085
27.51250,61423
27.52062,68210
27.52873,68707
27.53687,65614
27.54498,70643
27.55310,66096
27.56123,64452
27.56935,64547
27.57748,64656
27.58560,62648
27.59372,60473
27.60185,60715
27.60997,58723
27.61810,59089
27.62622,57628
27.63433,59249
27.64247,59374
27.65058,58697
27.65870,58999
27.66683,58822
27.67495,59662
27.68308,54301
27.69120,54610
27.69932,51993
27.70745,56741
27.71557,57144
27.72370,53421
27.73182,55234
27.73993,52254
27.74807,54408
27.75618,50353
27.76432,52650
27.77243,50238
27.78055,55341
27.78868,49415
27.79680,48451
27.80492,51086
27.81305,54185
27.82117,47892
27.82930,49990
27.83742,51097
27.84553,53931
27.85367,48502
27.86178,53572
27.86992,52593
27.87803,52918
27.88615,49752
27.89428,47028
27.90240,54163
27.91053,54584
27.91865,49829
27.92677,47777
27.93490,49217
27.94302,46951
27.95113,49975
27.95927,45969
27.96738,45883
27.97552,44619
27.98363,46021
27.99175,47045
27.99988,45304
28.00800,48830
28.01613,42034
28.02425,44869
28.03237,43003
28.04050,52412
28.04862,49292
28.05673,47270
28.06487,50812
28.07298,53601
28.08112,52979
28.08923,48318
28.09735,52224
28.10548,45686
28.11360,45750
28.12173,42884
28.12985,46784
28.13797,44057
28.14610,42705
28.15422,40715
28.16235,43812
28.17047,41713
28.17858,38939
28.18672,42719
28.19483,42758
28.20295,46133
28.21108,49129
28.21920,47285
28.22733,49903
28.23545,55166
28.24357,49560
28.25170,52014
28.25982,52456
28.26795,45565
28.27607,46124
28.28418,47602
28.29232,47980
28.30043,51961
28.30855,57765
28.31668,78171
28.32480,102563
28.33293,141485
28.34105,193844
28.34917,257668
28.35730,325214
28.36542,407004
28.37355,442002
28.38167,493298
28.38978,492771
28.39792,485555
28.40603,465667
28.41417,427732
28.42228,402087
28.43040,345755
28.43853,306532
28.44665,273435
28.45477,240543
28.46290,219265
28.47102,193567
28.47915,170808
28.48727,164751
28.49538,147425
28.50352,140886
28.51163,128114
28.51977,124402
28.52788,117723
28.53600,116248
28.54413,104658
28.55225,101771
28.56038,102514
28.56850,95355
28.57662,96874
28.58475,91574
28.59287,89087
28.60098,91360
28.60912,82316
28.61723,83071
28.62537,83032
28.63348,77177
28.64160,79705
28.64973,81487
28.65785,91275
28.66598,88845
28.67410,96592
28.68222,91032
28.69035,86206
28.69847,81596
28.70658,79328
28.71472,75542
28.72283,69950
28.73097,72878
28.73908,76091
28.74720,66265
28.75533,73741
28.76345,65103
28.77158,66372
28.77970,77345
28.78782,81194
28.79595,76535
28.80407,78419
28.81220,70462
28.82032,73809
28.82843,68895
28.83657,65174
28.84468,65128
28.85280,65611
28.86093,66972
28.86905,60203
28.87718,61715
28.88530,62309
28.89342,60598
28.90155,57632
28.90967,59514
28.91780,58916
28.92592,57319
28.93403,61570
28.94217,58868
28.95028,62244
28.95842,63884
28.96653,60340
28.97465,61327
28.98278,64909
28.99090,60090
28.99902,59238
29.00715,61308
29.01527,56848
29.02340,61036
29.03152,58050
29.03963,62945
29.04777,54391
29.05588,56361
29.06402,55373
29.07213,56446
29.08025,59406
29.08838,54730
29.09650,53463
29.10462,55758
29.11275,53846
29.12087,53484
29.12900,48810
29.13712,52564
29.14523,53157
29.15337,54669
29.16148,60606
29.16962,53712
29.17773,56629
29.18585,56866
29.19398,54432
29.20210,56563
29.21023,56656
29.21835,54140
29.22647,51314
29.23460,52369
29.24272,53297
29.25083,60379
29.25897,51587
29.26708,51842
29.27522,49455
29.28333,51178
29.29145,55146
29.29958,52120
29.30770,48804
29.31583,52077
29.32395,50192
29.33207,48673
29.34020,49633
29.34832,49030
29.35643,52380
29.36457,56602
29.37268,49494
29.38082,53048
29.38893,49408
29.39705,47755
29.40518,47924
29.41330,47634
29.42143,49616
29.42955,55159
29.43767,49298
29.44580,51039
29.45392,49319
29.46205,49756
29.47017,50056
29.47828,47234
29.48642,49284
29.49453,51690
29.50265,56794
29.51078,60319
29.51890,60734
29.52703,62961
29.53515,59110
29.54327,63319
29.55140,51549
29.55952,53840
29.56765,50131
29.57577,47211
29.58388,47565
29.59202,48155
29.60013,47736
29.60827,44477
29.61638,47524
29.62450,46941
29.63263,45578
29.64075,49076
29.64887,50761
29.65700,48250
29.66512,46287
29.67325,41965
29.68137,38968
29.68948,42275
29.69762,46426
29.70573,44729
29.71387,41617
29.72198,46750
29.73010,42383
29.73823,48956
29.74635,44022
29.75448,45210
29.76260,44462
29.77072,48402
29.77885,42789
29.78697,45081
29.79508,40077
29.80322,41777
29.81133,42622
29.81947,41400
29.82758,41313
29.83570,40217
29.84383,41668
29.85195,40425
29.86008,39607
29.86820,41108
29.87632,44684
29.88445,50335
29.89257,56512
29.90068,64104
29.90882,64366
29.91693,71266
29.92507,72254
29.93318,68655
29.94130,61840
29.94943,59587
29.95755,63255
29.96568,73136
29.97380,75146
29.98192,96190
29.99005,109670
29.99817,127948
30.00630,138936
30.01442,157070
30.02253,178377
30.03067,192734
30.03878,199023
30.04690,197681
30.05503,202186
30.06315,197464
30.07128,194080
30.07940,183895
30.08752,181570
30.09565,166578
30.10377,159972
30.11190,144012
30.12002,134973
30.12813,129348
30.13627,123577
30.14438,109642
30.15250,108242
30.16063,102364
30.16875,93046
30.17688,94035
30.18500,88528
30.19312,85034
30.20125,90291
30.20937,77489
30.21750,75794
30.22562,76273
30.23373,72006
30.24187,72352
30.24998,65077
30.25812,66288
30.26623,63582
30.27435,66461
30.28248,59412
30.29060,60828
30.29872,65627
30.30685,56464
30.31497,59429
30.32310,53871
30.33122,60512
30.33933,55373
30.34747,58934
30.35558,56562
30.36372,54801
30.37183,50578
30.37995,55828
30.38808,51044
30.39620,51882
30.40433,51843
30.41245,50038
30.42057,54414
30.42870,50727
30.43682,51596
30.44493,51214
30.45307,48290
30.46118,51213
30.46932,50485
30.47743,49003
30.48555,49070
30.49368,46336
30.50180,50644
30.50993,50519
30.51805,50352
30.52617,52302
30.53430,54310
30.54242,45599
30.55053,53150
30.55867,45525
30.56678,44484
30.57492,44492
30.58303,45011
30.59115,46125
30.59928,49078
30.60740,47183
30.61553,43304
30.62365,45754
30.63177,42851
30.63990,48017
30.64802,54029
30.65615,51592
30.66427,47028
30.67238,45368
30.68052,43925
30.68863,44018
30.69675,46750
30.70488,46902
30.71300,45939
30.72113,43225
30.72925,41208
30.73737,47246
30.74550,45064
30.75362,42462
30.76175,43932
30.76987,42851
30.77798,42233
30.78612,48282
30.79423,47736
30.80237,47797
30.81048,49450
30.81860,50730
30.82673,49531
30.83485,52007
30.84297,45842
30.85110,46962
30.85922,44083
30.86735,44762
30.87547,39924
30.88358,42517
30.89172,45740
30.89983,45347
30.90797,44436
30.91608,43616
30.92420,39708
30.93233,44206
30.94045,42248
30.94857,45244
30.95670,42662
30.96482,44907
30.97295,44898
30.98107,40999
30.98918,43182
30.99732,44778
31.00543,42650
31.01357,45488
31.02168,43353
31.02980,42194
31.03793,44586
31.04605,47226
31.05418,51387
31.06230,55907
31.07042,47189
31.07855,51266
31.08667,49692
31.09478,58578
31.10292,65226
31.11103,67610
31.11917,78413
31.12728,76683
31.13540,73473
31.14353,59939
31.15165,56811
31.15978,51786
31.16790,50890
31.17602,54475
31.18415,50465
31.19227,52276
31.20038,55109
31.20852,62134
31.21663,66850
31.22477,68260
31.23288,77776
31.24100,72815
31.24913,72138
31.25725,64465
31.26538,60844
31.27350,56394
31.28162,50170
31.28975,49499
31.29787,41454
31.30600,47216
31.31412,47359
31.32223,45457
31.33037,41559
31.33848,41415
31.34660,41644
31.35473,41048
31.36285,42209
31.37098,43871
31.37910,41251
31.38722,36694
31.39535,44281
31.40347,43391
31.41160,41108
31.41972,45410
31.42783,44244
31.43597,42638
31.44408,51739
31.45222,45345
31.46033,47150
31.46845,42741
31.47658,43235
31.48470,38732
31.49282,40495
31.50095,46108
31.50907,38725
31.51720,40703
31.52532,41472
31.53343,42990
31.54157,39963
31.54968,41117
31.55782,48384
31.56593,41475
31.57405,43425
31.58218,39702
31.59030,42532
31.59842,39172
31.60655,39632
31.61467,40336
31.62280,43773
31.63092,42670
31.63903,37809
31.64717,39838
31.65528,45103
31.66342,43675
31.67153,40171
31.67965,43376
31.68778,45279
31.69590,38724
31.70403,41378
31.71215,40649
31.72027,39031
31.72840,45256
31.73652,44613
31.74463,42954
31.75277,40784
31.76088,39996
31.76902,40129
31.77713,38390
31.78525,48168
31.79338,44318
31.80150,43952
31.80963,46021
31.81775,42817
31.82587,44846
31.83400,45138
31.84212,43266
31.85025,50143
31.85837,45305
31.86648,49116
31.87462,49872
31.88273,49919
31.89085,47599
31.89898,50383
31.90710,53115
31.91523,52557
31.92335,57632
31.93147,63163
31.93960,72765
31.94772,79969
31.95585,81905
31.96397,108862
31.97208,106388
31.98022,110000
31.98833,121827
31.99645,115980
32.00458,118036
32.01270,111075
32.02083,105698
32.02895,96509
32.03707,90398
32.04520,93385
32.05332,91277
32.06145,78811
32.06957,78692
32.07768,76811
32.08582,75294
32.09393,70417
32.10207,67895
32.11018,68760
32.11830,72083
32.12643,66166
32.13455,61575
32.14267,60917
32.15080,60407
32.15892,56555
32.16705,53200
32.17517,54480
32.18328,54976
32.19142,54041
32.19953,53980
32.20767,52975
32.21578,54190
32.22390,43673
32.23203,48141
32.24015,49990
32.24827,48770
32.25640,51377
32.26452,50642
32.27265,46181
32.28077,52653
32.28888,50871
32.29702,47648
32.30513,48694
32.31327,48743
32.32138,45811
32.32950,45824
32.33763,45797
32.34575,46634
32.35388,49085
32.36200,47709
32.37012,49312
32.37825,47158
32.38637,51269
32.39448,45289
32.40262,49663
32.41073,48633
32.41887,45468
32.42698,44699
32.43510,44158
32.44323,47078
32.45135,44114
32.45948,42283
32.46760,45264
32.47572,44425
32.48385,46248
32.49197,47084
32.50010,43821
32.50822,44385
32.51633,45012
32.52447,44430
32.53258,44464
32.54070,43989
32.54883,47678
32.55695,45839
32.56508,41628
32.57320,44923
32.58132,43938
32.58945,44653
32.59757,42622
32.60570,40442
32.61382,42141
32.62193,42427
32.63007,42713
32.63818,40903
32.64630,41419
32.65443,42054
32.66255,43053
32.67068,46812
32.67880,47591
32.68692,49764
32.69505,55108
32.70317,53726
32.71130,53468
32.71942,48988
32.72753,48568
32.73567,53524
32.74378,51812
32.75192,49428
32.76003,40981
32.76815,43621
32.77628,39990
32.78440,48092
32.79252,44527
32.80065,39753
32.80877,43632
32.81690,41259
32.82502,47789
32.83313,41331
32.84127,44494
32.84938,40435
32.85752,39725
32.86563,39813
32.87375,41597
32.88188,41090
32.89000,41529
32.89813,43706
32.90625,43145
32.91437,39935
32.92250,42223
32.93062,44425
32.93873,48656
32.94687,42242
32.95498,41301
32.96312,38898
32.97123,43528
32.97935,43915
32.98748,44392
32.99560,40132
33.00373,47443
33.01185,45874
33.01997,42710
33.02810,49279
33.03622,43631
33.04433,39598
33.05247,38659
33.06058,46077
33.06872,41100
33.07683,43862
33.08495,41942
33.09308,42402
33.10120,42807
33.10933,46597
33.11745,51580
33.12557,59822
33.13370,59804
33.14182,59526
33.14995,55242
33.15807,54503
33.16618,52587
33.17432,43954
33.18243,45699
33.19055,48122
33.19868,48393
33.20680,44278
33.21493,42676
33.22305,47510
33.23117,49011
33.23930,41808
33.24742,40407
33.25555,45813
33.26367,43787
33.27178,40743
33.27992,42892
33.28803,45715
33.29617,47204
33.30428,40794
33.31240,41565
33.32053,51124
33.32865,47178
33.33677,40825
33.34490,38745
33.35302,40410
33.36115,42188
33.36927,42376
33.37738,41005
33.38552,41351
33.39363,42238
33.40177,46867
33.40988,41984
33.41800,45569
33.42613,45840
33.43425,36748
33.44237,40661
33.45050,39893
33.45862,42590
33.46675,42924
33.47487,43766
33.48298,46011
33.49112,38614
33.49923,38001
33.50737,41505
33.51548,41618
33.52360,41265
33.53173,39456
33.53985,40637
33.54798,40166
33.55610,41510
33.56422,41624
33.57235,42219
33.58047,46626
33.58858,43510
33.59672,43264
33.60483,38177
33.61297,42059
33.62108,40680
33.62920,38417
33.63733,41162
33.64545,42430
33.65358,43120
33.66170,41315
33.66982,41871
33.67795,41102
33.68607,42972
33.69418,40451
33.70232,49692
33.71043,41690
33.71857,41604
33.72668,38862
33.73480,34473
33.74293,39949
33.75105,40218
33.75918,40555
33.76730,36755
33.77542,43519
33.78355,40056
33.79167,44190
33.79980,39987
33.80792,41978
33.81603,43129
33.82417,37164
33.83228,44541
33.84040,41399
33.84853,41263
33.85665,44277
33.86478,43759
33.87290,40224
33.88102,46743
33.88915,43939
33.89727,42519
33.90540,43518
33.91352,45777
33.92163,39099
33.92977,43209
33.93788,41433
33.94602,43109
33.95413,46238
33.96225,51201
33.97038,46035
33.97850,44175
33.98662,42242
33.99475,43886
34.00287,43423
34.01100,44784
34.01912,41755
34.02723,45520
34.03537,46629
34.04348,42995
34.05162,44865
34.05973,42792
34.06785,43385
34.07598,44707
34.08410,43390
34.09222,41097
34.10035,41252
34.10847,47580
34.11660,41706
34.12472,44654
34.13283,43487
34.14097,45332
34.14908,39955
34.15722,38303
34.16533,42654
34.17345,44206
34.18158,44224
34.18970,44463
34.19783,45086
34.20595,42128
34.21407,42266
34.22220,40975
34.23032,42357
34.23843,43273
34.24657,40217
34.25468,42053
34.26282,39514
34.27093,44688
34.27905,41858
34.28718,38808
34.29530,39423
34.30343,38790
34.31155,41020
34.31967,45035
34.32780,43519
34.33592,42566
34.34405,41228
34.35217,41390
34.36028,39732
34.36842,40897
34.37653,38490
34.38465,43559
34.39278,43010
34.40090,46641
34.40903,43156
34.41715,43901
34.42527,46451
34.43340,39448
34.44152,38891
34.44965,43358
34.45777,44538
34.46588,45788
34.47402,45705
34.48213,44127
34.49025,42230
34.49838,41211
34.50650,38785
34.51463,44447
34.52275,49945
34.53087,49192
34.53900,57929
34.54712,63514
34.55525,72993
34.56337,83552
34.57148,87522
34.57962,87435
34.58773,84055
34.59587,84856
34.60398,76662
34.61210,72476
34.62023,67798
34.62835,68614
34.63647,67286
34.64460,59547
34.65272,56434
34.66085,53975
34.66897,53363
34.67708,55614
34.68522,55712
34.69333,54069
34.70147,55902
34.70958,49275
34.71770,49786
34.72583,53034
34.73395,52948
34.74207,51921
34.75020,50771
34.75832,47328
34.76645,46962
34.77457,46398
34.78268,45089
34.79082,51039
34.79893,48078
34.80707,49024
34.81518,47687
34.82330,49346
34.83143,44509
34.83955,48831
34.84768,48663
34.85580,49709
34.86392,43680
34.87205,45993
34.88017,43857
34.88828,48065
34.89642,44969
34.90453,44336
34.91267,42443
34.92078,47410
34.92890,46234
34.93703,48663
34.94515,51734
34.95328,47944
34.96140,55200
34.96952,56374
34.97765,58635
34.98577,65960
34.99390,61513
35.00202,61316
35.01013,59424
35.01827,58402
35.02638,57372
35.03450,51692
35.04263,51258
35.05075,46966
35.05888,47781
35.06700,52602
35.07512,48703
35.08325,50772
35.09137,46173
35.09950,50870
35.10762,46007
35.11573,45083
35.12387,50150
35.13198,46304
35.14012,51882
35.14823,46626
35.15635,47509
35.16448,52426
35.17260,55495
35.18072,50039
35.18885,52104
35.19697,52344
35.20510,48879
35.21322,45805
35.22133,43981
35.22947,47229
35.23758,44247
35.24572,45578
35.25383,45010
35.26195,45871
35.27008,49202
35.27820,59740
35.28632,51405
35.29445,51435
35.30257,50676
35.31070,46867
35.31882,47765
35.32693,47406
35.33507,49724
35.34318,44889
35.35132,49288
35.35943,46744
35.36755,45753
35.37568,44635
35.38380,45306
35.39193,47517
35.40005,46483
35.40817,44948
35.41630,45161
35.42442,48084
35.43253,48973
35.44067,49882
35.44878,50153
35.45692,51596
35.46503,54416
35.47315,59086
35.48128,54043
35.48940,49790
35.49753,54973
35.50565,54392
35.51377,52089
35.52190,48680
35.53002,47914
35.53813,46796
35.54627,51346
35.55438,47900
35.56252,47690
35.57063,50610
35.57875,48381
35.58688,52375
35.59500,52178
35.60313,49600
35.61125,51151
35.61937,49511
35.62750,51645
35.63562,50558
35.64375,48964
35.65187,47453
35.65998,47049
35.66812,49409
35.67623,51028
35.68435,49338
35.69248,55618
35.70060,54741
35.70873,56061
35.71685,54191
35.72497,52723
35.73310,50916
35.74122,51970
35.74935,50758
35.75747,53554
35.76558,48886
35.77372,47644
35.78183,50813
35.78997,50208
35.79808,46667
35.80620,48114
35.81433,49591
35.82245,50432
35.83057,46812
35.83870,48202
35.84682,48153
35.85495,50336
35.86307,49777
35.87118,46722
35.87932,48579
35.88743,46371
35.89557,46549
35.90368,50116
35.91180,49535
35.91993,50817
35.92805,42917
35.93617,49811
35.94430,46708
35.95242,47732
35.96055,46858
35.96867,48860
35.97678,49108
35.98492,43693
35.99303,47487
36.00117,49698
36.00928,53302
36.01740,53834
36.02553,53412
36.03365,53529
36.04178,53682
36.04990,51404
36.05802,53456
36.06615,50774
36.07427,55276
36.08238,50496
36.09052,49235
36.09863,51944
36.10677,48272
36.11488,49659
36.12300,46512
36.13113,46876
36.13925,48671
36.14738,47664
36.15550,48949
36.16362,49521
36.17175,49902
36.17987,45758
36.18800,50303
36.19612,54730
36.20423,51825
36.21237,51536
36.22048,50174
36.22860,46635
36.23673,51985
36.24485,54512
36.25298,45980
36.26110,52132
36.26922,46500
36.27735,50476
36.28547,50827
36.29360,55837
36.30172,48863
36.30983,49673
36.31797,58832
36.32608,54302
36.33420,53524
36.34233,55920
36.35045,60642
36.35858,60582
36.36670,53398
36.37482,51504
36.38295,51417
36.39107,51378
36.39920,54657
36.40732,56009
36.41543,50996
36.42357,53040
36.43168,53203
36.43982,48534
36.44793,51487
36.45605,48497
36.46418,50910
36.47230,49473
36.48042,51138
36.48855,46826
36.49667,47598
36.50480,49375
36.51292,48605
36.52103,53352
36.52917,50236
36.53728,47750
36.54542,46532
36.55353,45901
36.56165,47544
36.56978,51136
36.57790,50482
36.58602,50930
36.59415,48980
36.60227,50600
36.61040,47701
36.61852,50232
36.62663,56568
36.63477,52340
36.64288,57387
36.65102,54233
36.65913,50422
36.66725,51348
36.67538,52797
36.68350,51263
36.69163,53976
36.69975,53371
36.70787,51546
36.71600,49909
36.72412,51768
36.73223,53398
36.74037,54502
36.74848,55568
36.75662,52623
36.76473,50485
36.77285,50926
36.78098,52698
36.78910,56626
36.79723,47343
36.80535,51158
36.81347,54037
36.82160,51839
36.82972,53775
36.83785,53873
36.84597,47322
36.85408,48976
36.86222,54377
36.87033,53547
36.87845,48675
36.88658,51537
36.89470,50954
36.90283,52479
36.91095,47646
36.91907,52830
36.92720,45680
36.93532,52494
36.94345,52288
36.95157,51641
36.95968,48216
36.96782,50886
36.97593,49859
36.98405,49837
36.99218,58771
37.00030,57896
37.00843,51627
37.01655,51654
37.02467,51858
37.03280,53723
37.04092,50617
37.04905,54046
37.05717,52761
37.06528,52405
37.07342,52155
37.08153,50450
37.08967,51018
37.09778,54936
37.10590,49444
37.11403,53727
37.12215,56844
37.13027,54424
37.13840,54101
37.14652,57888
37.15465,56387
37.16277,48938
37.17088,56037
37.17902,55987
37.18713,53760
37.19527,54528
37.20338,55980
37.21150,58648
37.21963,50532
37.22775,56728
37.23588,57407
37.24400,55375
37.25212,55652
37.26025,54902
37.26837,54670
37.27648,55467
37.28462,56795
37.29273,55534
37.30087,52684
37.30898,57071
37.31710,59048
37.32523,51109
37.33335,57386
37.34148,55597
37.34960,64182
37.35772,65375
37.36585,71641
37.37397,73285
37.38208,81418
37.39022,75014
37.39833,76149
37.40647,71424
37.41458,73020
37.42270,67698
37.43083,65752
37.43895,62543
37.44708,63191
37.45520,58019
37.46332,60511
37.47145,59078
37.47957,65230
37.48770,61083
