Z:\data\JTB-E02\BACandBLUE\JTB-E02-208-15.D Thu Mar 14 13:58:15 2019
Start of data points
2.09535,60322
2.10348,62480
2.11160,56363
2.11972,53226
2.12785,58762
2.13597,57238
2.14410,54614
2.15222,55443
2.16033,52171
2.16847,53226
2.17658,56194
2.18470,55197
2.19283,51883
2.20095,48324
2.20908,44843
2.21720,47884
2.22532,46483
2.23345,46812
2.24157,46990
2.24970,47474
2.25782,46175
2.26593,61312
2.27407,500203
2.28218,2485604
2.29030,2226718
2.29843,815580
2.30655,526206
2.31468,428921
2.32280,374695
2.33092,319747
2.33905,292002
2.34717,271281
2.35530,230137
2.36342,209865
2.37153,204395
2.37967,204110
2.38778,188589
2.39592,176258
2.40403,167884
2.41215,162905
2.42028,161380
2.42840,178231
2.43652,152727
2.44465,145412
2.45277,139006
2.46090,139415
2.46902,135244
2.47713,133027
2.48527,130620
2.49338,134475
2.50152,143516
2.50963,131744
2.51775,129598
2.52588,121759
2.53400,120538
2.54212,118628
2.55025,130232
2.55837,475581
2.56650,1560182
2.57462,1342094
2.58273,650221
2.59087,435437
2.59898,369080
2.60712,366298
2.61523,550641
2.62335,652532
2.63148,444765
2.63960,321209
2.64773,277050
2.65585,249198
2.66397,213075
2.67210,201838
2.68022,200260
2.68833,187136
2.69647,179804
2.70458,165711
2.71272,163731
2.72083,157940
2.72895,156727
2.73708,151216
2.74520,152874
2.75333,154625
2.76145,144806
2.76957,147504
2.77770,139600
2.78582,141846
2.79395,156455
2.80207,151251
2.81018,148068
2.81832,145701
2.82643,136561
2.83455,137022
2.84268,140944
2.85080,137751
2.85893,125774
2.86705,123585
2.87517,124708
2.88330,124014
2.89142,117681
2.89955,119314
2.90767,120505
2.91578,113457
2.92392,115221
2.93203,107954
2.94015,110494
2.94828,111681
2.95640,110276
2.96453,113140
2.97265,106125
2.98077,115282
2.98890,103601
2.99702,111469
3.00515,108738
3.01327,106849
3.02138,112646
3.02952,108840
3.03763,104492
3.04577,108164
3.05388,97017
3.06200,97652
3.07013,99474
3.07825,102176
3.08637,122984
3.09450,233997
3.10262,711357
3.11075,2427399
3.11887,4253619
3.12698,3385039
3.13512,2114247
3.14323,1555717
3.15137,1255437
3.15948,1037478
3.16760,836483
3.17573,714323
3.18385,599791
3.19198,520557
3.20010,469313
3.20822,404431
3.21635,379953
3.22447,360694
3.23258,322080
3.24072,293241
3.24883,260622
3.25697,247225
3.26508,225019
3.27320,213181
3.28133,210194
3.28945,248078
3.29758,579005
3.30570,1755804
3.31382,3649855
3.32195,4470300
3.33007,3648249
3.33818,2395770
3.34632,1646083
3.35443,1258026
3.36257,1021442
3.37068,847025
3.37880,729415
3.38693,651451
3.39505,575552
3.40318,523764
3.41130,486210
3.41942,444188
3.42755,419878
3.43567,403787
3.44380,376796
3.45192,365256
3.46003,348472
3.46817,341964
3.47628,353642
3.48440,348509
3.49253,348291
3.50065,318974
3.50878,294351
3.51690,290339
3.52502,270413
3.53315,257453
3.54127,259985
3.54940,248537
3.55752,238919
3.56563,231806
3.57377,226856
3.58188,224719
3.59000,226534
3.59813,227808
3.60625,218686
3.61438,216413
3.62250,213663
3.63062,212677
3.63875,210426
3.64687,209681
3.65500,202807
3.66312,194486
3.67123,187171
3.67937,188189
3.68748,194998
3.69562,189709
3.70373,185197
3.71185,184558
3.71998,177752
3.72810,177214
3.73622,172719
3.74435,175149
3.75247,176529
3.76060,175329
3.76872,165744
3.77683,168858
3.78497,170134
3.79308,168598
3.80122,235666
3.80933,653838
3.81745,1905711
3.82558,3068119
3.83370,2652399
3.84183,1742628
3.84995,1252843
3.85807,1000570
3.86620,836178
3.87432,743950
3.88243,651729
3.89057,592377
3.89868,526845
3.90682,494643
3.91493,456672
3.92305,429340
3.93118,397593
3.93930,385781
3.94743,364716
3.95555,410572
3.96367,580479
3.97180,835610
3.97992,856944
3.98803,663347
3.99617,511410
4.00428,588425
4.01242,1076378
4.02053,1696198
4.02865,1716279
4.03678,1204703
4.04490,757891
4.05303,519725
4.06115,423330
4.06927,361711
4.07740,319104
4.08552,292655
4.09365,271029
4.10177,259523
4.10988,250576
4.11802,241583
4.12613,230679
4.13425,234389
4.14238,274065
4.15050,370612
4.15863,431459
4.16675,391381
4.17487,324960
4.18300,310293
4.19112,288103
4.19925,253378
4.20737,220188
4.21548,242387
4.22362,431330
4.23173,912650
4.23987,1329422
4.24798,1261583
4.25610,908957
4.26423,637581
4.27235,496069
4.28047,392036
4.28860,332386
4.29672,286003
4.30485,253718
4.31297,232257
4.32108,217308
4.32922,206286
4.33733,204552
4.34547,201842
4.35358,183011
4.36170,184429
4.36983,180915
4.37795,173382
4.38607,170879
4.39420,159990
4.40232,155998
4.41045,159324
4.41857,166259
4.42668,154604
4.43482,158144
4.44293,154951
4.45107,151109
4.45918,149307
4.46730,146630
4.47543,142812
4.48355,139394
4.49168,139799
4.49980,143925
4.50792,138448
4.51605,141828
4.52417,139180
4.53228,134332
4.54042,140564
4.54853,134450
4.55667,130362
4.56478,131691
4.57290,136383
4.58103,138685
4.58915,131020
4.59728,130026
4.60540,129320
4.61352,134122
4.62165,134821
4.62977,132770
4.63790,126087
4.64602,126468
4.65413,129154
4.66227,123711
4.67038,124349
4.67850,121824
4.68663,120115
4.69475,126338
4.70288,125325
4.71100,123979
4.71912,132389
4.72725,124451
4.73537,117915
4.74350,121829
4.75162,119084
4.75973,118053
4.76787,115060
4.77598,121310
4.78410,117566
4.79223,120910
4.80035,118722
4.80848,120142
4.81660,121646
4.82472,122643
4.83285,131224
4.84097,163161
4.84910,186019
4.85722,185375
4.86533,166680
4.87347,141193
4.88158,133471
4.88972,125734
4.89783,123368
4.90595,123561
4.91408,121021
4.92220,120401
4.93032,124987
4.93845,141346
4.94657,253612
4.95470,539660
4.96282,1048848
4.97093,1578628
4.97907,1753290
4.98718,1546243
4.99532,1191320
5.00343,849280
5.01155,657838
5.01968,551017
5.02780,467166
5.03592,417890
5.04405,378526
5.05217,338886
5.06030,327931
5.06842,307157
5.07653,280399
5.08467,272442
5.09278,268155
5.10092,253604
5.10903,251412
5.11715,249396
5.12528,236000
5.13340,227479
5.14153,217297
5.14965,222174
5.15777,213659
5.16590,215631
5.17402,207603
5.18213,205271
5.19027,202524
5.19838,203052
5.20652,199525
5.21463,195715
5.22275,192924
5.23088,193641
5.23900,199808
5.24713,210896
5.25525,198470
5.26337,197080
5.27150,183730
5.27962,170521
5.28775,164889
5.29587,160279
5.30398,162473
5.31212,157355
5.32023,160439
5.32835,164983
5.33648,180671
5.34460,198890
5.35273,222954
5.36085,199708
5.36897,179050
5.37710,169485
5.38522,159206
5.39335,152826
5.40147,146555
5.40958,148172
5.41772,149403
5.42583,145879
5.43395,143263
5.44208,145594
5.45020,148740
5.45833,155481
5.46645,148309
5.47457,145855
5.48270,142946
5.49082,135329
5.49895,133991
5.50707,131701
5.51518,138974
5.52332,150632
5.53143,148657
5.53957,144343
5.54768,134739
5.55580,128530
5.56393,139248
5.57205,133023
5.58017,157775
5.58830,182263
5.59642,208042
5.60455,229038
5.61267,199469
5.62078,174217
5.62892,159795
5.63703,151008
5.64517,146180
5.65328,142106
5.66140,137690
5.66953,142881
5.67765,137302
5.68578,166146
5.69390,202046
5.70202,234408
5.71015,228720
5.71827,201322
5.72638,175658
5.73452,154734
5.74263,146467
5.75077,132891
5.75888,137034
5.76700,127835
5.77513,125863
5.78325,121932
5.79138,123830
5.79950,116462
5.80762,118839
5.81575,114474
5.82387,114346
5.83198,110878
5.84012,122515
5.84823,115298
5.85637,117181
5.86448,115422
5.87260,113867
5.88073,113034
5.88885,111666
5.89698,104982
5.90510,109122
5.91322,98226
5.92135,90993
5.92947,93984
5.93760,83110
5.94572,89656
5.95383,90111
5.96197,88427
5.97008,91978
5.97820,101641
5.98633,108269
5.99445,119556
6.00258,117591
6.01070,107591
6.01882,100318
6.02695,96436
6.03507,97274
6.04320,89994
6.05132,85527
6.05943,85245
6.06757,89604
6.07568,87484
6.08380,88150
6.09193,84629
6.10005,85744
6.10818,78145
6.11630,80213
6.12442,77587
6.13255,83076
6.14067,87924
6.14880,87794
6.15692,96305
6.16503,113921
6.17317,117711
6.18128,119072
6.18942,105827
6.19753,107701
6.20565,104327
6.21378,109661
6.22190,122825
6.23002,120862
6.23815,117935
6.24627,115263
6.25440,116899
6.26252,107635
6.27063,114674
6.27877,119915
6.28688,113899
6.29502,119206
6.30313,123880
6.31125,125182
6.31938,130356
6.32750,134128
6.33563,136651
6.34375,137430
6.35187,135012
6.36000,139787
6.36812,133112
6.37623,137601
6.38437,143967
6.39248,138371
6.40062,138755
6.40873,140538
6.41685,142187
6.42498,137279
6.43310,157324
6.44123,156095
6.44935,157409
6.45747,157565
6.46560,158640
6.47372,158329
6.48185,158435
6.48997,161115
6.49808,168892
6.50622,164624
6.51433,165296
6.52245,174260
6.53058,176782
6.53870,171330
6.54683,169745
6.55495,177373
6.56307,180002
6.57120,175829
6.57932,176059
6.58745,181397
6.59557,178018
6.60368,178753
6.61182,191965
6.61993,191812
6.62805,188851
6.63618,197720
6.64430,304532
6.65243,930065
6.66055,3383602
6.66867,8669538
6.67680,1.445432E+07
6.68492,1.641351E+07
6.69305,1.380244E+07
6.70117,9199093
6.70928,5660090
6.71742,3807541
6.72553,2882894
6.73367,2341050
6.74178,1934914
6.74990,1654421
6.75803,1464690
6.76615,1311734
6.77427,1177915
6.78240,1057136
6.79052,992853
6.79865,914947
6.80677,833377
6.81488,771989
6.82302,711910
6.83113,663358
6.83927,634710
6.84738,590324
6.85550,565158
6.86363,534156
6.87175,483227
6.87987,464472
6.88800,430537
6.89612,407661
6.90425,382859
6.91237,366852
6.92048,343962
6.92862,329640
6.93673,314221
6.94487,292073
6.95298,280924
6.96110,277200
6.96923,275851
6.97735,284611
6.98548,289549
6.99360,291644
7.00172,254930
7.00985,226351
7.01797,195225
7.02608,162814
7.03422,135080
7.04233,120202
7.05047,125243
7.05858,168520
7.06670,233440
7.07483,275455
7.08295,296593
7.09108,297383
7.09920,276822
7.10732,268849
7.11545,266124
7.12357,261367
7.13170,252849
7.13982,237223
7.14793,243131
7.15607,230952
7.16418,236437
7.17230,227942
7.18043,226867
7.18855,217295
7.19668,216457
7.20480,208084
7.21292,198568
7.22105,211143
7.22917,261145
7.23730,436901
7.24542,822171
7.25353,1294311
7.26167,1479519
7.26978,1294533
7.27790,857213
7.28603,545500
7.29415,370286
7.30228,291382
7.31040,258334
7.31852,224372
7.32665,184701
7.33477,170468
7.34290,156480
7.35102,154134
7.35913,155536
7.36727,147001
7.37538,149330
7.38352,145460
7.39163,148970
7.39975,147353
7.40788,139123
7.41600,140175
7.42412,137890
7.43225,135485
7.44037,128119
7.44850,128695
7.45662,131532
7.46473,127959
7.47287,124815
7.48098,120811
7.48912,120115
7.49723,119668
7.50535,114869
7.51348,112465
7.52160,112421
7.52973,109789
7.53785,106230
7.54597,109133
7.55410,104299
7.56222,107354
7.57033,103127
7.57847,100739
7.58658,103489
7.59472,103038
7.60283,102108
7.61095,99283
7.61908,97191
7.62720,99213
7.63533,98773
7.64345,97888
7.65157,94495
7.65970,97059
7.66782,88595
7.67593,94003
7.68407,93627
7.69218,90109
7.70032,89879
7.70843,92183
7.71655,88259
7.72468,96931
7.73280,92335
7.74093,88615
7.74905,87466
7.75717,86863
7.76530,87209
7.77342,87282
7.78155,83548
7.78967,85735
7.79778,88314
7.80592,89504
7.81403,92287
7.82215,83185
7.83028,79321
7.83840,80844
7.84653,79332
7.85465,78093
7.86277,80487
7.87090,78226
7.87902,79668
7.88715,85168
7.89527,82822
7.90338,76107
7.91152,80344
7.91963,82676
7.92775,97162
7.93588,159500
7.94400,226491
7.95213,287665
7.96025,322535
7.96837,279991
7.97650,209866
7.98462,147619
7.99275,117490
8.00087,95832
8.00898,82244
8.01712,81520
8.02523,78530
8.03337,80394
8.04148,81078
8.04960,78643
8.05773,72789
8.06585,73324
8.07397,76012
8.08210,70009
8.09022,70807
8.09835,66998
8.10647,69999
8.11458,65305
8.12272,64117
8.13083,66605
8.13897,68721
8.14708,70239
8.15520,72395
8.16333,71770
8.17145,68028
8.17958,64391
8.18770,64167
8.19582,64225
8.20395,68017
8.21207,62265
8.22018,66511
8.22832,64892
8.23643,68494
8.24457,60393
8.25268,61047
8.26080,60248
8.26893,59556
8.27705,62973
8.28518,55343
8.29330,56258
8.30142,64090
8.30955,59689
8.31767,66488
8.32578,63301
8.33392,62462
8.34203,65921
8.35017,64941
8.35828,61533
8.36640,61378
8.37453,64672
8.38265,64658
8.39078,62279
8.39890,62273
8.40702,57838
8.41515,54767
8.42327,53064
8.43140,50558
8.43952,54155
8.44763,57042
8.45577,70267
8.46388,76419
8.47200,74488
8.48013,84710
8.48825,66793
8.49638,65653
8.50450,61582
8.51262,53918
8.52075,54369
8.52887,60690
8.53700,85769
8.54512,165472
8.55323,310776
8.56137,480771
8.56948,615852
8.57762,603624
8.58573,473161
8.59385,294915
8.60198,178600
8.61010,112521
8.61822,89860
8.62635,89444
8.63447,82251
8.64260,80202
8.65072,74559
8.65883,70292
8.66697,67607
8.67508,64134
8.68322,64009
8.69133,66198
8.69945,69791
8.70758,69690
8.71570,64086
8.72382,59676
8.73195,64840
8.74007,60267
8.74820,65223
8.75632,68234
8.76443,106508
8.77257,208509
8.78068,394590
8.78882,630287
8.79693,792788
8.80505,788631
8.81318,644057
8.82130,446556
8.82943,293896
8.83755,214842
8.84567,168811
8.85380,159141
8.86192,149653
8.87003,148946
8.87817,140005
8.88628,136213
8.89442,128018
8.90253,124915
8.91065,118768
8.91878,118301
8.92690,110312
8.93503,104953
8.94315,104043
8.95127,104000
8.95940,98258
8.96752,93940
8.97563,99567
8.98377,99393
8.99188,91562
9.00002,88351
9.00813,91534
9.01625,90345
9.02438,83692
9.03250,80241
9.04063,82714
9.04875,83552
9.05687,81965
9.06500,82310
9.07312,82599
9.08125,75709
9.08937,78980
9.09748,81170
9.10562,75425
9.11373,77270
9.12185,79932
9.12998,74474
9.13810,77718
9.14623,73361
9.15435,73854
9.16247,74767
9.17060,72164
9.17872,68354
9.18685,67909
9.19497,75056
9.20308,74428
9.21122,68625
9.21933,68830
9.22747,67164
9.23558,67950
9.24370,74781
9.25183,82047
9.25995,89199
9.26807,81300
9.27620,78906
9.28432,76734
9.29245,68902
9.30057,65846
9.30868,65210
9.31682,62979
9.32493,58473
9.33307,58968
9.34118,58776
9.34930,63183
9.35743,57801
9.36555,58777
9.37367,57505
9.38180,62050
9.38992,64437
9.39805,55641
9.40617,59398
9.41428,58589
9.42242,57448
9.43053,56674
9.43867,56295
9.44678,59537
9.45490,54778
9.46303,53056
9.47115,56279
9.47928,56008
9.48740,54177
9.49552,59104
9.50365,65153
9.51177,83107
9.51988,100545
9.52802,119481
9.53613,121864
9.54427,112178
9.55238,98922
9.56050,93571
9.56863,92425
9.57675,83976
9.58488,79971
9.59300,84509
9.60112,70363
9.60925,64455
9.61737,58531
9.62550,56111
9.63362,49951
9.64173,46332
9.64987,44496
9.65798,42928
9.66610,47771
9.67423,49421
9.68235,45792
9.69048,43423
9.69860,48528
9.70672,42594
9.71485,45386
9.72297,40317
9.73110,46779
9.73922,38995
9.74733,38030
9.75547,40701
9.76358,39945
9.77170,40230
9.77983,40298
9.78795,48806
9.79608,41059
9.80420,41026
9.81232,42271
9.82045,41013
9.82857,38909
9.83670,42791
9.84482,40076
9.85293,40811
9.86107,43337
9.86918,39771
9.87732,38505
9.88543,41797
9.89355,44098
9.90168,42732
9.90980,38045
9.91792,43667
9.92605,42938
9.93417,49411
9.94230,52510
9.95042,54939
9.95853,53182
9.96667,61324
9.97478,52884
9.98292,52112
9.99103,51268
9.99915,52153
10.00728,49562
10.01540,55428
10.02353,57378
10.03165,54364
10.03977,51557
10.04790,42466
10.05602,43384
10.06413,40872
10.07227,41773
10.08038,43704
10.08852,41139
10.09663,41849
10.10475,41792
10.11288,40080
10.12100,44444
10.12913,43764
10.13725,44269
10.14537,45893
10.15350,40534
10.16162,42008
10.16973,37774
10.17787,40965
10.18598,37375
10.19412,43564
10.20223,43137
10.21035,38666
10.21848,36422
10.22660,36589
10.23473,40855
10.24285,44428
10.25097,52844
10.25910,67335
10.26722,128204
10.27535,308831
10.28347,838568
10.29158,2108692
10.29972,4240494
10.30783,7218541
10.31595,1.057496E+07
10.32408,1.481163E+07
10.33220,2.039874E+07
10.34033,2.795532E+07
10.34845,3.732464E+07
10.35657,4.729084E+07
10.36470,5.699315E+07
10.37282,6.399988E+07
10.38095,7.063313E+07
10.38907,7.570549E+07
10.39718,7.871918E+07
10.40532,7.513394E+07
10.41343,4.902642E+07
10.42155,1.35927E+07
10.42968,3600734
10.43780,2134247
10.44593,1754544
10.45405,1585404
10.46217,1407055
10.47030,1268735
10.47842,1166031
10.48655,1079955
10.49467,1012690
10.50278,927248
10.51092,877137
10.51903,832723
10.52717,769244
10.53528,726359
10.54340,694435
10.55153,646443
10.55965,616147
10.56777,581402
10.57590,560829
10.58402,534597
10.59215,513186
10.60027,507565
10.60838,481815
10.61652,446082
10.62463,443884
10.63277,417960
10.64088,405671
10.64900,390073
10.65713,372053
10.66525,365837
10.67338,356843
10.68150,329711
10.68962,317260
10.69775,312143
10.70587,306610
10.71398,297805
10.72212,286903
10.73023,279770
10.73837,268083
10.74648,272093
10.75460,271910
10.76273,262587
10.77085,244421
10.77898,227224
10.78710,233083
10.79522,228541
10.80335,218350
10.81147,230569
10.81958,204154
10.82772,207826
10.83583,197220
10.84397,192893
10.85208,187935
10.86020,185668
10.86833,184653
10.87645,183122
10.88458,172200
10.89270,172000
10.90082,161682
10.90895,168737
10.91707,162700
10.92520,157195
10.93332,162448
10.94143,154215
10.94957,153095
10.95768,155350
10.96580,153298
10.97393,145676
10.98205,141527
10.99018,144280
10.99830,141485
11.00642,137275
11.01455,139137
11.02267,141722
11.03080,122069
11.03892,125659
11.04703,126894
11.05517,122975
11.06328,118169
11.07142,120600
11.07953,115717
11.08765,116760
11.09578,112337
11.10390,105419
11.11202,99201
11.12015,96270
11.12827,97998
11.13640,73110
11.14452,69169
11.15263,62523
11.16077,60442
11.16888,63729
11.17702,63650
11.18513,66295
11.19325,63142
11.20138,68519
11.20950,62971
11.21762,61353
11.22575,59124
11.23387,51260
11.24200,53343
11.25012,49971
11.25823,49614
11.26637,51840
11.27448,48386
11.28262,51182
11.29073,50803
11.29885,46149
11.30698,50150
11.31510,50205
11.32323,53707
11.33135,58826
11.33947,48631
11.34760,47141
11.35572,46725
11.36383,46895
11.37197,48582
11.38008,46074
11.38822,46715
11.39633,47360
11.40445,45255
11.41258,39209
11.42070,43841
11.42883,45105
11.43695,42050
11.44507,41358
11.45320,43745
11.46132,41484
11.46943,42522
11.47757,48934
11.48568,57519
11.49382,68172
11.50193,88841
11.51005,96931
11.51818,105762
11.52630,101520
11.53443,92232
11.54255,104615
11.55067,121153
11.55880,123406
11.56692,122136
11.57505,98677
11.58317,84801
11.59128,67908
11.59942,59307
11.60753,54201
11.61565,53709
11.62378,53592
11.63190,50865
11.64003,48151
11.64815,53252
11.65627,50062
11.66440,46656
11.67252,50321
11.68065,48905
11.68877,50169
11.69688,57164
11.70502,48152
11.71313,51338
11.72127,48542
11.72938,53063
11.73750,46196
11.74563,46444
11.75375,47305
11.76187,43910
11.77000,46724
11.77812,47570
11.78625,47069
11.79437,39593
11.80248,47198
11.81062,42361
11.81873,44489
11.82687,44574
11.83498,50708
11.84310,42825
11.85123,42337
11.85935,41134
11.86748,40946
11.87560,41429
11.88372,42712
11.89185,49189
11.89997,45667
11.90808,43997
11.91622,46129
11.92433,47042
11.93247,47787
11.94058,55103
11.94870,56197
11.95683,44060
11.96495,47625
11.97308,44736
11.98120,45566
11.98932,45125
11.99745,49663
12.00557,54824
12.01368,67882
12.02182,77626
12.02993,76254
12.03807,78479
12.04618,64073
12.05430,57903
12.06243,52086
12.07055,49384
12.07868,44740
12.08680,43423
12.09492,40919
12.10305,43947
12.11117,41701
12.11930,47039
12.12742,46980
12.13553,44594
12.14367,45951
12.15178,39919
12.15990,40638
12.16803,44141
12.17615,38932
12.18428,42223
12.19240,47879
12.20052,39117
12.20865,46157
12.21677,41127
12.22490,44474
12.23302,41144
12.24113,40940
12.24927,39872
12.25738,40924
12.26550,38336
12.27363,52427
12.28175,45983
12.28988,46243
12.29800,44196
12.30612,41271
12.31425,42419
12.32237,42865
12.33050,40659
12.33862,38785
12.34673,38273
12.35487,37841
12.36298,42584
12.37112,37162
12.37923,38994
12.38735,37458
12.39548,37766
12.40360,35658
12.41172,37607
12.41985,35209
12.42797,37893
12.43610,41047
12.44422,40407
12.45233,51272
12.46047,43970
12.46858,41373
12.47672,38961
12.48483,38334
12.49295,37053
12.50108,36123
12.50920,35617
12.51733,32295
12.52545,34980
12.53357,35454
12.54170,38367
12.54982,43165
12.55793,52548
12.56607,66123
12.57418,74686
12.58232,79467
12.59043,78961
12.59855,67599
12.60668,52536
12.61480,51617
12.62293,45277
12.63105,47734
12.63917,43995
12.64730,41609
12.65542,42563
12.66353,40900
12.67167,38506
12.67978,38280
12.68792,40769
12.69603,41593
12.70415,35224
12.71228,38237
12.72040,39811
12.72853,41233
12.73665,45691
12.74477,43628
12.75290,40485
12.76102,45045
12.76915,38913
12.77727,40140
12.78538,39073
12.79352,36567
12.80163,36682
12.80975,38210
12.81788,37056
12.82600,34567
12.83413,33953
12.84225,32215
12.85037,37114
12.85850,36083
12.86662,35578
12.87475,33204
12.88287,36248
12.89098,34426
12.89912,38252
12.90723,34591
12.91537,38994
12.92348,35377
12.93160,34048
12.93973,34907
12.94785,31726
12.95597,38590
12.96410,32982
12.97222,35843
12.98035,41457
12.98847,39647
12.99658,41648
13.00472,42710
13.01283,39861
13.02097,37868
13.02908,36592
13.03720,37537
13.04533,38637
13.05345,33717
13.06157,34781
13.06970,34585
13.07782,39633
13.08595,36225
13.09407,42490
13.10218,44339
13.11032,44567
13.11843,37383
13.12657,40817
13.13468,36010
13.14280,38885
13.15093,31533
13.15905,35662
13.16718,37619
13.17530,37713
13.18342,40395
13.19155,38107
13.19967,42335
13.20778,40465
13.21592,42711
13.22403,39672
13.23217,43567
13.24028,37334
13.24840,36394
13.25653,36789
13.26465,41152
13.27278,33869
13.28090,34595
13.28902,34626
13.29715,34855
13.30527,34645
13.31338,34076
13.32152,41227
13.32963,30560
13.33777,35604
13.34588,32876
13.35400,33948
13.36213,34234
13.37025,34973
13.37838,37578
13.38650,34929
13.39462,28639
13.40275,35108
13.41087,33933
13.41900,33105
13.42712,35920
13.43523,33063
13.44337,33259
13.45148,34477
13.45960,33923
13.46773,32531
13.47585,31926
13.48398,32239
13.49210,30092
13.50022,31091
13.50835,33450
13.51647,31474
13.52460,29751
13.53272,31547
13.54083,31968
13.54897,33677
13.55708,34473
13.56522,33954
13.57333,33860
13.58145,42137
13.58958,36030
13.59770,34668
13.60582,32049
13.61395,32608
13.62207,35993
13.63020,30207
13.63832,33671
13.64643,31968
13.65457,31454
13.66268,32489
13.67082,30521
13.67893,30942
13.68705,29269
13.69518,31779
13.70330,31572
13.71142,30147
13.71955,29379
13.72767,27204
13.73580,29322
13.74392,33426
13.75203,39923
13.76017,52949
13.76828,79009
13.77642,109789
13.78453,148247
13.79265,160956
13.80078,153550
13.80890,126588
13.81703,99776
13.82515,70589
13.83327,67397
13.84140,54312
13.84952,52548
13.85763,47447
13.86577,42304
13.87388,46410
13.88202,45504
13.89013,43486
13.89825,39978
13.90638,41809
13.91450,42052
13.92263,40621
13.93075,36659
13.93887,44074
13.94700,46137
13.95512,53385
13.96325,78192
13.97137,133919
13.97948,193583
13.98762,260288
13.99573,311314
14.00385,306522
14.01198,272018
14.02010,192468
14.02823,148296
14.03635,112249
14.04447,96337
14.05260,82172
14.06072,76712
14.06885,71720
14.07697,71665
14.08508,69641
14.09322,64072
14.10133,57844
14.10945,58883
14.11758,62525
14.12570,56793
14.13383,60581
14.14195,55871
14.15007,54432
14.15820,55096
14.16632,53731
14.17445,53430
14.18257,56499
14.19068,56507
14.19882,66556
14.20693,83620
14.21507,107240
14.22318,129247
14.23130,153415
14.23943,149781
14.24755,140018
14.25567,133944
14.26380,132236
14.27192,127985
14.28005,107094
14.28817,103134
14.29628,83137
14.30442,83644
14.31253,77014
14.32067,72261
14.32878,71318
14.33690,67778
14.34503,66427
14.35315,73578
14.36127,67456
14.36940,61510
14.37752,61090
14.38565,56705
14.39377,49153
14.40188,43378
14.41002,45237
14.41813,42138
14.42627,46520
14.43438,43650
14.44250,40744
14.45063,39095
14.45875,42253
14.46688,39237
14.47500,39649
14.48312,41946
14.49125,39862
14.49937,35463
14.50748,35767
14.51562,41141
14.52373,38776
14.53187,43535
14.53998,43413
14.54810,40913
14.55623,39176
14.56435,39551
14.57248,40671
14.58060,40418
14.58872,40442
14.59685,32640
14.60497,36350
14.61310,37200
14.62122,32524
14.62933,35485
14.63747,33781
14.64558,37502
14.65370,33755
14.66183,32054
14.66995,32631
14.67808,35075
14.68620,31697
14.69432,32297
14.70245,34981
14.71057,33389
14.71870,34486
14.72682,33906
14.73493,32721
14.74307,35255
14.75118,36561
14.75930,32028
14.76743,34608
14.77555,34203
14.78368,35487
14.79180,31987
14.79992,34491
14.80805,33932
14.81617,43537
14.82430,40150
14.83242,40056
14.84053,43878
14.84867,40118
14.85678,42862
14.86492,43472
14.87303,43019
14.88115,40770
14.88928,38279
14.89740,39582
14.90552,39094
14.91365,38225
14.92177,36941
14.92990,35403
14.93802,34888
14.94613,40252
14.95427,34793
14.96238,36252
14.97052,37101
14.97863,36091
14.98675,38002
14.99488,32975
15.00300,34217
15.01113,33890
15.01925,37323
15.02737,31058
15.03550,30615
15.04362,33968
15.05173,37667
15.05987,36460
15.06798,33751
15.07612,34362
15.08423,42293
15.09235,35744
15.10048,37381
15.10860,30501
15.11673,28971
15.12485,34212
15.13297,32617
15.14110,31145
15.14922,32944
15.15733,36550
15.16547,31069
15.17358,34292
15.18172,32165
15.18983,35335
15.19795,30911
15.20608,33787
15.21420,33884
15.22233,30247
15.23045,32428
15.23857,31514
15.24670,34414
15.25482,32790
15.26295,32898
15.27107,31583
15.27918,30287
15.28732,31235
15.29543,31560
15.30355,30266
15.31168,29695
15.31980,30303
15.32793,34257
15.33605,34821
15.34417,35669
15.35230,31867
15.36042,31523
15.36855,31731
15.37667,29714
15.38478,29233
15.39292,28224
15.40103,28362
15.40917,28147
15.41728,31858
15.42540,29533
15.43353,33310
15.44165,32603
15.44977,29313
15.45790,33084
15.46602,27587
15.47415,27195
15.48227,31569
15.49038,31470
15.49852,39291
15.50663,63480
15.51477,129161
15.52288,275657
15.53100,584862
15.53913,1123981
15.54725,1918479
15.55537,2556066
15.56350,2561247
15.57162,2116644
15.57975,1426340
15.58787,883038
15.59598,553102
15.60412,370594
15.61223,276181
15.62037,221996
15.62848,179626
15.63660,152896
15.64473,128332
15.65285,110047
15.66098,99354
15.66910,93662
15.67722,80019
15.68535,71038
15.69347,74248
15.70158,65595
15.70972,63759
15.71783,56374
15.72597,52216
15.73408,58461
15.74220,52272
15.75033,54095
15.75845,54528
15.76658,54393
15.77470,52585
15.78282,55254
15.79095,63881
15.79907,67597
15.80718,68131
15.81532,65701
15.82343,55689
15.83157,54217
15.83968,48247
15.84780,46427
15.85593,47604
15.86405,52266
15.87218,55399
15.88030,58515
15.88842,69874
15.89655,72950
15.90467,79144
15.91280,75235
15.92092,66568
15.92903,58857
15.93717,58088
15.94528,55411
15.95340,46311
15.96153,52010
15.96965,56152
15.97778,61649
15.98590,71266
15.99402,75313
16.00215,70795
16.01027,79198
16.01840,69286
16.02652,68668
16.03463,66845
16.04277,63741
16.05088,62081
16.05902,51428
16.06713,49317
16.07525,47424
16.08338,45564
16.09150,47294
16.09962,45495
16.10775,41215
16.11587,43738
16.12400,42535
16.13212,42835
16.14023,40475
16.14837,38416
16.15648,37909
16.16462,41854
16.17273,41242
16.18085,39844
16.18898,39170
16.19710,34751
16.20522,39490
16.21335,37001
16.22147,38800
16.22960,34793
16.23772,36784
16.24583,40689
16.25397,38803
16.26208,37824
16.27022,40807
16.27833,38326
16.28645,40250
16.29458,40990
16.30270,37124
16.31083,34614
16.31895,35912
16.32707,39647
16.33520,41082
16.34332,40891
16.35143,42796
16.35957,45799
16.36768,65191
16.37582,72588
16.38393,88569
16.39205,92008
16.40018,81211
16.40830,77518
16.41643,68950
16.42455,58159
16.43267,50120
16.44080,45696
16.44892,43261
16.45705,38768
16.46517,44337
16.47328,40834
16.48142,39017
16.48953,38880
16.49765,40957
16.50578,40418
16.51390,41885
16.52203,37748
16.53015,36768
16.53827,36798
16.54640,40041
16.55452,38555
16.56265,35887
16.57077,34294
16.57888,40111
16.58702,42056
16.59513,44386
16.60325,51661
16.61138,47687
16.61950,53853
16.62763,51854
16.63575,52835
16.64387,48144
16.65200,46425
16.66012,43270
16.66825,39647
16.67637,42959
16.68448,38518
16.69262,37596
16.70073,34847
16.70887,40438
16.71698,35103
16.72510,41408
16.73323,32940
16.74135,34540
16.74947,32742
16.75760,34433
16.76572,34592
16.77385,32246
16.78197,37377
16.79008,34639
16.79822,35514
16.80633,34329
16.81447,35855
16.82258,34846
16.83070,39970
16.83883,30107
16.84695,35630
16.85507,31087
16.86320,33662
16.87132,32330
16.87945,29611
16.88757,35840
16.89568,29844
16.90382,37362
16.91193,29690
16.92007,29775
16.92818,29938
16.93630,34521
16.94443,33147
16.95255,31228
16.96068,31694
16.96880,28692
16.97692,31644
16.98505,29804
16.99317,29320
17.00128,29401
17.00942,30426
17.01753,30815
17.02567,27816
17.03378,28636
17.04190,31546
17.05003,31411
17.05815,33656
17.06628,29441
17.07440,28876
17.08252,29337
17.09065,31225
17.09877,33079
17.10690,33072
17.11502,35481
17.12313,34624
17.13127,33000
17.13938,32885
17.14750,32888
17.15563,30293
17.16375,31436
17.17188,33115
17.18000,28646
17.18812,29329
17.19625,33772
17.20437,32775
17.21250,31966
17.22062,32259
17.22873,30473
17.23687,32275
17.24498,40244
17.25312,36751
17.26123,36112
17.26935,30702
17.27748,33241
17.28560,33124
17.29372,27398
17.30185,31357
17.30997,30828
17.31810,31310
17.32622,35326
17.33433,32666
17.34247,31088
17.35058,36578
17.35872,36667
17.36683,36267
17.37495,35335
17.38308,37177
17.39120,38216
17.39932,37039
17.40745,36740
17.41557,38054
17.42370,36534
17.43182,36579
17.43993,39841
17.44807,36310
17.45618,34094
17.46432,31115
17.47243,37484
17.48055,33909
17.48868,35905
17.49680,32873
17.50493,31537
17.51305,33470
17.52117,34668
17.52930,35991
17.53742,32571
17.54553,31129
17.55367,34214
17.56178,33487
17.56992,33191
17.57803,33429
17.58615,34568
17.59428,35374
17.60240,37680
17.61053,36756
17.61865,39678
17.62677,37238
17.63490,44420
17.64302,55652
17.65113,82263
17.65927,121912
17.66738,164097
17.67552,199133
17.68363,203230
17.69175,189656
17.69988,153609
17.70800,124351
17.71613,91730
17.72425,77788
17.73237,70446
17.74050,60503
17.74862,60325
17.75675,54487
17.76487,55482
17.77298,53611
17.78112,47298
17.78923,47661
17.79735,47485
17.80548,46315
17.81360,45580
17.82173,45964
17.82985,42939
17.83797,46268
17.84610,42786
17.85422,54175
17.86235,43184
17.87047,42943
17.87858,40774
17.88672,39161
17.89483,38386
17.90297,36155
17.91108,35034
17.91920,35301
17.92733,32248
17.93545,33088
17.94357,36738
17.95170,33351
17.95982,32973
17.96795,35511
17.97607,32308
17.98418,36049
17.99232,32251
18.00043,34427
18.00857,34981
18.01668,32616
18.02480,34176
18.03293,37926
18.04105,36326
18.04917,36441
18.05730,39296
18.06542,37382
18.07355,34837
18.08167,37362
18.08978,40539
18.09792,44547
18.10603,42095
18.11417,41600
18.12228,45613
18.13040,42993
18.13853,40981
18.14665,37268
18.15478,44079
18.16290,35852
18.17102,45400
18.17915,46804
18.18727,47388
18.19538,50702
18.20352,48844
18.21163,47032
18.21977,41286
18.22788,40414
18.23600,42493
18.24413,39391
18.25225,35896
18.26038,35642
18.26850,36561
18.27662,35948
18.28475,36136
18.29287,39942
18.30100,33591
18.30912,36453
18.31723,34474
18.32537,33866
18.33348,33014
18.34160,37787
18.34973,34096
18.35785,36289
18.36598,33041
18.37410,34993
18.38222,39685
18.39035,34307
18.39847,31262
18.40660,30814
18.41472,34508
18.42283,31360
18.43097,30353
18.43908,33874
18.44720,33693
18.45533,37357
18.46345,29586
18.47158,33990
18.47970,31484
18.48782,30635
18.49595,27757
18.50407,31733
18.51220,32280
18.52032,29182
18.52843,32839
18.53657,29718
18.54468,32631
18.55282,34161
18.56093,35085
18.56905,31716
18.57718,32373
18.58530,34512
18.59342,34594
18.60155,35807
18.60967,39295
18.61780,40885
18.62592,41006
18.63403,37334
18.64217,40126
18.65028,37439
18.65842,34019
18.66653,33215
18.67465,36762
18.68278,31433
18.69090,32776
18.69902,35218
18.70715,35660
18.71527,31843
18.72340,31170
18.73152,30180
18.73963,34857
18.74777,32119
18.75588,32735
18.76402,29637
18.77213,31620
18.78025,28801
18.78838,28389
18.79650,30093
18.80463,28847
18.81275,30341
18.82087,28420
18.82900,32806
18.83712,28798
18.84523,28043
18.85337,29392
18.86148,33876
18.86962,29368
18.87773,33747
18.88585,33582
18.89398,33666
18.90210,31814
18.91023,35935
18.91835,40678
18.92647,37508
18.93460,47087
18.94272,55083
18.95085,64184
18.95897,78158
18.96708,90776
18.97522,94607
18.98333,96716
18.99145,79384
18.99958,74375
19.00770,60450
19.01583,56008
19.02395,52299
19.03207,44343
19.04020,46633
19.04832,45708
19.05645,43949
19.06457,42177
19.07268,49637
19.08082,47183
19.08893,48958
19.09705,53715
19.10518,59960
19.11330,66011
19.12143,68291
19.12955,67601
19.13767,65647
19.14580,62907
19.15392,62597
19.16205,69813
19.17017,64588
19.17828,69939
19.18642,66433
19.19453,67538
19.20267,70739
19.21078,69264
19.21890,55845
19.22703,55845
19.23515,50578
19.24327,48820
19.25140,48838
19.25952,40634
19.26765,41865
19.27577,42610
19.28388,49749
19.29202,49253
19.30013,50168
19.30827,48002
19.31638,57075
19.32450,51826
19.33263,53458
19.34075,55744
19.34888,51324
19.35700,53008
19.36512,47316
19.37325,47303
19.38137,47595
19.38948,41133
19.39762,44722
19.40573,43484
19.41387,37909
19.42198,38940
19.43010,38903
19.43823,37213
19.44635,44230
19.45448,36763
19.46260,36143
19.47072,34980
19.47885,32959
19.48697,38975
19.49508,38581
19.50322,45662
19.51133,58280
19.51947,69052
19.52758,86905
19.53570,89687
19.54383,86204
19.55195,73549
19.56008,63782
19.56820,53394
19.57632,41861
19.58445,36799
19.59257,39035
19.60070,38138
19.60882,37219
19.61693,34964
19.62507,35519
19.63318,38545
19.64130,45684
19.64943,55669
19.65755,80231
19.66568,113470
19.67380,137949
19.68192,162140
19.69005,171165
19.69817,153315
19.70630,125945
19.71442,108880
19.72253,89599
19.73067,81955
19.73878,80481
19.74692,68256
19.75503,64550
19.76315,64876
19.77128,56940
19.77940,53938
19.78752,50744
19.79565,46602
19.80377,45296
19.81190,45818
19.82002,44214
19.82813,43018
19.83627,47651
19.84438,46099
19.85252,41111
19.86063,44062
19.86875,58900
19.87688,82090
19.88500,145860
19.89312,271192
19.90125,479957
19.90937,715484
19.91750,976513
19.92562,1194157
19.93373,1298850
19.94187,1356525
19.94998,1368878
19.95812,1336463
19.96623,1317404
19.97435,1237322
19.98248,1166224
19.99060,1118265
19.99873,1049359
20.00685,1005853
20.01497,980471
20.02310,919689
20.03122,894354
20.03933,833385
20.04747,725665
20.05558,644753
20.06372,523425
20.07183,399688
20.07995,313028
20.08808,232945
20.09620,197394
20.10433,185222
20.11245,176404
20.12057,153901
20.12870,156616
20.13682,146365
20.14493,153020
20.15307,147878
20.16118,143745
20.16932,150163
20.17743,142163
20.18555,143115
20.19368,142464
20.20180,132468
20.20993,134895
20.21805,121235
20.22617,115464
20.23430,114882
20.24242,110171
20.25055,115958
20.25867,121944
20.26678,147852
20.27492,170305
20.28303,206004
20.29115,236698
20.29928,256137
20.30740,236372
20.31553,221688
20.32365,181718
20.33177,161309
20.33990,130653
20.34802,113207
20.35615,94759
20.36427,83782
20.37238,71481
20.38052,57710
20.38863,53890
20.39677,48922
20.40488,44698
20.41300,45866
20.42113,48524
20.42925,50339
20.43737,55452
20.44550,63964
20.45362,69247
20.46175,73708
20.46987,75982
20.47798,74322
20.48612,69311
20.49423,63416
20.50237,58279
20.51048,46979
20.51860,45099
20.52673,41739
20.53485,44063
20.54297,38944
20.55110,40238
20.55922,42732
20.56735,41502
20.57547,40791
20.58358,39587
20.59172,37240
20.59983,37499
20.60797,39341
20.61608,34488
20.62420,39598
20.63233,38321
20.64045,33711
20.64858,36549
20.65670,33201
20.66482,34964
20.67295,34843
20.68107,42676
20.68918,38344
20.69732,41759
20.70543,36221
20.71357,38884
20.72168,37738
20.72980,35037
20.73793,36663
20.74605,39040
20.75418,38747
20.76230,35978
20.77042,37294
20.77855,37232
20.78667,36610
20.79480,38940
20.80292,37475
20.81103,39223
20.81917,39413
20.82728,34624
20.83540,42150
20.84353,38166
20.85165,37600
20.85978,36527
20.86790,36086
20.87602,38391
20.88415,40548
20.89227,42560
20.90040,36565
20.90852,41183
20.91663,38877
20.92477,39137
20.93288,42840
20.94100,42186
20.94913,36194
20.95725,39390
20.96538,39462
20.97350,35672
20.98162,37716
20.98975,33376
20.99787,34172
21.00600,35409
21.01412,34482
21.02223,38441
21.03037,38367
21.03848,36568
21.04662,36121
21.05473,34514
21.06285,33528
21.07098,35466
21.07910,37306
21.08722,39821
21.09535,37132
21.10347,34757
21.11160,34184
21.11972,38351
21.12783,37782
21.13597,41804
21.14408,40241
21.15222,39895
21.16033,49207
21.16845,47562
21.17658,45142
21.18470,48605
21.19282,47106
21.20095,43396
21.20907,41088
21.21720,44206
21.22532,35967
21.23343,38925
21.24157,39757
21.24968,37724
21.25782,38828
21.26593,39733
21.27405,39697
21.28218,37335
21.29030,35323
21.29843,42417
21.30655,39193
21.31467,40528
21.32280,38574
21.33092,40764
21.33903,38351
21.34717,37645
21.35528,35907
21.36342,33309
21.37153,36012
21.37965,35320
21.38778,43902
21.39590,38792
21.40403,38219
21.41215,39977
21.42027,37148
21.42840,39939
21.43652,38676
21.44465,36293
21.45277,38169
21.46088,37881
21.46902,35002
21.47713,37613
21.48525,35334
21.49338,33356
21.50150,34031
21.50963,36486
21.51775,36009
21.52587,39840
21.53400,42134
21.54212,35702
21.55025,37153
21.55837,37912
21.56648,31573
21.57462,33404
21.58273,35295
21.59085,33837
21.59898,32625
21.60710,36884
21.61523,36286
21.62335,43254
21.63147,45274
21.63960,53438
21.64772,57786
21.65585,61783
21.66397,74975
21.67208,71666
21.68022,62263
21.68833,57267
21.69647,50129
21.70458,43603
21.71270,40817
21.72083,39842
21.72895,39110
21.73707,35792
21.74520,38391
21.75332,37719
21.76145,36809
21.76957,39324
21.77768,40213
21.78582,38284
21.79393,37762
21.80207,37076
21.81018,40073
21.81830,43424
21.82643,46198
21.83455,50842
21.84268,62181
21.85080,67844
21.85892,68888
21.86705,77969
21.87517,72797
21.88328,63281
21.89142,54243
21.89953,50626
21.90767,41548
21.91578,39094
21.92390,42774
21.93203,39879
21.94015,36028
21.94828,36532
21.95640,38926
21.96452,41379
21.97265,38630
21.98077,38093
21.98888,33790
21.99702,33172
22.00513,35302
22.01327,30093
22.02138,32994
22.02950,31537
22.03763,35885
22.04575,30844
22.05388,33382
22.06200,33557
22.07012,33202
22.07825,30856
22.08637,33852
22.09450,30501
22.10262,35177
22.11073,35826
22.11887,34950
22.12698,34102
22.13510,33248
22.14323,34681
22.15135,34488
22.15948,33653
22.16760,31414
22.17572,37265
22.18385,34555
22.19197,35585
22.20010,39447
22.20822,34027
22.21633,36024
22.22447,32300
22.23258,37965
22.24070,36340
22.24883,38553
22.25695,38229
22.26508,43544
22.27320,45065
22.28132,50979
22.28945,66258
22.29757,85700
22.30570,108246
22.31382,121973
22.32193,148698
22.33007,158952
22.33818,165835
22.34632,154152
22.35443,146465
22.36255,127002
22.37068,101931
22.37880,84802
22.38692,80174
22.39505,65745
22.40317,62697
22.41130,57340
22.41942,52473
22.42753,53123
22.43567,50642
22.44378,44406
22.45192,40734
22.46003,45765
22.46815,38220
22.47628,37503
22.48440,41083
22.49253,34677
22.50065,38400
22.50877,37954
22.51690,37918
22.52502,36506
22.53313,37876
22.54127,39239
22.54938,38716
22.55752,38637
22.56563,34431
22.57375,40656
22.58188,33136
22.59000,34981
22.59813,35572
22.60625,29593
22.61437,32971
22.62250,32971
22.63062,34140
22.63875,27232
22.64687,29730
22.65498,34428
22.66312,37024
22.67123,36827
22.67935,39944
22.68748,49905
22.69560,50957
22.70373,47829
22.71185,48776
22.71997,44307
22.72810,44446
22.73622,42337
22.74435,41663
22.75247,37382
22.76058,36933
22.76872,33325
22.77683,32910
22.78495,33166
22.79308,31938
22.80120,34118
22.80933,33239
22.81745,32753
22.82557,33421
22.83370,32719
22.84182,32591
22.84995,30102
22.85807,34657
22.86618,33458
22.87432,33232
22.88243,35501
22.89057,33521
22.89868,38617
22.90680,40543
22.91493,43420
22.92305,47501
22.93117,58679
22.93930,64878
22.94742,73144
22.95555,70269
22.96367,78549
22.97178,72920
22.97992,71523
22.98803,64519
22.99617,66469
23.00428,58175
23.01240,60329
23.02053,46981
23.02865,57559
23.03677,47160
23.04490,40426
23.05302,44296
23.06115,43368
23.06927,39659
23.07738,38236
23.08552,34919
23.09363,38456
23.10177,37773
23.10988,33290
23.11800,36725
23.12613,36200
23.13425,34096
23.14238,34011
23.15050,32551
23.15862,35802
23.16675,35266
23.17487,31568
23.18298,34751
23.19112,33048
23.19923,35102
23.20737,31247
23.21548,30857
23.22360,35939
23.23173,35132
23.23985,36410
23.24798,38851
23.25610,42943
23.26422,48408
23.27235,46160
23.28047,49035
23.28860,46961
23.29672,40629
23.30483,38439
23.31297,37241
23.32108,40378
23.32920,31738
23.33733,35171
23.34545,33495
23.35358,36158
23.36170,36059
23.36982,41911
23.37795,41364
23.38607,40983
23.39420,39423
23.40232,37077
23.41043,36981
23.41857,36500
23.42668,35220
23.43480,36688
23.44293,35495
23.45105,35609
23.45918,34190
23.46730,37312
23.47542,40214
23.48355,36180
23.49167,34120
23.49980,36432
23.50792,36493
23.51603,35665
23.52417,35025
23.53228,35417
23.54042,39003
23.54853,35426
23.55665,40890
23.56478,40380
23.57290,43282
23.58102,46670
23.58915,51596
23.59727,57605
23.60540,69670
23.61352,68510
23.62163,80944
23.62977,90891
23.63788,111658
23.64602,159047
23.65413,231402
23.66225,330422
23.67038,432147
23.67850,480136
23.68663,474764
23.69475,410157
23.70287,308188
23.71100,225215
23.71912,168036
23.72723,135520
23.73537,112481
23.74348,101922
23.75162,94891
23.75973,122895
23.76785,204976
23.77598,442519
23.78410,897127
23.79223,1540327
23.80035,2135435
23.80847,2414399
23.81660,2351063
23.82472,1963475
23.83283,1485936
23.84097,1094621
23.84908,813394
23.85722,609753
23.86533,493928
23.87345,400207
23.88158,338339
23.88970,283264
23.89783,249871
23.90595,230391
23.91407,207479
23.92220,190319
23.93032,176823
23.93845,164092
23.94657,148309
23.95468,137940
23.96282,140679
23.97093,127416
23.97905,124991
23.98718,116284
23.99530,110320
24.00343,103588
24.01155,109226
24.01967,106707
24.02780,107607
24.03592,123717
24.04405,127746
24.05217,126587
24.06028,128848
24.06842,123128
24.07653,115162
24.08465,104957
24.09278,100516
24.10090,88069
24.10903,84936
24.11715,81373
24.12527,80056
24.13340,80484
24.14152,77527
24.14965,91890
24.15777,84592
24.16588,88672
24.17402,82666
24.18213,77582
24.19027,74685
24.19838,77287
24.20650,75415
24.21463,77713
24.22275,73429
24.23087,77979
24.23900,76882
24.24712,74440
24.25525,72094
24.26337,69135
24.27148,64181
24.27962,61634
24.28773,54174
24.29587,58231
24.30398,57415
24.31210,59371
24.32023,53926
24.32835,52830
24.33648,52076
24.34460,53414
24.35272,59861
24.36085,53587
24.36897,50869
24.37708,53256
24.38522,57244
24.39333,57571
24.40147,65522
24.40958,69730
24.41770,82437
24.42583,80869
24.43395,80234
24.44208,71946
24.45020,66539
24.45832,54320
24.46645,51240
24.47457,47478
24.48268,53822
24.49082,49697
24.49893,49640
24.50707,53557
24.51518,54989
24.52330,61304
24.53143,63991
24.53955,61349
24.54768,60098
24.55580,57031
24.56392,56110
24.57205,52861
24.58017,55936
24.58830,50625
24.59642,53516
24.60453,51414
24.61267,48113
24.62078,53965
24.62890,52819
24.63703,47606
24.64515,47162
24.65328,46049
24.66140,49648
24.66952,48608
24.67765,46211
24.68577,45844
24.69390,50974
24.70202,47145
24.71013,45256
24.71827,47132
24.72638,43711
24.73452,41617
24.74263,45483
24.75075,40497
24.75888,38486
24.76700,39632
24.77512,39829
24.78325,39297
24.79137,39314
24.79950,39909
24.80762,39041
24.81573,39310
24.82387,42187
24.83198,40526
24.84012,40079
24.84823,38305
24.85635,36333
24.86448,41744
24.87260,36462
24.88072,36343
24.88885,38901
24.89697,39880
24.90510,40244
24.91322,39225
24.92133,37596
24.92947,38047
24.93758,41382
24.94572,37450
24.95383,36875
24.96195,34739
24.97008,36887
24.97820,38727
24.98633,33694
24.99445,36632
25.00257,38458
25.01070,35365
25.01882,35607
25.02693,35926
25.03507,36798
25.04318,34225
25.05132,33613
25.05943,32298
25.06755,35602
25.07568,35446
25.08380,34814
25.09193,34358
25.10005,41390
25.10817,39059
25.11630,38474
25.12442,37581
25.13255,38876
25.14067,39783
25.14878,44461
25.15692,40394
25.16503,43973
25.17315,44237
25.18128,43934
25.18940,40311
25.19753,41804
25.20565,42257
25.21377,38671
25.22190,40344
25.23002,37723
25.23815,36865
25.24627,36242
25.25438,33860
25.26252,33125
25.27063,38951
25.27875,39269
25.28688,36857
25.29500,37753
25.30313,41192
25.31125,41538
25.31937,41187
25.32750,43187
25.33562,46157
25.34375,43900
25.35187,45655
25.35998,44271
25.36812,40285
25.37623,39514
25.38437,36957
25.39248,32742
25.40060,35403
25.40873,36417
25.41685,42173
25.42497,35080
25.43310,36092
25.44122,35324
25.44935,34841
25.45747,33337
25.46558,39492
25.47372,36493
25.48183,34975
25.48997,37730
25.49808,41736
25.50620,39774
25.51433,36686
25.52245,37141
25.53057,36107
25.53870,33452
25.54682,36450
25.55495,34527
25.56307,32039
25.57118,33499
25.57932,34471
25.58743,36170
25.59557,30720
25.60368,31000
25.61180,31107
25.61993,31978
25.62805,38686
25.63618,43583
25.64430,51607
25.65242,61500
25.66055,66729
25.66867,60662
25.67678,53714
25.68492,49786
25.69303,44350
25.70117,39448
25.70928,38485
25.71740,37596
25.72553,40003
25.73365,38070
25.74178,36988
25.74990,38431
25.75802,40947
25.76615,39120
25.77427,41664
25.78240,36575
25.79052,37312
25.79863,39304
25.80677,41305
25.81488,41586
25.82300,46074
25.83113,49665
25.83925,51159
25.84738,48638
25.85550,53054
25.86362,47791
25.87175,51631
25.87987,38488
25.88800,39341
25.89612,32450
25.90423,34801
25.91237,36071
25.92048,33443
25.92860,35595
25.93673,35977
25.94485,32459
25.95298,34632
25.96110,35608
25.96922,31306
25.97735,33772
25.98547,34276
25.99360,31070
26.00172,32299
26.00983,32527
26.01797,31815
26.02608,32320
26.03422,31062
26.04233,33145
26.05045,30722
26.05858,30899
26.06670,35160
26.07482,31516
26.08295,31940
26.09107,37522
26.09920,33838
26.10732,35128
26.11543,31698
26.12357,34970
26.13168,35202
26.13982,42644
26.14793,45601
26.15605,52601
26.16418,49153
26.17230,47623
26.18043,47434
26.18855,44406
26.19667,46828
26.20480,44028
26.21292,41118
26.22103,37558
26.22917,35054
26.23728,35740
26.24542,32641
26.25353,31200
26.26165,33191
26.26978,35278
26.27790,33731
26.28603,35578
26.29415,31805
26.30227,34039
26.31040,34308
26.31852,34185
26.32663,37017
26.33477,33754
26.34288,32448
26.35102,31641
26.35913,32054
26.36725,32841
26.37538,34198
26.38350,33430
26.39163,37227
26.39975,33332
26.40787,33099
26.41600,30725
26.42412,31310
26.43225,34174
26.44037,28063
26.44848,32432
26.45662,32822
26.46473,30667
26.47285,28340
26.48098,31510
26.48910,31458
26.49723,35382
26.50535,30263
26.51347,30391
26.52160,29410
26.52972,30227
26.53785,36323
26.54597,27133
26.55408,29542
26.56222,31952
26.57033,30649
26.57845,29226
26.58658,28514
26.59470,29033
26.60283,30799
26.61095,27008
26.61907,30682
26.62720,30203
26.63532,30959
26.64345,28078
26.65157,32247
26.65968,31198
26.66782,33946
26.67593,30587
26.68407,36798
26.69218,36012
26.70030,37702
26.70843,37798
26.71655,35263
26.72467,32418
26.73280,34392
26.74092,32741
26.74905,31992
26.75717,28185
26.76528,34581
26.77342,32128
26.78153,34596
26.78967,31253
26.79778,33354
26.80590,32851
26.81403,33393
26.82215,32935
26.83028,32804
26.83840,31880
26.84652,34768
26.85465,34135
26.86277,33424
26.87088,34650
26.87902,37998
26.88713,35979
26.89527,34633
26.90338,33291
26.91150,33334
26.91963,31420
26.92775,27588
26.93588,33158
26.94400,31588
26.95212,29969
26.96025,30196
26.96837,31625
26.97648,36251
26.98462,49603
26.99273,76840
27.00087,113025
27.00898,173869
27.01710,247387
27.02523,344659
27.03335,395992
27.04148,421240
27.04960,417805
27.05772,373799
27.06585,308199
27.07397,248860
27.08210,196433
27.09022,166318
27.09833,147827
27.10647,124921
27.11458,120500
27.12270,111001
27.13083,97570
27.13895,91486
27.14708,84819
27.15520,77459
27.16332,73803
27.17145,70483
27.17957,69794
27.18770,67983
27.19582,65328
27.20393,62600
27.21207,66812
27.22018,61180
27.22832,57810
27.23643,57557
27.24455,60476
27.25268,55923
27.26080,52331
27.26892,51639
27.27705,48968
27.28517,51249
27.29330,48590
27.30142,49892
27.30953,51968
27.31767,48650
27.32578,45682
27.33392,46447
27.34203,46935
27.35015,42670
27.35828,44809
27.36640,45648
27.37452,46303
27.38265,47629
27.39077,47828
27.39890,50184
27.40702,45873
27.41513,45465
27.42327,44485
27.43138,44041
27.43952,41999
27.44763,41712
27.45575,41356
27.46388,39468
27.47200,35944
27.48013,34996
27.48825,39306
27.49637,43321
27.50450,41683
27.51262,40032
27.52073,39025
27.52887,40712
27.53698,42042
27.54512,41284
27.55323,38408
27.56135,39712
27.56948,37295
27.57760,39277
27.58573,40039
27.59385,41609
27.60197,38123
27.61010,36527
27.61822,38510
27.62633,38287
27.63447,39756
27.64258,37193
27.65072,39285
27.65883,37374
27.66695,36558
27.67508,34317
27.68320,36403
27.69133,42970
27.69945,35416
27.70757,35063
27.71570,38495
27.72382,33675
27.73195,35893
27.74007,37383
27.74818,34327
27.75632,36191
27.76443,38985
27.77255,35582
27.78068,34468
27.78880,36895
27.79693,35924
27.80505,38957
27.81317,32720
27.82130,37384
27.82942,37953
27.83755,40873
27.84567,37392
27.85378,36362
27.86192,35360
27.87003,37801
27.87817,41780
27.88628,34103
27.89440,33593
27.90253,35430
27.91065,35870
27.91877,30594
27.92690,35327
27.93502,34637
27.94315,31593
27.95127,36071
27.95938,32423
27.96752,31942
27.97563,32998
27.98377,30752
27.99188,34621
28.00000,36973
28.00813,37989
28.01625,33288
28.02438,34815
28.03250,32810
28.04062,34144
28.04875,37323
28.05687,29700
28.06498,35360
28.07312,34292
28.08123,34562
28.08937,32082
28.09748,35096
28.10560,37520
28.11373,28964
28.12185,34864
28.12998,30840
28.13810,32573
28.14622,32977
28.15435,34701
28.16247,36386
28.17058,35795
28.17872,32755
28.18683,41015
28.19497,39429
28.20308,45740
28.21120,55608
28.21933,64935
28.22745,82686
28.23558,83026
28.24370,85627
28.25182,71464
28.25995,65052
28.26807,60989
28.27620,47823
28.28432,44027
28.29243,45514
28.30057,41830
28.30868,40389
28.31680,42087
28.32493,40385
28.33305,46781
28.34118,56681
28.34930,67111
28.35742,75877
28.36555,83250
28.37367,102987
28.38180,106831
28.38992,114712
28.39803,113902
28.40617,121955
28.41428,116471
28.42240,111063
28.43053,101671
28.43865,95325
28.44678,79623
28.45490,81545
28.46302,79384
28.47115,72017
28.47927,72522
28.48740,59530
28.49552,63539
28.50363,62587
28.51177,56619
28.51988,56419
28.52802,50885
28.53613,48599
28.54425,51374
28.55238,53767
28.56050,49420
28.56862,52516
28.57675,48587
28.58487,47961
28.59300,44989
28.60112,46525
28.60923,47353
28.61737,44768
28.62548,47440
28.63362,57644
28.64173,65570
28.64985,74104
28.65798,81322
28.66610,91991
28.67423,89444
28.68235,89679
28.69047,86231
28.69860,72447
28.70672,62361
28.71483,56383
28.72297,50195
28.73108,46928
28.73922,46911
28.74733,42408
28.75545,46349
28.76358,44710
28.77170,45712
28.77983,50463
28.78795,54205
28.79607,54115
28.80420,55869
28.81232,51740
28.82043,46150
28.82857,44495
28.83668,38568
28.84482,36791
28.85293,35816
28.86105,43205
28.86918,40048
28.87730,37223
28.88543,36762
28.89355,38271
28.90167,36443
28.90980,35669
28.91792,41179
28.92605,37957
28.93417,37940
28.94228,43654
28.95042,41349
28.95853,42724
28.96665,49992
28.97478,48509
28.98290,49568
28.99103,46635
28.99915,50808
29.00727,45363
29.01540,41426
29.02352,37035
29.03165,36814
29.03977,36596
29.04788,35649
29.05602,38876
29.06413,38615
29.07227,35890
29.08038,32896
29.08850,38482
29.09663,35724
29.10475,37157
29.11287,36438
29.12100,36528
29.12912,38918
29.13725,37483
29.14537,38898
29.15348,36980
29.16162,36434
29.16973,36197
29.17787,42496
29.18598,39083
29.19410,36548
29.20223,38859
29.21035,39863
29.21847,41406
29.22660,40458
29.23472,40103
29.24285,38362
29.25097,37314
29.25908,40061
29.26722,46297
29.27533,39965
29.28347,37939
29.29158,39965
29.29970,35895
29.30783,39263
29.31595,37024
29.32408,33644
29.33220,35203
29.34032,37247
29.34845,37722
29.35657,35633
29.36468,42762
29.37282,35608
29.38093,39180
29.38907,46930
29.39718,39770
29.40530,44619
29.41343,49330
29.42155,54934
29.42968,56772
29.43780,63872
29.44592,60367
29.45405,53964
29.46217,49778
29.47028,43630
29.47842,43403
29.48653,44152
29.49467,43055
29.50278,43363
29.51090,46191
29.51903,43991
29.52715,41484
29.53528,41328
29.54340,38403
29.55152,39759
29.55965,37884
29.56777,32895
29.57590,34675
29.58402,35436
29.59213,33494
29.60027,33918
29.60838,37671
29.61650,35628
29.62463,43741
29.63275,38737
29.64088,34724
29.64900,33658
29.65712,35017
29.66525,38794
29.67337,36328
29.68150,33566
29.68962,35347
29.69773,37612
29.70587,37310
29.71398,32827
29.72212,32325
29.73023,35051
29.73835,36656
29.74648,38692
29.75460,35704
29.76272,34887
29.77085,33667
29.77897,31526
29.78710,32319
29.79522,35140
29.80333,36363
29.81147,34620
29.81958,32686
29.82772,31945
29.83583,33644
29.84395,36511
29.85208,38871
29.86020,45033
29.86832,79777
29.87645,157258
29.88457,324450
29.89270,610501
29.90082,953287
29.90893,1144341
29.91707,1185927
29.92518,1014357
29.93332,747167
29.94143,454435
29.94955,263123
29.95768,145301
29.96580,105649
29.97393,91644
29.98205,77855
29.99017,79145
29.99830,81051
30.00642,83763
30.01453,90467
30.02267,94719
30.03078,97658
30.03892,99556
30.04703,104081
30.05515,100981
30.06328,103629
30.07140,103698
30.07953,102337
30.08765,95485
30.09577,92595
30.10390,93370
30.11202,94336
30.12015,85653
30.12827,80236
30.13638,83677
30.14452,72267
30.15263,70222
30.16075,73030
30.16888,71349
30.17700,65432
30.18513,66949
30.19325,58569
30.20137,61011
30.20950,57503
30.21762,56933
30.22575,54034
30.23387,57162
30.24198,51463
30.25012,56109
30.25823,54854
30.26635,49230
30.27448,48103
30.28260,49694
30.29073,48607
30.29885,45309
30.30697,50368
30.31510,46683
30.32322,51261
30.33135,45782
30.33947,43342
30.34758,45479
30.35572,47036
30.36383,39497
30.37197,43515
30.38008,49645
30.38820,45905
30.39633,43144
30.40445,44567
30.41257,41001
30.42070,42660
30.42882,40356
30.43695,40031
30.44507,37020
30.45318,39875
30.46132,39755
30.46943,44143
30.47757,42853
30.48568,43578
30.49380,36229
30.50193,39532
30.51005,41032
30.51818,40546
30.52630,38503
30.53442,38757
30.54255,38977
30.55067,37390
30.55878,41579
30.56692,40315
30.57503,36378
30.58317,36079
30.59128,40431
30.59940,36403
30.60753,32634
30.61565,37722
30.62378,39860
30.63190,36075
30.64002,37398
30.64815,36412
30.65627,32669
30.66438,38233
30.67252,34596
30.68063,36633
30.68877,35533
30.69688,37631
30.70500,42393
30.71313,33387
30.72125,36901
30.72938,37713
30.73750,36125
30.74562,39812
30.75375,38326
30.76187,39152
30.77000,48257
30.77812,76445
30.78623,122644
30.79437,221649
30.80248,356640
30.81060,540208
30.81873,690272
30.82685,708008
30.83498,602597
30.84310,453119
30.85122,283175
30.85935,175350
30.86747,120153
30.87560,85730
30.88372,69775
30.89183,65042
30.89997,57943
30.90808,54714
30.91620,56399
30.92433,55280
30.93245,51257
30.94058,55517
30.94870,55914
30.95682,49342
30.96495,54286
30.97307,46383
30.98120,45815
30.98932,46890
30.99743,48483
31.00557,45757
31.01368,51715
31.02182,55316
31.02993,55632
31.03805,57598
31.04618,55211
31.05430,53731
31.06242,53597
31.07055,55704
31.07867,65451
31.08680,74683
31.09492,94876
31.10303,134266
31.11117,161206
31.11928,173297
31.12742,171138
31.13553,145293
31.14365,117592
31.15178,89760
31.15990,66154
31.16803,55807
31.17615,53189
31.18427,51777
31.19240,58171
31.20052,57617
31.20863,63907
31.21677,73137
31.22488,76870
31.23302,87746
31.24113,83674
31.24925,70625
31.25738,64809
31.26550,56546
31.27363,50020
31.28175,50926
31.28987,42518
31.29800,46979
31.30612,43629
31.31423,43054
31.32237,38678
31.33048,38004
31.33862,41593
31.34673,40914
31.35485,42230
31.36298,41751
31.37110,50219
31.37923,50576
31.38735,57833
31.39547,57997
31.40360,60700
31.41172,56382
31.41985,54990
31.42797,47915
31.43608,49757
31.44422,49204
31.45233,44957
31.46045,47813
31.46858,47241
31.47670,41378
31.48483,45571
31.49295,40172
31.50107,38770
31.50920,39418
31.51732,42915
31.52545,40149
31.53357,38628
31.54168,37060
31.54982,43285
31.55793,41725
31.56607,35666
31.57418,36146
31.58230,35252
31.59043,38033
31.59855,39003
31.60667,39959
31.61480,40716
31.62292,42532
31.63105,40543
31.63917,37507
31.64728,36807
31.65542,37184
31.66353,40637
31.67167,41117
31.67978,37320
31.68790,37681
31.69603,39096
31.70415,38102
31.71227,42020
31.72040,37389
31.72852,35476
31.73665,34924
31.74477,39770
31.75288,37677
31.76102,36092
31.76913,38854
31.77727,35398
31.78538,35098
31.79350,38454
31.80163,41726
31.80975,37136
31.81788,37951
31.82600,37983
31.83412,41046
31.84225,41337
31.85037,48283
31.85848,42980
31.86662,44129
31.87473,47709
31.88287,43676
31.89098,46140
31.89910,42879
31.90723,44985
31.91535,51271
31.92348,54092
31.93160,56701
31.93972,66018
31.94785,61842
31.95597,70291
31.96408,73063
31.97222,77928
31.98033,88502
31.98847,82361
31.99658,88254
32.00470,89216
32.01283,81403
32.02095,91945
32.02908,85616
32.03720,77856
32.04532,74599
32.05345,68687
32.06157,69702
32.06970,67228
32.07782,60778
32.08593,61804
32.09407,57785
32.10218,60284
32.11030,61568
32.11843,58840
32.12655,53716
32.13468,47657
32.14280,48007
32.15092,48018
32.15905,45549
32.16717,49908
32.17530,46069
32.18342,51275
32.19153,47508
32.19967,43489
32.20778,42498
32.21592,40953
32.22403,42364
32.23215,42422
32.24028,45688
32.24840,41674
32.25652,42670
32.26465,42777
32.27277,45690
32.28090,49062
32.28902,45604
32.29713,40958
32.30527,45077
32.31338,42224
32.32152,42230
32.32963,44816
32.33775,50316
32.34588,52548
32.35400,53579
32.36213,52769
32.37025,64397
32.37837,55154
32.38650,54434
32.39462,52784
32.40273,45973
32.41087,45252
32.41898,38674
32.42712,42020
32.43523,42326
32.44335,39070
32.45148,42354
32.45960,41432
32.46773,40234
32.47585,42648
32.48397,39380
32.49210,43639
32.50022,38214
32.50833,41483
32.51647,41186
32.52458,38245
32.53272,42681
32.54083,40571
32.54895,35678
32.55708,40102
32.56520,43211
32.57333,40639
32.58145,39150
32.58957,40881
32.59770,38085
32.60582,36263
32.61395,40292
32.62207,40920
32.63018,39658
32.63832,39770
32.64643,36620
32.65455,42503
32.66268,40611
32.67080,42987
32.67893,45565
32.68705,51323
32.69517,48609
32.70330,53496
32.71142,48507
32.71955,44729
32.72767,42730
32.73578,43868
32.74392,41765
32.75203,39753
32.76015,38473
32.76828,37207
32.77640,36772
32.78453,35513
32.79265,36243
32.80077,36963
32.80890,35139
32.81702,34719
32.82515,37500
32.83327,39157
32.84138,36890
32.84952,34514
32.85763,38391
32.86577,40153
32.87388,40181
32.88200,37614
32.89013,36190
32.89825,42546
32.90637,40654
32.91450,38292
32.92262,39012
32.93075,36056
32.93887,35929
32.94698,38780
32.95512,35276
32.96323,38607
32.97137,38090
32.97948,41230
32.98760,37232
32.99573,36275
33.00385,38291
33.01197,38830
33.02010,40891
33.02822,38521
33.03635,36492
33.04447,34580
33.05258,37776
33.06072,35827
33.06883,37393
33.07697,41196
33.08508,53116
33.09320,75781
33.10133,122989
33.10945,223306
33.11758,354792
33.12570,484131
33.13382,545699
33.14195,488183
33.15007,367091
33.15818,233807
33.16632,139007
33.17443,85854
33.18257,64474
33.19068,53425
33.19880,52750
33.20693,49176
33.21505,45839
33.22318,48730
33.23130,50177
33.23942,49018
33.24755,43703
33.25567,44299
33.26380,42900
33.27192,42825
33.28003,43194
33.28817,44400
33.29628,43094
33.30440,40214
33.31253,44313
33.32065,41478
33.32878,43896
33.33690,41181
33.34502,40309
33.35315,41590
33.36127,38916
33.36940,38493
33.37752,38700
33.38563,41695
33.39377,41305
33.40188,42392
33.41002,39008
33.41813,39033
33.42625,46504
33.43438,39558
33.44250,38960
33.45062,40297
33.45875,40081
33.46687,39699
33.47500,38596
33.48312,40616
33.49123,38011
33.49937,38182
33.50748,38247
33.51562,33362
33.52373,36591
33.53185,40655
33.53998,40605
33.54810,39147
33.55622,37622
33.56435,40501
33.57247,38870
33.58060,38173
33.58872,35220
33.59683,39588
33.60497,38274
33.61308,39159
33.62122,48178
33.62933,40456
33.63745,42984
33.64558,42370
33.65370,43585
33.66183,45453
33.66995,37899
33.67807,38383
33.68620,39806
33.69432,43540
33.70243,38189
33.71057,42665
33.71868,40533
33.72682,35367
33.73493,34305
33.74305,39667
33.75118,39587
33.75930,37580
33.76743,41313
33.77555,38970
33.78367,37443
33.79180,43132
33.79992,43273
33.80803,38442
33.81617,40965
33.82428,42148
33.83242,38019
33.84053,40316
33.84865,41054
33.85678,46189
33.86490,44778
33.87303,45771
33.88115,40390
33.88927,40820
33.89740,43235
33.90552,38341
33.91365,41473
33.92177,43251
33.92988,40606
33.93802,44078
33.94613,39588
33.95425,37706
33.96238,41772
33.97050,47428
33.97863,38116
33.98675,41856
33.99487,39951
34.00300,45593
34.01112,39076
34.01925,39168
34.02737,41399
34.03548,42497
34.04362,40639
34.05173,42699
34.05987,36747
34.06798,41989
34.07610,41223
34.08423,39857
34.09235,40397
34.10047,39437
34.10860,44439
34.11672,41162
34.12485,38772
34.13297,38411
34.14108,38941
34.14922,38062
34.15733,41617
34.16547,43745
34.17358,40725
34.18170,40164
34.18983,40334
34.19795,41332
34.20607,39935
34.21420,40039
34.22232,39798
34.23045,41938
34.23857,40957
34.24668,45186
34.25482,45399
34.26293,45848
34.27107,49446
34.27918,47718
34.28730,54326
34.29543,46705
34.30355,46784
34.31168,44997
34.31980,40883
34.32792,44632
34.33605,40181
34.34417,41147
34.35228,42797
34.36042,40971
34.36853,39346
34.37667,44169
34.38478,43446
34.39290,44662
34.40103,39204
34.40915,43076
34.41728,43155
34.42540,40366
34.43352,44573
34.44165,43860
34.44977,38904
34.45790,40981
34.46602,40217
34.47413,38380
34.48227,40592
34.49038,42695
34.49850,39256
34.50663,41950
34.51475,40684
34.52288,44946
34.53100,47686
34.53912,52625
34.54725,57177
34.55537,64015
34.56350,75590
34.57162,76677
34.57973,75943
34.58787,72743
34.59598,71628
34.60410,70294
34.61223,62673
34.62035,62667
34.62848,58802
34.63660,53639
34.64472,53061
34.65285,52799
34.66097,52125
34.66910,50808
34.67722,53580
34.68533,43928
34.69347,51819
34.70158,44908
34.70972,48416
34.71783,46498
34.72595,46337
34.73408,50552
34.74220,46874
34.75032,47164
34.75845,48061
34.76657,42542
34.77470,42587
34.78282,43734
34.79093,45924
34.79907,42592
34.80718,46644
34.81532,44975
34.82343,40282
34.83155,46509
34.83968,45151
34.84780,43851
34.85592,39103
34.86405,40344
34.87217,38997
34.88030,40669
34.88842,39944
34.89653,39498
34.90467,41843
34.91278,39282
34.92092,47250
34.92903,43955
34.93715,47464
34.94528,55162
34.95340,83473
34.96153,120115
34.96965,179479
34.97777,255010
34.98590,318904
34.99402,334409
35.00213,286721
35.01027,202154
35.01838,134976
35.02652,94003
35.03463,77795
35.04275,63976
35.05088,59934
35.05900,57642
35.06713,57838
35.07525,54932
35.08337,52955
35.09150,54858
35.09962,53354
35.10775,54635
35.11587,56878
35.12398,56347
35.13212,49915
35.14023,51972
35.14835,46735
35.15648,53029
35.16460,52693
35.17273,51233
35.18085,51292
35.18897,51378
35.19710,47094
35.20522,54211
35.21335,53791
35.22147,51068
35.22958,49554
35.23772,49344
35.24583,48991
35.25395,53130
35.26208,54426
35.27020,55536
35.27833,52147
35.28645,56266
35.29457,49553
35.30270,53226
35.31082,50375
35.31895,47561
35.32707,45183
35.33518,46151
35.34332,48592
35.35143,43197
35.35957,44321
35.36768,42788
35.37580,46125
35.38393,46376
35.39205,43134
35.40017,43746
35.40830,49103
35.41642,42896
35.42455,44112
35.43267,45030
35.44078,44906
35.44892,48546
35.45703,51441
35.46517,49641
35.47328,49461
35.48140,48857
35.48953,50919
35.49765,52483
35.50578,49186
35.51390,48041
35.52202,44038
35.53015,47609
35.53827,47645
35.54638,43360
35.55452,47202
35.56263,45060
35.57077,50331
35.57888,47560
35.58700,50107
35.59513,54957
35.60325,49347
35.61138,53590
35.61950,59157
35.62762,45466
35.63575,49528
35.64387,43149
35.65198,46873
35.66012,50466
35.66823,46696
35.67637,47264
35.68448,46900
35.69260,47604
35.70073,47041
35.70885,50678
35.71698,46257
35.72510,47046
35.73322,48254
35.74135,42643
35.74947,49650
35.75760,44137
35.76572,46425
35.77383,49323
35.78197,48624
35.79008,50035
35.79820,47944
35.80633,44156
35.81445,45804
35.82258,45614
35.83070,46029
35.83882,48713
35.84695,47911
35.85507,46893
35.86320,46076
35.87132,44000
35.87943,47167
35.88757,49758
35.89568,45597
35.90382,43880
35.91193,48691
35.92005,45614
35.92818,40588
35.93630,43827
35.94442,47565
35.95255,43655
35.96067,41840
35.96880,47754
35.97692,44201
35.98503,46952
35.99317,43481
36.00128,44269
36.00942,46424
36.01753,45890
36.02565,50961
36.03378,55693
36.04190,48609
36.05002,46797
36.05815,48314
36.06627,46871
36.07440,45797
36.08252,46683
36.09063,42585
36.09877,44654
36.10688,44909
36.11502,47938
36.12313,46094
36.13125,47359
36.13938,45379
36.14750,46783
36.15563,44422
36.16375,46034
36.17187,48205
36.18000,45931
36.18812,45778
36.19623,42459
36.20437,50995
36.21248,43274
36.22062,43540
36.22873,45012
36.23685,46603
36.24498,43339
36.25310,41686
36.26123,42794
36.26935,45952
36.27747,42348
36.28560,46227
36.29372,42448
36.30183,47539
36.30997,47094
36.31808,47397
36.32622,51097
36.33433,57017
36.34245,57964
36.35058,51305
36.35870,49474
36.36683,44032
36.37495,47283
36.38307,47617
36.39120,49603
36.39932,45894
36.40745,49878
36.41557,50165
36.42368,49064
36.43182,47352
36.43993,45742
36.44805,46422
36.45618,44492
36.46430,42451
36.47243,43192
36.48055,46774
36.48867,42388
36.49680,42886
36.50492,46187
36.51305,43773
36.52117,45926
36.52928,45666
36.53742,43790
36.54553,42055
36.55367,46544
36.56178,43728
36.56990,46180
36.57803,44645
36.58615,47101
36.59427,45660
36.60240,44263
36.61052,39758
36.61865,41456
36.62677,43292
36.63488,50466
36.64302,48066
36.65113,44949
36.65927,46613
36.66738,48037
36.67550,47538
36.68363,45922
36.69175,48184
36.69987,52743
36.70800,51005
36.71612,51857
36.72425,48174
36.73237,45831
36.74048,48415
36.74862,43480
36.75673,47332
36.76487,47756
36.77298,48951
36.78110,48372
36.78923,47144
36.79735,46642
36.80548,45782
36.81360,44349
36.82172,46588
36.82985,44654
36.83797,44927
36.84608,54717
36.85422,45591
36.86233,48555
36.87047,45791
36.87858,49474
36.88670,51399
36.89483,45005
36.90295,47925
36.91108,44279
36.91920,46351
36.92732,44750
36.93545,46016
36.94357,48759
36.95170,47595
36.95982,44905
36.96793,52546
36.97607,45876
36.98418,46561
36.99230,47460
37.00043,44379
37.00855,42896
37.01668,45746
37.02480,44705
37.03292,46773
37.04105,46831
37.04917,46560
37.05730,45842
37.06542,48987
37.07353,48437
37.08167,52464
37.08978,43642
37.09790,51041
37.10603,44829
37.11415,47040
37.12228,50181
37.13040,49187
37.13852,51969
37.14665,45423
37.15477,49862
37.16290,49577
37.17102,49385
37.17913,45504
37.18727,47970
37.19538,51471
37.20352,50029
37.21163,54194
37.21975,49741
37.22788,55039
37.23600,48940
37.24412,52490
37.25225,53083
37.26037,51375
37.26850,50263
37.27662,49359
37.28473,51381
37.29287,49229
37.30098,51373
37.30912,47567
37.31723,52795
37.32535,53426
37.33348,52965
37.34160,51151
37.34972,59057
37.35785,60439
37.36597,67238
37.37410,63752
37.38222,66826
37.39033,72136
37.39847,65558
37.40658,59890
37.41472,59212
37.42283,62888
37.43095,55356
37.43908,56877
37.44720,55191
37.45533,56091
37.46345,56283
37.47157,55764
37.47970,54709
37.48782,52987
